1434668097.601,0.0
1434668097.617,0.0
1434668097.632,0.0
1434668097.648,0.0
1434668097.664,0.0
1434668097.679,0.0
1434668097.695,0.0
1434668097.711,0.0
1434668097.726,0.0
1434668097.742,4.7967528E-4
1434668097.757,-0.0074859215
1434668097.773,-0.014439838
1434668097.789,-0.012288268
1434668097.804,0.005488147
1434668097.82,0.036062147
1434668097.836,0.062009532
1434668097.851,0.05389263
1434668097.867,-0.018299412
1434668097.882,-0.169615
1434668097.898,-0.40032244
1434668097.914,-0.6706725
1434668097.929,-0.9351859
1434668097.945,-1.1614784
1434668097.961,-1.3499076
1434668097.976,-1.5372162
1434668097.992,-1.7804438
1434668098.007,-2.128717
1434668098.023,-2.5967803
1434668098.039,-3.1805115
1434668098.054,-3.801323
1434668098.07,-4.380101
1434668098.086,-4.862273
1434668098.101,-5.2475286
1434668098.117,-5.5958843
1434668098.132,-6.003447
1434668098.148,-6.5568285
1434668098.164,-7.2843933
1434668098.179,-8.203317
1434668098.195,-9.150037
1434668098.211,-9.960054
1434668098.226,-10.520557
1434668098.242,-10.849286
1434668098.257,-11.119633
1434668098.273,-11.605145
1434668098.289,-12.559707
1434668098.304,-14.085337
1434668098.32,-16.208693
1434668098.336,-18.539558
1434668098.351,-20.668924
1434668098.367,-22.311655
1434668098.382,-23.489868
1434668098.398,-24.581108
1434668098.414,-26.180504
1434668098.429,-28.82698
1434668098.445,-32.718987
1434668098.461,-37.81243
1434668098.476,-43.314163
1434668098.492,-48.39273
1434668098.507,-52.47982
1434668098.523,-55.59451
1434668098.539,-58.39926
1434668098.554,-61.925396
1434668098.57,-67.08193
1434668098.586,-74.17805
1434668098.601,-83.026886
1434668098.617,-92.352776
1434668098.632,-100.83028
1434668098.648,-107.580574
1434668098.664,-112.630325
1434668098.679,-116.94789
1434668098.695,-122.007416
1434668098.711,-129.16193
1434668098.726,-137.20866
1434668098.742,-147.49046
1434668098.757,-159.78154
1434668098.773,-173.52661
1434668098.789,-187.10724
1434668098.804,-197.43433
1434668098.82,-200.40332
1434668098.836,-192.38445
1434668098.851,-172.07062
1434668098.867,-141.47656
1434668098.882,-105.5545
1434668098.898,-69.16995
1434668098.914,-35.086792
1434668098.929,-2.579071
1434668098.945,31.74704
1434668098.961,71.58914
1434668098.976,118.558075
1434668098.992,171.22318
1434668099.008,226.03171
1434668099.023,279.01138
1434668099.039,327.97195
1434668099.054,372.37302
1434668099.07,412.3981
1434668099.086,447.5844
1434668099.101,476.14456
1434668099.117,495.40448
1434668099.132,502.85733
1434668099.148,497.32806
1434668099.164,479.21313
1434668099.179,450.51508
1434668099.195,413.88455
1434668099.211,371.79764
1434668099.226,326.0461
1434668099.242,277.75143
1434668099.258,227.66876
1434668099.273,176.63568
1434668099.289,125.897156
1434668099.304,77.03119
1434668099.32,31.842255
1434668099.336,-8.201233
1434668099.351,-42.320435
1434668099.367,-70.54257
1434668099.383,-93.533264
1434668099.398,-112.24176
1434668099.414,-127.51735
1434668099.429,-139.85176
1434668099.445,-149.39056
1434668099.461,-156.02513
1434668099.476,-159.68083
1434668099.492,-160.51576
1434668099.508,-158.97151
1434668099.523,-155.68094
1434668099.539,-151.30016
1434668099.554,-146.33752
1434668099.57,-141.06262
1434668099.586,-135.53233
1434668099.601,-129.68112
1434668099.617,-123.443146
1434668099.633,-116.84115
1434668099.648,-110.00271
1434668099.664,-103.106415
1434668099.679,-96.33078
1434668099.695,-89.78923
1434668099.711,-83.520004
1434668099.726,-77.50802
1434668099.742,-71.71362
1434668099.758,-66.1155
1434668099.773,-60.7117
1434668099.789,-55.529243
1434668099.804,-50.592125
1434668099.82,-45.92357
1434668099.836,-41.529343
1434668099.851,-37.408596
1434668099.867,-33.54642
1434668099.883,-29.934917
1434668099.898,-26.577473
1434668099.914,-23.464077
1434668099.929,-20.600456
1434668099.945,-17.982815
1434668099.961,-15.611612
1434668099.976,-13.477068
1434668099.992,-11.568788
1434668100.008,-9.866106
1434668100.023,-8.352749
1434668100.039,-7.012744
1434668100.054,-5.831683
1434668100.07,-4.808923
1434668100.086,-3.9418526
1434668100.101,-3.226615
1434668100.117,-2.6423235
1434668100.133,-2.1707444
1434668100.148,-1.7786441
1434668100.164,-1.4388213
1434668100.179,-1.1343586
1434668100.195,-0.8580191
1434668100.211,-0.6202314
1434668100.226,-0.42801476
1434668100.242,-0.29858708
1434668100.258,-0.21728706
1434668100.273,-0.16728926
1434668100.289,-0.11557841
1434668100.304,-0.027709961
1434668100.32,0.11132574
1434668100.336,0.2928939
1434668100.351,0.4864906
1434668100.367,0.6450839
1434668100.383,0.73077774
1434668100.398,0.7419423
1434668100.414,0.71874535
1434668100.429,0.7338302
1434668100.445,0.8604255
1434668100.461,1.1324592
1434668100.476,1.5211844
1434668100.492,1.9387718
1434668100.508,2.2689438
1434668100.523,2.4232254
1434668100.539,2.4006486
1434668100.554,2.291391
1434668100.57,2.2628672
1434668100.586,2.4702153
1434668100.601,2.9920034
1434668100.617,3.766902
1434668100.633,4.621167
1434668100.648,5.3259177
1434668100.664,5.701207
1434668100.679,5.7317276
1434668100.695,5.5638747
1434668100.711,5.4714956
1434668100.726,5.7282767
1434668100.742,6.4821224
1434668100.758,7.660898
1434668100.773,9.006336
1434668100.789,10.190249
1434668100.804,10.9650955
1434668100.82,11.228817
1434668100.836,11.1209
1434668100.851,10.888177
1434668100.867,10.844928
1434668100.883,11.285056
1434668100.898,12.482497
1434668100.914,14.574395
1434668100.929,17.373941
1434668100.945,20.20092
1434668100.961,21.863647
1434668100.976,21.031345
1434668100.992,16.81465
1434668101.008,9.322386
1434668101.023,-0.16418076
1434668101.039,-9.636599
1434668101.054,-17.115393
1434668101.07,-21.43792
1434668101.086,-22.632627
1434668101.101,-21.679657
1434668101.117,-19.832369
1434668101.133,-18.086475
1434668101.148,-16.77911
1434668101.164,-15.7378025
1434668101.179,-14.6446705
1434668101.195,-13.305498
1434668101.211,-11.764118
1434668101.226,-10.145285
1434668101.242,-8.517
1434668101.258,-6.9128304
1434668101.273,-5.45203
1434668101.289,-4.47678
1434668101.304,-4.4604454
1434668101.32,-5.8849335
1434668101.336,-8.825184
1434668101.351,-12.863026
1434668101.367,-17.06419
1434668101.383,-20.349438
1434668101.398,-21.866936
1434668101.414,-21.296703
1434668101.429,-18.933586
1434668101.445,-15.473457
1434668101.461,-11.717049
1434668101.476,-8.259087
1434668101.492,-5.3525696
1434668101.508,-2.9913177
1434668101.523,-1.0125885
1434668101.539,0.68932724
1434668101.554,2.1607056
1434668101.57,3.3306732
1434668101.586,4.133335
1434668101.601,4.462284
1434668101.617,4.3830147
1434668101.633,4.0059204
1434668101.648,3.5600433
1434668101.664,3.289795
1434668101.679,3.3770561
1434668101.695,3.8987808
1434668101.711,4.7740517
1434668101.726,5.8156548
1434668101.742,6.8158836
1434668101.758,7.5993347
1434668101.773,8.116562
1434668101.789,8.37619
1434668101.804,8.481209
1434668101.82,8.517628
1434668101.836,8.591808
1434668101.851,8.82946
1434668101.867,9.373447
1434668101.883,10.2562065
1434668101.898,11.302273
1434668101.914,12.003368
1434668101.93,11.692223
1434668101.945,9.808205
1434668101.961,6.1970634
1434668101.976,1.3199387
1434668101.992,-3.8610191
1434668102.008,-8.281296
1434668102.023,-11.142544
1434668102.039,-12.234489
1434668102.055,-11.87442
1434668102.07,-10.730335
1434668102.086,-9.439842
1434668102.101,-8.501251
1434668102.117,-8.122845
1434668102.133,-8.322853
1434668102.148,-9.016758
1434668102.164,-10.063141
1434668102.18,-11.293499
1434668102.195,-12.600662
1434668102.211,-13.904945
1434668102.226,-15.188887
1434668102.242,-16.458921
1434668102.258,-17.69972
1434668102.273,-18.82078
1434668102.289,-19.678535
1434668102.305,-20.083979
1434668102.32,-19.96621
1434668102.336,-19.336042
1434668102.351,-18.360886
1434668102.367,-17.186579
1434668102.383,-15.920532
1434668102.398,-14.492834
1434668102.414,-12.76248
1434668102.43,-10.563644
1434668102.445,-7.8427925
1434668102.461,-4.5669365
1434668102.476,-0.8594818
1434668102.492,3.1151276
1434668102.508,7.1800747
1434668102.523,11.16144
1434668102.539,14.73114
1434668102.555,17.464682
1434668102.57,18.80606
1434668102.586,18.375221
1434668102.601,16.123302
1434668102.617,12.515913
1434668102.633,8.417223
1434668102.648,4.849125
1434668102.664,2.5752888
1434668102.68,1.9063807
1434668102.695,2.6175613
1434668102.711,4.1652365
1434668102.726,5.962331
1434668102.742,7.577682
1434668102.758,8.794319
1434668102.773,9.576662
1434668102.789,9.918663
1434668102.805,9.842649
1434668102.82,9.36941
1434668102.836,8.646218
1434668102.851,7.8609743
1434668102.867,7.2234926
1434668102.883,6.8449965
1434668102.898,6.6803026
1434668102.914,6.548568
1434668102.93,6.241719
1434668102.945,5.678768
1434668102.961,4.9418406
1434668102.976,4.2938232
1434668102.992,3.9991488
1434668103.008,4.190933
1434668103.023,4.7945833
1434668103.039,5.536495
1434668103.055,6.106837
1434668103.07,6.2482543
1434668103.086,5.94101
1434668103.101,5.3171864
1434668103.117,4.6793156
1434668103.133,4.3310237
1434668103.148,4.533391
1434668103.164,5.3544207
1434668103.18,6.6388464
1434668103.195,7.914008
1434668103.211,8.460262
1434668103.226,7.5274563
1434668103.242,4.631506
1434668103.258,-0.17551422
1434668103.273,-6.1428933
1434668103.289,-12.059504
1434668103.305,-16.636688
1434668103.32,-19.011908
1434668103.336,-19.020327
1434668103.351,-17.186989
1434668103.367,-14.383146
1434668103.383,-11.446794
1434668103.398,-8.832684
1434668103.414,-6.6231937
1434668103.43,-4.612833
1434668103.445,-2.53478
1434668103.461,-0.28542423
1434668103.476,2.1288757
1434668103.492,4.613869
1434668103.508,7.0172415
1434668103.523,9.163813
1434668103.539,10.848854
1434668103.555,11.904181
1434668103.57,12.203969
1434668103.586,11.765261
1434668103.601,10.806217
1434668103.617,9.736344
1434668103.633,9.027922
1434668103.648,9.077254
1434668103.664,10.064502
1434668103.68,11.914594
1434668103.695,14.337814
1434668103.711,16.974373
1434668103.726,19.450216
1434668103.742,21.552113
1434668103.758,23.230473
1434668103.773,24.640034
1434668103.789,26.099667
1434668103.805,27.98387
1434668103.82,30.589613
1434668103.836,33.882835
1434668103.851,37.33044
1434668103.867,39.940914
1434668103.883,40.51625
1434668103.898,38.091515
1434668103.914,32.342598
1434668103.93,23.78226
1434668103.945,13.597031
1434668103.961,3.287243
1434668103.976,-5.8584023
1434668103.992,-13.037796
1434668104.008,-18.041725
1434668104.023,-21.09027
1434668104.039,-22.617104
1434668104.055,-23.037914
1434668104.07,-22.673695
1434668104.086,-21.727905
1434668104.101,-20.333181
1434668104.117,-18.571795
1434668104.133,-16.556446
1434668104.148,-14.454971
1434668104.164,-12.486687
1434668104.18,-10.917114
1434668104.195,-9.968807
1434668104.211,-9.723446
1434668104.226,-10.142437
1434668104.242,-10.996922
1434668104.258,-12.020119
1434668104.273,-12.939735
1434668104.289,-13.534138
1434668104.305,-13.633789
1434668104.32,-13.1355095
1434668104.336,-11.969044
1434668104.351,-10.15773
1434668104.367,-7.8269844
1434668104.383,-5.1603737
1434668104.398,-2.376007
1434668104.414,0.38241196
1434668104.43,3.126587
1434668104.445,6.028755
1434668104.461,9.330376
1434668104.476,13.164661
1434668104.492,17.340717
1434668104.508,21.23809
1434668104.523,23.850662
1434668104.539,24.05542
1434668104.555,21.05751
1434668104.57,14.700417
1434668104.586,5.681999
1434668104.602,-4.6568985
1434668104.617,-14.695854
1434668104.633,-23.03888
1434668104.648,-28.898346
1434668104.664,-32.183624
1434668104.68,-33.335213
1434668104.695,-32.99414
1434668104.711,-31.74768
1434668104.727,-29.969994
1434668104.742,-27.790756
1434668104.758,-25.277046
1434668104.773,-22.520119
1434668104.789,-19.75351
1434668104.805,-17.281746
1434668104.82,-15.417801
1434668104.836,-14.330193
1434668104.852,-13.973984
1434668104.867,-14.1102295
1434668104.883,-14.378159
1434668104.898,-14.438164
1434668104.914,-14.086372
1434668104.93,-13.295197
1434668104.945,-12.182533
1434668104.961,-10.893883
1434668104.977,-9.511635
1434668104.992,-8.020706
1434668105.008,-6.3220367
1434668105.023,-4.3105164
1434668105.039,-1.9555054
1434668105.055,0.7636337
1434668105.07,3.8599777
1434668105.086,7.415329
1434668105.102,11.4737015
1434668105.117,15.934937
1434668105.133,20.338348
1434668105.148,23.853447
1434668105.164,25.43116
1434668105.18,24.190895
1434668105.195,19.827393
1434668105.211,12.803604
1434668105.227,4.2534103
1434668105.242,-4.391411
1434668105.258,-11.874344
1434668105.273,-17.443954
1434668105.289,-20.96492
1434668105.305,-22.720184
1434668105.32,-23.1706
1434668105.336,-22.68068
1434668105.352,-21.482758
1434668105.367,-19.679287
1434668105.383,-17.446018
1434668105.398,-15.00016
1434668105.414,-12.636124
1434668105.43,-10.593552
1434668105.445,-9.001106
1434668105.461,-7.8395805
1434668105.477,-6.980427
1434668105.492,-6.2673264
1434668105.508,-5.547222
1434668105.523,-4.7177086
1434668105.539,-3.7175827
1434668105.555,-2.4846573
1434668105.57,-0.98345184
1434668105.586,0.78853226
1434668105.602,2.8132935
1434668105.617,5.0196915
1434668105.633,7.322609
1434668105.648,9.733959
1434668105.664,12.3172455
1434668105.68,15.2548485
1434668105.695,18.734444
1434668105.711,22.847542
1434668105.727,27.374878
1434668105.742,31.733826
1434668105.758,34.96231
1434668105.773,35.99355
1434668105.789,33.99012
1434668105.805,28.757118
1434668105.82,20.87843
1434668105.836,11.603958
1434668105.852,2.4314117
1434668105.867,-5.370201
1434668105.883,-11.1115
1434668105.898,-14.7215805
1434668105.914,-16.557089
1434668105.93,-17.0908
1434668105.945,-16.6789
1434668105.961,-15.509377
1434668105.977,-13.708185
1434668105.992,-11.448698
1434668106.008,-9.03974
1434668106.023,-6.8449745
1434668106.039,-5.1730385
1434668106.055,-4.142107
1434668106.07,-3.648182
1434668106.086,-3.4207916
1434668106.102,-3.1078758
1434668106.117,-2.4215107
1434668106.133,-1.2486343
1434668106.148,0.32094765
1434668106.164,2.0568295
1434668106.18,3.6806355
1434668106.195,5.0167313
1434668106.211,6.0889263
1434668106.227,7.097706
1434668106.242,8.348738
1434668106.258,10.12282
1434668106.273,12.602953
1434668106.289,15.8085575
1434668106.305,19.637463
1434668106.32,23.809664
1434668106.336,27.876745
1434668106.352,31.197142
1434668106.367,33.002556
1434668106.383,32.61389
1434668106.398,29.684338
1434668106.414,24.340445
1434668106.43,17.219343
1434668106.445,9.272015
1434668106.461,1.5234547
1434668106.477,-5.2200565
1434668106.492,-10.461657
1434668106.508,-14.067881
1434668106.523,-16.128233
1434668106.539,-16.864712
1434668106.555,-16.499388
1434668106.57,-15.280943
1434668106.586,-13.399691
1434668106.602,-11.140322
1434668106.617,-8.820387
1434668106.633,-6.824728
1434668106.648,-5.489496
1434668106.664,-4.976597
1434668106.68,-5.1813736
1434668106.695,-5.750637
1434668106.711,-6.2131805
1434668106.727,-6.162266
1434668106.742,-5.4304543
1434668106.758,-4.1377735
1434668106.773,-2.5662766
1434668106.789,-1.0782948
1434668106.805,0.116168976
1434668106.82,0.9547901
1434668106.836,1.5879154
1434668106.852,2.2654572
1434668106.867,3.329094
1434668106.883,5.123926
1434668106.898,7.9427376
1434668106.914,11.811899
1434668106.93,16.372997
1434668106.945,20.823355
1434668106.961,24.025883
1434668106.977,24.850906
1434668106.992,22.575966
1434668107.008,17.151617
1434668107.023,9.297901
1434668107.039,0.2558136
1434668107.055,-8.564047
1434668107.07,-16.006641
1434668107.086,-21.397823
1434668107.102,-24.636827
1434668107.117,-26.038727
1434668107.133,-26.099167
1434668107.148,-25.278807
1434668107.164,-23.890566
1434668107.18,-22.051758
1434668107.195,-19.853086
1434668107.211,-17.424011
1434668107.227,-15.017616
1434668107.242,-12.946096
1434668107.258,-11.375849
1434668107.274,-10.242445
1434668107.289,-9.245167
1434668107.305,-7.991476
1434668107.32,-6.2709236
1434668107.336,-4.2028294
1434668107.352,-2.1993198
1434668107.367,-0.70487213
1434668107.383,0.027706146
1434668107.398,0.17667198
1434668107.414,0.24864578
1434668107.43,0.83800316
1434668107.445,2.4305992
1434668107.461,5.22155
1434668107.477,9.095314
1434668107.492,13.778511
1434668107.508,18.831518
1434668107.524,23.654188
1434668107.539,27.456753
1434668107.555,29.362604
1434668107.57,28.579365
1434668107.586,24.754547
1434668107.602,18.159187
1434668107.617,9.699709
1434668107.633,0.7094555
1434668107.649,-7.512453
1434668107.664,-14.052582
1434668107.68,-18.543108
1434668107.695,-21.114716
1434668107.711,-22.15211
1434668107.727,-22.037804
1434668107.742,-21.018517
1434668107.758,-19.270489
1434668107.774,-16.96468
1434668107.789,-14.394436
1434668107.805,-11.932167
1434668107.82,-9.891521
1434668107.836,-8.40441
1434668107.852,-7.3501253
1434668107.867,-6.418891
1434668107.883,-5.266329
1434668107.899,-3.7209787
1434668107.914,-1.8638735
1434668107.93,0.034114838
1434668107.945,1.6344719
1434668107.961,2.7528667
1434668107.977,3.4150925
1434668107.992,3.9269276
1434668108.008,4.736953
1434668108.024,6.3261185
1434668108.039,9.030074
1434668108.055,12.98161
1434668108.07,17.991417
1434668108.086,23.542837
1434668108.102,28.789072
1434668108.117,32.69037
1434668108.133,34.225346
1434668108.149,32.73241
1434668108.164,28.087713
1434668108.18,20.895702
1434668108.195,12.295822
1434668108.211,3.6840782
1434668108.227,-3.756752
1434668108.242,-9.361659
1434668108.258,-13.059662
1434668108.274,-15.238127
1434668108.289,-16.430387
1434668108.305,-17.01227
1434668108.32,-17.092592
1434668108.336,-16.566225
1434668108.352,-15.335234
1434668108.367,-13.467256
1434668108.383,-11.247931
1434668108.399,-9.052063
1434668108.414,-7.2092524
1434668108.43,-5.8347235
1434668108.445,-4.831374
1434668108.461,-3.9358563
1434668108.477,-2.8817608
1434668108.492,-1.5463855
1434668108.508,0.017305851
1434668108.524,1.6096215
1434668108.539,3.004675
1434668108.555,4.097571
1434668108.57,4.996319
1434668108.586,5.999037
1434668108.602,7.478451
1434668108.617,9.737845
1434668108.633,12.8873825
1434668108.649,16.837387
1434668108.664,21.255234
1434668108.68,25.643799
1434668108.695,29.33595
1434668108.711,31.579905
1434668108.727,31.672323
1434668108.742,29.14812
1434668108.758,24.050175
1434668108.774,16.98647
1434668108.789,8.994076
1434668108.805,1.2308259
1434668108.82,-5.4165564
1434668108.836,-10.551108
1434668108.852,-14.231205
1434668108.867,-16.727398
1434668108.883,-18.26035
1434668108.899,-18.844013
1434668108.914,-18.359957
1434668108.93,-16.75142
1434668108.945,-14.205187
1434668108.961,-11.18064
1434668108.977,-8.280066
1434668108.992,-6.0290985
1434668109.008,-4.631852
1434668109.024,-3.972515
1434668109.039,-3.67134
1434668109.055,-3.3168507
1434668109.07,-2.6810427
1434668109.086,-1.7859449
1434668109.102,-0.8405199
1434668109.117,-0.09877205
1434668109.133,0.3512802
1434668109.149,0.67378235
1434668109.164,1.1959229
1434668109.18,2.2711906
1434668109.195,4.147869
1434668109.211,6.8654613
1434668109.227,10.316765
1434668109.242,14.368301
1434668109.258,18.801382
1434668109.274,23.268421
1434668109.289,27.170538
1434668109.305,29.69219
1434668109.32,29.962244
1434668109.336,27.39347
1434668109.352,21.938375
1434668109.367,14.206923
1434668109.383,5.312538
1434668109.399,-3.4836044
1434668109.414,-11.137875
1434668109.43,-17.073301
1434668109.445,-21.2154
1434668109.461,-23.773855
1434668109.477,-25.044107
1434668109.492,-25.225203
1434668109.508,-24.39866
1434668109.524,-22.641447
1434668109.539,-20.20066
1434668109.555,-17.472115
1434668109.57,-14.9769
1434668109.586,-13.162621
1434668109.602,-12.236219
1434668109.617,-12.072159
1434668109.633,-12.288067
1434668109.649,-12.415596
1434668109.664,-12.12248
1434668109.68,-11.345303
1434668109.695,-10.199789
1434668109.711,-8.909584
1434668109.727,-7.672447
1434668109.742,-6.5329494
1434668109.758,-5.42317
1434668109.774,-4.1580677
1434668109.789,-2.4924717
1434668109.805,-0.16910172
1434668109.82,3.0322742
1434668109.836,7.2009296
1434668109.852,12.144657
1434668109.867,17.32259
1434668109.883,21.86436
1434668109.899,24.77004
1434668109.914,25.171143
1434668109.93,22.675499
1434668109.946,17.487158
1434668109.961,10.362543
1434668109.977,2.3616772
1434668109.992,-5.449499
1434668110.008,-12.276394
1434668110.024,-17.649738
1434668110.039,-21.419004
1434668110.055,-23.642422
1434668110.07,-24.44402
1434668110.086,-23.993372
1434668110.102,-22.48375
1434668110.117,-20.1709
1434668110.133,-17.384506
1434668110.149,-14.509497
1434668110.164,-11.955692
1434668110.18,-10.022787
1434668110.196,-8.842585
1434668110.211,-8.270529
1434668110.227,-7.974827
1434668110.242,-7.536005
1434668110.258,-6.6123333
1434668110.274,-5.099785
1434668110.289,-3.1904106
1434668110.305,-1.2354565
1434668110.321,0.4325714
1434668110.336,1.6879234
1434668110.352,2.6945076
1434668110.367,3.8302498
1434668110.383,5.524124
1434668110.399,8.15905
1434668110.414,11.8943
1434668110.43,16.649902
1434668110.446,21.990868
1434668110.461,27.17786
1434668110.477,31.17276
1434668110.492,32.902225
1434668110.508,31.584324
1434668110.524,27.053896
1434668110.539,19.863144
1434668110.555,11.19654
1434668110.571,2.3955355
1434668110.586,-5.4513464
1434668110.602,-11.8003235
1434668110.617,-16.53091
1434668110.633,-19.702868
1434668110.649,-21.306719
1434668110.664,-21.252853
1434668110.68,-19.5547
1434668110.696,-16.56015
1434668110.711,-13.009655
1434668110.727,-9.822459
1434668110.742,-7.6946507
1434668110.758,-6.8686733
1434668110.774,-7.0141096
1434668110.789,-7.495557
1434668110.805,-7.6719213
1434668110.821,-7.1950655
1434668110.836,-6.049008
1434668110.852,-4.4790287
1434668110.867,-2.7972245
1434668110.883,-1.2400227
1434668110.899,0.090503216
1434668110.914,1.2389946
1434668110.93,2.3644543
1434668110.946,3.6973248
1434668110.961,5.4905405
1434668110.977,7.990899
1434668110.992,11.368275
1434668111.008,15.6990595
1434668111.024,20.811115
1434668111.039,26.135216
1434668111.055,30.716824
1434668111.071,33.354286
1434668111.086,32.98652
1434668111.102,29.08749
1434668111.117,22.032478
1434668111.133,12.998648
1434668111.149,3.6098635
1434668111.164,-4.6392345
1434668111.18,-10.842445
1434668111.196,-14.781618
1434668111.211,-16.773464
1434668111.227,-17.321415
1434668111.242,-16.82623
1434668111.258,-15.515876
1434668111.274,-13.568207
1434668111.289,-11.234814
1434668111.305,-8.849741
1434668111.321,-6.8616185
1434668111.336,-5.572798
1434668111.352,-5.109645
1434668111.367,-5.2976303
1434668111.383,-5.714809
1434668111.399,-5.808369
1434668111.414,-5.162472
1434668111.43,-3.6437225
1434668111.446,-1.4748721
1434668111.461,0.8327762
1434668111.477,2.7881885
1434668111.492,4.1390066
1434668111.508,4.9908113
1434668111.524,5.777639
1434668111.539,7.007867
1434668111.555,9.060496
1434668111.571,12.099907
1434668111.586,16.108576
1434668111.602,20.84397
1434668111.617,25.892998
1434668111.633,30.612473
1434668111.649,34.083477
1434668111.664,35.324406
1434668111.68,33.600876
1434668111.696,28.72807
1434668111.711,21.251976
1434668111.727,12.316328
1434668111.742,3.306932
1434668111.758,-4.506665
1434668111.774,-10.338478
1434668111.789,-14.003246
1434668111.805,-15.798532
1434668111.821,-16.330227
1434668111.836,-16.18872
1434668111.852,-15.760626
1434668111.867,-15.156324
1434668111.883,-14.317661
1434668111.899,-13.149332
1434668111.914,-11.695007
1434668111.93,-10.18387
1434668111.946,-8.88359
1434668111.961,-7.963744
1434668111.977,-7.3719482
1434668111.992,-6.848647
1434668112.008,-6.10818
1434668112.024,-5.0467844
1434668112.039,-3.8160486
1434668112.055,-2.7561235
1434668112.071,-2.1868753
1434668112.086,-2.1719217
1434668112.102,-2.4757214
1434668112.117,-2.646885
1434668112.133,-2.168624
1434668112.149,-0.68303967
1434668112.164,1.8965712
1434668112.18,5.4659863
1434668112.196,9.684366
1434668112.211,14.090847
1434668112.227,18.061848
1434668112.242,20.847612
1434668112.258,21.665531
1434668112.274,19.935116
1434668112.289,15.508878
1434668112.305,8.836798
1434668112.321,0.9125776
1434668112.336,-7.061453
1434668112.352,-14.037706
1434668112.367,-19.426914
1434668112.383,-23.15554
1434668112.399,-25.469793
1434668112.414,-26.66851
1434668112.43,-26.886806
1434668112.446,-26.09182
1434668112.461,-24.258636
1434668112.477,-21.53767
1434668112.492,-18.350529
1434668112.508,-15.283979
1434668112.524,-12.8546505
1434668112.539,-11.313702
1434668112.555,-10.540967
1434668112.571,-10.139485
1434668112.586,-9.641634
1434668112.602,-8.771483
1434668112.617,-7.5010223
1434668112.633,-6.046137
1434668112.649,-4.690419
1434668112.664,-3.627819
1434668112.68,-2.7963867
1434668112.696,-1.9299192
1434668112.711,-0.6059828
1434668112.727,1.5636702
1434668112.742,4.8330965
1434668112.758,9.224918
1434668112.774,14.464574
1434668112.789,19.971643
1434668112.805,24.920837
1434668112.821,28.310703
1434668112.836,29.239452
1434668112.852,27.14021
1434668112.868,22.072117
1434668112.883,14.763295
1434668112.899,6.4634557
1434668112.914,-1.4947925
1434668112.93,-8.096985
1434668112.946,-12.907795
1434668112.961,-16.066864
1434668112.977,-18.029984
1434668112.993,-19.179497
1434668113.008,-19.666744
1434668113.024,-19.400698
1434668113.039,-18.259615
1434668113.055,-16.301256
1434668113.071,-13.795373
1434668113.086,-11.146823
1434668113.102,-8.723449
1434668113.118,-6.7150974
1434668113.133,-5.1094666
1434668113.149,-3.77992
1434668113.164,-2.616991
1434668113.18,-1.5505137
1434668113.196,-0.6125517
1434668113.211,0.17170334
1434668113.227,0.8065553
1434668113.243,1.4035707
1434668113.258,2.2092462
1434668113.274,3.5260692
1434668113.289,5.6189356
1434668113.305,8.648058
1434668113.321,12.578903
1434668113.336,17.181667
1434668113.352,22.029476
1434668113.368,26.538662
1434668113.383,29.963093
1434668113.399,31.527306
1434668113.414,30.590824
1434668113.43,26.893572
1434668113.446,20.767567
1434668113.461,13.093347
1434668113.477,5.03378
1434668113.493,-2.3399515
1434668113.508,-8.399862
1434668113.524,-13.020523
1434668113.539,-16.428823
1434668113.555,-18.862644
1434668113.571,-20.38619
1434668113.586,-20.855146
1434668113.602,-20.121933
1434668113.618,-18.2312
1434668113.633,-15.4908695
1434668113.649,-12.425663
1434668113.664,-9.561028
1434668113.68,-7.243683
1434668113.696,-5.5597897
1434668113.711,-4.3271065
1434668113.727,-3.228506
1434668113.743,-1.9809494
1434668113.758,-0.4658184
1434668113.774,1.2331257
1434668113.789,2.8587627
1434668113.805,4.1724796
1434668113.821,5.1057243
1434668113.836,5.847925
1434668113.852,6.751461
1434668113.868,8.228127
1434668113.883,10.546452
1434668113.899,13.797382
1434668113.914,17.85653
1434668113.93,22.40745
1434668113.946,26.915516
1434668113.961,30.662893
1434668113.977,32.745716
1434668113.993,32.37707
1434668114.008,29.164238
1434668114.024,23.323044
1434668114.039,15.700293
1434668114.055,7.5067444
1434668114.071,-0.111263275
1434668114.086,-6.419407
1434668114.102,-11.2037735
1434668114.118,-14.624071
1434668114.133,-16.958048
1434668114.149,-18.349514
1434668114.164,-18.786655
1434668114.18,-18.154793
1434668114.196,-16.439638
1434668114.211,-13.866987
1434668114.227,-10.900976
1434668114.243,-8.108944
1434668114.258,-5.9826546
1434668114.274,-4.731514
1434668114.289,-4.2431164
1434668114.305,-4.125984
1434668114.321,-3.9661865
1434668114.336,-3.493002
1434668114.352,-2.7316895
1434668114.368,-1.927599
1434668114.383,-1.3494053
1434668114.399,-1.0641937
1434668114.414,-0.84941673
1434668114.43,-0.24907494
1434668114.446,1.1925774
1434668114.461,3.7151184
1434668114.477,7.2795696
1434668114.493,11.596216
1434668114.508,16.213308
1434668114.524,20.609205
1434668114.539,24.181364
1434668114.555,26.261816
1434668114.571,26.212708
1434668114.586,23.626698
1434668114.602,18.486351
1434668114.618,11.281971
1434668114.633,2.922676
1434668114.649,-5.5168
1434668114.664,-13.107345
1434668114.68,-19.237682
1434668114.696,-23.700956
1434668114.711,-26.529436
1434668114.727,-27.850569
1434668114.743,-27.747946
1434668114.758,-26.283941
1434668114.774,-23.558464
1434668114.789,-19.902054
1434668114.805,-15.850828
1434668114.821,-12.102835
1434668114.836,-9.309246
1434668114.852,-7.8354664
1434668114.868,-7.61005
1434668114.883,-8.163517
1434668114.899,-8.846424
1434668114.914,-9.107647
1434668114.93,-8.683878
1434668114.946,-7.582241
1434668114.961,-5.99222
1434668114.977,-4.1256638
1434668114.993,-2.0859795
1434668115.008,0.110630035
1434668115.024,2.501257
1434668115.039,5.164179
1434668115.055,8.231918
1434668115.071,11.811157
1434668115.086,15.934858
1434668115.102,20.370457
1434668115.118,24.536905
1434668115.133,27.610579
1434668115.149,28.737339
1434668115.164,27.320232
1434668115.18,23.28323
1434668115.196,17.09562
1434668115.211,9.60467
1434668115.227,1.7939358
1434668115.243,-5.456053
1434668115.258,-11.555731
1434668115.274,-16.162897
1434668115.289,-19.170248
1434668115.305,-20.581722
1434668115.321,-20.45769
1434668115.336,-18.95253
1434668115.352,-16.33864
1434668115.368,-13.061647
1434668115.383,-9.719807
1434668115.399,-6.9014587
1434668115.414,-5.021576
1434668115.43,-4.161827
1434668115.446,-4.040186
1434668115.461,-4.118824
1434668115.477,-3.880106
1434668115.493,-3.012869
1434668115.508,-1.5496998
1434668115.524,0.20266914
1434668115.54,1.8264656
1434668115.555,3.058731
1434668115.571,3.912014
1434668115.586,4.703827
1434668115.602,5.891693
1434668115.618,7.9159184
1434668115.633,11.037922
1434668115.649,15.247313
1434668115.665,20.1865
1434668115.68,25.222187
1434668115.696,29.49114
1434668115.711,32.06028
1434668115.727,32.116814
1434668115.743,29.255825
1434668115.758,23.638245
1434668115.774,16.02176
1434668115.79,7.536518
1434668115.805,-0.61530685
1434668115.821,-7.538109
1434668115.836,-12.796297
1434668115.852,-16.396873
1434668115.868,-18.54002
1434668115.883,-19.421429
1434668115.899,-19.120045
1434668115.915,-17.703062
1434668115.93,-15.334877
1434668115.946,-12.376303
1434668115.961,-9.324305
1434668115.977,-6.6475887
1434668115.993,-4.623184
1434668116.008,-3.2611408
1434668116.024,-2.3325062
1434668116.04,-1.4919643
1434668116.055,-0.44953537
1434668116.071,0.9260769
1434668116.086,2.5776215
1434668116.102,4.2653084
1434668116.118,5.6883526
1434668116.133,6.620798
1434668116.149,7.073082
1434668116.165,7.296711
1434668116.18,7.8057404
1434668116.196,9.160362
1434668116.211,11.787474
1434668116.227,15.764715
1434668116.243,20.75063
1434668116.258,25.997557
1434668116.274,30.497156
1434668116.29,33.171883
1434668116.305,33.175713
1434668116.321,30.110392
1434668116.336,24.212452
1434668116.352,16.299297
1434668116.368,7.5828114
1434668116.383,-0.74100685
1434668116.399,-7.771658
1434668116.415,-13.116893
1434668116.43,-16.788887
1434668116.446,-18.945541
1434668116.461,-19.733007
1434668116.477,-19.214546
1434668116.493,-17.511774
1434668116.508,-14.922823
1434668116.524,-11.990019
1434668116.54,-9.340262
1434668116.555,-7.453183
1434668116.571,-6.4913335
1434668116.586,-6.2418523
1434668116.602,-6.251704
1434668116.618,-6.029415
1434668116.633,-5.241354
1434668116.649,-3.8105836
1434668116.665,-1.9629314
1434668116.68,-0.076654315
1434668116.696,1.4715786
1434668116.711,2.4768176
1434668116.727,3.0022457
1434668116.743,3.387891
1434668116.758,4.087238
1434668116.774,5.5521593
1434668116.79,8.025948
1434668116.805,11.539864
1434668116.821,15.886564
1434668116.836,20.586723
1434668116.852,24.89149
1434668116.868,27.818737
1434668116.883,28.359194
1434668116.899,25.778553
1434668116.915,19.96909
1434668116.93,11.586915
1434668116.946,1.8785677
1434668116.961,-7.722636
1434668116.977,-16.067171
1434668116.993,-22.531584
1434668117.008,-26.98722
1434668117.024,-29.539259
1434668117.04,-30.360973
1434668117.055,-29.603203
1434668117.071,-27.478752
1434668117.086,-24.421417
1434668117.102,-21.058924
1434668117.118,-18.052704
1434668117.133,-15.896862
1434668117.149,-14.729567
1434668117.165,-14.331692
1434668117.18,-14.233524
1434668117.196,-13.855854
1434668117.211,-12.760946
1434668117.227,-10.791962
1434668117.243,-8.177662
1434668117.258,-5.4059925
1434668117.274,-3.0635166
1434668117.29,-1.5257187
1434668117.305,-0.7601681
1434668117.321,-0.3371544
1434668117.336,0.418087
1434668117.352,2.1334934
1434668117.368,5.175009
1434668117.383,9.5611
1434668117.399,14.9351635
1434668117.415,20.591867
1434668117.43,25.557592
1434668117.446,28.741697
1434668117.461,29.145254
1434668117.477,26.23103
1434668117.493,20.1898
1434668117.508,11.933212
1434668117.524,2.8592892
1434668117.54,-5.656456
1434668117.555,-12.63842
1434668117.571,-17.676693
1434668117.586,-20.80618
1434668117.602,-22.298393
1434668117.618,-22.39015
1434668117.633,-21.317678
1434668117.649,-19.306057
1434668117.665,-16.706264
1434668117.68,-13.951878
1434668117.696,-11.478216
1434668117.711,-9.555042
1434668117.727,-8.236692
1434668117.743,-7.3822765
1434668117.758,-6.6887054
1434668117.774,-5.8498306
1434668117.79,-4.681511
1434668117.805,-3.17128
1434668117.821,-1.5204582
1434668117.836,-0.023843765
1434668117.852,1.0768852
1434668117.868,1.7399044
1434668117.883,2.212103
1434668117.899,2.97011
1434668117.915,4.5280323
1434668117.93,7.290518
1434668117.946,11.415052
1434668117.961,16.680086
1434668117.977,22.500616
1434668117.993,27.95399
1434668118.008,31.92158
1434668118.024,33.32606
1434668118.04,31.477203
1434668118.055,26.354107
1434668118.071,18.642756
1434668118.086,9.5830765
1434668118.102,0.53560066
1434668118.118,-7.425274
1434668118.133,-13.736235
1434668118.149,-18.298475
1434668118.165,-21.272856
1434668118.18,-22.845976
1434668118.196,-23.11612
1434668118.212,-22.143452
1434668118.227,-20.086355
1434668118.243,-17.264
1434668118.258,-14.144625
1434668118.274,-11.199406
1434668118.29,-8.778418
1434668118.305,-6.987499
1434668118.321,-5.727644
1434668118.336,-4.7401237
1434668118.352,-3.79278
1434668118.368,-2.7671318
1434668118.383,-1.6921349
1434668118.399,-0.6923332
1434668118.415,0.1495285
1434668118.43,0.8990326
1434668118.446,1.7797661
1434668118.462,3.0771923
1434668118.477,5.048626
1434668118.493,7.8603077
1434668118.508,11.603775
1434668118.524,16.308031
1434668118.54,21.801804
1434668118.555,27.631248
1434668118.571,32.895267
1434668118.587,36.415894
1434668118.602,37.008537
1434668118.618,34.02319
1434668118.633,27.635387
1434668118.649,18.87299
1434668118.665,9.253178
1434668118.68,0.24028397
1434668118.696,-7.20726
1434668118.712,-12.786789
1434668118.727,-16.690422
1434668118.743,-19.278355
1434668118.758,-20.785854
1434668118.774,-21.24031
1434668118.79,-20.613174
1434668118.805,-18.949226
1434668118.821,-16.55989
1434668118.837,-13.944832
1434668118.852,-11.650162
1434668118.868,-10.019707
1434668118.883,-9.053829
1434668118.899,-8.415466
1434668118.915,-7.6291466
1434668118.93,-6.317787
1434668118.946,-4.399925
1434668118.962,-2.1159706
1434668118.977,0.09309769
1434668118.993,1.8724976
1434668119.008,3.0825844
1434668119.024,3.9042473
1434668119.04,4.6998596
1434668119.055,5.9349136
1434668119.071,7.994339
1434668119.087,11.133373
1434668119.102,15.413929
1434668119.118,20.666069
1434668119.133,26.43869
1434668119.149,31.989086
1434668119.165,36.32813
1434668119.18,38.48062
1434668119.196,37.678764
1434668119.212,33.67348
1434668119.227,26.834846
1434668119.243,18.06625
1434668119.258,8.601475
1434668119.274,-0.37488174
1434668119.29,-8.013176
1434668119.305,-13.917213
1434668119.321,-18.108353
1434668119.337,-20.836304
1434668119.352,-22.351574
1434668119.368,-22.790092
1434668119.383,-22.20367
1434668119.399,-20.6745
1434668119.415,-18.435219
1434668119.43,-15.932892
1434668119.446,-13.696236
1434668119.462,-12.128128
1434668119.477,-11.395233
1434668119.493,-11.298439
1434668119.508,-11.431877
1434668119.524,-11.345215
1434668119.54,-10.800774
1434668119.555,-9.807091
1434668119.571,-8.624863
1434668119.587,-7.5476685
1434668119.602,-6.7490997
1434668119.618,-6.153145
1434668119.633,-5.4610214
1434668119.649,-4.2596436
1434668119.665,-2.2138672
1434668119.68,0.857193
1434668119.696,4.901642
1434668119.712,9.661636
1434668119.727,14.674767
1434668119.743,19.278862
1434668119.758,22.635979
1434668119.774,23.894463
1434668119.79,22.360909
1434668119.805,17.841606
1434668119.821,10.761002
1434668119.837,2.118866
1434668119.852,-6.822075
1434668119.868,-14.883087
1434668119.883,-21.313187
1434668119.899,-25.88836
1434668119.915,-28.758476
1434668119.93,-30.193031
1434668119.946,-30.40007
1434668119.962,-29.45153
1434668119.977,-27.424728
1434668119.993,-24.532364
1434668120.008,-21.17418
1434668120.024,-17.878471
1434668120.04,-15.163147
1434668120.055,-13.321594
1434668120.071,-12.335785
1434668120.087,-11.894272
1434668120.102,-11.533989
1434668120.118,-10.82692
1434668120.133,-9.580986
1434668120.149,-7.8759613
1434668120.165,-6.0271835
1434668120.18,-4.343979
1434668120.196,-2.9508362
1434668120.212,-1.6550522
1434668120.227,-0.042137146
1434668120.243,2.36911
1434668120.258,5.88221
1434668120.274,10.526588
1434668120.29,16.00196
1434668120.305,21.80162
1434668120.321,27.21376
1434668120.337,31.448296
1434668120.352,33.671844
1434668120.368,33.169174
1434668120.383,29.594353
1434668120.399,23.118706
1434668120.415,14.536522
1434668120.43,5.0860825
1434668120.446,-3.9101334
1434668120.462,-11.434288
1434668120.477,-17.022263
1434668120.493,-20.731514
1434668120.508,-22.948593
1434668120.524,-24.020828
1434668120.54,-24.122536
1434668120.555,-23.23841
1434668120.571,-21.311058
1434668120.587,-18.456245
1434668120.602,-15.093269
1434668120.618,-11.830582
1434668120.633,-9.267281
1434668120.649,-7.727104
1434668120.665,-7.1031036
1434668120.68,-6.933464
1434668120.696,-6.664871
1434668120.712,-5.882004
1434668120.727,-4.485565
1434668120.743,-2.656189
1434668120.758,-0.6895828
1434668120.774,1.2342758
1434668120.79,3.0777893
1434668120.805,5.0008583
1434668120.821,7.2169914
1434668120.837,9.971416
1434668120.852,13.4398575
1434668120.868,17.716831
1434668120.884,22.683167
1434668120.899,27.92538
1434668120.915,32.645668
1434668120.93,35.825768
1434668120.946,36.48757
1434668120.962,34.086117
1434668120.977,28.722694
1434668120.993,21.145226
1434668121.008,12.475845
1434668121.024,3.8321419
1434668121.04,-3.9627228
1434668121.055,-10.468071
1434668121.071,-15.543953
1434668121.087,-19.19006
1434668121.102,-21.394932
1434668121.118,-22.141048
1434668121.134,-21.454052
1434668121.149,-19.495968
1434668121.165,-16.631496
1434668121.18,-13.3951
1434668121.196,-10.383854
1434668121.212,-8.077839
1434668121.227,-6.7201996
1434668121.243,-6.184601
1434668121.259,-6.098419
1434668121.274,-5.969429
1434668121.29,-5.390156
1434668121.305,-4.2085457
1434668121.321,-2.5273209
1434668121.337,-0.5985794
1434668121.352,1.3024597
1434668121.368,3.0339088
1434668121.384,4.6289673
1434668121.399,6.27491
1434668121.415,8.201408
1434668121.43,10.654778
1434668121.446,13.804459
1434668121.462,17.69791
1434668121.477,22.184586
1434668121.493,26.816772
1434668121.509,30.917229
1434668121.524,33.626896
1434668121.54,34.119
1434668121.555,31.87072
1434668121.571,26.862122
1434668121.587,19.612751
1434668121.602,11.059788
1434668121.618,2.3226357
1434668121.634,-5.6384926
1434668121.649,-12.162239
1434668121.665,-16.989586
1434668121.68,-20.129665
1434668121.696,-21.7081
1434668121.712,-21.85801
1434668121.727,-20.688484
1434668121.743,-18.403824
1434668121.759,-15.343967
1434668121.774,-12.029968
1434668121.79,-9.037743
1434668121.805,-6.820366
1434668121.821,-5.5655594
1434668121.837,-5.128357
1434668121.852,-5.1343613
1434668121.868,-5.1381264
1434668121.884,-4.8140373
1434668121.899,-4.014328
1434668121.915,-2.8328667
1434668121.93,-1.456913
1434668121.946,-0.064136505
1434668121.962,1.235012
1434668121.977,2.4787216
1434668121.993,3.802391
1434668122.009,5.3936462
1434668122.024,7.4498367
1434668122.04,10.13586
1434668122.055,13.545483
1434668122.071,17.632435
1434668122.087,22.078876
1434668122.102,26.216446
1434668122.118,29.073147
1434668122.134,29.596886
1434668122.149,27.03651
1434668122.165,21.251137
1434668122.18,12.88739
1434668122.196,3.1686058
1434668122.212,-6.486969
1434668122.227,-14.915237
1434668122.243,-21.472832
1434668122.259,-26.034275
1434668122.274,-28.75962
1434668122.29,-29.922897
1434668122.305,-29.722313
1434668122.321,-28.334732
1434668122.337,-26.013412
1434668122.352,-23.1613
1434668122.368,-20.297092
1434668122.384,-17.92289
1434668122.399,-16.325012
1434668122.415,-15.476719
1434668122.43,-15.035725
1434668122.446,-14.507458
1434668122.462,-13.439804
1434668122.477,-11.69651
1434668122.493,-9.450253
1434668122.509,-7.125496
1434668122.524,-5.173897
1434668122.54,-3.8434067
1434668122.555,-3.0366554
1434668122.571,-2.3825188
1434668122.587,-1.3910675
1434668122.602,0.36061478
1434668122.618,3.1508865
1434668122.634,7.0882874
1434668122.649,12.0615425
1434668122.665,17.670612
1434668122.68,23.167133
1434668122.696,27.506058
1434668122.712,29.581074
1434668122.727,28.57589
1434668122.743,24.32507
1434668122.759,17.365223
1434668122.774,8.847286
1434668122.79,0.06682205
1434668122.805,-7.86866
1434668122.821,-14.290268
1434668122.837,-18.98806
1434668122.852,-22.03873
1434668122.868,-23.60698
1434668122.884,-23.857964
1434668122.899,-22.93229
1434668122.915,-21.022625
1434668122.93,-18.40701
1434668122.946,-15.486549
1434668122.962,-12.675739
1434668122.977,-10.320831
1434668122.993,-8.589043
1434668123.009,-7.38179
1434668123.024,-6.382801
1434668123.04,-5.21735
1434668123.055,-3.618763
1434668123.071,-1.5770149
1434668123.087,0.6304703
1434668123.102,2.5654297
1434668123.118,3.8871078
1434668123.134,4.486717
1434668123.149,4.6324997
1434668123.165,4.855728
1434668123.18,5.8245773
1434668123.196,8.136177
1434668123.212,12.092815
1434668123.227,17.514496
1434668123.243,23.66315
1434668123.259,29.348284
1434668123.274,33.20092
1434668123.29,34.08982
1434668123.305,31.523485
1434668123.321,25.77377
1434668123.337,17.797434
1434668123.352,8.862436
1434668123.368,0.20289993
1434668123.384,-7.2684536
1434668123.399,-13.027325
1434668123.415,-16.96664
1434668123.43,-19.236492
1434668123.446,-20.125317
1434668123.462,-19.948772
1434668123.477,-18.997908
1434668123.493,-17.473093
1434668123.509,-15.536253
1434668123.524,-13.350491
1434668123.54,-11.135132
1434668123.555,-9.123453
1434668123.571,-7.4115925
1434668123.587,-5.9223557
1434668123.602,-4.4246273
1434668123.618,-2.6976814
1434668123.634,-0.69218445
1434668123.649,1.3802948
1434668123.665,3.1744347
1434668123.68,4.434988
1434668123.696,5.1932106
1434668123.712,5.797558
1434668123.727,6.7687407
1434668123.743,8.585093
1434668123.759,11.577747
1434668123.774,15.86328
1434668123.79,21.30567
1434668123.806,27.524832
1434668123.821,33.799442
1434668123.837,39.140236
1434668123.852,42.413513
1434668123.868,42.68103
1434668123.884,39.54297
1434668123.899,33.336548
1434668123.915,25.089981
1434668123.931,16.191435
1434668123.946,7.995138
1434668123.962,1.4390392
1434668123.977,-3.1464424
1434668123.993,-5.9153385
1434668124.009,-7.3089676
1434668124.024,-7.7406693
1434668124.04,-7.45199
1434668124.056,-6.4584503
1434668124.071,-4.728985
1434668124.087,-2.3123074
1434668124.102,0.52666664
1434668124.118,3.3189793
1434668124.134,5.5878716
1434668124.149,6.996689
1434668124.165,7.496214
1434668124.181,7.321247
1434668124.196,6.8586235
1434668124.212,6.4708385
1434668124.227,6.3808174
1434668124.243,6.621956
1434668124.259,7.092369
1434668124.274,7.688442
1434668124.29,8.362362
1434668124.306,9.217777
1434668124.321,10.457928
1434668124.337,12.319836
1434668124.352,14.986237
1434668124.368,18.470585
1434668124.384,22.526554
1434668124.399,26.618881
1434668124.415,29.930607
1434668124.431,31.539558
1434668124.446,30.62733
1434668124.462,26.778198
1434668124.477,20.108658
1434668124.493,11.34993
1434668124.509,1.6235924
1434668124.524,-7.8586655
1434668124.54,-16.188309
1434668124.556,-22.877419
1434668124.571,-27.90356
1434668124.587,-31.447952
1434668124.602,-33.686947
1434668124.618,-34.670692
1434668124.634,-34.37886
1434668124.649,-32.873
1434668124.665,-30.46859
1434668124.681,-27.670204
1434668124.696,-25.05069
1434668124.712,-22.980247
1434668124.727,-21.524445
1434668124.743,-20.427505
1434668124.759,-19.287323
1434668124.774,-17.799232
1434668124.79,-15.9017105
1434668124.806,-13.787331
1434668124.821,-11.794403
1434668124.837,-10.199554
1434668124.852,-9.107361
1434668124.868,-8.3719635
1434668124.884,-7.642639
1434668124.899,-6.4512253
1434668124.915,-4.416626
1434668124.931,-1.2932129
1434668124.946,2.9195557
1434668124.962,7.9741287
1434668124.977,13.317123
1434668124.993,18.179832
1434668125.009,21.613579
1434668125.024,22.74096
1434668125.04,20.959549
1434668125.056,16.210548
1434668125.071,9.096962
1434668125.087,0.7083435
1434668125.102,-7.7027817
1434668125.118,-15.157097
1434668125.134,-21.136467
1434668125.149,-25.62503
1434668125.165,-28.814445
1434668125.181,-30.81453
1434668125.196,-31.566536
1434668125.212,-30.927452
1434668125.227,-28.926392
1434668125.243,-25.894287
1434668125.259,-22.423302
1434668125.274,-19.11538
1434668125.29,-16.388664
1434668125.306,-14.331787
1434668125.321,-12.772453
1434668125.337,-11.473076
1434668125.352,-10.250694
1434668125.368,-9.07502
1434668125.384,-7.99144
1434668125.399,-7.0596237
1434668125.415,-6.275543
1434668125.431,-5.507431
1434668125.446,-4.4914627
1434668125.462,-2.8805313
1434668125.477,-0.36376953
1434668125.493,3.2419128
1434668125.509,7.9055634
1434668125.524,13.319611
1434668125.54,18.925964
1434668125.556,24.020233
1434668125.571,27.79889
1434668125.587,29.512978
1434668125.602,28.629341
1434668125.618,25.022194
1434668125.634,19.126
1434668125.649,11.842171
1434668125.665,4.2613525
1434668125.681,-2.6528854
1434668125.696,-8.372032
1434668125.712,-12.805656
1434668125.727,-16.14222
1434668125.743,-18.526512
1434668125.759,-19.918427
1434668125.774,-20.124573
1434668125.79,-19.021568
1434668125.806,-16.771568
1434668125.821,-13.81945
1434668125.837,-10.765923
1434668125.852,-8.136139
1434668125.868,-6.15432
1434668125.884,-4.7562637
1434668125.899,-3.6402817
1434668125.915,-2.4860573
1434668125.931,-1.0997047
1434668125.946,0.5106697
1434668125.962,2.1604233
1434668125.977,3.602089
1434668125.993,4.6741714
1434668126.009,5.4758835
1434668126.024,6.3438606
1434668126.04,7.7800064
1434668126.056,10.256329
1434668126.071,14.044567
1434668126.087,19.097359
1434668126.102,25.00753
1434668126.118,31.047775
1434668126.134,36.224277
1434668126.149,39.48842
1434668126.165,39.902195
1434668126.181,36.968185
1434668126.196,30.823486
1434668126.212,22.306831
1434668126.227,12.680481
1434668126.243,3.3110504
1434668126.259,-4.751564
1434668126.274,-10.976704
1434668126.29,-15.353317
1434668126.306,-18.144173
1434668126.321,-19.648365
1434668126.337,-20.101036
1434668126.352,-19.619114
1434668126.368,-18.294498
1434668126.384,-16.255798
1434668126.399,-13.670689
1434668126.415,-10.753895
1434668126.431,-7.7340355
1434668126.446,-4.8585396
1434668126.462,-2.3319588
1434668126.478,-0.30463028
1434668126.493,1.2302971
1434668126.509,2.3966255
1434668126.524,3.4121628
1434668126.54,4.4913406
1434668126.556,5.731159
1434668126.571,7.107403
1434668126.587,8.518604
1434668126.603,9.909523
1434668126.618,11.367226
1434668126.634,13.152222
1434668126.649,15.64476
1434668126.665,19.1404
1434668126.681,23.679317
1434668126.696,28.789833
1434668126.712,33.483707
1434668126.728,36.406155
1434668126.743,36.217365
1434668126.759,32.080452
1434668126.774,24.01601
1434668126.79,12.879269
1434668126.806,0.13116837
1434668126.821,-12.639217
1434668126.837,-24.11568
1434668126.853,-33.464954
1434668126.868,-40.341457
1434668126.884,-44.768734
1434668126.899,-46.90927
1434668126.915,-47.046726
1434668126.931,-45.481815
1434668126.946,-42.561234
1434668126.962,-38.68074
1434668126.978,-34.286125
1434668126.993,-29.839401
1434668127.009,-25.771908
1434668127.024,-22.446129
1434668127.04,-20.018364
1434668127.056,-18.403023
1434668127.071,-17.33397
1434668127.087,-16.4272
1434668127.103,-15.350807
1434668127.118,-13.876129
1434668127.134,-11.87846
1434668127.149,-9.292652
1434668127.165,-6.139824
1434668127.181,-2.5157623
1434668127.196,1.3551216
1434668127.212,5.215904
1434668127.228,8.874729
1434668127.243,12.371075
1434668127.259,15.974945
1434668127.274,20.105843
1434668127.29,25.056965
1434668127.306,30.713402
1434668127.321,36.449963
1434668127.337,41.192364
1434668127.353,43.694267
1434668127.368,42.93974
1434668127.384,38.555153
1434668127.399,30.892334
1434668127.415,20.991722
1434668127.431,10.27496
1434668127.446,0.06864166
1434668127.462,-8.690945
1434668127.478,-15.588169
1434668127.493,-20.588207
1434668127.509,-23.752441
1434668127.524,-25.056683
1434668127.54,-24.494144
1434668127.556,-22.221983
1434668127.571,-18.739433
1434668127.587,-14.895876
1434668127.603,-11.605789
1434668127.618,-9.513159
1434668127.634,-8.848349
1434668127.649,-9.346724
1434668127.665,-10.496712
1434668127.681,-11.761351
1434668127.696,-12.708124
1434668127.712,-13.041018
1434668127.728,-12.66057
1434668127.743,-11.605967
1434668127.759,-10.100533
1434668127.774,-8.490795
1434668127.79,-7.1221676
1434668127.806,-6.154353
1434668127.821,-5.519927
1434668127.837,-4.908495
1434668127.853,-3.9140053
1434668127.868,-2.1851206
1434668127.884,0.6135912
1434668127.899,4.6964207
1434668127.915,10.060364
1434668127.931,16.316952
1434668127.946,22.543602
1434668127.962,27.351593
1434668127.978,29.25359
1434668127.993,27.186539
1434668128.009,20.93782
1434668128.024,11.34176
1434668128.04,-0.027802467
1434668128.056,-11.364675
1434668128.071,-21.065538
1434668128.087,-28.102716
1434668128.103,-32.054337
1434668128.118,-32.973686
1434668128.134,-31.240938
1434668128.149,-27.416721
1434668128.165,-22.147137
1434668128.181,-16.075336
1434668128.196,-9.753142
1434668128.212,-3.5739632
1434668128.228,2.2085238
1434668128.243,7.447998
1434668128.259,12.116802
1434668128.274,16.2264
1434668128.29,19.807434
1434668128.306,22.95267
1434668128.321,25.74766
1434668128.337,28.302895
1434668128.353,30.697292
1434668128.368,32.992516
1434668128.384,35.184383
1434668128.399,37.25362
1434668128.415,39.194702
1434668128.431,41.07761
1434668128.446,43.10721
1434668128.462,45.595905
1434668128.478,48.879726
1434668128.493,53.22389
1434668128.509,58.6639
1434668128.524,64.92611
1434668128.54,71.33563
1434668128.556,76.893616
1434668128.571,80.40025
1434668128.587,80.779465
1434668128.603,77.353
1434668128.618,70.1791
1434668128.634,60.095856
1434668128.649,48.55101
1434668128.665,37.1386
1434668128.681,27.123127
1434668128.696,19.106522
1434668128.712,13.04847
1434668128.728,8.517902
1434668128.743,5.083189
1434668128.759,2.5015316
1434668128.774,0.7272625
1434668128.79,-0.3017025
1434668128.806,-0.8278465
1434668128.821,-1.3034058
1434668128.837,-2.2271805
1434668128.853,-3.966938
1434668128.868,-6.583721
1434668128.884,-9.828381
1434668128.899,-13.287498
1434668128.915,-16.596226
1434668128.931,-19.529678
1434668128.946,-22.061867
1434668128.962,-24.237877
1434668128.978,-26.110367
1434668128.993,-27.629387
1434668129.009,-28.658813
1434668129.024,-29.023819
1434668129.04,-28.621086
1434668129.056,-27.462036
1434668129.071,-25.63713
1434668129.087,-23.284935
1434668129.103,-20.564804
1434668129.118,-17.686142
1434668129.134,-15.089355
1434668129.15,-13.480888
1434668129.165,-13.773216
1434668129.181,-16.760498
1434668129.196,-22.756065
1434668129.212,-31.334068
1434668129.228,-41.387375
1434668129.243,-51.480736
1434668129.259,-60.327232
1434668129.275,-67.172386
1434668129.29,-71.8508
1434668129.306,-74.58082
1434668129.321,-75.677246
1434668129.337,-75.30253
1434668129.353,-73.446335
1434668129.368,-70.05462
1434668129.384,-65.17566
1434668129.4,-59.048386
1434668129.415,-52.13012
1434668129.431,-45.02157
1434668129.446,-38.357773
1434668129.462,-32.65902
1434668129.478,-28.212074
1434668129.493,-24.967659
1434668129.509,-22.594711
1434668129.525,-20.59932
1434668129.54,-18.536888
1434668129.556,-16.14608
1434668129.571,-13.39341
1434668129.587,-10.417992
1434668129.603,-7.445717
1434668129.618,-4.6868515
1434668129.634,-2.2745667
1434668129.65,-0.24720001
1434668129.665,1.5193024
1434668129.681,3.335617
1434668129.696,5.623108
1434668129.712,8.721596
1434668129.728,12.61911
1434668129.743,16.773132
1434668129.759,20.208527
1434668129.775,21.771492
1434668129.79,20.537743
1434668129.806,16.165848
1434668129.821,9.005386
1434668129.837,-0.034599304
1434668129.853,-9.817673
1434668129.868,-19.259247
1434668129.884,-27.62658
1434668129.9,-34.530956
1434668129.915,-39.877464
1434668129.931,-43.690945
1434668129.946,-45.88833
1434668129.962,-46.345577
1434668129.978,-44.99125
1434668129.993,-42.02527
1434668130.009,-38.05314
1434668130.025,-34.021767
1434668130.04,-30.948656
1434668130.056,-29.52907
1434668130.071,-29.852781
1434668130.087,-31.331854
1434668130.103,-32.95055
1434668130.118,-33.618683
1434668130.134,-32.517647
1434668130.15,-29.326
1434668130.165,-24.25072
1434668130.181,-17.829624
1434668130.196,-10.786871
1434668130.212,-3.751892
1434668130.228,2.833397
1434668130.243,8.770592
1434668130.259,14.085239
1434668130.275,18.965324
1434668130.29,23.652138
1434668130.306,28.379318
1434668130.321,33.25922
1434668130.337,38.185184
1434668130.353,42.661423
1434668130.368,45.90171
1434668130.384,46.99138
1434668130.4,45.269707
1434668130.415,40.628563
1434668130.431,33.665
1434668130.446,25.478088
1434668130.462,17.30008
1434668130.478,10.07962
1434668130.493,4.317688
1434668130.509,0.15789795
1434668130.525,-2.4228516
1434668130.54,-3.4487305
1434668130.556,-2.9564896
1434668130.571,-1.1212311
1434668130.587,1.6201782
1434668130.603,4.6203156
1434668130.618,7.2081757
1434668130.634,8.895401
1434668130.65,9.569153
1434668130.665,9.452332
1434668130.681,9.010803
1434668130.696,8.74028
1434668130.712,9.05632
1434668130.728,10.085739
1434668130.743,11.71402
1434668130.759,13.673187
1434668130.775,15.647125
1434668130.79,17.485718
1434668130.806,19.281631
1434668130.821,21.317352
1434668130.837,23.943787
1434668130.853,27.384079
1434668130.868,31.700592
1434668130.884,36.794586
1434668130.9,42.44127
1434668130.915,48.22055
1434668130.931,53.51059
1434668130.946,57.425583
1434668130.962,58.975525
1434668130.978,57.390625
1434668130.993,52.50653
1434668131.009,44.894104
1434668131.025,35.750687
1434668131.04,26.458618
1434668131.056,18.145782
1434668131.071,11.421417
1434668131.087,6.3949127
1434668131.103,2.8882904
1434668131.118,0.6999359
1434668131.134,-0.2775421
1434668131.15,-0.12837219
1434668131.165,0.9753723
1434668131.181,2.7099152
1434668131.196,4.574356
1434668131.212,6.0942383
1434668131.228,6.9564056
1434668131.243,7.152939
1434668131.259,7.02713
1434668131.275,7.1025543
1434668131.29,7.832794
1434668131.306,9.369003
1434668131.321,11.476685
1434668131.337,13.613373
1434668131.353,15.229553
1434668131.368,16.078445
1434668131.384,16.355225
1434668131.4,16.643433
1434668131.415,17.688782
1434668131.431,20.101563
1434668131.446,24.168762
1434668131.462,29.703522
1434668131.478,36.01329
1434668131.493,41.977646
1434668131.509,46.23546
1434668131.525,47.528534
1434668131.54,45.0804
1434668131.556,38.942093
1434668131.571,29.975342
1434668131.587,19.639679
1434668131.603,9.49913
1434668131.618,0.76109314
1434668131.634,-5.8689423
1434668131.65,-10.2061615
1434668131.665,-12.386795
1434668131.681,-12.697006
1434668131.696,-11.490952
1434668131.712,-9.202545
1434668131.728,-6.32753
1434668131.743,-3.379837
1434668131.759,-0.7743988
1434668131.775,1.2982025
1434668131.79,2.8471527
1434668131.806,4.0700073
1434668131.822,5.2552795
1434668131.837,6.636841
1434668131.853,8.240265
1434668131.868,9.891434
1434668131.884,11.240753
1434668131.9,11.9135895
1434668131.915,11.763794
1434668131.931,11.011841
1434668131.946,10.228455
1434668131.962,10.197815
1434668131.978,11.625015
1434668131.993,14.851608
1434668132.009,19.718979
1434668132.025,25.49762
1434668132.04,31.00409
1434668132.056,34.88127
1434668132.072,35.904663
1434668132.087,33.372726
1434668132.103,27.365868
1434668132.118,18.771736
1434668132.134,9.014122
1434668132.15,-0.3585434
1434668132.165,-8.133476
1434668132.181,-13.703232
1434668132.197,-17.016457
1434668132.212,-18.374855
1434668132.228,-18.181862
1434668132.243,-16.768494
1434668132.259,-14.389191
1434668132.275,-11.331688
1434668132.29,-7.98938
1434668132.306,-4.818672
1434668132.322,-2.2686005
1434668132.337,-0.5674896
1434668132.353,0.30921173
1434668132.368,0.6130295
1434668132.384,0.71264267
1434668132.4,0.87947464
1434668132.415,1.1389427
1434668132.431,1.3149261
1434668132.447,1.1673164
1434668132.462,0.5757332
1434668132.478,-0.26836777
1434668132.493,-0.8715019
1434668132.509,-0.59795
1434668132.525,1.1149578
1434668132.54,4.4444313
1434668132.556,9.032566
1434668132.572,13.971215
1434668132.587,17.95431
1434668132.603,19.602097
1434668132.618,17.872608
1434668132.634,12.384858
1434668132.65,3.5605164
1434668132.665,-7.451624
1434668132.681,-19.139427
1434668132.697,-30.067158
1434668132.712,-39.209686
1434668132.728,-46.127003
1434668132.743,-50.794594
1434668132.759,-53.385216
1434668132.775,-54.05543
1434668132.79,-52.94165
1434668132.806,-50.21437
1434668132.822,-46.251198
1434668132.837,-41.65016
1434668132.853,-37.10251
1434668132.868,-33.153183
1434668132.884,-30.03487
1434668132.9,-27.569439
1434668132.915,-25.299671
1434668132.931,-22.717972
1434668132.947,-19.501945
1434668132.962,-15.644295
1434668132.978,-11.442528
1434668132.993,-7.3488007
1434668133.009,-3.7788162
1434668133.025,-0.91262436
1434668133.04,1.3402901
1434668133.056,3.3374138
1434668133.072,5.560913
1434668133.087,8.502838
1434668133.103,12.461845
1434668133.118,17.452072
1434668133.134,23.115898
1434668133.15,28.662735
1434668133.165,32.961876
1434668133.181,34.785004
1434668133.197,33.18036
1434668133.212,27.849525
1434668133.228,19.317406
1434668133.243,8.841881
1434668133.259,-2.037918
1434668133.275,-11.980743
1434668133.29,-20.19262
1434668133.306,-26.465744
1434668133.322,-30.881256
1434668133.337,-33.52662
1434668133.353,-34.38237
1434668133.368,-33.436974
1434668133.384,-30.919037
1434668133.4,-27.463875
1434668133.415,-23.983322
1434668133.431,-21.322891
1434668133.447,-19.938347
1434668133.462,-19.7332
1434668133.478,-20.16111
1434668133.493,-20.489365
1434668133.509,-20.113815
1434668133.525,-18.737831
1434668133.54,-16.440948
1434668133.556,-13.591484
1434668133.572,-10.672585
1434668133.587,-8.071022
1434668133.603,-5.9679565
1434668133.618,-4.223366
1434668133.634,-2.461998
1434668133.65,-0.20028687
1434668133.665,2.996254
1434668133.681,7.391533
1434668133.697,13.0427475
1434668133.712,19.733551
1434668133.728,26.845268
1434668133.743,33.336678
1434668133.759,37.84594
1434668133.775,39.021797
1434668133.79,36.00428
1434668133.806,28.82122
1434668133.822,18.475655
1434668133.837,6.6287613
1434668133.853,-4.9367294
1434668133.868,-14.848099
1434668133.884,-22.37445
1434668133.9,-27.346062
1434668133.915,-29.964233
1434668133.931,-30.540543
1434668133.947,-29.432732
1434668133.962,-27.043854
1434668133.978,-23.869743
1434668133.993,-20.413979
1434668134.009,-17.1137
1434668134.025,-14.2589035
1434668134.04,-11.983765
1434668134.056,-10.276047
1434668134.072,-9.00209
1434668134.087,-7.9199905
1434668134.103,-6.752716
1434668134.118,-5.2720337
1434668134.134,-3.4307785
1434668134.15,-1.369194
1434668134.165,0.6322174
1434668134.181,2.3544846
1434668134.197,3.7287521
1434668134.212,4.9420395
1434668134.228,6.2491302
1434668134.243,7.91597
1434668134.259,10.100441
1434668134.275,12.915733
1434668134.29,16.47403
1434668134.306,20.912735
1434668134.322,26.297325
1434668134.337,32.345596
1434668134.353,38.285324
1434668134.368,42.842506
1434668134.384,44.538834
1434668134.4,42.259613
1434668134.415,35.68061
1434668134.431,25.528374
1434668134.447,13.338882
1434668134.462,0.9720688
1434668134.478,-10.051018
1434668134.493,-18.923164
1434668134.509,-25.575958
1434668134.525,-30.420372
1434668134.54,-33.925316
1434668134.556,-36.35131
1434668134.572,-37.74945
1434668134.587,-38.102333
1434668134.603,-37.5204
1434668134.618,-36.276566
1434668134.634,-34.690872
1434668134.65,-32.973526
1434668134.665,-31.204765
1434668134.681,-29.344269
1434668134.697,-27.390945
1434668134.712,-25.425964
1434668134.728,-23.663734
1434668134.744,-22.289299
1434668134.759,-21.401237
1434668134.775,-20.880096
1434668134.79,-20.44059
1434668134.806,-19.666191
1434668134.822,-18.155334
1434668134.837,-15.661346
1434668134.853,-12.192627
1434668134.869,-8.0346985
1434668134.884,-3.6418915
1434668134.9,0.51490784
1434668134.915,4.148468
1434668134.931,7.296097
1434668134.947,10.29422
1434668134.962,13.668976
1434668134.978,17.901299
1434668134.994,23.20031
1434668135.009,29.32138
1434668135.025,35.50428
1434668135.04,40.540016
1434668135.056,43.081245
1434668135.072,42.051346
1434668135.087,37.041298
1434668135.103,28.523315
1434668135.119,17.76722
1434668135.134,6.412529
1434668135.15,-4.0139008
1434668135.165,-12.572258
1434668135.181,-18.964096
1434668135.197,-23.409622
1434668135.212,-26.2956
1434668135.228,-27.957886
1434668135.244,-28.583519
1434668135.259,-28.297615
1434668135.275,-27.31813
1434668135.29,-25.991013
1434668135.306,-24.711197
1434668135.322,-23.822792
1434668135.337,-23.483345
1434668135.353,-23.632874
1434668135.369,-24.0159
1434668135.384,-24.284885
1434668135.4,-24.119053
1434668135.415,-23.395786
1434668135.431,-22.20224
1434668135.447,-20.801064
1434668135.462,-19.519115
1434668135.478,-18.55508
1434668135.494,-17.861816
1434668135.509,-17.147606
1434668135.525,-15.977253
1434668135.54,-13.982384
1434668135.556,-11.01556
1434668135.572,-7.19989
1434668135.587,-2.8464355
1434668135.603,1.6075516
1434668135.619,5.7864456
1434668135.634,9.415562
1434668135.65,12.391588
1434668135.665,14.757317
1434668135.681,16.730335
1434668135.697,18.615696
1434668135.712,20.788948
1434668135.728,23.530502
1434668135.744,26.88336
1434668135.759,30.56212
1434668135.775,33.873837
1434668135.79,35.819653
1434668135.806,35.379215
1434668135.822,31.866524
1434668135.837,25.209152
1434668135.853,16.071356
1434668135.869,5.6485796
1434668135.884,-4.7242703
1434668135.9,-13.928131
1434668135.915,-21.331638
1434668135.931,-26.76174
1434668135.947,-30.251617
1434668135.962,-31.90893
1434668135.978,-31.86368
1434668135.994,-30.34773
1434668136.009,-27.811905
1434668136.025,-24.960583
1434668136.04,-22.549915
1434668136.056,-21.1254
1434668136.072,-20.833961
1434668136.087,-21.362633
1434668136.103,-22.132294
1434668136.119,-22.543228
1434668136.134,-22.200733
1434668136.15,-21.029182
1434668136.165,-19.2603
1434668136.181,-17.274803
1434668136.197,-15.453327
1434668136.212,-13.990265
1434668136.228,-12.807495
1434668136.244,-11.557045
1434668136.259,-9.796654
1434668136.275,-7.1379776
1434668136.29,-3.4469757
1434668136.306,1.1076813
1434668136.322,6.1832657
1434668136.337,11.417191
1434668136.353,16.560661
1434668136.369,21.60025
1434668136.384,26.68293
1434668136.4,32.037354
1434668136.415,37.879738
1434668136.431,44.27925
1434668136.447,51.04294
1434668136.462,57.630127
1434668136.478,63.157898
1434668136.494,66.57701
1434668136.509,67.06084
1434668136.525,64.29668
1434668136.54,58.64692
1434668136.556,51.04014
1434668136.572,42.60556
1434668136.587,34.310364
1434668136.603,26.721466
1434668136.619,20.078484
1434668136.634,14.415741
1434668136.65,9.792809
1434668136.665,6.331192
1434668136.681,4.105591
1434668136.697,3.0957031
1434668136.712,3.0394592
1434668136.728,3.52182
1434668136.744,4.0899353
1434668136.759,4.379944
1434668136.775,4.200287
1434668136.79,3.576889
1434668136.806,2.7318573
1434668136.822,1.9128418
1434668136.837,1.3150024
1434668136.853,0.94747925
1434668136.869,0.65660095
1434668136.884,0.2185669
1434668136.9,-0.488739
1434668136.915,-1.3870087
1434668136.931,-2.1802216
1434668136.947,-2.4660797
1434668136.962,-1.9489746
1434668136.978,-0.58488464
1434668136.994,1.3776093
1434668137.009,3.4472656
1434668137.025,5.1118317
1434668137.04,6.0023956
1434668137.056,6.0335083
1434668137.072,5.4931793
1434668137.087,4.921707
1434668137.103,4.917404
1434668137.119,5.95282
1434668137.134,8.205017
1434668137.15,11.479507
1434668137.165,15.234863
1434668137.181,18.695557
1434668137.197,20.949387
1434668137.212,21.174973
1434668137.228,18.801437
1434668137.244,13.745529
1434668137.259,6.533188
1434668137.275,-1.7866974
1434668137.29,-9.968124
1434668137.306,-16.920837
1434668137.322,-22.055069
1434668137.337,-25.35846
1434668137.353,-27.235748
1434668137.369,-28.141342
1434668137.384,-28.365799
1434668137.4,-27.92691
1434668137.416,-26.708572
1434668137.431,-24.686295
1434668137.447,-22.038025
1434668137.462,-19.114151
1434668137.478,-16.316315
1434668137.494,-13.947205
1434668137.509,-12.130386
1434668137.525,-10.860016
1434668137.541,-10.075409
1434668137.556,-9.728592
1434668137.572,-9.806549
1434668137.587,-10.242294
1434668137.603,-10.882248
1434668137.619,-11.4543
1434668137.634,-11.57016
1434668137.65,-10.841751
1434668137.666,-9.048462
1434668137.681,-6.2447815
1434668137.697,-2.7876892
1434668137.712,0.7317505
1434668137.728,3.6950073
1434668137.744,5.7211914
1434668137.759,6.7744904
1434668137.775,7.2074127
1434668137.791,7.579132
1434668137.806,8.446991
1434668137.822,10.201233
1434668137.837,12.985764
1434668137.853,16.603882
1434668137.869,20.579086
1434668137.884,24.14859
1434668137.9,26.362625
1434668137.916,26.308487
1434668137.931,23.363647
1434668137.947,17.453735
1434668137.962,9.190247
1434668137.978,-0.2747345
1434668137.994,-9.588867
1434668138.009,-17.549118
1434668138.025,-23.430893
1434668138.041,-27.098923
1434668138.056,-28.862137
1434668138.072,-29.236404
1434668138.087,-28.730347
1434668138.103,-27.712677
1434668138.119,-26.380768
1434668138.134,-24.87358
1434668138.15,-23.276703
1434668138.166,-21.703339
1434668138.181,-20.239182
1434668138.197,-18.887451
1434668138.212,-17.551483
1434668138.228,-16.106812
1434668138.244,-14.491821
1434668138.259,-12.779785
1434668138.275,-11.166428
1434668138.291,-9.866745
1434668138.306,-8.9266205
1434668138.322,-8.18779
1434668138.337,-7.2703705
1434668138.353,-5.76503
1434668138.369,-3.4090881
1434668138.384,-0.18188477
1434668138.4,3.7365417
1434668138.416,8.065872
1434668138.431,12.590073
1434668138.447,17.198822
1434668138.462,21.86499
1434668138.478,26.611755
1434668138.494,31.491653
1434668138.509,36.559875
1434668138.525,41.877518
1434668138.541,47.440002
1434668138.556,53.00418
1434668138.572,58.04756
1434668138.587,61.696472
1434668138.603,62.958435
1434668138.619,61.00168
1434668138.634,55.558334
1434668138.65,47.07666
1434668138.666,36.675613
1434668138.681,25.83406
1434668138.697,15.93103
1434668138.712,7.924408
1434668138.728,2.2022095
1434668138.744,-1.3159332
1434668138.759,-2.9435883
1434668138.775,-3.0088959
1434668138.791,-1.8107605
1434668138.806,0.37210083
1434668138.822,3.174118
1434668138.837,6.1109467
1434668138.853,8.671295
1434668138.869,10.465042
1434668138.884,11.321228
1434668138.9,11.325363
1434668138.916,10.698425
1434668138.931,9.700653
1434668138.947,8.561432
1434668138.962,7.4950867
1434668138.978,6.655365
1434668138.994,6.2118683
1434668139.009,6.2421875
1434668139.025,6.7240295
1434668139.041,7.489151
1434668139.056,8.325623
1434668139.072,9.020996
1434668139.087,9.507477
1434668139.103,9.85614
1434668139.119,10.29834
1434668139.134,11.175751
1434668139.15,12.859268
1434668139.166,15.647522
1434668139.181,19.61972
1434668139.197,24.56343
1434668139.212,29.87172
1434668139.228,34.621002
1434668139.244,37.729355
1434668139.259,38.212128
1434668139.275,35.529694
1434668139.291,29.729355
1434668139.306,21.519531
1434668139.322,12.143585
1434668139.337,3.0368042
1434668139.353,-4.575882
1434668139.369,-9.968559
1434668139.384,-13.047813
1434668139.4,-14.265671
1434668139.416,-14.35537
1434668139.431,-14.02359
1434668139.447,-13.754868
1434668139.462,-13.759506
1434668139.478,-14.01973
1434668139.494,-14.440239
1434668139.509,-14.92807
1434668139.525,-15.452126
1434668139.541,-16.029594
1434668139.556,-16.6903
1434668139.572,-17.458824
1434668139.587,-18.323433
1434668139.603,-19.214432
1434668139.619,-20.007057
1434668139.634,-20.586205
1434668139.65,-20.823936
1434668139.666,-20.648804
1434668139.681,-20.01973
1434668139.697,-18.876793
1434668139.712,-17.149826
1434668139.728,-14.826881
1434668139.744,-11.97559
1434668139.759,-8.766647
1434668139.775,-5.4301834
1434668139.791,-2.1294632
1434668139.806,1.1764259
1434668139.822,4.6764565
1434668139.837,8.597706
1434668139.853,12.919655
1434668139.869,17.178146
1434668139.884,20.466713
1434668139.9,21.682957
1434668139.916,19.886658
1434668139.931,14.728298
1434668139.947,6.6160965
1434668139.962,-3.3727608
1434668139.978,-13.810467
1434668139.994,-23.328974
1434668140.009,-30.976667
1434668140.025,-36.343407
1434668140.041,-39.492027
1434668140.056,-40.755394
1434668140.072,-40.48284
1434668140.088,-38.979248
1434668140.103,-36.529022
1434668140.119,-33.45494
1434668140.134,-30.185722
1434668140.15,-27.18098
1434668140.166,-24.819273
1434668140.181,-23.289286
1434668140.197,-22.60289
1434668140.213,-22.582611
1434668140.228,-23.011518
1434668140.244,-23.668121
1434668140.259,-24.259882
1434668140.275,-24.464546
1434668140.291,-23.983438
1434668140.306,-22.573635
1434668140.322,-20.215023
1434668140.338,-17.09517
1434668140.353,-13.52686
1434668140.369,-9.813678
1434668140.384,-6.1541233
1434668140.4,-2.5189629
1434668140.416,1.2403688
1434668140.431,5.3736563
1434668140.447,10.174509
1434668140.463,15.86939
1434668140.478,22.496338
1434668140.494,29.757244
1434668140.509,36.934296
1434668140.525,42.896824
1434668140.541,46.422543
1434668140.556,46.52634
1434668140.572,42.83957
1434668140.588,35.807503
1434668140.603,26.53468
1434668140.619,16.520119
1434668140.634,7.2303705
1434668140.65,-0.23337984
1434668140.666,-5.3344173
1434668140.681,-8.072388
1434668140.697,-8.886557
1434668140.713,-8.401885
1434668140.728,-7.2017117
1434668140.744,-5.7086844
1434668140.759,-4.122348
1434668140.775,-2.4460816
1434668140.791,-0.65968084
1434668140.806,1.2134984
1434668140.822,3.0734138
1434668140.838,4.7625875
1434668140.853,6.119786
1434668140.869,7.052626
1434668140.884,7.573181
1434668140.9,7.788905
1434668140.916,7.8916078
1434668140.931,8.117933
1434668140.947,8.680313
1434668140.963,9.728698
1434668140.978,11.316086
1434668140.994,13.411276
1434668141.009,15.955454
1434668141.025,18.868788
1434668141.041,22.035976
1434668141.056,25.31425
1434668141.072,28.531176
1434668141.088,31.60018
1434668141.103,34.563293
1434668141.119,37.59829
1434668141.134,40.825256
1434668141.15,44.08121
1434668141.166,46.73244
1434668141.181,47.73507
1434668141.197,45.995453
1434668141.213,40.82304
1434668141.228,32.27345
1434668141.244,21.180004
1434668141.259,8.928425
1434668141.275,-3.0092468
1434668141.291,-13.473263
1434668141.306,-21.782074
1434668141.322,-27.792892
1434668141.338,-31.686855
1434668141.353,-33.832474
1434668141.369,-34.626183
1434668141.384,-34.338196
1434668141.4,-33.130714
1434668141.416,-31.167725
1434668141.431,-28.682281
1434668141.447,-26.060463
1434668141.463,-23.808548
1434668141.478,-22.350952
1434668141.494,-21.864532
1434668141.509,-22.201988
1434668141.525,-22.928017
1434668141.541,-23.500443
1434668141.556,-23.457703
1434668141.572,-22.544182
1434668141.588,-20.695442
1434668141.603,-18.06797
1434668141.619,-14.911102
1434668141.634,-11.528275
1434668141.65,-8.178673
1434668141.666,-5.019516
1434668141.681,-2.0338516
1434668141.697,0.93065643
1434668141.713,4.126648
1434668141.728,7.846451
1434668141.744,12.325882
1434668141.759,17.709312
1434668141.775,23.888199
1434668141.791,30.301254
1434668141.806,35.881737
1434668141.822,39.184715
1434668141.838,38.79904
1434668141.853,33.91462
1434668141.869,24.743637
1434668141.884,12.528183
1434668141.9,-0.82418823
1434668141.916,-13.424652
1434668141.931,-23.934967
1434668141.947,-31.727524
1434668141.963,-36.80896
1434668141.978,-39.529343
1434668141.994,-40.36122
1434668142.009,-39.815445
1434668142.025,-38.4543
1434668142.041,-36.858734
1434668142.056,-35.482193
1434668142.072,-34.573853
1434668142.088,-34.07396
1434668142.103,-33.739334
1434668142.119,-33.29532
1434668142.134,-32.552444
1434668142.15,-31.500961
1434668142.166,-30.276718
1434668142.181,-29.07373
1434668142.197,-28.019089
1434668142.213,-27.133835
1434668142.228,-26.26065
1434668142.244,-25.099411
1434668142.259,-23.341232
1434668142.275,-20.73491
1434668142.291,-17.276443
1434668142.306,-13.203079
1434668142.322,-8.865082
1434668142.338,-4.56987
1434668142.353,-0.4535675
1434668142.369,3.6015625
1434668142.384,7.8689117
1434668142.4,12.687729
1434668142.416,18.297989
1434668142.431,24.682648
1434668142.447,31.383316
1434668142.463,37.485764
1434668142.478,41.70317
1434668142.494,42.72032
1434668142.509,39.69014
1434668142.525,32.57576
1434668142.541,22.265198
1434668142.556,10.305618
1434668142.572,-1.5592651
1434668142.588,-11.92923
1434668142.603,-20.023087
1434668142.619,-25.657593
1434668142.634,-29.072205
1434668142.65,-30.65274
1434668142.666,-30.771408
1434668142.681,-29.751083
1434668142.697,-27.823654
1434668142.713,-25.200455
1434668142.728,-22.108093
1434668142.744,-18.79506
1434668142.76,-15.572311
1434668142.775,-12.751404
1434668142.791,-10.591278
1434668142.806,-9.202438
1434668142.822,-8.543884
1434668142.838,-8.402054
1434668142.853,-8.511597
1434668142.869,-8.614822
1434668142.884,-8.474884
1434668142.9,-7.8788986
1434668142.916,-6.6316376
1434668142.931,-4.585411
1434668142.947,-1.7225113
1434668142.963,1.7846756
1434668142.978,5.5747147
1434668142.994,9.210091
1434668143.01,12.315971
1434668143.025,14.754135
1434668143.041,16.65577
1434668143.056,18.426567
1434668143.072,20.690025
1434668143.088,24.06195
1434668143.103,28.854584
1434668143.119,34.875824
1434668143.135,41.251076
1434668143.15,46.56826
1434668143.166,49.278862
1434668143.181,48.195816
1434668143.197,42.930008
1434668143.213,34.056946
1434668143.228,22.852211
1434668143.244,10.920166
1434668143.26,-0.30469513
1434668143.275,-9.812134
1434668143.291,-17.086113
1434668143.306,-22.022057
1434668143.322,-24.748924
1434668143.338,-25.54663
1434668143.353,-24.802696
1434668143.369,-22.991234
1434668143.385,-20.658669
1434668143.4,-18.319527
1434668143.416,-16.378525
1434668143.431,-15.0310135
1434668143.447,-14.1894
1434668143.463,-13.5616
1434668143.478,-12.791389
1434668143.494,-11.640251
1434668143.51,-10.099564
1434668143.525,-8.414833
1434668143.541,-6.946396
1434668143.556,-5.9816895
1434668143.572,-5.5662766
1434668143.588,-5.462349
1434668143.603,-5.2620926
1434668143.619,-4.511055
1434668143.635,-2.866127
1434668143.65,-0.18494415
1434668143.666,3.3808212
1434668143.681,7.4604034
1434668143.697,11.494202
1434668143.713,14.96669
1434668143.728,17.582962
1434668143.744,19.478584
1434668143.76,21.145813
1434668143.775,23.285896
1434668143.791,26.365044
1434668143.806,30.370895
1434668143.822,34.67279
1434668143.838,38.157066
1434668143.853,39.529625
1434668143.869,37.751854
1434668143.885,32.396233
1434668143.9,23.791176
1434668143.916,12.956978
1434668143.931,1.3298798
1434668143.947,-9.635994
1434668143.963,-18.814445
1434668143.978,-25.62072
1434668143.994,-29.966347
1434668144.01,-32.04577
1434668144.025,-32.17669
1434668144.041,-30.708809
1434668144.056,-28.064377
1434668144.072,-24.778198
1434668144.088,-21.510864
1434668144.103,-18.877571
1434668144.119,-17.23169
1434668144.135,-16.577019
1434668144.15,-16.551376
1434668144.166,-16.643959
1434668144.181,-16.411453
1434668144.197,-15.591141
1434668144.213,-14.166199
1434668144.228,-12.311165
1434668144.244,-10.281868
1434668144.26,-8.305069
1434668144.275,-6.4716415
1434668144.291,-4.7445297
1434668144.306,-2.9356155
1434668144.322,-0.8421097
1434668144.338,1.7009201
1434668144.353,4.7033386
1434668144.369,8.022728
1434668144.385,11.515816
1434668144.4,15.113564
1434668144.416,18.901405
1434668144.431,23.094719
1434668144.447,27.870163
1434668144.463,33.20423
1434668144.478,38.669884
1434668144.494,43.445663
1434668144.51,46.426323
1434668144.525,46.525276
1434668144.541,43.016953
1434668144.556,35.84752
1434668144.572,25.76728
1434668144.588,14.132828
1434668144.603,2.4530792
1434668144.619,-8.001801
1434668144.635,-16.526726
1434668144.65,-22.971977
1434668144.666,-27.523232
1434668144.681,-30.431633
1434668144.697,-31.861176
1434668144.713,-31.912773
1434668144.728,-30.778305
1434668144.744,-28.827095
1434668144.76,-26.55709
1434668144.775,-24.464622
1434668144.791,-22.86306
1434668144.806,-21.782738
1434668144.822,-21.015266
1434668144.838,-20.27568
1434668144.853,-19.38314
1434668144.869,-18.353127
1434668144.885,-17.399986
1434668144.9,-16.756935
1434668144.916,-16.519226
1434668144.931,-16.470665
1434668144.947,-16.091301
1434668144.963,-14.758194
1434668144.978,-12.085556
1434668144.994,-8.131851
1434668145.01,-3.455284
1434668145.025,1.1250305
1434668145.041,4.937195
1434668145.056,7.7278214
1434668145.072,9.777397
1434668145.088,11.750038
1434668145.103,14.367203
1434668145.119,18.15525
1434668145.135,23.259552
1434668145.15,29.35569
1434668145.166,35.630814
1434668145.181,40.922783
1434668145.197,43.94712
1434668145.213,43.651085
1434668145.228,39.59189
1434668145.244,32.156685
1434668145.26,22.427658
1434668145.275,11.872528
1434668145.291,1.8497086
1434668145.306,-6.6976852
1434668145.322,-13.276855
1434668145.338,-17.780617
1434668145.353,-20.356972
1434668145.369,-21.291656
1434668145.385,-21.009743
1434668145.4,-20.028656
1434668145.416,-18.859962
1434668145.432,-17.857094
1434668145.447,-17.157356
1434668145.463,-16.668945
1434668145.478,-16.220207
1434668145.494,-15.638725
1434668145.51,-14.80983
1434668145.525,-13.700333
1434668145.541,-12.318405
1434668145.556,-10.7504425
1434668145.572,-9.145569
1434668145.588,-7.704193
1434668145.603,-6.573326
1434668145.619,-5.7152557
1434668145.635,-4.907379
1434668145.65,-3.7746277
1434668145.666,-1.9912376
1434668145.682,0.59217834
1434668145.697,3.918419
1434668145.713,7.729965
1434668145.728,11.690559
1434668145.744,15.500885
1434668145.76,18.949413
1434668145.775,22.013485
1434668145.791,24.868595
1434668145.807,27.863049
1434668145.822,31.290619
1434668145.838,35.18296
1434668145.853,39.07353
1434668145.869,41.986244
1434668145.885,42.754436
1434668145.9,40.453026
1434668145.916,34.808674
1434668145.932,26.340504
1434668145.947,16.197681
1434668145.963,5.7431374
1434668145.978,-3.8775787
1434668145.994,-11.932575
1434668146.01,-18.160522
1434668146.025,-22.60218
1434668146.041,-25.41758
1434668146.057,-26.776203
1434668146.072,-26.801792
1434668146.088,-25.65247
1434668146.103,-23.60329
1434668146.119,-21.088913
1434668146.135,-18.656044
1434668146.15,-16.810242
1434668146.166,-15.859985
1434668146.182,-15.744293
1434668146.197,-16.115921
1434668146.213,-16.513027
1434668146.228,-16.608627
1434668146.244,-16.349102
1434668146.26,-15.862328
1434668146.275,-15.285732
1434668146.291,-14.616791
1434668146.307,-13.617996
1434668146.322,-12.014072
1434668146.338,-9.680756
1434668146.353,-6.7664413
1434668146.369,-3.6229248
1434668146.385,-0.62047577
1434668146.4,2.0864716
1434668146.416,4.6382637
1434668146.432,7.4217567
1434668146.447,10.90929
1434668146.463,15.413208
1434668146.478,20.91494
1434668146.494,26.958023
1434668146.51,32.702515
1434668146.525,37.056625
1434668146.541,38.932743
1434668146.557,37.57172
1434668146.572,32.75299
1434668146.588,24.916313
1434668146.603,15.043095
1434668146.619,4.4153748
1434668146.635,-5.712967
1434668146.65,-14.368496
1434668146.666,-21.066658
1434668146.682,-25.80283
1434668146.697,-28.911129
1434668146.713,-30.853142
1434668146.728,-32.020363
1434668146.744,-32.64253
1434668146.76,-32.829296
1434668146.775,-32.639137
1434668146.791,-32.184864
1434668146.807,-31.622353
1434668146.822,-31.101753
1434668146.838,-30.681839
1434668146.853,-30.348104
1434668146.869,-30.014954
1434668146.885,-29.633875
1434668146.9,-29.192984
1434668146.916,-28.676102
1434668146.932,-28.004261
1434668146.947,-26.99746
1434668146.963,-25.444695
1434668146.978,-23.159056
1434668146.994,-20.089027
1434668147.01,-16.265278
1434668147.025,-11.822243
1434668147.041,-6.9248886
1434668147.057,-1.7861071
1434668147.072,3.3711367
1434668147.088,8.337954
1434668147.103,13.05457
1434668147.119,17.679857
1434668147.135,22.51048
1434668147.15,27.827856
1434668147.166,33.55164
1434668147.182,39.099205
1434668147.197,43.429733
1434668147.213,45.40952
1434668147.228,44.205338
1434668147.244,39.674793
1434668147.26,32.44139
1434668147.275,23.683823
1434668147.291,14.757759
1434668147.307,6.8125076
1434668147.322,0.5368824
1434668147.338,-3.8541374
1434668147.353,-6.549038
1434668147.369,-7.8998165
1434668147.385,-8.232775
1434668147.4,-7.7947445
1434668147.416,-6.772791
1434668147.432,-5.3653145
1434668147.447,-3.8366623
1434668147.463,-2.4988022
1434668147.478,-1.6180496
1434668147.494,-1.2983208
1434668147.51,-1.4966507
1434668147.525,-2.0363846
1434668147.541,-2.7593231
1434668147.557,-3.5687027
1434668147.572,-4.3877373
1434668147.588,-5.0662613
1434668147.603,-5.384033
1434668147.619,-5.0921364
1434668147.635,-4.0531616
1434668147.65,-2.329895
1434668147.666,-0.19468689
1434668147.682,2.0320282
1434668147.697,4.085869
1434668147.713,5.9051895
1434668147.728,7.602459
1434668147.744,9.423183
1434668147.76,11.707268
1434668147.775,14.802856
1434668147.791,18.96222
1434668147.807,24.154678
1434668147.822,29.922462
1434668147.838,35.338688
1434668147.853,39.170574
1434668147.869,40.2398
1434668147.885,37.83091
1434668147.9,31.980553
1434668147.916,23.473068
1434668147.932,13.63324
1434668147.947,3.9275208
1434668147.963,-4.395607
1434668147.978,-10.603966
1434668147.994,-14.512901
1434668148.01,-16.383583
1434668148.025,-16.719261
1434668148.041,-16.039177
1434668148.057,-14.725838
1434668148.072,-13.020264
1434668148.088,-11.058365
1434668148.103,-8.962967
1434668148.119,-6.891632
1434668148.135,-4.974289
1434668148.15,-3.2710342
1434668148.166,-1.8055878
1434668148.182,-0.56113434
1434668148.197,0.3932724
1434668148.213,0.90695953
1434668148.228,0.821373
1434668148.244,0.13007355
1434668148.26,-0.9681473
1434668148.275,-2.0596466
1434668148.291,-2.665924
1434668148.307,-2.438408
1434668148.322,-1.228447
1434668148.338,0.8372879
1434668148.354,3.4472122
1434668148.369,6.230774
1434668148.385,8.873772
1434668148.4,11.1772995
1434668148.416,13.138939
1434668148.432,15.005661
1434668148.447,17.145164
1434668148.463,19.950432
1434668148.479,23.55091
1434668148.494,27.602722
1434668148.51,31.296791
1434668148.525,33.513268
1434668148.541,33.195755
1434668148.557,29.749283
1434668148.572,23.277023
1434668148.588,14.58062
1434668148.604,4.8931503
1434668148.619,-4.476074
1434668148.635,-12.504921
1434668148.65,-18.6063
1434668148.666,-22.684196
1434668148.682,-24.907166
1434668148.697,-25.581635
1434668148.713,-24.975616
1434668148.729,-23.367493
1434668148.744,-21.035782
1434668148.76,-18.324951
1434668148.775,-15.623611
1434668148.791,-13.265549
1434668148.807,-11.447655
1434668148.822,-10.19487
1434668148.838,-9.386955
1434668148.854,-8.857178
1434668148.869,-8.465767
1434668148.885,-8.09169
1434668148.9,-7.6311646
1434668148.916,-6.957443
1434668148.932,-5.9335785
1434668148.947,-4.453583
1434668148.963,-2.5181427
1434668148.979,-0.2052536
1434668148.994,2.3661728
1434668149.01,5.078453
1434668149.025,7.861191
1434668149.041,10.671677
1434668149.057,13.504738
1434668149.072,16.385681
1434668149.088,19.385445
1434668149.104,22.627777
1434668149.119,26.194496
1434668149.135,30.031662
1434668149.15,33.780052
1434668149.166,36.743774
1434668149.182,37.998764
1434668149.197,36.62774
1434668149.213,32.118057
1434668149.229,24.597298
1434668149.244,14.924927
1434668149.26,4.489662
1434668149.275,-5.2501297
1434668149.291,-13.229118
1434668149.307,-19.04638
1434668149.322,-22.873909
1434668149.338,-25.188347
1434668149.354,-26.431793
1434668149.369,-26.792679
1434668149.385,-26.330063
1434668149.4,-25.112946
1434668149.416,-23.395744
1434668149.432,-21.575409
1434668149.447,-19.994293
1434668149.463,-18.75138
1434668149.479,-17.695648
1434668149.494,-16.604286
1434668149.51,-15.3390045
1434668149.525,-14.022751
1434668149.541,-12.920464
1434668149.557,-12.267067
1434668149.572,-12.067375
1434668149.588,-12.054527
1434668149.604,-11.797852
1434668149.619,-10.86615
1434668149.635,-8.985359
1434668149.65,-6.1001205
1434668149.666,-2.4450226
1434668149.682,1.5645752
1434668149.697,5.4278107
1434668149.713,8.7855
1434668149.729,11.501068
1434668149.744,13.806267
1434668149.76,16.162476
1434668149.775,19.114655
1434668149.791,22.998314
1434668149.807,27.791275
1434668149.822,32.984337
1434668149.838,37.678635
1434668149.854,40.720818
1434668149.869,41.047607
1434668149.885,37.973076
1434668149.9,31.471565
1434668149.916,22.2219
1434668149.932,11.513809
1434668149.947,0.8123474
1434668149.963,-8.632759
1434668149.979,-16.080193
1434668149.994,-21.339119
1434668150.01,-24.573433
1434668150.025,-26.058594
1434668150.041,-26.088432
1434668150.057,-24.96949
1434668150.072,-23.118736
1434668150.088,-21.048393
1434668150.104,-19.292671
1434668150.119,-18.193
1434668150.135,-17.832397
1434668150.15,-17.988853
1434668150.166,-18.331085
1434668150.182,-18.501694
1434668150.197,-18.26361
1434668150.213,-17.514915
1434668150.229,-16.345093
1434668150.244,-14.981552
1434668150.26,-13.677681
1434668150.275,-12.610123
1434668150.291,-11.757568
1434668150.307,-10.861382
1434668150.322,-9.567192
1434668150.338,-7.614525
1434668150.354,-5.008255
1434668150.369,-2.0392532
1434668150.385,0.8893738
1434668150.4,3.5293198
1434668150.416,5.891083
1434668150.432,8.285614
1434668150.447,11.099976
1434668150.463,14.617767
1434668150.479,18.866173
1434668150.494,23.652367
1434668150.51,28.57843
1434668150.525,33.100594
1434668150.541,36.524162
1434668150.557,38.025978
1434668150.572,36.889824
1434668150.588,32.71643
1434668150.604,25.672295
1434668150.619,16.549217
1434668150.635,6.601822
1434668150.65,-2.808548
1434668150.666,-10.605911
1434668150.682,-16.21099
1434668150.697,-19.607353
1434668150.713,-21.133507
1434668150.729,-21.266052
1434668150.744,-20.432045
1434668150.76,-18.91536
1434668150.775,-16.886765
1434668150.791,-14.520325
1434668150.807,-11.995918
1434668150.822,-9.511467
1434668150.838,-7.2515106
1434668150.854,-5.25206
1434668150.869,-3.427246
1434668150.885,-1.6220932
1434668150.9,0.32430267
1434668150.916,2.4482422
1434668150.932,4.672943
1434668150.947,6.931183
1434668150.963,9.258629
1434668150.979,11.804886
1434668150.994,14.782402
1434668151.01,18.314278
1434668151.026,22.280952
1434668151.041,26.35762
1434668151.057,30.126732
1434668151.072,33.234604
1434668151.088,35.52693
1434668151.104,37.083275
1434668151.119,38.177933
1434668151.135,39.212326
1434668151.151,40.665577
1434668151.166,42.923183
1434668151.182,46.133224
1434668151.197,50.05018
1434668151.213,53.914383
1434668151.229,56.56373
1434668151.244,56.745193
1434668151.26,53.511356
1434668151.276,46.60083
1434668151.291,36.55773
1434668151.307,24.572548
1434668151.322,12.148537
1434668151.338,0.6429558
1434668151.354,-9.072659
1434668151.369,-16.691353
1434668151.385,-22.335552
1434668151.401,-26.32531
1434668151.416,-28.949852
1434668151.432,-30.365648
1434668151.447,-30.69387
1434668151.463,-30.110802
1434668151.479,-28.950518
1434668151.494,-27.643456
1434668151.51,-26.527782
1434668151.526,-25.778343
1434668151.541,-25.397408
1434668151.557,-25.338886
1434668151.572,-25.585922
1434668151.588,-26.224697
1434668151.604,-27.325155
1434668151.619,-28.767214
1434668151.635,-30.247343
1434668151.651,-31.286777
1434668151.666,-31.425083
1434668151.682,-30.38917
1434668151.697,-28.13615
1434668151.713,-24.828358
1434668151.729,-20.789776
1434668151.744,-16.407179
1434668151.76,-12.057945
1434668151.776,-8.022085
1434668151.791,-4.4011936
1434668151.807,-0.9773388
1434668151.822,2.684988
1434668151.838,7.0758705
1434668151.854,12.4136505
1434668151.869,18.433025
1434668151.885,24.329254
1434668151.901,28.978977
1434668151.916,31.22179
1434668151.932,30.285929
1434668151.947,26.032919
1434668151.963,18.969446
1434668151.979,10.15489
1434668151.994,0.88232994
1434668152.01,-7.633194
1434668152.026,-14.5280075
1434668152.041,-19.406849
1434668152.057,-22.322826
1434668152.072,-23.531822
1434668152.088,-23.35168
1434668152.104,-22.071976
1434668152.119,-19.954365
1434668152.135,-17.296741
1434668152.151,-14.448738
1434668152.166,-11.792461
1434668152.182,-9.567436
1434668152.197,-7.869705
1434668152.213,-6.6063156
1434668152.229,-5.5814133
1434668152.244,-4.6423798
1434668152.26,-3.6645432
1434668152.276,-2.5795937
1434668152.291,-1.32901
1434668152.307,0.15169144
1434668152.322,1.9661102
1434668152.338,4.2164764
1434668152.354,6.9449844
1434668152.369,10.142166
1434668152.385,13.683212
1434668152.401,17.400204
1434668152.416,21.083538
1434668152.432,24.59903
1434668152.447,27.967896
1434668152.463,31.437233
1434668152.479,35.374428
1434668152.494,40.13896
1434668152.51,45.811623
1434668152.526,52.027786
1434668152.541,57.884323
1434668152.557,62.123978
1434668152.572,63.43998
1434668152.588,60.906868
1434668152.604,54.296036
1434668152.619,44.208923
1434668152.635,31.948166
1434668152.651,19.127205
1434668152.666,7.170227
1434668152.682,-3.0052338
1434668152.697,-11.142944
1434668152.713,-17.44989
1434668152.729,-22.310577
1434668152.744,-26.035385
1434668152.76,-28.772133
1434668152.776,-30.568832
1434668152.791,-31.517792
1434668152.807,-31.817963
1434668152.822,-31.750183
1434668152.838,-31.559654
1434668152.854,-31.394226
1434668152.869,-31.312447
1434668152.885,-31.331741
1434668152.901,-31.520164
1434668152.916,-31.973907
1434668152.932,-32.73845
1434668152.947,-33.71524
1434668152.963,-34.60092
1434668152.979,-34.98445
1434668152.994,-34.46959
1434668153.01,-32.816254
1434668153.026,-30.009628
1434668153.041,-26.286087
1434668153.057,-22.040741
1434668153.072,-17.70465
1434668153.088,-13.637131
1434668153.104,-9.996414
1434668153.119,-6.7008667
1434668153.135,-3.4590607
1434668153.151,0.12347412
1434668153.166,4.3253784
1434668153.182,9.110626
1434668153.197,13.978134
1434668153.213,17.968231
1434668153.229,19.864182
1434668153.244,18.599167
1434668153.26,13.613617
1434668153.276,5.14917
1434668153.291,-5.775177
1434668153.307,-17.613998
1434668153.322,-28.77147
1434668153.338,-37.96855
1434668153.354,-44.509933
1434668153.369,-48.279602
1434668153.385,-49.538666
1434668153.401,-48.74115
1434668153.416,-46.407013
1434668153.432,-43.038162
1434668153.447,-39.156433
1434668153.463,-35.278427
1434668153.479,-31.822754
1434668153.494,-29.042511
1434668153.51,-27.005096
1434668153.526,-25.61905
1434668153.541,-24.738235
1434668153.557,-24.244034
1434668153.572,-24.011276
1434668153.588,-23.91092
1434668153.604,-23.755386
1434668153.619,-23.309265
1434668153.635,-22.369827
1434668153.651,-20.843811
1434668153.666,-18.751907
1434668153.682,-16.237228
1434668153.698,-13.491928
1434668153.713,-10.643036
1434668153.729,-7.7567444
1434668153.744,-4.759247
1434668153.76,-1.460968
1434668153.776,2.4011383
1434668153.791,7.06266
1434668153.807,12.66539
1434668153.822,19.115631
1434668153.838,26.02916
1434668153.854,32.68152
1434668153.869,38.094788
1434668153.885,41.18402
1434668153.901,41.07486
1434668153.916,37.354362
1434668153.932,30.291786
1434668153.948,20.890472
1434668153.963,10.594948
1434668153.979,0.90802765
1434668153.994,-7.0075226
1434668154.01,-12.596298
1434668154.026,-15.863663
1434668154.041,-17.176842
1434668154.057,-16.990265
1434668154.073,-15.68914
1434668154.088,-13.528694
1434668154.104,-10.75502
1434668154.119,-7.634819
1434668154.135,-4.453766
1434668154.151,-1.4722443
1434668154.166,1.1616898
1434668154.182,3.3879623
1434668154.198,5.1820908
1434668154.213,6.5379944
1434668154.229,7.4503174
1434668154.244,7.980896
1434668154.26,8.302048
1434668154.276,8.70372
1434668154.291,9.5180435
1434668154.307,11.009308
1434668154.323,13.282089
1434668154.338,16.274582
1434668154.354,19.748291
1434668154.369,23.412231
1434668154.385,27.032364
1434668154.401,30.560085
1434668154.416,34.11594
1434668154.432,37.988754
1434668154.448,42.465195
1434668154.463,47.710365
1434668154.479,53.57928
1434668154.494,59.575493
1434668154.51,64.8618
1434668154.526,68.39731
1434668154.541,69.12933
1434668154.557,66.27899
1434668154.573,59.597805
1434668154.588,49.53161
1434668154.604,37.174313
1434668154.619,24.017006
1434668154.635,11.592323
1434668154.651,1.0634499
1434668154.666,-7.0006256
1434668154.682,-12.629181
1434668154.698,-16.233799
1434668154.713,-18.349087
1434668154.729,-19.42022
1434668154.744,-19.73516
1434668154.76,-19.494904
1434668154.776,-18.85897
1434668154.791,-18.044563
1434668154.807,-17.273758
1434668154.823,-16.777618
1434668154.838,-16.703194
1434668154.854,-17.09658
1434668154.869,-17.861893
1434668154.885,-18.754448
1434668154.901,-19.446793
1434668154.916,-19.625374
1434668154.932,-19.097084
1434668154.948,-17.874336
1434668154.963,-16.128471
1434668154.979,-14.1022415
1434668154.994,-11.982147
1434668155.01,-9.842865
1434668155.026,-7.6473465
1434668155.041,-5.3078613
1434668155.057,-2.7006226
1434668155.073,0.35766602
1434668155.088,4.1154175
1434668155.104,8.817764
1434668155.119,14.516136
1434668155.135,20.875534
1434668155.151,27.027573
1434668155.166,31.696648
1434668155.182,33.53132
1434668155.198,31.562141
1434668155.213,25.584503
1434668155.229,16.24852
1434668155.244,4.8906555
1434668155.26,-6.8740005
1434668155.276,-17.576675
1434668155.291,-26.250214
1434668155.307,-32.49308
1434668155.323,-36.408875
1434668155.338,-38.38906
1434668155.354,-38.9225
1434668155.369,-38.456284
1434668155.385,-37.342285
1434668155.401,-35.83178
1434668155.416,-34.11873
1434668155.432,-32.310516
1434668155.448,-30.448387
1434668155.463,-28.514412
1434668155.479,-26.505684
1434668155.494,-24.468857
1434668155.51,-22.560425
1434668155.526,-20.992027
1434668155.541,-19.922203
1434668155.557,-19.36773
1434668155.573,-19.155754
1434668155.588,-18.968475
1434668155.604,-18.447968
1434668155.619,-17.34539
1434668155.635,-15.574432
1434668155.651,-13.236305
1434668155.666,-10.574692
1434668155.682,-7.8380356
1434668155.698,-5.2390976
1434668155.713,-2.8351364
1434668155.729,-0.53315735
1434668155.744,1.9164963
1434668155.76,4.8288345
1434668155.776,8.405174
1434668155.791,12.517136
1434668155.807,16.575493
1434668155.823,19.599274
1434668155.838,20.423988
1434668155.854,18.095833
1434668155.869,12.214195
1434668155.885,3.1636505
1434668155.901,-7.964676
1434668155.916,-19.604755
1434668155.932,-30.148273
1434668155.948,-38.388866
1434668155.963,-43.693893
1434668155.979,-46.09323
1434668155.994,-46.008255
1434668156.01,-44.003075
1434668156.026,-40.5408
1434668156.041,-35.95653
1434668156.057,-30.476505
1434668156.073,-24.361488
1434668156.088,-17.953953
1434668156.104,-11.618404
1434668156.119,-5.625942
1434668156.135,-0.1174736
1434668156.151,4.899164
1434668156.166,9.417753
1434668156.182,13.373287
1434668156.198,16.67091
1434668156.213,19.28523
1434668156.229,21.356348
1434668156.244,23.191055
1434668156.26,25.139713
1434668156.276,27.43914
1434668156.291,30.07407
1434668156.307,32.857918
1434668156.323,35.504555
1434668156.338,37.80768
1434668156.354,39.72216
1434668156.37,41.362534
1434668156.385,43.000893
1434668156.401,45.03233
1434668156.416,47.827232
1434668156.432,51.633564
1434668156.448,56.318356
1434668156.463,61.262142
1434668156.479,65.32387
1434668156.494,67.151474
1434668156.51,65.53017
1434668156.526,59.902
1434668156.541,50.572056
1434668156.557,38.677147
1434668156.573,25.87142
1434668156.588,13.7966585
1434668156.604,3.6798296
1434668156.62,-3.8887787
1434668156.635,-8.91235
1434668156.651,-11.765667
1434668156.666,-12.922024
1434668156.682,-12.810232
1434668156.698,-11.810103
1434668156.713,-10.263692
1434668156.729,-8.595589
1434668156.745,-7.2309923
1434668156.76,-6.514352
1434668156.776,-6.5728126
1434668156.791,-7.359513
1434668156.807,-8.627912
1434668156.823,-10.106609
1434668156.838,-11.556027
1434668156.854,-12.791596
1434668156.87,-13.697202
1434668156.885,-14.172477
1434668156.901,-14.107417
1434668156.916,-13.405619
1434668156.932,-11.987766
1434668156.948,-9.841614
1434668156.963,-7.0361066
1434668156.979,-3.7560463
1434668156.995,-0.24591827
1434668157.01,3.2560759
1434668157.026,6.613098
1434668157.041,9.852987
1434668157.057,13.234618
1434668157.073,17.112793
1434668157.088,21.75943
1434668157.104,27.062214
1434668157.12,32.379883
1434668157.135,36.604233
1434668157.151,38.436867
1434668157.166,36.813858
1434668157.182,31.316498
1434668157.198,22.388964
1434668157.213,11.23163
1434668157.229,-0.5297165
1434668157.245,-11.335075
1434668157.26,-20.136406
1434668157.276,-26.533432
1434668157.291,-30.724094
1434668157.307,-33.187714
1434668157.323,-34.37162
1434668157.338,-34.541267
1434668157.354,-33.81394
1434668157.37,-32.26966
1434668157.385,-30.107735
1434668157.401,-27.639736
1434668157.416,-25.202045
1434668157.432,-23.018978
1434668157.448,-21.187416
1434668157.463,-19.671135
1434668157.479,-18.450706
1434668157.495,-17.552853
1434668157.51,-17.008495
1434668157.526,-16.769844
1434668157.541,-16.630886
1434668157.557,-16.230412
1434668157.573,-15.156017
1434668157.588,-13.1294365
1434668157.604,-10.0736885
1434668157.62,-6.1437874
1434668157.635,-1.6510086
1434668157.651,3.0518646
1434668157.666,7.7058067
1434668157.682,12.214661
1434668157.698,16.690067
1434668157.713,21.425678
1434668157.729,26.768703
1434668157.745,32.981647
1434668157.76,40.00577
1434668157.776,47.284397
1434668157.791,53.74297
1434668157.807,57.966515
1434668157.823,58.58865
1434668157.838,54.768898
1434668157.854,46.538353
1434668157.87,34.878407
1434668157.885,21.46857
1434668157.901,8.226814
1434668157.916,-3.2845268
1434668157.932,-12.174076
1434668157.948,-18.317978
1434668157.963,-22.107464
1434668157.979,-24.151367
1434668157.995,-24.953434
1434668158.01,-24.849834
1434668158.026,-24.039295
1434668158.041,-22.743595
1434668158.057,-21.248516
1434668158.073,-19.877953
1434668158.088,-18.894184
1434668158.104,-18.40802
1434668158.12,-18.3373
1434668158.135,-18.490574
1434668158.151,-18.690819
1434668158.166,-18.858215
1434668158.182,-19.037231
1434668158.198,-19.296585
1434668158.213,-19.629635
1434668158.229,-19.838596
1434668158.245,-19.555176
1434668158.26,-18.348953
1434668158.276,-15.936962
1434668158.291,-12.351616
1434668158.307,-7.969635
1434668158.323,-3.403778
1434668158.338,0.7544174
1434668158.354,4.1368637
1434668158.37,6.7704926
1434668158.385,9.051735
1434668158.401,11.634575
1434668158.416,15.189484
1434668158.432,20.119644
1434668158.448,26.30835
1434668158.463,32.92605
1434668158.479,38.54461
1434668158.495,41.455368
1434668158.51,40.266304
1434668158.526,34.40293
1434668158.541,24.378616
1434668158.557,11.6649475
1434668158.573,-1.8332062
1434668158.588,-14.338692
1434668158.604,-24.688011
1434668158.62,-32.386185
1434668158.635,-37.47158
1434668158.651,-40.206238
1434668158.666,-40.942604
1434668158.682,-40.050392
1434668158.698,-37.986214
1434668158.713,-35.292534
1434668158.729,-32.523643
1434668158.745,-30.065346
1434668158.76,-28.024582
1434668158.776,-26.211296
1434668158.791,-24.273415
1434668158.807,-21.899963
1434668158.823,-18.974632
1434668158.838,-15.623093
1434668158.854,-12.187889
1434668158.87,-8.975342
1434668158.885,-6.1215515
1434668158.901,-3.4738693
1434668158.916,-0.6867523
1434668158.932,2.6296692
1434668158.948,6.6506653
1434668158.963,11.231186
1434668158.979,15.938576
1434668158.995,20.249763
1434668159.01,23.783867
1434668159.026,26.462524
1434668159.041,28.5005
1434668159.057,30.33997
1434668159.073,32.46095
1434668159.088,35.236294
1434668159.104,38.735928
1434668159.12,42.607815
1434668159.135,45.980804
1434668159.151,47.63305
1434668159.166,46.259415
1434668159.182,40.995358
1434668159.198,31.781551
1434668159.213,19.553223
1434668159.229,5.932396
1434668159.245,-7.270561
1434668159.26,-18.64156
1434668159.276,-27.483238
1434668159.292,-33.776073
1434668159.307,-37.899002
1434668159.323,-40.307945
1434668159.338,-41.345345
1434668159.354,-41.269352
1434668159.37,-40.355103
1434668159.385,-38.935516
1434668159.401,-37.37747
1434668159.417,-35.974148
1434668159.432,-34.872204
1434668159.448,-34.099453
1434668159.463,-33.57222
1434668159.479,-33.18028
1434668159.495,-32.772327
1434668159.51,-32.161663
1434668159.526,-31.105309
1434668159.542,-29.319412
1434668159.557,-26.573723
1434668159.573,-22.734089
1434668159.588,-17.864227
1434668159.604,-12.195824
1434668159.62,-6.1126556
1434668159.635,-0.042308807
1434668159.651,5.6828613
1434668159.667,10.862324
1434668159.682,15.519558
1434668159.698,19.830898
1434668159.713,24.13121
1434668159.729,28.818089
1434668159.745,34.246525
1434668159.76,40.53649
1434668159.776,47.337738
1434668159.792,53.702328
1434668159.807,58.20161
1434668159.823,59.28646
1434668159.838,55.869843
1434668159.854,47.807198
1434668159.87,36.041615
1434668159.885,22.341928
1434668159.901,8.720354
1434668159.917,-3.1770802
1434668159.932,-12.405733
1434668159.948,-18.758348
1434668159.963,-22.489393
1434668159.979,-24.08678
1434668159.995,-24.030151
1434668160.01,-22.78802
1434668160.026,-20.803783
1434668160.042,-18.485918
1434668160.057,-16.112602
1434668160.073,-13.840544
1434668160.088,-11.682171
1434668160.104,-9.578373
1434668160.12,-7.493561
1434668160.135,-5.46397
1434668160.151,-3.571763
1434668160.167,-1.9199972
1434668160.182,-0.5626669
1434668160.198,0.5435343
1434668160.213,1.5508423
1434668160.229,2.6879492
1434668160.245,4.220089
1434668160.26,6.2970066
1434668160.276,8.936349
1434668160.292,11.96221
1434668160.307,15.119478
1434668160.323,18.19551
1434668160.338,21.173462
1434668160.354,24.272469
1434668160.37,27.879648
1434668160.385,32.372437
1434668160.401,37.893845
1434668160.417,44.163948
1434668160.432,50.42288
1434668160.448,55.456593
1434668160.463,57.851555
1434668160.479,56.379997
1434668160.495,50.382225
1434668160.51,40.08955
1434668160.526,26.6467
1434668160.542,11.784048
1434668160.557,-2.648964
1434668160.573,-15.2077675
1434668160.588,-25.11138
1434668160.604,-32.22925
1434668160.62,-36.83039
1434668160.635,-39.34275
1434668160.651,-40.13253
1434668160.667,-39.51702
1434668160.682,-37.761703
1434668160.698,-35.17154
1434668160.713,-32.059433
1434668160.729,-28.770805
1434668160.745,-25.587864
1434668160.76,-22.750288
1434668160.776,-20.436361
1434668160.792,-18.75676
1434668160.807,-17.739897
1434668160.823,-17.316631
1434668160.838,-17.339474
1434668160.854,-17.574865
1434668160.87,-17.703684
1434668160.885,-17.322826
1434668160.901,-15.996235
1434668160.917,-13.409576
1434668160.932,-9.464083
1434668160.948,-4.3978214
1434668160.963,1.2504864
1434668160.979,6.833397
1434668160.995,11.858171
1434668161.01,16.175213
1434668161.026,20.024912
1434668161.042,23.898685
1434668161.057,28.276361
1434668161.073,33.28476
1434668161.088,38.474358
1434668161.104,42.812202
1434668161.12,44.91751
1434668161.135,43.549675
1434668161.151,38.010773
1434668161.167,28.458559
1434668161.182,15.922451
1434668161.198,1.9528217
1434668161.213,-11.789373
1434668161.229,-24.001955
1434668161.245,-33.906418
1434668161.26,-41.26544
1434668161.276,-46.16252
1434668161.292,-48.896584
1434668161.307,-49.79677
1434668161.323,-49.224827
1434668161.338,-47.564693
1434668161.354,-45.171745
1434668161.37,-42.38531
1434668161.385,-39.49477
1434668161.401,-36.77771
1434668161.417,-34.4969
1434668161.432,-32.876064
1434668161.448,-31.970139
1434668161.463,-31.670414
1434668161.479,-31.678608
1434668161.495,-31.60944
1434668161.51,-31.131998
1434668161.526,-30.042484
1434668161.542,-28.320742
1434668161.557,-26.03613
1434668161.573,-23.3054
1434668161.588,-20.18252
1434668161.604,-16.669655
1434668161.62,-12.694492
1434668161.635,-8.127661
1434668161.651,-2.7984567
1434668161.667,3.4509292
1434668161.682,10.75087
1434668161.698,19.058609
1434668161.713,28.047718
1434668161.729,36.99801
1434668161.745,44.788803
1434668161.76,50.097645
1434668161.776,51.75123
1434668161.792,49.14867
1434668161.807,42.54404
1434668161.823,33.066475
1434668161.838,22.387846
1434668161.854,12.202141
1434668161.87,3.722271
1434668161.885,-2.57016
1434668161.901,-6.8287697
1434668161.917,-9.565063
1434668161.932,-11.238541
1434668161.948,-12.090416
1434668161.964,-12.129963
1434668161.979,-11.312881
1434668161.995,-9.698544
1434668162.01,-7.5347824
1434668162.026,-5.2181892
1434668162.042,-3.1780891
1434668162.057,-1.7602577
1434668162.073,-1.1146698
1434668162.089,-1.1689568
1434668162.104,-1.6677475
1434668162.12,-2.2231522
1434668162.135,-2.4425888
1434668162.151,-1.983818
1434668162.167,-0.705246
1434668162.182,1.4292984
1434668162.198,4.3859863
1434668162.214,8.152924
1434668162.229,12.761742
1434668162.245,18.262383
1434668162.26,24.599464
1434668162.276,31.594795
1434668162.292,38.9619
1434668162.307,46.427383
1434668162.323,53.83242
1434668162.339,61.026543
1434668162.354,67.707466
1434668162.37,73.218216
1434668162.385,76.56521
1434668162.401,76.70244
1434668162.417,72.94097
1434668162.432,65.37333
1434668162.448,54.90345
1434668162.464,43.010086
1434668162.479,31.224495
1434668162.495,20.724571
1434668162.51,12.094879
1434668162.526,5.4174347
1434668162.542,0.5068512
1434668162.557,-2.8629074
1434668162.573,-4.8285446
1434668162.589,-5.4770126
1434668162.604,-4.9610214
1434668162.62,-3.5650635
1434668162.635,-1.7233047
1434668162.651,0.0884819
1434668162.667,1.3997498
1434668162.682,1.9330482
1434668162.698,1.6064339
1434668162.714,0.5682831
1434668162.729,-0.92201996
1434668162.745,-2.569336
1434668162.76,-4.1116943
1434668162.776,-5.3319855
1434668162.792,-6.06102
1434668162.807,-6.215145
1434668162.823,-5.787834
1434668162.839,-4.8840485
1434668162.854,-3.6853237
1434668162.87,-2.3538113
1434668162.885,-0.9401169
1434668162.901,0.67422104
1434668162.917,2.7675648
1434668162.932,5.7259827
1434668162.948,9.929958
1434668162.964,15.595992
1434668162.979,22.563725
1434668162.995,30.14129
1434668163.01,37.03182
1434668163.026,41.60935
1434668163.042,42.29618
1434668163.057,38.17319
1434668163.073,29.338308
1434668163.089,16.957989
1434668163.104,2.9190397
1434668163.12,-10.760474
1434668163.135,-22.52137
1434668163.151,-31.584938
1434668163.167,-37.925457
1434668163.182,-41.99418
1434668163.198,-44.359898
1434668163.214,-45.460503
1434668163.229,-45.54579
1434668163.245,-44.749954
1434668163.26,-43.244026
1434668163.276,-41.299366
1434668163.292,-39.28612
1434668163.307,-37.525265
1434668163.323,-36.14366
1434668163.339,-35.01299
1434668163.354,-33.88273
1434668163.37,-32.544586
1434668163.385,-31.016636
1434668163.401,-29.519745
1434668163.417,-28.332672
1434668163.432,-27.513092
1434668163.448,-26.769917
1434668163.464,-25.558361
1434668163.479,-23.283073
1434668163.495,-19.621422
1434668163.51,-14.633408
1434668163.526,-8.719715
1434668163.542,-2.4498405
1434668163.557,3.6856232
1434668163.573,9.448875
1434668163.589,14.865139
1434668163.604,20.180119
1434668163.62,25.78542
1434668163.635,32.03947
1434668163.651,39.16631
1434668163.667,47.0428
1434668163.682,55.07225
1434668163.698,62.137978
1434668163.714,66.74673
1434668163.729,67.382195
1434668163.745,63.006783
1434668163.76,53.44906
1434668163.776,39.590683
1434668163.792,23.125717
1434668163.807,6.082138
1434668163.823,-9.735115
1434668163.839,-23.139793
1434668163.854,-33.644547
1434668163.87,-41.261375
1434668163.885,-46.193657
1434668163.901,-48.675667
1434668163.917,-48.99328
1434668163.932,-47.599648
1434668163.948,-45.163673
1434668163.964,-42.471382
1434668163.979,-40.16523
1434668163.995,-38.51922
1434668164.01,-37.345093
1434668164.026,-36.144142
1434668164.042,-34.411217
1434668164.057,-31.92295
1434668164.073,-28.819702
1434668164.089,-25.528717
1434668164.104,-22.55307
1434668164.12,-20.204948
1434668164.135,-18.493225
1434668164.151,-17.11496
1434668164.167,-15.599113
1434668164.182,-13.492973
1434668164.198,-10.550232
1434668164.214,-6.7813263
1434668164.229,-2.4587173
1434668164.245,2.0481033
1434668164.26,6.4617157
1434668164.276,10.709198
1434668164.292,14.955894
1434668164.307,19.51722
1434668164.323,24.72689
1434668164.339,30.774979
1434668164.354,37.542824
1434668164.37,44.466225
1434668164.385,50.51567
1434668164.401,54.359634
1434668164.417,54.65606
1434668164.432,50.54962
1434668164.448,42.017624
1434668164.464,30.01339
1434668164.479,16.183243
1434668164.495,2.3886337
1434668164.51,-9.911835
1434668164.526,-19.92952
1434668164.542,-27.58548
1434668164.557,-33.19239
1434668164.573,-37.113678
1434668164.589,-39.559998
1434668164.604,-40.582977
1434668164.62,-40.2591
1434668164.636,-38.8117
1434668164.651,-36.674706
1434668164.667,-34.3873
1434668164.682,-32.462357
1434668164.698,-31.192253
1434668164.714,-30.552574
1434668164.729,-30.287537
1434668164.745,-29.979515
1434668164.76,-29.304375
1434668164.776,-28.13533
1434668164.792,-26.637993
1434668164.807,-25.108803
1434668164.823,-23.771942
1434668164.839,-22.573692
1434668164.854,-21.156174
1434668164.87,-18.989044
1434668164.886,-15.64328
1434668164.901,-11.006355
1434668164.917,-5.366699
1434668164.932,0.7018738
1434668164.948,6.585602
1434668164.964,11.832573
1434668164.979,16.276215
1434668164.995,20.06255
1434668165.011,23.567123
1434668165.026,27.292198
1434668165.042,31.720978
1434668165.057,37.19731
1434668165.073,43.72705
1434668165.089,50.82826
1434668165.104,57.466442
1434668165.12,62.22193
1434668165.136,63.63835
1434668165.151,60.710808
1434668165.167,53.25757
1434668165.182,42.09186
1434668165.198,28.768898
1434668165.214,15.148472
1434668165.229,2.810997
1434668165.245,-7.2699776
1434668165.261,-14.852608
1434668165.276,-20.177391
1434668165.292,-23.69358
1434668165.307,-25.745659
1434668165.323,-26.522717
1434668165.339,-26.13398
1434668165.354,-24.783539
1434668165.37,-22.841957
1434668165.386,-20.80075
1434668165.401,-19.121521
1434668165.417,-18.059586
1434668165.432,-17.581646
1434668165.448,-17.398914
1434668165.464,-17.098766
1434668165.479,-16.36681
1434668165.495,-15.100372
1434668165.511,-13.477001
1434668165.526,-11.826515
1434668165.542,-10.460251
1434668165.557,-9.436207
1434668165.573,-8.463966
1434668165.589,-7.002617
1434668165.604,-4.497257
1434668165.62,-0.6917496
1434668165.636,4.199589
1434668165.651,9.515533
1434668165.667,14.415371
1434668165.682,18.214249
1434668165.698,20.638988
1434668165.714,21.929928
1434668165.729,22.679241
1434668165.745,23.6417
1434668165.761,25.516903
1434668165.776,28.787407
1434668165.792,33.62949
1434668165.807,39.774406
1434668165.823,46.435535
1434668165.839,52.351654
1434668165.854,56.006256
1434668165.87,56.041805
1434668165.886,51.738503
1434668165.901,43.300247
1434668165.917,31.829361
1434668165.932,19.004448
1434668165.948,6.5854797
1434668165.964,-4.0884933
1434668165.979,-12.34901
1434668165.995,-18.1664
1434668166.011,-21.954578
1434668166.026,-24.2081
1434668166.042,-25.335556
1434668166.057,-25.568008
1434668166.073,-25.06535
1434668166.089,-24.003658
1434668166.104,-22.66143
1434668166.12,-21.348404
1434668166.136,-20.298683
1434668166.151,-19.583973
1434668166.167,-19.117313
1434668166.182,-18.682869
1434668166.198,-18.104752
1434668166.214,-17.314735
1434668166.229,-16.410778
1434668166.245,-15.550545
1434668166.261,-14.849762
1434668166.276,-14.291233
1434668166.292,-13.671272
1434668166.307,-12.645512
1434668166.323,-10.859814
1434668166.339,-8.046669
1434668166.354,-4.2132645
1434668166.37,0.3533249
1434668166.386,5.148163
1434668166.401,9.630234
1434668166.417,13.4217415
1434668166.432,16.472248
1434668166.448,19.04073
1434668166.464,21.60173
1434668166.479,24.682434
1434668166.495,28.686749
1434668166.511,33.744568
1434668166.526,39.52259
1434668166.542,45.146072
1434668166.557,49.317146
1434668166.573,50.59662
1434668166.589,47.978943
1434668166.604,41.24308
1434668166.62,31.195915
1434668166.636,19.387001
1434668166.651,7.623184
1434668166.667,-2.6262283
1434668166.682,-10.546371
1434668166.698,-15.96785
1434668166.714,-19.121178
1434668166.729,-20.345795
1434668166.745,-19.957329
1434668166.761,-18.29522
1434668166.776,-15.788467
1434668166.792,-13.020401
1434668166.807,-10.594727
1434668166.823,-9.0036545
1434668166.839,-8.412788
1434668166.854,-8.699997
1434668166.87,-9.508865
1434668166.886,-10.453827
1434668166.901,-11.279625
1434668166.917,-11.979904
1434668166.932,-12.719643
1434668166.948,-13.694969
1434668166.964,-14.8962555
1434668166.979,-16.04049
1434668166.995,-16.616905
1434668167.011,-16.134247
1434668167.026,-14.386803
1434668167.042,-11.561432
1434668167.057,-8.187508
1434668167.073,-4.8833923
1434668167.089,-2.0930634
1434668167.104,0.07445526
1434668167.12,1.8579636
1434668167.136,3.7393188
1434668167.151,6.2606277
1434668167.167,9.881508
1434668167.182,14.746239
1434668167.198,20.539047
1434668167.214,26.41111
1434668167.229,31.095848
1434668167.245,33.186623
1434668167.261,31.646477
1434668167.276,26.125282
1434668167.292,17.113586
1434668167.308,5.8037186
1434668167.323,-6.311104
1434668167.339,-17.792778
1434668167.354,-27.559853
1434668167.37,-34.972855
1434668167.386,-39.87587
1434668167.401,-42.427055
1434668167.417,-43.060524
1434668167.432,-42.31581
1434668167.448,-40.687225
1434668167.464,-38.577477
1434668167.479,-36.23928
1434668167.495,-33.860115
1434668167.511,-31.605728
1434668167.526,-29.646843
1434668167.542,-28.11634
1434668167.558,-27.06932
1434668167.573,-26.504768
1434668167.589,-26.328407
1434668167.604,-26.420158
1434668167.62,-26.574722
1434668167.636,-26.460182
1434668167.651,-25.636078
1434668167.667,-23.681335
1434668167.683,-20.377487
1434668167.698,-15.855553
1434668167.714,-10.575302
1434668167.729,-5.1587677
1434668167.745,-0.13574982
1434668167.761,4.2335205
1434668167.776,8.058319
1434668167.792,11.663559
1434668167.808,15.487167
1434668167.823,19.984444
1434668167.839,25.447502
1434668167.854,31.848503
1434668167.87,38.681572
1434668167.886,44.865997
1434668167.901,48.967804
1434668167.917,49.56157
1434668167.933,45.809128
1434668167.948,37.793755
1434668167.964,26.58422
1434668167.979,13.86763
1434668167.995,1.4257202
1434668168.011,-9.345123
1434668168.026,-17.665276
1434668168.042,-23.366486
1434668168.058,-26.66494
1434668168.073,-27.985352
1434668168.089,-27.784813
1434668168.104,-26.500381
1434668168.12,-24.554657
1434668168.136,-22.341759
1434668168.151,-20.183937
1434668168.167,-18.303871
1434668168.183,-16.784103
1434668168.198,-15.532349
1434668168.214,-14.346977
1434668168.229,-13.00666
1434668168.245,-11.448349
1434668168.261,-9.811409
1434668168.276,-8.41909
1434668168.292,-7.565407
1434668168.308,-7.2970657
1434668168.323,-7.3124466
1434668168.339,-6.984543
1434668168.354,-5.6783905
1434668168.37,-3.0071564
1434668168.386,0.95256805
1434668168.401,5.7123184
1434668168.417,10.577019
1434668168.433,14.9555435
1434668168.448,18.582108
1434668168.464,21.590256
1434668168.479,24.425941
1434668168.495,27.672882
1434668168.511,31.842941
1434668168.526,37.14913
1434668168.542,43.289932
1434668168.558,49.402138
1434668168.573,54.16678
1434668168.589,56.138603
1434668168.604,54.180992
1434668168.62,47.900944
1434668168.636,37.80751
1434668168.651,25.241516
1434668168.667,11.924648
1434668168.683,-0.4935913
1434668168.698,-10.870522
1434668168.714,-18.699673
1434668168.729,-24.035992
1434668168.745,-27.198395
1434668168.761,-28.541813
1434668168.776,-28.340008
1434668168.792,-26.868149
1434668168.808,-24.522606
1434668168.823,-21.876396
1434668168.839,-19.552101
1434668168.854,-18.037418
1434668168.87,-17.449295
1434668168.886,-17.522621
1434668168.901,-17.751339
1434668168.917,-17.682621
1434668168.933,-17.098587
1434668168.948,-16.085335
1434668168.964,-14.902618
1434668168.979,-13.735401
1434668168.995,-12.600098
1434668169.011,-11.289791
1434668169.026,-9.497051
1434668169.042,-6.9630013
1434668169.058,-3.612915
1434668169.073,0.39978027
1434668169.089,4.750347
1434668169.104,9.03064
1434668169.12,12.956867
1434668169.136,16.447475
1434668169.151,19.72575
1434668169.167,23.199642
1434668169.183,27.353542
1434668169.198,32.499287
1434668169.214,38.595093
1434668169.229,45.115047
1434668169.245,51.05479
1434668169.261,55.11662
1434668169.276,56.01335
1434668169.292,52.82387
1434668169.308,45.318886
1434668169.323,34.151302
1434668169.339,20.72342
1434668169.354,6.8092575
1434668169.37,-5.9076004
1434668169.386,-16.275658
1434668169.401,-23.846798
1434668169.417,-28.763962
1434668169.433,-31.467205
1434668169.448,-32.44527
1434668169.464,-32.05788
1434668169.479,-30.583027
1434668169.495,-28.280529
1434668169.511,-25.458523
1434668169.526,-22.494125
1434668169.542,-19.76862
1434668169.558,-17.57579
1434668169.573,-16.02964
1434668169.589,-15.063339
1434668169.604,-14.505138
1434668169.62,-14.155628
1434668169.636,-13.905899
1434668169.651,-13.713478
1434668169.667,-13.572712
1434668169.683,-13.380764
1434668169.698,-12.857311
1434668169.714,-11.600403
1434668169.729,-9.257027
1434668169.745,-5.717457
1434668169.761,-1.247757
1434668169.776,3.5804062
1434668169.792,8.110008
1434668169.808,11.901062
1434668169.823,14.883564
1434668169.839,17.417095
1434668169.854,20.111198
1434668169.87,23.585346
1434668169.886,28.19376
1434668169.901,33.809776
1434668169.917,39.69005
1434668169.933,44.557365
1434668169.948,46.933422
1434668169.964,45.566982
1434668169.979,39.918972
1434668169.995,30.402802
1434668170.011,18.271538
1434668170.026,5.2186737
1434668170.042,-7.126564
1434668170.058,-17.586823
1434668170.073,-25.555481
1434668170.089,-30.895386
1434668170.104,-33.76423
1434668170.12,-34.454517
1434668170.136,-33.37452
1434668170.151,-31.047974
1434668170.167,-28.10212
1434668170.183,-25.11496
1434668170.198,-22.54741
1434668170.214,-20.618889
1434668170.23,-19.34214
1434668170.245,-18.550613
1434668170.261,-18.00425
1434668170.276,-17.485031
1434668170.292,-16.897232
1434668170.308,-16.229607
1434668170.323,-15.559364
1434668170.339,-14.910805
1434668170.355,-14.193924
1434668170.37,-13.178413
1434668170.386,-11.592987
1434668170.401,-9.227425
1434668170.417,-6.0505676
1434668170.433,-2.2098618
1434668170.448,2.0710602
1434668170.464,6.576988
1434668170.48,11.186211
1434668170.495,15.885033
1434668170.511,20.74588
1434668170.526,25.899155
1434668170.542,31.428345
1434668170.558,37.259354
1434668170.573,42.947754
1434668170.589,47.629646
1434668170.605,50.07888
1434668170.62,49.120453
1434668170.636,44.103806
1434668170.651,35.250214
1434668170.667,23.659431
1434668170.683,11.004448
1434668170.698,-1.0424347
1434668170.714,-11.256752
1434668170.73,-19.053917
1434668170.745,-24.393105
1434668170.761,-27.567734
1434668170.776,-28.930328
1434668170.792,-28.85712
1434668170.808,-27.694809
1434668170.823,-25.781578
1434668170.839,-23.476082
1434668170.855,-21.098877
1434668170.87,-18.895424
1434668170.886,-17.033638
1434668170.901,-15.612656
1434668170.917,-14.668964
1434668170.933,-14.175755
1434668170.948,-14.054928
1434668170.964,-14.1362
1434668170.98,-14.22657
1434668170.995,-14.1091385
1434668171.011,-13.54438
1434668171.026,-12.317268
1434668171.042,-10.304527
1434668171.058,-7.4961166
1434668171.073,-4.0312195
1434668171.089,-0.18249512
1434668171.105,3.7386017
1434668171.12,7.4843445
1434668171.136,10.991493
1434668171.151,14.404987
1434668171.167,18.056374
1434668171.183,22.378159
1434668171.198,27.727058
1434668171.214,34.099823
1434668171.23,40.95234
1434668171.245,47.129585
1434668171.261,51.083656
1434668171.276,51.3423
1434668171.292,47.040913
1434668171.308,38.31896
1434668171.323,26.324924
1434668171.339,12.891731
1434668171.355,-0.09528351
1434668171.37,-11.219505
1434668171.386,-19.815254
1434668171.401,-25.88681
1434668171.417,-29.850685
1434668171.433,-32.201637
1434668171.448,-33.293724
1434668171.464,-33.356773
1434668171.48,-32.56222
1434668171.495,-31.146439
1434668171.511,-29.422295
1434668171.526,-27.72673
1434668171.542,-26.292591
1434668171.558,-25.175507
1434668171.573,-24.225475
1434668171.589,-23.187485
1434668171.605,-21.89555
1434668171.62,-20.357437
1434668171.636,-18.78643
1434668171.651,-17.447594
1434668171.667,-16.500404
1434668171.683,-15.835667
1434668171.698,-15.0841255
1434668171.714,-13.73922
1434668171.73,-11.370739
1434668171.745,-7.8291473
1434668171.761,-3.286438
1434668171.776,1.8234406
1434668171.792,6.9252167
1434668171.808,11.528782
1434668171.823,15.354542
1434668171.839,18.473957
1434668171.855,21.251888
1434668171.87,24.28318
1434668171.886,28.147877
1434668171.901,33.15579
1434668171.917,39.141594
1434668171.933,45.31255
1434668171.948,50.39861
1434668171.964,52.95473
1434668171.98,51.815113
1434668171.995,46.495148
1434668172.011,37.43755
1434668172.026,25.857868
1434668172.042,13.411602
1434668172.058,1.6667976
1434668172.073,-8.316498
1434668172.089,-16.11866
1434668172.105,-21.856121
1434668172.12,-25.880497
