1425335650.497,0.0
1425335650.513,0.0
1425335650.528,0.0
1425335650.544,0.0
1425335650.56,0.0
1425335650.575,0.0
1425335650.591,0.0
1425335650.607,0.0
1425335650.622,0.0
1425335650.638,0.0022315353
1425335650.653,-0.0045169927
1425335650.669,-0.011265522
1425335650.685,-0.011383951
1425335650.7,0.0011864507
1425335650.716,0.025910312
1425335650.732,0.050634187
1425335650.747,0.051362894
1425335650.763,-0.0014929791
1425335650.778,-0.1302426
1425335650.794,-0.35562757
1425335650.81,-0.6591247
1425335650.825,-1.0095103
1425335650.841,-1.3709826
1425335650.857,-1.7197359
1425335650.872,-2.0551105
1425335650.888,-2.39945
1425335650.903,-2.7866635
1425335650.919,-3.2399073
1425335650.935,-3.796012
1425335650.95,-4.418684
1425335650.966,-5.0592937
1425335650.982,-5.6644096
1425335650.997,-6.2021537
1425335651.013,-6.6808796
1425335651.028,-7.149598
1425335651.044,-7.6782336
1425335651.06,-8.310739
1425335651.075,-9.143657
1425335651.091,-10.089731
1425335651.107,-11.041313
1425335651.122,-11.8842125
1425335651.138,-12.564316
1425335651.153,-13.13563
1425335651.169,-13.760044
1425335651.185,-14.65232
1425335651.2,-15.962056
1425335651.216,-17.914442
1425335651.232,-20.317299
1425335651.247,-22.903854
1425335651.263,-25.37947
1425335651.278,-27.578028
1425335651.294,-29.57246
1425335651.31,-31.675173
1425335651.325,-34.3178
1425335651.341,-37.813618
1425335651.357,-42.541233
1425335651.372,-48.1463
1425335651.388,-54.104755
1425335651.403,-59.83309
1425335651.419,-64.972374
1425335651.435,-69.58293
1425335651.45,-74.14353
1425335651.466,-79.344986
1425335651.482,-85.70726
1425335651.497,-93.76193
1425335651.513,-102.99779
1425335651.528,-112.61757
1425335651.544,-121.73034
1425335651.56,-129.76602
1425335651.575,-136.75102
1425335651.591,-143.30344
1425335651.607,-150.74623
1425335651.622,-157.77356
1425335651.638,-166.64323
1425335651.653,-177.94798
1425335651.669,-191.79102
1425335651.685,-206.96808
1425335651.7,-220.56592
1425335651.716,-228.24644
1425335651.732,-225.36154
1425335651.747,-208.53198
1425335651.763,-176.87024
1425335651.778,-132.76222
1425335651.794,-80.04997
1425335651.81,-23.069275
1425335651.825,34.94339
1425335651.841,92.43695
1425335651.857,149.15695
1425335651.872,205.22772
1425335651.888,260.36963
1425335651.903,313.74133
1425335651.919,363.87396
1425335651.935,409.83353
1425335651.95,450.90775
1425335651.966,486.50244
1425335651.982,515.73865
1425335651.997,537.2274
1425335652.013,549.22
1425335652.028,549.9613
1425335652.044,538.367
1425335652.06,514.2055
1425335652.075,478.674
1425335652.091,433.87952
1425335652.107,382.45126
1425335652.122,327.02106
1425335652.138,269.84186
1425335652.154,212.63379
1425335652.169,156.6594
1425335652.185,102.95233
1425335652.2,52.373596
1425335652.216,5.9046936
1425335652.232,-35.580414
1425335652.247,-71.42584
1425335652.263,-101.35184
1425335652.278,-125.50113
1425335652.294,-144.3797
1425335652.31,-158.69403
1425335652.325,-169.15071
1425335652.341,-176.3711
1425335652.357,-180.75139
1425335652.372,-182.57419
1425335652.388,-182.06863
1425335652.404,-179.5066
1425335652.419,-175.23325
1425335652.435,-169.65286
1425335652.45,-163.17691
1425335652.466,-156.14568
1425335652.482,-148.80681
1425335652.497,-141.29686
1425335652.513,-133.68983
1425335652.529,-126.01962
1425335652.544,-118.33268
1425335652.56,-110.68864
1425335652.575,-103.15572
1425335652.591,-95.80455
1425335652.607,-88.684166
1425335652.622,-81.82744
1425335652.638,-75.24594
1425335652.654,-68.9526
1425335652.669,-62.949085
1425335652.685,-57.24747
1425335652.7,-51.857048
1425335652.716,-46.7825
1425335652.732,-42.02715
1425335652.747,-37.584232
1425335652.763,-33.45043
1425335652.779,-29.61236
1425335652.794,-26.06973
1425335652.81,-22.80868
1425335652.825,-19.827377
1425335652.841,-17.120218
1425335652.857,-14.680384
1425335652.872,-12.503457
1425335652.888,-10.576607
1425335652.904,-8.889983
1425335652.919,-7.4267077
1425335652.935,-6.173426
1425335652.95,-5.110532
1425335652.966,-4.218793
1425335652.982,-3.4788537
1425335652.997,-2.8745146
1425335653.013,-2.3859847
1425335653.029,-1.9943781
1425335653.044,-1.6887243
1425335653.06,-1.4542239
1425335653.075,-1.280136
1425335653.091,-1.153601
1425335653.107,-1.0686858
1425335653.122,-1.0178524
1425335653.138,-0.99338543
1425335653.154,-0.99638283
1425335653.169,-1.0177143
1425335653.185,-1.0569677
1425335653.2,-1.1113105
1425335653.216,-1.1820662
1425335653.232,-1.2704196
1425335653.247,-1.3714657
1425335653.263,-1.4892247
1425335653.279,-1.6237231
1425335653.294,-1.7767959
1425335653.31,-1.9507549
1425335653.325,-2.1438518
1425335653.341,-2.360679
1425335653.357,-2.5960934
1425335653.372,-2.8629856
1425335653.388,-3.1526294
1425335653.404,-3.4728127
1425335653.419,-3.8215904
1425335653.435,-4.205419
1425335653.45,-4.618355
1425335653.466,-5.065219
1425335653.482,-5.544565
1425335653.497,-6.0582123
1425335653.513,-6.6095953
1425335653.529,-7.199444
1425335653.544,-7.826662
1425335653.56,-8.494842
1425335653.575,-9.204432
1425335653.591,-9.956385
1425335653.607,-10.753604
1425335653.622,-11.592296
1425335653.638,-12.474618
1425335653.654,-13.411909
1425335653.669,-14.409067
1425335653.685,-15.467079
1425335653.7,-16.585981
1425335653.716,-17.769064
1425335653.732,-18.985567
1425335653.747,-20.21566
1425335653.763,-21.397955
1425335653.779,-22.462105
1425335653.794,-23.310406
1425335653.81,-23.824228
1425335653.825,-23.88099
1425335653.841,-23.368195
1425335653.857,-22.189465
1425335653.872,-20.28013
1425335653.888,-17.632252
1425335653.904,-14.295528
1425335653.919,-10.315311
1425335653.935,-5.8640633
1425335653.95,-1.1096611
1425335653.966,3.7286415
1425335653.982,8.455879
1425335653.997,12.855667
1425335654.013,16.77161
1425335654.029,20.062988
1425335654.044,22.678463
1425335654.06,24.569534
1425335654.075,25.766907
1425335654.091,26.35101
1425335654.107,26.418736
1425335654.122,26.083488
1425335654.138,25.446232
1425335654.154,24.640942
1425335654.169,23.730534
1425335654.185,22.789127
1425335654.2,21.846165
1425335654.216,20.909172
1425335654.232,20.007603
1425335654.247,19.150852
1425335654.263,18.33915
1425335654.279,17.540009
1425335654.294,16.739845
1425335654.31,15.905548
1425335654.325,15.013306
1425335654.341,13.989754
1425335654.357,12.767845
1425335654.372,11.339905
1425335654.388,9.689934
1425335654.404,7.7298584
1425335654.419,5.3960876
1425335654.435,2.5849075
1425335654.45,-0.8005676
1425335654.466,-4.8550262
1425335654.482,-9.63784
1425335654.497,-15.236481
1425335654.513,-21.435577
1425335654.529,-28.081886
1425335654.544,-34.956444
1425335654.56,-41.84362
1425335654.575,-48.513756
1425335654.591,-54.77043
1425335654.607,-60.430885
1425335654.622,-65.411255
1425335654.638,-69.70924
1425335654.654,-73.08926
1425335654.669,-75.43957
1425335654.685,-76.798645
1425335654.7,-77.245
1425335654.716,-76.94996
1425335654.732,-76.134155
1425335654.747,-75.036835
1425335654.763,-73.88843
1425335654.779,-72.968094
1425335654.794,-72.063324
1425335654.81,-71.05737
1425335654.825,-69.815445
1425335654.841,-68.224594
1425335654.857,-66.12959
1425335654.872,-63.330597
1425335654.888,-59.437546
1425335654.904,-53.741302
1425335654.919,-48.13028
1425335654.935,-43.190613
1425335654.95,-39.205765
1425335654.966,-36.31299
1425335654.982,-34.477737
1425335654.997,-33.600113
1425335655.013,-33.500732
1425335655.029,-33.960052
1425335655.044,-34.706863
1425335655.06,-35.50589
1425335655.076,-35.695465
1425335655.091,-34.804565
1425335655.107,-32.600677
1425335655.122,-29.10907
1425335655.138,-24.624329
1425335655.154,-19.684875
1425335655.169,-14.866913
1425335655.185,-10.674713
1425335655.201,-7.357025
1425335655.216,-4.53833
1425335655.232,-1.6894531
1425335655.247,1.7035828
1425335655.263,6.0152283
1425335655.279,11.256409
1425335655.294,17.14618
1425335655.31,23.204773
1425335655.326,28.986237
1425335655.341,34.26071
1425335655.357,39.346405
1425335655.372,44.74713
1425335655.388,50.972473
1425335655.404,58.28952
1425335655.419,66.55768
1425335655.435,75.340485
1425335655.451,84.12021
1425335655.466,92.54373
1425335655.482,100.618195
1425335655.497,108.87454
1425335655.513,118.16379
1425335655.529,129.49649
1425335655.544,144.02322
1425335655.56,162.67151
1425335655.576,185.66776
1425335655.591,211.93466
1425335655.607,238.80911
1425335655.622,262.40915
1425335655.638,278.75366
1425335655.654,285.0843
1425335655.669,280.8684
1425335655.685,267.95947
1425335655.701,249.6224
1425335655.716,229.21695
1425335655.732,208.97443
1425335655.747,189.59653
1425335655.763,170.57834
1425335655.779,150.89917
1425335655.794,129.6997
1425335655.81,106.4913
1425335655.826,81.21118
1425335655.841,54.19211
1425335655.857,26.162018
1425335655.872,-1.7420349
1425335655.888,-28.064331
1425335655.904,-51.41513
1425335655.919,-70.855804
1425335655.935,-86.124176
1425335655.951,-97.65451
1425335655.966,-106.33124
1425335655.982,-113.17999
1425335655.997,-118.92355
1425335656.013,-123.84839
1425335656.029,-127.6965
1425335656.044,-129.75906
1425335656.06,-129.29599
1425335656.076,-125.866486
1425335656.091,-119.786865
1425335656.107,-112.25592
1425335656.122,-105.074066
1425335656.138,-100.04175
1425335656.154,-98.33716
1425335656.169,-100.06708
1425335656.185,-104.36127
1425335656.201,-109.895355
1425335656.216,-115.542755
1425335656.232,-120.9827
1425335656.247,-126.703735
1425335656.263,-133.54541
1425335656.279,-142.2175
1425335656.294,-152.7626
1425335656.31,-164.40149
1425335656.326,-175.71312
1425335656.341,-184.83492
1425335656.357,-189.7717
1425335656.372,-188.52525
1425335656.388,-179.51216
1425335656.404,-162.20401
1425335656.419,-137.79517
1425335656.435,-109.54639
1425335656.451,-82.08151
1425335656.466,-59.8945
1425335656.482,-45.431793
1425335656.497,-37.84268
1425335656.513,-33.24698
1425335656.529,-26.669952
1425335656.544,-14.472809
1425335656.56,3.7122192
1425335656.576,24.877441
1425335656.591,44.215942
1425335656.607,57.458252
1425335656.622,62.7713
1425335656.638,61.066315
1425335656.654,54.947327
1425335656.669,47.14926
1425335656.685,39.43396
1425335656.701,32.406067
1425335656.716,26.269806
1425335656.732,21.499695
1425335656.747,18.919373
1425335656.763,19.459259
1425335656.779,23.297241
1425335656.794,29.535095
1425335656.81,36.405518
1425335656.826,42.106262
1425335656.841,45.52899
1425335656.857,46.72101
1425335656.872,46.870667
1425335656.888,47.70221
1425335656.904,50.852844
1425335656.919,57.142212
1425335656.935,66.29419
1425335656.951,77.00055
1425335656.966,87.45007
1425335656.982,95.94232
1425335656.997,101.57947
1425335657.013,104.57318
1425335657.029,106.12744
1425335657.044,107.90454
1425335657.06,111.27991
1425335657.076,116.798035
1425335657.091,123.93317
1425335657.107,131.41266
1425335657.122,137.7453
1425335657.138,141.83765
1425335657.154,143.31982
1425335657.169,142.47687
1425335657.185,140.10608
1425335657.201,137.20251
1425335657.216,134.60443
1425335657.232,132.8302
1425335657.247,131.96185
1425335657.263,131.71893
1425335657.279,131.59253
1425335657.294,131.01709
1425335657.31,129.47852
1425335657.326,126.62207
1425335657.341,122.401184
1425335657.357,117.16559
1425335657.372,111.67023
1425335657.388,106.853485
1425335657.404,103.27072
1425335657.419,100.65936
1425335657.435,97.503265
1425335657.451,91.381165
1425335657.466,79.71811
1425335657.482,60.922028
1425335657.497,35.229126
1425335657.513,4.8941956
1425335657.529,-26.396667
1425335657.544,-54.705444
1425335657.56,-76.93161
1425335657.576,-91.556854
1425335657.591,-98.66141
1425335657.607,-99.54114
1425335657.622,-96.13815
1425335657.638,-90.685
1425335657.654,-85.24686
1425335657.669,-81.505646
1425335657.685,-80.55124
1425335657.701,-82.38025
1425335657.716,-85.89053
1425335657.732,-89.10358
1425335657.748,-90.0217
1425335657.763,-87.70145
1425335657.779,-83.06195
1425335657.794,-78.85495
1425335657.81,-78.69946
1425335657.826,-85.70996
1425335657.841,-101.170715
1425335657.857,-124.074646
1425335657.873,-151.52672
1425335657.888,-179.67546
1425335657.904,-204.63289
1425335657.919,-222.98753
1425335657.935,-232.01762
1425335657.951,-229.77844
1425335657.966,-215.52066
1425335657.982,-190.20569
1425335657.998,-156.81682
1425335658.013,-119.93445
1425335658.029,-84.54361
1425335658.044,-54.63922
1425335658.06,-32.122177
1425335658.076,-16.761963
1425335658.091,-6.8630524
1425335658.107,-0.5760803
1425335658.123,3.243988
1425335658.138,4.68277
1425335658.154,3.0385742
1425335658.169,-2.4427032
1425335658.185,-11.958145
1425335658.201,-24.956818
1425335658.216,-40.332184
1425335658.232,-56.709656
1425335658.248,-72.73805
1425335658.263,-87.00775
1425335658.279,-97.97366
1425335658.294,-103.94458
1425335658.31,-103.452545
1425335658.326,-95.74814
1425335658.341,-81.33487
1425335658.357,-62.035553
1425335658.373,-40.54785
1425335658.388,-19.584717
1425335658.404,-0.9901428
1425335658.419,14.644104
1425335658.435,27.901917
1425335658.451,39.90802
1425335658.466,51.67096
1425335658.482,63.746033
1425335658.498,76.18338
1425335658.513,88.82553
1425335658.529,101.54416
1425335658.544,114.20538
1425335658.56,126.47589
1425335658.576,137.61438
1425335658.591,146.3941
1425335658.607,151.27765
1425335658.623,150.78775
1425335658.638,144.05249
1425335658.654,131.12787
1425335658.669,113.169464
1425335658.685,92.18414
1425335658.701,70.4718
1425335658.716,50.016174
1425335658.732,32.101227
1425335658.748,17.241943
1425335658.763,5.535614
1425335658.779,-2.984558
1425335658.794,-8.097046
1425335658.81,-9.570282
1425335658.826,-7.4375305
1425335658.841,-2.299652
1425335658.857,4.6907043
1425335658.873,12.11264
1425335658.888,18.676575
1425335658.904,23.603027
1425335658.919,26.66043
1425335658.935,28.034912
1425335658.951,28.083252
1425335658.966,27.184204
1425335658.982,25.70288
1425335658.998,23.942413
1425335659.013,22.20456
1425335659.029,20.706451
1425335659.044,19.601318
1425335659.06,18.846222
1425335659.076,18.358826
1425335659.091,18.006622
1425335659.107,17.729431
1425335659.123,17.514893
1425335659.138,17.346008
1425335659.154,17.082214
1425335659.169,16.500305
1425335659.185,15.356964
1425335659.201,13.534058
1425335659.216,11.218262
1425335659.232,8.834198
1425335659.248,6.98349
1425335659.263,6.244873
1425335659.279,6.9934387
1425335659.294,9.273163
1425335659.31,12.836731
1425335659.326,17.169739
1425335659.341,21.639557
1425335659.357,25.562256
1425335659.373,28.32959
1425335659.388,29.466797
1425335659.404,28.75061
1425335659.419,26.242157
1425335659.435,22.275635
1425335659.451,17.330536
1425335659.466,11.900787
1425335659.482,6.4237366
1425335659.498,1.2027283
1425335659.513,-3.5909424
1425335659.529,-7.8634644
1425335659.544,-11.65155
1425335659.56,-15.061127
1425335659.576,-18.250092
1425335659.591,-21.29953
1425335659.607,-24.259644
1425335659.623,-27.04712
1425335659.638,-29.438263
1425335659.654,-31.225403
1425335659.669,-32.235046
1425335659.685,-32.500854
1425335659.701,-32.247894
1425335659.716,-31.849121
1425335659.732,-31.674927
1425335659.748,-31.979034
1425335659.763,-32.836212
1425335659.779,-33.966217
1425335659.794,-34.97583
1425335659.81,-35.33664
1425335659.826,-34.728485
1425335659.841,-33.051117
1425335659.857,-30.491638
1425335659.873,-27.341751
1425335659.888,-23.902496
1425335659.904,-20.313705
1425335659.919,-16.49675
1425335659.935,-12.224991
1425335659.951,-7.1577606
1425335659.966,-1.0549164
1425335659.982,6.0878754
1425335659.998,13.987259
1425335660.013,21.94693
1425335660.029,29.142487
1425335660.044,34.66742
1425335660.06,37.919037
1425335660.076,38.591995
1425335660.091,36.867035
1425335660.107,33.368134
1425335660.123,28.864975
1425335660.138,24.13858
1425335660.154,19.659012
1425335660.169,15.594299
1425335660.185,11.796204
1425335660.201,8.035934
1425335660.216,4.047714
1425335660.232,-0.25135803
1425335660.248,-4.7249756
1425335660.263,-9.2135315
1425335660.279,-13.436951
1425335660.294,-17.217728
1425335660.31,-20.39537
1425335660.326,-22.844833
1425335660.341,-24.438065
1425335660.357,-25.126358
1425335660.373,-24.910995
1425335660.388,-23.92781
1425335660.404,-22.486862
1425335660.42,-20.888748
1425335660.435,-19.495438
1425335660.451,-18.516388
1425335660.466,-17.977753
1425335660.482,-17.704117
1425335660.498,-17.33693
1425335660.513,-16.525635
1425335660.529,-14.99762
1425335660.544,-12.766846
1425335660.56,-9.997986
1425335660.576,-6.975662
1425335660.591,-3.998886
1425335660.607,-1.2527924
1425335660.623,1.1936035
1425335660.638,3.4464874
1425335660.654,5.764145
1425335660.67,8.455154
1425335660.685,11.783707
1425335660.701,15.921448
1425335660.716,20.772964
1425335660.732,25.924515
1425335660.748,30.640732
1425335660.763,34.018417
1425335660.779,35.272247
1425335660.795,33.975693
1425335660.81,30.30307
1425335660.826,24.914581
1425335660.841,18.75615
1425335660.857,12.656433
1425335660.873,7.172714
1425335660.888,2.4632416
1425335660.904,-1.5551605
1425335660.92,-4.991043
1425335660.935,-7.8928375
1425335660.951,-10.203278
1425335660.966,-11.92778
1425335660.982,-13.255478
1425335660.998,-14.5460205
1425335661.013,-16.078415
1425335661.029,-17.950165
1425335661.045,-19.972076
1425335661.06,-21.772446
1425335661.076,-23.022194
1425335661.091,-23.615517
1425335661.107,-23.685616
1425335661.123,-23.486023
1425335661.138,-23.274261
1425335661.154,-23.129257
1425335661.17,-22.957176
1425335661.185,-22.60859
1425335661.201,-21.875992
1425335661.216,-20.590546
1425335661.232,-18.646965
1425335661.248,-16.084816
1425335661.263,-13.029434
1425335661.279,-9.741493
1425335661.295,-6.5386734
1425335661.31,-3.649994
1425335661.326,-1.16436
1425335661.341,1.0444031
1425335661.357,3.1882706
1425335661.373,5.4268265
1425335661.388,7.759163
1425335661.404,10.119133
1425335661.42,12.361801
1425335661.435,14.38652
1425335661.451,16.245468
1425335661.466,18.07891
1425335661.482,20.129158
1425335661.498,22.579048
1425335661.513,25.591812
1425335661.529,29.217888
1425335661.545,33.33242
1425335661.56,37.528442
1425335661.576,41.186607
1425335661.591,43.576622
1425335661.607,44.021263
1425335661.623,42.15812
1425335661.638,38.10186
1425335661.654,32.43548
1425335661.67,26.01313
1425335661.685,19.68573
1425335661.701,13.9851
1425335661.716,9.080753
1425335661.732,4.8109016
1425335661.748,0.90169144
1425335661.763,-2.8890533
1425335661.779,-6.639778
1425335661.795,-10.315132
1425335661.81,-13.888588
1425335661.826,-17.33599
1425335661.841,-20.593143
1425335661.857,-23.532524
1425335661.873,-25.959007
1425335661.888,-27.713749
1425335661.904,-28.759655
1425335661.92,-29.312466
1425335661.935,-29.687191
1425335661.951,-30.135315
1425335661.966,-30.720692
1425335661.982,-31.314491
1425335661.998,-31.703098
1425335662.013,-31.75439
1425335662.029,-31.450272
1425335662.045,-30.814482
1425335662.06,-29.874199
1425335662.076,-28.505877
1425335662.091,-26.578714
1425335662.107,-24.021599
1425335662.123,-21.040697
1425335662.138,-17.99753
1425335662.154,-15.250732
1425335662.17,-13.024008
1425335662.185,-11.30805
1425335662.201,-10.014244
1425335662.216,-9.024354
1425335662.232,-8.309444
1425335662.248,-7.764436
1425335662.263,-7.250477
1425335662.279,-6.525199
1425335662.295,-5.337453
1425335662.31,-3.5650158
1425335662.326,-1.3298783
1425335662.341,1.1299214
1425335662.357,3.5782561
1425335662.373,5.944978
1425335662.388,8.365078
1425335662.404,11.105867
1425335662.42,14.429617
1425335662.435,18.457726
1425335662.451,23.110455
1425335662.466,28.07602
1425335662.482,32.822308
1425335662.498,36.67142
1425335662.513,38.849506
1425335662.529,38.83054
1425335662.545,36.458935
1425335662.56,32.110535
1425335662.576,26.572502
1425335662.591,20.765053
1425335662.607,15.353169
1425335662.623,10.635666
1425335662.638,6.4318604
1425335662.654,2.343688
1425335662.67,-1.9348869
1425335662.685,-6.5136194
1425335662.701,-11.190743
1425335662.716,-15.631161
1425335662.732,-19.49672
1425335662.748,-22.557907
1425335662.763,-24.69958
1425335662.779,-25.936937
1425335662.795,-26.34473
1425335662.81,-26.020748
1425335662.826,-25.146736
1425335662.841,-23.941536
1425335662.857,-22.671612
1425335662.873,-21.593508
1425335662.888,-20.979477
1425335662.904,-20.92264
1425335662.92,-21.3905
1425335662.935,-22.15704
1425335662.951,-22.90361
1425335662.966,-23.240244
1425335662.982,-22.887949
1425335662.998,-21.705637
1425335663.013,-19.808174
1425335663.029,-17.50399
1425335663.045,-15.16905
1425335663.06,-13.1485195
1425335663.076,-11.533712
1425335663.092,-10.233297
1425335663.107,-8.994234
1425335663.123,-7.5231533
1425335663.138,-5.6050396
1425335663.154,-3.1748447
1425335663.17,-0.32896996
1425335663.185,2.7275162
1425335663.201,5.739546
1425335663.216,8.5051155
1425335663.232,10.902311
1425335663.248,12.933729
1425335663.263,14.695551
1425335663.279,16.45224
1425335663.295,18.514482
1425335663.31,21.217684
1425335663.326,24.628387
1425335663.342,28.417345
1425335663.357,31.832575
1425335663.373,33.986885
1425335663.388,34.04032
1425335663.404,31.649057
1425335663.42,27.055504
1425335663.435,21.02357
1425335663.451,14.48913
1425335663.467,8.239006
1425335663.482,2.6680698
1425335663.498,-2.2306938
1425335663.513,-6.6440907
1425335663.529,-10.790556
1425335663.545,-14.724108
1425335663.56,-18.382118
1425335663.576,-21.644442
1425335663.592,-24.43913
1425335663.607,-26.804594
1425335663.623,-28.837313
1425335663.638,-30.633728
1425335663.654,-32.229668
1425335663.67,-33.515755
1425335663.685,-34.35721
1425335663.701,-34.716362
1425335663.717,-34.655807
1425335663.732,-34.37751
1425335663.748,-34.027863
1425335663.763,-33.662388
1425335663.779,-33.1382
1425335663.795,-32.224026
1425335663.81,-30.687502
1425335663.826,-28.479109
1425335663.842,-25.758926
1425335663.857,-22.836382
1425335663.873,-19.988605
1425335663.888,-17.328278
1425335663.904,-14.842948
1425335663.92,-12.429234
1425335663.935,-10.061551
1425335663.951,-7.8138394
1425335663.967,-5.8562884
1425335663.982,-4.265375
1425335663.998,-2.9719362
1425335664.013,-1.7402945
1425335664.029,-0.28577518
1425335664.045,1.5423355
1425335664.06,3.7139397
1425335664.076,6.039196
1425335664.092,8.245995
1425335664.107,10.115528
1425335664.123,11.652439
1425335664.138,13.01936
1425335664.154,14.483625
1425335664.17,16.320871
1425335664.185,18.812355
1425335664.201,22.041515
1425335664.217,25.922384
1425335664.232,30.018244
1425335664.248,33.61327
1425335664.263,35.88473
1425335664.279,36.134518
1425335664.295,34.118195
1425335664.31,30.121605
1425335664.326,24.92677
1425335664.342,19.443192
1425335664.357,14.476784
1425335664.373,10.44754
1425335664.388,7.3976517
1425335664.404,5.1311874
1425335664.42,3.3444214
1425335664.435,1.7453575
1425335664.451,0.08644867
1425335664.467,-1.7571144
1425335664.482,-3.8692284
1425335664.498,-6.190922
1425335664.513,-8.595226
1425335664.529,-10.860077
1425335664.545,-12.7047
1425335664.56,-13.995491
1425335664.576,-14.6034775
1425335664.592,-14.487938
1425335664.607,-13.687538
1425335664.623,-12.353111
1425335664.638,-10.765228
1425335664.654,-9.346588
1425335664.67,-8.507767
1425335664.685,-8.456131
1425335664.701,-9.161194
1425335664.717,-10.283867
1425335664.732,-11.351494
1425335664.748,-11.962189
1425335664.763,-11.907967
1425335664.779,-11.301521
1425335664.795,-10.388168
1425335664.81,-9.39077
1425335664.826,-8.409637
1425335664.842,-7.3626175
1425335664.857,-6.043373
1425335664.873,-4.2784348
1425335664.888,-2.0554047
1425335664.904,0.520813
1425335664.92,3.218422
1425335664.935,5.8179703
1425335664.951,8.174438
1425335664.967,10.267532
1425335664.982,12.217583
1425335664.998,14.244209
1425335665.013,16.571892
1425335665.029,19.286354
1425335665.045,22.273415
1425335665.06,25.220871
1425335665.076,27.592506
1425335665.092,28.767883
1425335665.107,28.220512
1425335665.123,25.738426
1425335665.138,21.504044
1425335665.154,16.097511
1425335665.17,10.302429
1425335665.185,4.9105835
1425335665.201,0.5036316
1425335665.217,-2.6837082
1425335665.232,-4.730591
1425335665.248,-5.922394
1425335665.263,-6.5996704
1425335665.279,-7.031311
1425335665.295,-7.4169006
1425335665.31,-7.837593
1425335665.326,-8.2914505
1425335665.342,-8.692314
1425335665.357,-8.928238
1425335665.373,-8.896011
1425335665.388,-8.56517
1425335665.404,-7.9488373
1425335665.42,-7.1467743
1425335665.435,-6.315033
1425335665.451,-5.630722
1425335665.467,-5.31485
1425335665.482,-5.44989
1425335665.498,-6.036972
1425335665.513,-6.958313
1425335665.529,-7.876648
1425335665.545,-8.469589
1425335665.56,-8.495514
1425335665.576,-7.9120483
1425335665.592,-6.84964
1425335665.607,-5.610962
1425335665.623,-4.3348083
1425335665.638,-3.0386658
1425335665.654,-1.5914917
1425335665.67,0.19854736
1425335665.685,2.4310455
1425335665.701,5.05101
1425335665.717,7.8934326
1425335665.732,10.728989
1425335665.748,13.408371
1425335665.763,15.878143
1425335665.779,18.176056
1425335665.795,20.449982
1425335665.81,22.785873
1425335665.826,25.254059
1425335665.842,27.869186
1425335665.857,30.47615
1425335665.873,32.751236
1425335665.888,34.238297
1425335665.904,34.382446
1425335665.92,32.7704
1425335665.935,29.245789
1425335665.951,24.074158
1425335665.967,17.82576
1425335665.982,11.222397
1425335665.998,5.0283203
1425335666.014,-0.29518127
1425335666.029,-4.4422607
1425335666.045,-7.3878937
1425335666.06,-9.25885
1425335666.076,-10.263412
1425335666.092,-10.599594
1425335666.107,-10.569458
1425335666.123,-10.457001
1425335666.139,-10.476685
1425335666.154,-10.8081665
1425335666.17,-11.4904175
1425335666.185,-12.45285
1425335666.201,-13.573685
1425335666.217,-14.668167
1425335666.232,-15.5372925
1425335666.248,-16.048172
1425335666.264,-16.138107
1425335666.279,-15.8103485
1425335666.295,-15.179886
1425335666.31,-14.401428
1425335666.326,-13.632568
1425335666.342,-12.946823
1425335666.357,-12.278534
1425335666.373,-11.486069
1425335666.389,-10.448059
1425335666.404,-9.103485
1425335666.42,-7.4847717
1425335666.435,-5.8003387
1425335666.451,-4.289444
1425335666.467,-3.0959778
1425335666.482,-2.324234
1425335666.498,-1.8726196
1425335666.514,-1.5913086
1425335666.529,-1.2303009
1425335666.545,-0.6345978
1425335666.56,0.31181335
1425335666.576,1.5467224
1425335666.592,2.9526367
1425335666.607,4.4331055
1425335666.623,5.936554
1425335666.639,7.5497894
1425335666.654,9.4322815
1425335666.67,11.773529
1425335666.685,14.7686615
1425335666.701,18.493881
1425335666.717,22.857697
1425335666.732,27.543625
1425335666.748,32.029327
1425335666.764,35.613586
1425335666.779,37.58458
1425335666.795,37.448227
1425335666.81,35.028152
1425335666.826,30.721786
1425335666.842,25.29866
1425335666.857,19.69432
1425335666.873,14.696655
1425335666.889,10.698044
1425335666.904,7.609314
1425335666.92,5.071884
1425335666.935,2.7003174
1425335666.951,0.21591187
1425335666.967,-2.3832855
1425335666.982,-5.0145874
1425335666.998,-7.493927
1425335667.014,-9.680496
1425335667.029,-11.30806
1425335667.045,-12.185074
1425335667.06,-12.117905
1425335667.076,-11.177994
1425335667.092,-9.792191
1425335667.107,-8.594574
1425335667.123,-8.237656
1425335667.139,-9.064163
1425335667.154,-10.878571
1425335667.17,-12.985764
1425335667.185,-14.435684
1425335667.201,-14.410294
1425335667.217,-12.429428
1425335667.232,-8.5354
1425335667.248,-3.145462
1425335667.264,3.1020813
1425335667.279,9.552933
1425335667.295,15.747025
1425335667.31,21.423096
1425335667.326,26.530548
1425335667.342,31.118408
1425335667.357,35.353683
1425335667.373,39.374878
1425335667.389,43.384583
1425335667.404,47.56598
1425335667.42,52.007614
1425335667.435,56.650406
1425335667.451,61.276634
1425335667.467,65.613625
1425335667.482,69.498055
1425335667.498,73.27526
1425335667.514,77.74525
1425335667.529,84.120316
1425335667.545,93.49145
1425335667.56,106.323
1425335667.576,122.09652
1425335667.592,139.55524
1425335667.607,157.3245
1425335667.623,174.65778
1425335667.639,191.63562
1425335667.654,208.35931
1425335667.67,223.8336
1425335667.685,235.22421
1425335667.701,238.02394
1425335667.717,227.47452
1425335667.732,200.5057
1425335667.748,157.0726
1425335667.764,99.98946
1425335667.779,33.847263
1425335667.795,-36.46049
1425335667.81,-106.396545
1425335667.826,-171.61105
1425335667.842,-227.5989
1425335667.857,-269.8518
1425335667.873,-295.14822
1425335667.889,-303.14127
1425335667.904,-297.1201
1425335667.92,-283.2446
1425335667.935,-268.27982
1425335667.951,-257.07318
1425335667.967,-251.03665
1425335667.982,-248.48802
1425335667.998,-246.2074
1425335668.014,-241.43585
1425335668.029,-233.1299
1425335668.045,-221.79675
1425335668.06,-208.72142
1425335668.076,-194.97737
1425335668.092,-180.84583
1425335668.107,-165.98389
1425335668.123,-149.91367
1425335668.139,-132.50247
1425335668.154,-114.22571
1425335668.17,-96.04788
1425335668.185,-78.89594
1425335668.201,-63.25917
1425335668.217,-49.06961
1425335668.232,-35.779106
1425335668.248,-22.707672
1425335668.264,-9.479553
1425335668.279,3.8214493
1425335668.295,16.669456
1425335668.31,28.372215
1425335668.326,38.453976
1425335668.342,46.85967
1425335668.357,54.004753
1425335668.373,60.54895
1425335668.389,66.985916
1425335668.404,73.47275
1425335668.42,79.68746
1425335668.435,85.03046
1425335668.451,88.96442
1425335668.467,91.23925
1425335668.482,91.88454
1425335668.498,91.11896
1425335668.514,89.13099
1425335668.529,85.85249
1425335668.545,81.17082
1425335668.56,75.08302
1425335668.576,67.890686
1425335668.592,60.174595
1425335668.607,52.645927
1425335668.623,45.79956
1425335668.639,39.86052
1425335668.654,34.742935
1425335668.67,30.157612
1425335668.686,25.799843
1425335668.701,21.411911
1425335668.717,16.92783
1425335668.732,12.456909
1425335668.748,8.35775
1425335668.764,5.061226
1425335668.779,2.9433517
1425335668.795,2.1779556
1425335668.811,2.6370392
1425335668.826,3.9915237
1425335668.842,5.790886
1425335668.857,7.6641846
1425335668.873,9.427223
1425335668.889,10.964088
1425335668.904,12.191559
1425335668.92,13.1058655
1425335668.936,13.741371
1425335668.951,14.254105
1425335668.967,14.874596
1425335668.982,15.728966
1425335668.998,16.812195
1425335669.014,17.907845
1425335669.029,18.760529
1425335669.045,19.220093
1425335669.061,19.321571
1425335669.076,19.280037
1425335669.092,19.330475
1425335669.107,19.633354
1425335669.123,20.133148
1425335669.139,20.704857
1425335669.154,21.09172
1425335669.17,21.138245
1425335669.186,20.879211
1425335669.201,20.493164
1425335669.217,20.373734
1425335669.232,20.911339
1425335669.248,22.435326
1425335669.264,24.927063
1425335669.279,28.041489
1425335669.295,30.998833
1425335669.311,32.819466
1425335669.326,32.617332
1425335669.342,29.92347
1425335669.357,24.892609
1425335669.373,18.342926
1425335669.389,11.606422
1425335669.404,6.0764923
1425335669.42,2.7874908
1425335669.436,2.0542984
1425335669.451,3.3560562
1425335669.467,5.623024
1425335669.482,7.59877
1425335669.498,8.343384
1425335669.514,7.4998093
1425335669.529,5.4132996
1425335669.545,3.0437927
1425335669.561,1.7287598
1425335669.576,2.78582
1425335669.592,7.092678
1425335669.607,14.692131
1425335669.623,24.51572
1425335669.639,34.69783
1425335669.654,43.20215
1425335669.67,48.736534
1425335669.686,51.389526
1425335669.701,52.601643
1425335669.717,54.44094
1425335669.732,58.402035
1425335669.748,64.64161
1425335669.764,71.735504
1425335669.779,77.4955
1425335669.795,79.9147
1425335669.811,78.18343
1425335669.826,72.80645
1425335669.842,65.2934
1425335669.857,57.54803
1425335669.873,51.24917
1425335669.889,47.576332
1425335669.904,46.96459
1425335669.92,48.86773
1425335669.936,51.70341
1425335669.951,53.102085
1425335669.967,50.64839
1425335669.982,42.81969
1425335669.998,29.838531
1425335670.014,13.690918
1425335670.029,-2.5508728
1425335670.045,-15.953003
1425335670.061,-24.945541
1425335670.076,-29.72535
1425335670.092,-31.841537
1425335670.107,-33.208733
1425335670.123,-35.14392
1425335670.139,-37.977203
1425335670.154,-41.305725
1425335670.17,-44.676544
1425335670.186,-48.011948
1425335670.201,-51.628113
1425335670.217,-55.777008
1425335670.232,-60.021484
1425335670.248,-63.06131
1425335670.264,-63.11905
1425335670.279,-58.713287
1425335670.295,-49.58438
1425335670.311,-37.041595
1425335670.326,-23.541245
1425335670.342,-11.889496
1425335670.357,-4.2888336
1425335670.373,-1.5226746
1425335670.389,-3.0914154
1425335670.404,-7.4954376
1425335670.42,-12.947418
1425335670.436,-18.085983
1425335670.451,-22.260132
1425335670.467,-25.3992
1425335670.482,-27.93924
1425335670.498,-30.338257
1425335670.514,-32.798126
1425335670.529,-35.22046
1425335670.545,-37.291138
1425335670.561,-38.780426
1425335670.576,-39.7612
1425335670.592,-40.54651
1425335670.607,-41.37393
1425335670.623,-42.134277
1425335670.639,-42.28528
1425335670.654,-41.055267
1425335670.67,-37.917053
1425335670.686,-32.98291
1425335670.701,-26.876648
1425335670.717,-20.489044
1425335670.732,-14.451141
1425335670.748,-8.889252
1425335670.764,-3.59375
1425335670.779,1.592102
1425335670.795,6.550812
1425335670.811,10.679871
1425335670.826,13.305145
1425335670.842,14.218628
1425335670.857,13.775024
1425335670.873,12.790222
1425335670.889,12.13092
1425335670.904,12.155975
1425335670.92,12.596191
1425335670.936,12.727753
1425335670.951,11.699097
1425335670.967,9.02536
1425335670.982,4.6967163
1425335670.998,-0.93307495
1425335671.014,-7.450989
1425335671.029,-14.44574
1425335671.045,-21.622406
1425335671.061,-28.754272
1425335671.076,-35.569153
1425335671.092,-41.78897
1425335671.107,-47.11035
1425335671.123,-51.350677
1425335671.139,-54.44635
1425335671.154,-56.566284
1425335671.17,-57.84671
1425335671.186,-58.394104
1425335671.201,-58.175507
1425335671.217,-57.041473
1425335671.232,-54.800323
1425335671.248,-51.292633
1425335671.264,-46.524933
1425335671.279,-40.70511
1425335671.295,-34.16742
1425335671.311,-27.296082
1425335671.326,-20.393463
1425335671.342,-13.782471
1425335671.358,-7.661621
1425335671.373,-2.2613525
1425335671.389,2.2744446
1425335671.404,5.990143
1425335671.42,9.169922
1425335671.436,12.24057
1425335671.451,15.600189
1425335671.467,19.376984
1425335671.482,23.183655
1425335671.498,26.312653
1425335671.514,27.865356
1425335671.529,27.209839
1425335671.545,24.247314
1425335671.561,19.470856
1425335671.576,13.669281
1425335671.592,7.676178
1425335671.608,2.1785583
1425335671.623,-2.4849854
1425335671.639,-6.1222534
1425335671.654,-8.681824
1425335671.67,-10.189789
1425335671.686,-10.779572
1425335671.701,-10.697449
1425335671.717,-10.374695
1425335671.733,-10.230896
1425335671.748,-10.5401
1425335671.764,-11.358215
1425335671.779,-12.454254
1425335671.795,-13.51236
1425335671.811,-14.240356
1425335671.826,-14.432648
1425335671.842,-14.038391
1425335671.858,-13.123749
1425335671.873,-11.772125
1425335671.889,-10.011444
1425335671.904,-7.840088
1425335671.92,-5.1750183
1425335671.936,-1.9566345
1425335671.951,1.8404846
1425335671.967,6.0920715
1425335671.983,10.486938
1425335671.998,14.563629
1425335672.014,17.736725
1425335672.029,19.545685
1425335672.045,19.885925
1425335672.061,19.151917
1425335672.076,18.082336
1425335672.092,17.434143
1425335672.108,17.582703
1425335672.123,18.36612
1425335672.139,19.085236
1425335672.154,18.83844
1425335672.17,16.92453
1425335672.186,13.1449585
1425335672.201,7.868744
1425335672.217,1.7250671
1425335672.233,-4.663086
1425335672.248,-10.987122
1425335672.264,-17.271667
1425335672.279,-23.694244
1425335672.295,-30.34372
1425335672.311,-37.031464
1425335672.326,-43.33551
1425335672.342,-48.64319
1425335672.358,-52.53055
1425335672.373,-54.81839
1425335672.389,-55.734863
1425335672.404,-55.83029
1425335672.42,-55.757507
1425335672.436,-56.08667
1425335672.451,-56.913605
1425335672.467,-57.914795
1425335672.483,-58.44336
1425335672.498,-57.873505
1425335672.514,-55.845795
1425335672.529,-52.63742
1425335672.545,-48.889008
1425335672.561,-45.30252
1425335672.576,-42.31732
1425335672.592,-39.795715
1425335672.608,-37.24939
1425335672.623,-34.081116
1425335672.639,-29.926239
1425335672.654,-24.696045
1425335672.67,-18.511475
1425335672.686,-11.522064
1425335672.701,-3.7893677
1425335672.717,4.631592
1425335672.733,13.417664
1425335672.748,21.962494
1425335672.764,29.408539
1425335672.779,35.07129
1425335672.795,38.73532
1425335672.811,40.782837
1425335672.826,41.9393
1425335672.842,42.90674
1425335672.858,43.912964
1425335672.873,44.662415
1425335672.889,44.647278
1425335672.904,43.497345
1425335672.92,41.350372
1425335672.936,38.78871
1425335672.951,36.608063
1425335672.967,35.46553
1425335672.983,35.527435
1425335672.998,36.33873
1425335673.014,37.199142
1425335673.029,37.401917
1425335673.045,36.616318
1425335673.061,35.130936
1425335673.076,33.720047
1425335673.092,33.32277
1425335673.108,34.63269
1425335673.123,37.833023
1425335673.139,42.43962
1425335673.154,47.570953
1425335673.17,52.275894
1425335673.186,55.943146
1425335673.201,58.43312
1425335673.217,60.06575
1425335673.233,61.31154
1425335673.248,62.570724
1425335673.264,63.918243
1425335673.279,65.11331
1425335673.295,65.75273
1425335673.311,65.44353
1425335673.326,64.05501
1425335673.342,61.798462
1425335673.358,59.18898
1425335673.373,56.80075
1425335673.389,55.067368
1425335673.404,54.016098
1425335673.42,53.163345
1425335673.436,51.64766
1425335673.451,48.388428
1425335673.467,42.5114
1425335673.483,33.62964
1425335673.498,22.018066
1425335673.514,8.661423
1425335673.529,-5.0457306
1425335673.545,-17.711273
1425335673.561,-28.411774
1425335673.576,-36.856506
1425335673.592,-43.3685
1425335673.608,-48.531097
1425335673.623,-52.789215
1425335673.639,-56.162262
1425335673.654,-58.28134
1425335673.67,-58.714844
1425335673.686,-57.305603
1425335673.701,-54.392822
1425335673.717,-50.805237
1425335673.733,-47.550507
1425335673.748,-45.479797
1425335673.764,-45.02011
1425335673.779,-46.042175
1425335673.795,-47.910187
1425335673.811,-49.746582
1425335673.826,-50.679443
1425335673.842,-50.13559
1425335673.858,-47.99048
1425335673.873,-44.665253
1425335673.889,-40.96277
1425335673.904,-37.69928
1425335673.92,-35.445465
1425335673.936,-34.27118
1425335673.951,-33.80783
1425335673.967,-33.44043
1425335673.983,-32.646576
1425335673.998,-31.17978
1425335674.014,-29.061676
1425335674.03,-26.458923
1425335674.045,-23.462738
1425335674.061,-20.016327
1425335674.076,-15.82785
1425335674.092,-10.5355835
1425335674.108,-3.8378906
1425335674.123,4.2575073
1425335674.139,13.323578
1425335674.154,22.446106
1425335674.17,30.345306
1425335674.186,35.68982
1425335674.201,37.5412
1425335674.217,35.684143
1425335674.233,30.700317
1425335674.248,23.732117
1425335674.264,16.040436
1425335674.28,8.6828
1425335674.295,2.317566
1425335674.311,-2.6152039
1425335674.326,-5.7372437
1425335674.342,-6.786865
1425335674.358,-5.7089233
1425335674.373,-2.8798218
1425335674.389,0.79504395
1425335674.405,4.1394043
1425335674.42,6.1128845
1425335674.436,6.2853394
1425335674.451,4.956543
1425335674.467,3.0221558
1425335674.483,1.4393005
1425335674.498,0.86657715
1425335674.514,1.3931274
1425335674.53,2.6749268
1425335674.545,4.2030945
1425335674.561,5.559326
1425335674.576,6.546753
1425335674.592,7.241577
1425335674.608,7.836792
1425335674.623,8.504089
1425335674.639,9.354095
1425335674.655,10.376984
1425335674.67,11.486511
1425335674.686,12.647858
1425335674.701,13.812073
1425335674.717,15.065552
1425335674.733,16.542938
1425335674.748,18.420776
1425335674.764,20.79895
1425335674.78,23.780823
1425335674.795,27.384064
1425335674.811,31.50119
1425335674.826,36.005127
1425335674.842,40.554047
1425335674.858,44.632874
1425335674.873,47.593536
1425335674.889,48.757324
1425335674.905,47.710815
1425335674.92,44.43094
1425335674.936,39.40442
1425335674.951,33.4133
1425335674.967,27.32254
1425335674.983,21.817291
1425335674.998,17.198944
1425335675.014,13.365753
1425335675.03,9.888184
1425335675.045,6.2478027
1425335675.061,2.036255
1425335675.076,-2.836853
1425335675.092,-8.077118
1425335675.108,-13.117096
1425335675.123,-17.355804
1425335675.139,-20.415894
1425335675.155,-22.194214
1425335675.17,-22.956665
1425335675.186,-23.085754
1425335675.201,-22.913727
1425335675.217,-22.59085
1425335675.233,-22.107758
1425335675.248,-21.36612
1425335675.264,-20.319214
1425335675.28,-19.064148
1425335675.295,-17.59668
1425335675.311,-15.889465
1425335675.326,-13.81192
1425335675.342,-11.228973
1425335675.358,-8.15097
1425335675.373,-4.7938843
1425335675.389,-1.5505981
1425335675.405,1.2736816
1425335675.42,3.5150452
1425335675.436,5.373047
1425335675.451,7.2070007
1425335675.467,9.360687
1425335675.483,11.991699
1425335675.498,15.046753
1425335675.514,18.306091
1425335675.53,21.546509
1425335675.545,24.774292
1425335675.561,28.040192
1425335675.576,31.495758
1425335675.592,35.141144
1425335675.608,38.85968
1425335675.623,42.440216
1425335675.639,45.49054
1425335675.655,47.4881
1425335675.67,47.81476
1425335675.686,45.937164
1425335675.701,41.4906
1425335675.717,34.57904
1425335675.733,25.72821
1425335675.748,15.787567
1425335675.764,5.6931763
1425335675.78,-3.866333
1425335675.795,-12.576935
1425335675.811,-20.41214
1425335675.826,-27.508759
1425335675.842,-33.913483
1425335675.858,-39.352905
1425335675.873,-43.288513
1425335675.889,-45.09308
1425335675.905,-44.390625
1425335675.92,-41.28195
1425335675.936,-36.420624
1425335675.951,-30.870026
1425335675.967,-25.736053
1425335675.983,-21.85321
1425335675.998,-19.52304
1425335676.014,-18.568512
1425335676.03,-18.536652
1425335676.045,-18.919525
1425335676.061,-19.358246
1425335676.076,-19.550964
1425335676.092,-19.218079
1425335676.108,-18.099213
1425335676.123,-16.04071
1425335676.139,-13.126251
1425335676.155,-9.773071
1425335676.17,-6.6994934
1425335676.186,-4.6376038
1425335676.201,-4.1319885
1425335676.217,-5.32547
1425335676.233,-7.8778076
1425335676.248,-11.057709
1425335676.264,-13.910156
1425335676.28,-15.478516
1425335676.295,-15.102325
1425335676.311,-12.602814
1425335676.326,-8.322754
1425335676.342,-2.93573
1425335676.358,2.7922363
1425335676.373,8.272919
1425335676.389,13.2873535
1425335676.405,17.729706
1425335676.42,21.456146
1425335676.436,24.060272
1425335676.451,24.88739
1425335676.467,23.266815
1425335676.483,18.946106
1425335676.498,12.2854
1425335676.514,4.243164
1425335676.53,-3.963501
1425335676.545,-11.266571
1425335676.561,-17.058289
1425335676.576,-21.320068
1425335676.592,-24.433044
1425335676.608,-26.948486
1425335676.623,-29.348755
1425335676.639,-31.908203
1425335676.655,-34.598633
1425335676.67,-37.149902
1425335676.686,-39.04535
1425335676.701,-39.64447
1425335676.717,-38.41388
1425335676.733,-34.983765
1425335676.748,-29.417358
1425335676.764,-22.257446
1425335676.78,-14.397522
1425335676.795,-6.7841187
1425335676.811,-0.23913574
1425335676.826,4.688843
1425335676.842,7.7773438
1425335676.858,9.007202
1425335676.873,8.580078
1425335676.889,6.8897705
1425335676.905,4.4332275
1425335676.92,1.7746582
1425335676.936,-0.62939453
1425335676.952,-2.5792847
1425335676.967,-4.206238
1425335676.983,-5.7974243
1425335676.998,-7.6903076
1425335677.014,-9.907043
1425335677.03,-12.121521
1425335677.045,-13.652649
1425335677.061,-13.697998
1425335677.077,-11.61731
1425335677.092,-7.249695
1425335677.108,-0.9795532
1425335677.123,6.3687744
1425335677.139,13.740051
1425335677.155,20.224487
1425335677.17,25.24939
1425335677.186,28.640564
1425335677.202,30.489563
1425335677.217,30.865967
1425335677.233,29.756348
1425335677.248,27.080933
1425335677.264,22.957886
1425335677.28,17.825989
1425335677.295,12.415039
1425335677.311,7.5507813
1425335677.327,3.831665
1425335677.342,1.3893433
1425335677.358,-0.013061523
1425335677.373,-0.79870605
1425335677.389,-1.3131714
1425335677.405,-1.75177
1425335677.42,-2.1551514
1425335677.436,-2.5320435
1425335677.452,-2.894165
1425335677.467,-3.350769
1425335677.483,-4.0203247
1425335677.498,-5.047119
1425335677.514,-6.5595703
1425335677.53,-8.706421
1425335677.545,-11.602722
1425335677.561,-15.328308
1425335677.577,-19.864014
1425335677.592,-25.022705
1425335677.608,-30.512695
1425335677.623,-36.013123
1425335677.639,-41.15576
1425335677.655,-45.62848
1425335677.67,-49.097656
1425335677.686,-51.309998
1425335677.702,-52.08362
1425335677.717,-51.38336
1425335677.733,-49.259094
1425335677.748,-45.818054
1425335677.764,-41.20862
1425335677.78,-35.58551
1425335677.795,-29.232605
1425335677.811,-22.545166
1425335677.827,-15.883179
1425335677.842,-9.550293
1425335677.858,-3.632782
1425335677.873,2.0746155
1425335677.889,7.9861145
1425335677.905,14.518188
1425335677.92,21.989594
1425335677.936,30.243774
1425335677.952,38.728607
1425335677.967,46.49771
1425335677.983,52.450592
1425335677.998,55.546234
1425335678.014,55.08606
1425335678.03,50.86847
1425335678.045,43.12909
1425335678.061,32.498596
1425335678.077,19.738739
1425335678.092,5.663849
1425335678.108,-8.859436
1425335678.123,-22.998627
1425335678.139,-35.92685
1425335678.155,-46.99588
1425335678.17,-55.837006
1425335678.186,-62.507904
1425335678.202,-67.28531
1425335678.217,-70.57303
1425335678.233,-72.73721
1425335678.248,-74.04959
1425335678.264,-74.8176
1425335678.28,-75.37729
1425335678.295,-76.08942
1425335678.311,-77.291595
1425335678.327,-79.099335
1425335678.342,-81.34277
1425335678.358,-83.653076
1425335678.373,-85.65558
1425335678.389,-87.10651
1425335678.405,-88.03592
1425335678.42,-88.6532
1425335678.436,-89.251434
1425335678.452,-90.07251
1425335678.467,-91.237946
1425335678.483,-92.62439
1425335678.498,-93.88379
1425335678.514,-94.52838
1425335678.53,-93.949646
1425335678.545,-91.59219
1425335678.561,-87.11136
1425335678.577,-80.43677
1425335678.592,-71.74933
1425335678.608,-61.32077
1425335678.623,-49.327454
1425335678.639,-35.72168
1425335678.655,-20.345581
1425335678.67,-2.9468842
1425335678.686,16.368637
1425335678.702,37.0287
1425335678.717,57.912674
1425335678.733,77.49303
1425335678.748,94.19853
1425335678.764,106.84599
1425335678.78,114.96039
1425335678.795,118.79814
1425335678.811,119.21504
1425335678.827,117.39584
1425335678.842,114.48859
1425335678.858,111.410675
1425335678.873,108.67801
1425335678.889,106.40106
1425335678.905,104.403244
1425335678.92,102.30122
1425335678.936,99.72491
1425335678.952,96.456505
1425335678.967,92.5325
1425335678.983,88.22325
1425335678.998,83.93271
1425335679.014,79.95778
1425335679.03,76.309654
1425335679.045,72.77465
1425335679.061,68.90942
1425335679.077,64.24937
1425335679.092,58.457676
1425335679.108,51.433666
1425335679.123,43.20918
1425335679.139,34.143433
1425335679.155,24.774796
1425335679.17,15.839333
1425335679.186,8.059357
1425335679.202,1.9555645
1425335679.217,-2.4150124
1425335679.233,-5.3851395
1425335679.248,-7.5753365
1425335679.264,-9.604269
1425335679.28,-11.794558
1425335679.295,-14.056645
1425335679.311,-16.050297
1425335679.327,-17.279673
1425335679.342,-17.27498
1425335679.358,-15.646595
1425335679.373,-12.144909
1425335679.389,-6.7104645
1425335679.405,0.38430932
1425335679.42,8.5947485
1425335679.436,17.089756
1425335679.452,24.906914
1425335679.467,31.170263
1425335679.483,35.282898
1425335679.498,37.048176
1425335679.514,36.68896
1425335679.53,34.6784
1425335679.545,31.598373
1425335679.561,27.9982
1425335679.577,24.209583
1425335679.592,20.385565
1425335679.608,16.629284
1425335679.624,12.999619
1425335679.639,9.604493
1425335679.655,6.6150904
1425335679.67,4.1211567
1425335679.686,2.12751
1425335679.702,0.6212797
1425335679.717,-0.3940506
1425335679.733,-0.7958584
1425335679.749,-0.4082775
1425335679.764,0.7943907
1425335679.78,2.5826454
1425335679.795,4.5935564
1425335679.811,6.434019
1425335679.827,8.027575
1425335679.842,9.586292
1425335679.858,11.508402
1425335679.874,14.040634
1425335679.889,17.112125
1425335679.905,20.262932
1425335679.92,22.859875
1425335679.936,24.3894
1425335679.952,24.594057
1425335679.967,23.554169
1425335679.983,21.541811
1425335679.999,18.851688
1425335680.014,15.809103
1425335680.03,12.707242
1425335680.045,9.774172
1425335680.061,7.1683016
1425335680.077,4.9028854
1425335680.092,2.7929296
1425335680.108,0.53287363
1425335680.124,-2.163042
1425335680.139,-5.41934
1425335680.155,-9.074569
1425335680.17,-12.645079
1425335680.186,-15.395413
1425335680.202,-16.474098
1425335680.217,-15.319513
1425335680.233,-11.892311
1425335680.249,-6.828882
1425335680.264,-1.2211597
1425335680.28,3.5910163
1425335680.295,6.6061296
1425335680.311,7.3708687
1425335680.327,6.119972
1425335680.342,3.566956
1425335680.358,0.60448194
1425335680.374,-2.0972056
1425335680.389,-4.2044506
1425335680.405,-5.738399
1425335680.42,-6.9827127
1425335680.436,-8.286253
1425335680.452,-9.926199
1425335680.467,-12.060389
1425335680.483,-14.681932
1425335680.499,-17.761288
1425335680.514,-21.248127
1425335680.53,-25.120325
1425335680.545,-29.32028
1425335680.561,-33.700897
1425335680.577,-38.016468
1425335680.592,-42.02534
1425335680.608,-45.598522
1425335680.624,-48.819553
1425335680.639,-51.87806
1425335680.655,-54.917564
1425335680.67,-57.890797
1425335680.686,-60.552364
1425335680.702,-62.550064
1425335680.717,-63.570442
1425335680.733,-63.55443
1425335680.749,-62.711643
1425335680.764,-61.41986
1425335680.78,-60.065105
1425335680.795,-58.903896
1425335680.811,-58.061295
1425335680.827,-57.53442
1425335680.842,-57.359783
1425335680.858,-57.513718
1425335680.874,-58.07917
1425335680.889,-59.074944
1425335680.905,-60.38248
1425335680.92,-61.65401
1425335680.936,-62.305847
1425335680.952,-61.519287
1425335680.967,-58.408463
1425335680.983,-52.1744
1425335680.999,-42.480232
1425335681.014,-29.58612
1425335681.03,-14.540886
1425335681.045,1.0544891
1425335681.061,15.477074
1425335681.077,27.36824
1425335681.092,36.089745
1425335681.108,41.874878
1425335681.124,45.59794
1425335681.139,48.24539
1425335681.155,50.608566
1425335681.17,53.03763
1425335681.186,55.568146
1425335681.202,58.091537
1425335681.217,60.635696
1425335681.233,63.30429
1425335681.249,66.16821
1425335681.264,69.18683
1425335681.28,72.175446
1425335681.295,75.00758
1425335681.311,77.59714
1425335681.327,79.93741
1425335681.342,81.92581
1425335681.358,83.32585
1425335681.374,83.65196
1425335681.389,82.39995
1425335681.405,79.20758
1425335681.42,74.053986
1425335681.436,67.230255
1425335681.452,59.207916
1425335681.467,50.444916
1425335681.483,41.41754
1425335681.499,32.474472
1425335681.514,24.004318
1425335681.53,16.385147
1425335681.545,9.884964
1425335681.561,4.701477
1425335681.577,0.79086304
1425335681.592,-2.031601
1425335681.608,-4.028366
1425335681.624,-5.396179
1425335681.639,-6.2167206
1425335681.655,-6.458786
1425335681.67,-5.976242
1425335681.686,-4.732849
1425335681.702,-2.7930756
1425335681.717,-0.47105408
1425335681.733,1.9118195
1425335681.749,4.125061
1425335681.764,6.143402
1425335681.78,8.113876
1425335681.795,10.243805
1425335681.811,12.59166
1425335681.827,14.838669
1425335681.842,16.390015
1425335681.858,16.580368
1425335681.874,14.987793
1425335681.889,11.687546
1425335681.905,7.1728516
1425335681.92,2.2302399
1425335681.936,-2.4485474
1425335681.952,-6.4260254
1425335681.967,-9.662231
1425335681.983,-12.316544
1425335681.999,-14.647919
1425335682.014,-16.81424
1425335682.03,-18.816864
1425335682.045,-20.662628
1425335682.061,-22.299438
1425335682.077,-23.729538
1425335682.092,-24.998215
1425335682.108,-26.067535
1425335682.124,-26.839386
1425335682.139,-27.154846
1425335682.155,-26.855408
1425335682.17,-25.819168
1425335682.186,-24.138107
1425335682.202,-21.948364
1425335682.217,-19.513702
1425335682.233,-17.101639
1425335682.249,-14.881866
1425335682.264,-12.825485
1425335682.28,-10.830093
1425335682.296,-8.734467
1425335682.311,-6.4844513
1425335682.327,-4.2216797
1425335682.342,-2.2009888
1425335682.358,-0.6190338
1425335682.374,0.41793823
1425335682.389,1.0621033
1425335682.405,1.6251678
1425335682.421,2.4474487
1425335682.436,3.7318726
1425335682.452,5.4848633
1425335682.467,7.4981537
1425335682.483,9.560089
1425335682.499,11.557556
1425335682.514,13.458588
1425335682.53,15.375793
1425335682.546,17.427277
1425335682.561,19.692062
1425335682.577,22.297043
1425335682.592,25.358276
1425335682.608,28.989517
1425335682.624,33.19586
1425335682.639,37.726837
1425335682.655,41.968796
1425335682.671,45.143753
1425335682.686,46.44072
1425335682.702,45.386276
1425335682.717,41.98674
1425335682.733,36.78557
1425335682.749,30.60904
1425335682.764,24.363327
1425335682.78,18.765732
1425335682.796,14.250275
1425335682.811,11.017044
1425335682.827,9.065674
1425335682.842,8.105759
1425335682.858,7.7870636
1425335682.874,7.5986633
1425335682.889,7.048279
1425335682.905,5.735214
1425335682.921,3.536728
1425335682.936,0.58354187
1425335682.952,-2.6095428
1425335682.967,-5.3936157
1425335682.983,-7.23555
1425335682.999,-7.9343567
1425335683.014,-7.8027954
1425335683.03,-7.599243
1425335683.046,-8.088898
1425335683.061,-9.847244
1425335683.077,-12.852676
1425335683.092,-16.596497
1425335683.108,-20.218277
1425335683.124,-22.857147
1425335683.139,-23.836853
1425335683.155,-22.830185
1425335683.171,-19.806183
1425335683.186,-14.983719
1425335683.202,-8.912369
1425335683.217,-2.455902
1425335683.233,3.2036285
1425335683.249,6.914627
1425335683.264,7.853775
1425335683.28,5.995819
1425335683.296,2.1678772
1425335683.311,-2.147583
1425335683.327,-5.2582397
1425335683.342,-5.9350433
1425335683.358,-3.7943878
1425335683.374,0.5020294
1425335683.389,5.5358887
1425335683.405,9.51413
1425335683.421,11.016205
1425335683.436,9.289032
1425335683.452,4.5631866
1425335683.467,-2.04422
1425335683.483,-9.050095
1425335683.499,-15.054977
1425335683.514,-19.230927
1425335683.53,-21.569351
1425335683.546,-22.513016
1425335683.561,-22.634476
1425335683.577,-22.21672
1425335683.592,-21.193558
1425335683.608,-19.270676
1425335683.624,-16.262955
1425335683.639,-12.230255
1425335683.655,-7.5173035
1425335683.671,-2.5491028
1425335683.686,2.344513
1425335683.702,6.940155
1425335683.717,11.186569
1425335683.733,14.95462
1425335683.749,18.101456
1425335683.764,20.51213
1425335683.78,22.166367
1425335683.796,23.182266
1425335683.811,23.786636
1425335683.827,24.09288
1425335683.842,24.16626
1425335683.858,24.130249
1425335683.874,24.159134
1425335683.889,24.574066
1425335683.905,25.67868
1425335683.921,27.657211
1425335683.936,30.4319
1425335683.952,33.745987
1425335683.967,37.235123
1425335683.983,40.6801
1425335683.999,44.11628
1425335684.014,47.803207
1425335684.03,52.12394
1425335684.046,57.228256
1425335684.061,62.84758
1425335684.077,68.26841
1425335684.092,72.621956
1425335684.108,75.27576
1425335684.124,76.11627
1425335684.139,75.53146
1425335684.155,74.04111
1425335684.171,71.87048
1425335684.186,68.76549
1425335684.202,64.18165
1425335684.217,57.79271
1425335684.233,49.777115
1425335684.249,40.78428
1425335684.264,31.54113
1425335684.28,22.241726
1425335684.296,12.458553
1425335684.311,1.5815315
1425335684.327,-10.619673
1425335684.342,-23.507828
1425335684.358,-35.608177
1425335684.374,-45.21885
1425335684.389,-51.03683
1425335684.405,-52.732258
1425335684.421,-50.931694
1425335684.436,-47.018143
1425335684.452,-42.578423
1425335684.467,-39.056557
1425335684.483,-37.33957
1425335684.499,-37.617035
1425335684.514,-39.488735
1425335684.53,-42.02327
1425335684.546,-44.396145
1425335684.561,-46.24161
1425335684.577,-48.101498
1425335684.592,-51.4287
1425335684.608,-58.22509
1425335684.624,-70.30446
1425335684.639,-88.39842
1425335684.655,-111.545555
1425335684.671,-136.85132
1425335684.686,-160.28745
1425335684.702,-177.60013
1425335684.717,-185.55624
1425335684.733,-182.86443
1425335684.749,-170.35318
1425335684.764,-150.46326
1425335684.78,-126.450005
1425335684.796,-101.47664
1425335684.811,-77.92117
1425335684.827,-57.301888
1425335684.842,-40.175217
1425335684.858,-26.511665
1425335684.874,-15.945694
1425335684.889,-7.926758
1425335684.905,-2.0007935
1425335684.921,2.2246628
1425335684.936,4.9991646
1425335684.952,6.6526833
1425335684.968,7.4265327
1425335684.983,7.7112503
1425335684.999,7.9259377
1425335685.014,8.441975
1425335685.03,9.676304
1425335685.046,11.990879
1425335685.061,15.610252
1425335685.077,20.48283
1425335685.092,26.294334
1425335685.108,32.385788
1425335685.124,37.9254
1425335685.139,42.122402
1425335685.155,44.488274
1425335685.171,45.062416
1425335685.186,44.246193
1425335685.202,42.65587
1425335685.218,40.781322
1425335685.233,38.844887
1425335685.249,36.682655
1425335685.264,33.936543
1425335685.28,30.269249
1425335685.296,25.541367
1425335685.311,20.011137
1425335685.327,14.2823305
1425335685.343,9.245485
1425335685.358,5.7091045
1425335685.374,4.232338
1425335685.389,4.8497353
1425335685.405,7.153414
1425335685.421,10.400196
1425335685.436,13.72098
1425335685.452,16.458122
1425335685.468,18.155457
1425335685.483,18.607082
1425335685.499,17.638828
1425335685.514,15.141354
1425335685.53,11.028465
1425335685.546,5.370468
1425335685.561,-1.534832
1425335685.577,-9.282017
1425335685.593,-17.46373
1425335685.608,-25.724308
1425335685.624,-33.828743
1425335685.639,-41.649246
1425335685.655,-49.049553
1425335685.671,-55.968544
1425335685.686,-62.37143
1425335685.702,-68.19825
1425335685.718,-73.43974
1425335685.733,-78.03911
1425335685.749,-81.98245
1425335685.764,-85.29294
1425335685.78,-88.150154
1425335685.796,-90.781944
1425335685.811,-93.58643
1425335685.827,-96.86834
1425335685.843,-100.65355
1425335685.858,-104.60399
1425335685.874,-107.98619
1425335685.889,-109.888214
1425335685.905,-109.32724
1425335685.921,-105.6537
1425335685.936,-98.63968
1425335685.952,-88.67769
1425335685.968,-76.62465
1425335685.983,-63.560745
1425335685.999,-50.51718
1425335686.014,-38.087845
1425335686.03,-26.423218
1425335686.046,-15.223846
1425335686.061,-4.205139
1425335686.077,6.792694
1425335686.093,17.519318
1425335686.108,27.476868
1425335686.124,36.072968
1425335686.139,42.849335
1425335686.155,47.82663
1425335686.171,51.369873
1425335686.186,54.141815
1425335686.202,56.757324
1425335686.218,59.632965
1425335686.233,62.840546
1425335686.249,66.158936
1425335686.264,69.2059
1425335686.28,71.57333
1425335686.296,73.0907
1425335686.311,73.747345
1425335686.327,73.75723
1425335686.343,73.29947
1425335686.358,72.60272
1425335686.374,71.758575
1425335686.389,70.75433
1425335686.405,69.52634
1425335686.421,68.014435
1425335686.436,66.20358
1425335686.452,64.08331
1425335686.468,61.717224
1425335686.483,59.23224
1425335686.499,56.80078
1425335686.514,54.599915
1425335686.53,52.672394
1425335686.546,51.006134
1425335686.561,49.46704
1425335686.577,47.940857
1425335686.593,46.286163
1425335686.608,44.469788
1425335686.624,42.478302
1425335686.639,40.280914
1425335686.655,37.86252
1425335686.671,35.177734
1425335686.686,32.305237
1425335686.702,29.351929
1425335686.718,26.585144
1425335686.733,24.25769
1425335686.749,22.549652
1425335686.764,21.537292
1425335686.78,21.118408
1425335686.796,21.15149
1425335686.811,21.438477
1425335686.827,21.903625
1425335686.843,22.4198
1425335686.858,22.944885
1425335686.874,23.411072
1425335686.889,23.7854
1425335686.905,24.043274
1425335686.921,24.221008
1425335686.936,24.482117
1425335686.952,25.099548
1425335686.968,26.388245
1425335686.983,28.577942
1425335686.999,31.651123
1425335687.014,35.32666
1425335687.03,38.97412
1425335687.046,41.78253
1425335687.061,42.93512
1425335687.077,41.97357
1425335687.093,38.85211
1425335687.108,34.01056
1425335687.124,28.154846
1425335687.139,21.98285
1425335687.155,15.9747925
1425335687.171,10.328918
1425335687.186,5.103882
1425335687.202,0.27056885
1425335687.218,-4.081665
1425335687.233,-7.862732
1425335687.249,-11.047974
1425335687.264,-13.726807
1425335687.28,-16.089264
1425335687.296,-18.236633
1425335687.311,-20.158905
1425335687.327,-21.536652
1425335687.343,-22.114777
1425335687.358,-21.757874
1425335687.374,-20.679993
1425335687.389,-19.32605
1425335687.405,-18.1557
1425335687.421,-17.400787
1425335687.436,-17.065216
1425335687.452,-16.904938
1425335687.468,-16.67987
1425335687.483,-16.240814
1425335687.499,-15.627075
1425335687.514,-14.901642
1425335687.53,-14.142212
1425335687.546,-13.295319
1425335687.561,-12.291443
1425335687.577,-11.087341
1425335687.593,-9.716095
1425335687.608,-8.277557
1425335687.624,-6.9014587
1425335687.639,-5.585205
1425335687.655,-4.19516
1425335687.671,-2.4249268
1425335687.686,0.11444092
1425335687.702,3.661255
1425335687.718,8.121521
1425335687.733,13.048492
1425335687.749,17.691406
1425335687.764,21.391846
1425335687.78,23.901398
1425335687.796,25.520264
1425335687.811,26.88852
1425335687.827,28.704071
1425335687.843,31.34311
1425335687.858,34.699158
1425335687.874,38.231842
1425335687.89,41.28302
1425335687.905,43.19702
1425335687.921,43.570526
1425335687.936,42.18274
1425335687.952,39.078156
1425335687.968,34.504272
1425335687.983,28.91446
1425335687.999,22.854797
1425335688.015,16.836761
1425335688.03,11.232788
1425335688.046,6.1913147
1425335688.061,1.731842
1425335688.077,-2.2697144
1425335688.093,-5.976074
1425335688.108,-9.524658
1425335688.124,-13.064667
1425335688.14,-16.579895
1425335688.155,-19.90155
1425335688.171,-22.684204
1425335688.186,-24.66275
1425335688.202,-25.678925
1425335688.218,-25.954712
1425335688.233,-25.917511
1425335688.249,-26.011597
1425335688.265,-26.485687
1425335688.28,-27.26889
1425335688.296,-28.025665
1425335688.311,-28.405365
1425335688.327,-28.285034
1425335688.343,-27.72345
1425335688.358,-26.940582
1425335688.374,-26.178894
1425335688.39,-25.526703
1425335688.405,-24.931427
1425335688.421,-24.317352
1425335688.436,-23.652863
1425335688.452,-22.963776
1425335688.468,-22.298248
1425335688.483,-21.56607
1425335688.499,-20.53476
1425335688.515,-18.938416
1425335688.53,-16.568604
1425335688.546,-13.394012
1425335688.561,-9.575958
1425335688.577,-5.4278564
1425335688.593,-1.302185
1425335688.608,2.4786072
1425335688.624,5.7518616
1425335688.64,8.47644
1425335688.655,10.707764
1425335688.671,12.653992
1425335688.686,14.575409
1425335688.702,16.822845
1425335688.718,19.70105
1425335688.733,23.34842
1425335688.749,27.526764
1425335688.765,31.610657
1425335688.78,34.65735
1425335688.796,35.73114
1425335688.811,34.27362
1425335688.827,30.33313
1425335688.843,24.641571
1425335688.858,18.312103
1425335688.874,12.39035
1425335688.89,7.5152893
1425335688.905,3.8113403
1425335688.921,1.0402527
1425335688.936,-1.1089172
1425335688.952,-2.825348
1425335688.968,-4.1378174
1425335688.983,-5.0188904
1425335688.999,-5.5469055
1425335689.015,-5.962036
1425335689.03,-6.5581665
1425335689.046,-7.515167
1425335689.061,-8.779938
1425335689.077,-10.119843
1425335689.093,-11.268677
1425335689.108,-12.084015
1425335689.124,-12.632477
1425335689.14,-13.078278
1425335689.155,-13.577606
1425335689.171,-14.138641
1425335689.186,-14.570587
1425335689.202,-14.609222
1425335689.218,-14.092346
1425335689.233,-13.062134
1425335689.249,-11.7100525
1425335689.265,-10.257507
1425335689.28,-8.797424
1425335689.296,-7.215851
1425335689.311,-5.304077
1425335689.327,-2.8892517
1425335689.343,-0.0071105957
1425335689.358,3.0966492
1425335689.374,6.044098
1425335689.39,8.584625
1425335689.405,10.618713
1425335689.421,12.267975
1425335689.436,13.747986
1425335689.452,15.28363
1425335689.468,17.014832
1425335689.483,19.091675
1425335689.499,21.681183
1425335689.515,24.885712
1425335689.53,28.656006
1425335689.546,32.614716
1425335689.561,36.047394
1425335689.577,38.106934
1425335689.593,38.037567
1425335689.608,35.47223
1425335689.624,30.592072
1425335689.64,24.104431
1425335689.655,16.970367
1425335689.671,10.175537
1425335689.686,4.3499146
1425335689.702,-0.2906494
1425335689.718,-3.8939514
1425335689.733,-6.8807983
1425335689.749,-9.672699
1425335689.765,-12.485474
1425335689.78,-15.312256
1425335689.796,-17.898712
1425335689.811,-19.97116
1425335689.827,-21.307892
1425335689.843,-21.921158
1425335689.858,-21.975525
1425335689.874,-21.745193
1425335689.89,-21.472183
1425335689.905,-21.271439
1425335689.921,-21.120895
1425335689.936,-20.926178
1425335689.952,-20.648209
1425335689.968,-20.33139
1425335689.983,-20.070862
1425335689.999,-19.975815
1425335690.015,-20.030563
1425335690.03,-20.056396
1425335690.046,-19.766403
1425335690.061,-18.947174
1425335690.077,-17.53244
1425335690.093,-15.638229
1425335690.108,-13.454437
1425335690.124,-11.150116
1425335690.14,-8.691299
1425335690.155,-6.012558
1425335690.171,-2.9649353
1425335690.186,0.47076416
1425335690.202,4.159546
1425335690.218,7.9204407
1425335690.233,11.62117
1425335690.249,15.232544
1425335690.265,18.789368
1425335690.28,22.278244
1425335690.296,25.562592
1425335690.311,28.32167
1425335690.327,30.169418
1425335690.343,30.677658
1425335690.358,29.59253
1425335690.374,26.85904
1425335690.39,22.712982
1425335690.405,17.687912
1425335690.421,12.493805
1425335690.436,7.76857
1425335690.452,3.8953094
1425335690.468,0.85417175
1425335690.483,-1.6830902
1425335690.499,-4.187546
1425335690.515,-6.9888916
1425335690.53,-10.132278
1425335690.546,-13.318344
1425335690.562,-16.18901
1425335690.577,-18.455551
1425335690.593,-20.042206
1425335690.608,-21.080185
1425335690.624,-21.729614
1425335690.64,-22.094406
1425335690.655,-22.15419
1425335690.671,-21.83139
1425335690.687,-21.090744
1425335690.702,-20.014862
1425335690.718,-18.788528
1425335690.733,-17.570328
1425335690.749,-16.473404
1425335690.765,-15.486267
1425335690.78,-14.55806
1425335690.796,-13.638214
1425335690.812,-12.684799
1425335690.827,-11.570023
1425335690.843,-10.207153
1425335690.858,-8.519012
1425335690.874,-6.521393
1425335690.89,-4.4095154
1425335690.905,-2.4878082
1425335690.921,-0.9540863
1425335690.937,0.22343445
1425335690.952,1.284668
1425335690.968,2.6227875
1425335690.983,4.536804
1425335690.999,7.112259
1425335691.015,10.283936
1425335691.03,13.784637
1425335691.046,17.410355
1425335691.062,20.881706
1425335691.077,23.835785
1425335691.093,25.743073
1425335691.108,26.005852
1425335691.124,24.218758
1425335691.14,20.36232
1425335691.155,14.998123
1425335691.171,9.014214
1425335691.187,3.4129868
1425335691.202,-1.1421051
1425335691.218,-4.520836
1425335691.233,-7.026657
1425335691.249,-9.185379
1425335691.265,-11.441666
1425335691.28,-13.984352
1425335691.296,-16.66085
1425335691.312,-19.166649
1425335691.327,-21.056213
1425335691.343,-22.049637
1425335691.358,-22.09835
1425335691.374,-21.405334
1425335691.39,-20.300293
1425335691.405,-19.13147
1425335691.421,-18.110962
1425335691.437,-17.238815
1425335691.452,-16.383995
1425335691.468,-15.3903885
1425335691.483,-14.228737
1425335691.499,-13.09819
1425335691.515,-12.227104
1425335691.53,-11.768707
1425335691.546,-11.650597
1425335691.562,-11.607887
1425335691.577,-11.297066
1425335691.593,-10.551575
1425335691.608,-9.396095
1425335691.624,-8.066307
1425335691.64,-6.781288
1425335691.655,-5.7034225
1425335691.671,-4.8002777
1425335691.687,-3.9873428
1425335691.702,-3.1543655
1425335691.718,-2.2914429
1425335691.733,-1.4503098
1425335691.749,-0.6842041
1425335691.765,0.063949585
1425335691.78,1.0232544
1425335691.796,2.5354004
1425335691.812,4.809059
1425335691.827,7.8162537
1425335691.843,11.213181
1425335691.858,14.368927
1425335691.874,16.571121
1425335691.89,17.250404
1425335691.905,16.145645
1425335691.921,13.458839
1425335691.937,9.632156
1425335691.952,5.222481
1425335691.968,0.7071686
1425335691.983,-3.576973
1425335691.999,-7.5028915
1425335692.015,-11.130318
1425335692.03,-14.596909
1425335692.046,-18.067276
1425335692.062,-21.6894
1425335692.077,-25.400436
1425335692.093,-28.940788
1425335692.108,-31.955086
1425335692.124,-34.15663
1425335692.14,-35.53544
1425335692.155,-36.449448
1425335692.171,-37.41298
1425335692.187,-38.872124
1425335692.202,-40.96199
1425335692.218,-43.468002
1425335692.233,-45.891693
1425335692.249,-47.812943
1425335692.265,-48.974808
1425335692.28,-49.480476
1425335692.296,-49.61241
1425335692.312,-49.678772
1425335692.327,-49.808395
1425335692.343,-49.905197
1425335692.358,-49.67473
1425335692.374,-48.777863
1425335692.39,-46.942017
1425335692.405,-44.10736
1425335692.421,-40.302094
1425335692.437,-35.661346
1425335692.452,-30.280243
1425335692.468,-24.159134
1425335692.483,-17.25409
1425335692.499,-9.567062
1425335692.515,-1.3023071
1425335692.53,7.1892395
1425335692.546,15.509964
1425335692.562,23.434464
1425335692.577,31.026398
1425335692.593,38.512863
1425335692.608,46.043427
1425335692.624,53.41887
1425335692.64,60.050476
1425335692.655,65.00375
1425335692.671,67.49585
1425335692.687,67.12286
1425335692.702,64.074646
1425335692.718,58.996094
1425335692.733,52.761856
1425335692.749,46.16034
1425335692.765,39.714645
1425335692.78,33.70514
1425335692.796,28.209717
1425335692.812,23.235138
1425335692.827,18.880661
1425335692.843,15.210571
1425335692.858,12.300262
1425335692.874,10.160828
1425335692.89,8.760773
1425335692.905,7.983032
1425335692.921,7.687088
1425335692.937,7.7539063
1425335692.952,8.039383
1425335692.968,8.392731
1425335692.983,8.650757
1425335692.999,8.7453
1425335693.015,8.629547
1425335693.03,8.298431
1425335693.046,7.801819
1425335693.062,7.212982
1425335693.077,6.6197205
1425335693.093,6.104004
1425335693.108,5.739807
1425335693.124,5.5567017
1425335693.14,5.6438904
1425335693.155,6.0346375
1425335693.171,6.718048
1425335693.187,7.5987244
1425335693.202,8.613892
1425335693.218,9.6493225
1425335693.234,10.647766
1425335693.249,11.572479
1425335693.265,12.39563
1425335693.28,13.206177
1425335693.296,14.126923
1425335693.312,15.291443
1425335693.327,16.898438
1425335693.343,19.087341
1425335693.359,21.79895
1425335693.374,24.80188
1425335693.39,27.592133
1425335693.405,29.554932
1425335693.421,30.125397
1425335693.437,29.001984
1425335693.452,26.267883
1425335693.468,22.407776
1425335693.484,18.093658
1425335693.499,13.8862915
1425335693.515,10.221466
1425335693.53,7.171875
1425335693.546,4.604187
1425335693.562,2.3292542
1425335693.577,0.23208618
1425335693.593,-1.7192078
1425335693.609,-3.4564514
1425335693.624,-4.9525757
1425335693.64,-6.264984
1425335693.655,-7.4608154
1425335693.671,-8.555817
1425335693.687,-9.564117
1425335693.702,-10.312897
1425335693.718,-10.656647
1425335693.734,-10.373688
1425335693.749,-9.384186
1425335693.765,-7.7121277
1425335693.78,-5.5493164
1425335693.796,-3.0752258
1425335693.812,-0.5455017
1425335693.827,1.8604126
1425335693.843,4.0775604
1425335693.859,6.092697
1425335693.874,7.97464
1425335693.89,9.880127
1425335693.905,11.976746
1425335693.921,14.384293
1425335693.937,17.157532
1425335693.952,20.194946
1425335693.968,23.30191
1425335693.984,26.346878
1425335693.999,29.19844
1425335694.015,31.907974
1425335694.03,34.63379
1425335694.046,37.57225
1425335694.062,40.759552
1425335694.077,44.137085
1425335694.093,47.363525
1425335694.109,49.9151
1425335694.124,51.0838
1425335694.14,50.144028
1425335694.155,46.52452
1425335694.171,40.125763
1425335694.187,31.281479
1425335694.202,20.781677
1425335694.218,9.668091
1425335694.234,-1.0450897
1425335694.249,-10.563004
1425335694.265,-18.397552
1425335694.28,-24.498657
1425335694.296,-29.089554
1425335694.312,-32.472916
1425335694.327,-35.00511
1425335694.343,-36.83168
1425335694.359,-37.912796
1425335694.374,-38.114716
1425335694.39,-37.38257
1425335694.405,-35.889404
1425335694.421,-34.132996
1425335694.437,-32.877686
1425335694.452,-32.905212
1425335694.468,-34.972855
1425335694.484,-39.526276
1425335694.499,-46.719345
1425335694.515,-56.375565
1425335694.53,-67.93654
1425335694.546,-80.393875
1425335694.562,-92.50746
1425335694.577,-103.000885
1425335694.593,-110.8656
1425335694.609,-115.567245
1425335694.624,-117.08469
1425335694.64,-115.65646
1425335694.655,-111.66342
1425335694.671,-105.39317
1425335694.687,-97.0549
1425335694.702,-86.89958
1425335694.718,-75.31888
1425335694.734,-62.774734
1425335694.749,-49.785217
1425335694.765,-36.723465
1425335694.78,-23.794815
1425335694.796,-11.186081
1425335694.812,0.9836273
1425335694.827,12.49353
1425335694.843,23.046799
1425335694.859,32.28891
1425335694.874,39.974503
1425335694.89,45.960648
1425335694.905,50.35138
1425335694.921,53.39328
1425335694.937,55.491196
1425335694.952,57.116104
1425335694.968,58.680023
1425335694.984,60.45282
1425335694.999,62.338684
1425335695.015,63.985886
1425335695.03,64.71289
1425335695.046,63.852554
1425335695.062,61.0688
1425335695.077,56.466812
1425335695.093,50.651093
1425335695.109,44.50276
1425335695.124,38.849213
1425335695.14,34.105286
1425335695.155,30.29573
1425335695.171,27.052032
1425335695.187,23.889465
1425335695.202,20.525742
1425335695.218,16.86914
1425335695.234,13.053772
1425335695.249,9.320862
1425335695.265,5.8956604
1425335695.28,2.9188843
1425335695.296,0.42990112
1425335695.312,-1.5875549
1425335695.327,-3.1641846
1425335695.343,-4.2539673
1425335695.359,-4.905487
1425335695.374,-5.205261
1425335695.39,-5.3112793
1425335695.405,-5.3738403
1425335695.421,-5.537506
1425335695.437,-5.865143
1425335695.452,-6.3180847
1425335695.468,-6.7870483
1425335695.484,-7.0479126
1425335695.499,-6.964081
1425335695.515,-6.486664
1425335695.53,-5.6427
1425335695.546,-4.543976
1425335695.562,-3.2688904
1425335695.577,-1.8939209
1425335695.593,-0.45584106
1425335695.609,0.9745178
1425335695.624,2.4285889
1425335695.64,3.8747864
1425335695.655,5.3773193
1425335695.671,7.055359
1425335695.687,9.011383
1425335695.702,11.303925
1425335695.718,13.879822
1425335695.734,16.57016
1425335695.749,19.197205
1425335695.765,21.648438
1425335695.78,23.882538
1425335695.796,25.795746
1425335695.812,27.196747
1425335695.827,27.72702
1425335695.843,27.17566
1425335695.859,25.444916
1425335695.874,22.684631
1425335695.89,19.202332
1425335695.906,15.269348
1425335695.921,11.111328
1425335695.937,6.8417053
1425335695.952,2.5737
1425335695.968,-1.5418701
1425335695.984,-5.217224
1425335695.999,-8.183838
1425335696.015,-10.343445
1425335696.03,-11.748047
1425335696.046,-12.61087
1425335696.062,-13.165314
1425335696.077,-13.572052
1425335696.093,-13.870605
1425335696.109,-14.084473
1425335696.124,-14.14798
1425335696.14,-14.025757
1425335696.156,-13.752777
1425335696.171,-13.404327
1425335696.187,-13.09198
1425335696.202,-12.904694
1425335696.218,-12.804871
1425335696.234,-12.602722
1425335696.249,-12.120453
1425335696.265,-11.218475
1425335696.281,-9.896088
1425335696.296,-8.375488
1425335696.312,-6.926239
1425335696.327,-5.794281
1425335696.343,-5.0427856
1425335696.359,-4.537445
1425335696.374,-4.0457764
1425335696.39,-3.3441772
1425335696.406,-2.2547607
1425335696.421,-0.7616272
1425335696.437,1.0740051
1425335696.452,3.0244446
1425335696.468,4.87735
1425335696.484,6.35968
1425335696.499,7.4093018
1425335696.515,8.082489
1425335696.531,8.595123
1425335696.546,9.356567
1425335696.562,10.741669
1425335696.577,13.02356
1425335696.593,16.304047
1425335696.609,20.344666
1425335696.624,24.52478
1425335696.64,28.042297
1425335696.656,29.98288
1425335696.671,29.65689
1425335696.687,26.999939
1425335696.702,22.552185
1425335696.718,17.3237
1425335696.734,12.430267
1425335696.749,8.581024
1425335696.765,5.8407135
1425335696.781,3.822464
1425335696.796,1.990448
1425335696.812,-0.06956482
1425335696.827,-2.355011
1425335696.843,-4.6604004
1425335696.859,-6.733536
1425335696.874,-8.482773
1425335696.89,-10.006561
1425335696.906,-11.501678
1425335696.921,-13.06131
1425335696.937,-14.586258
1425335696.952,-15.953384
1425335696.968,-16.968994
1425335696.984,-17.584076
1425335696.999,-17.87352
1425335697.015,-17.975388
1425335697.031,-18.028763
1425335697.046,-18.136658
1425335697.062,-18.186203
1425335697.077,-18.01767
1425335697.093,-17.426147
1425335697.109,-16.198257
1425335697.124,-14.282059
1425335697.14,-11.77002
1425335697.156,-8.943634
1425335697.171,-6.198532
1425335697.187,-3.9443512
1425335697.202,-2.426361
1425335697.218,-1.5961456
1425335697.234,-1.1990967
1425335697.249,-0.8233795
1425335697.265,-0.08955383
1425335697.281,1.1859283
1425335697.296,3.0074005
1425335697.312,5.1389923
1425335697.327,7.264557
1425335697.343,9.033798
1425335697.359,10.262604
1425335697.374,10.967621
1425335697.39,11.416672
1425335697.406,12.030716
1425335697.421,13.292099
1425335697.437,15.525681
1425335697.452,18.659576
1425335697.468,22.181519
1425335697.484,25.2928
1425335697.499,27.146484
1425335697.515,27.083405
1425335697.531,24.974777
1425335697.546,21.165741
1425335697.562,16.348587
1425335697.577,11.3524475
1425335697.593,6.7994385
1425335697.609,3.0737305
1425335697.624,0.22901917
1425335697.64,-1.9359589
1425335697.656,-3.7281342
1425335697.671,-5.397003
1425335697.687,-7.0906982
1425335697.702,-8.842819
1425335697.718,-10.515839
1425335697.734,-11.978516
1425335697.749,-13.12233
1425335697.765,-13.954605
1425335697.781,-14.531296
1425335697.796,-14.960999
1425335697.812,-15.276169
1425335697.827,-15.405991
1425335697.843,-15.2872925
1425335697.859,-14.88736
1425335697.874,-14.267441
1425335697.89,-13.523651
1425335697.906,-12.744659
1425335697.921,-11.942017
1425335697.937,-11.084076
1425335697.952,-9.992142
1425335697.968,-8.62439
1425335697.984,-7.0169525
1425335697.999,-5.3277435
1425335698.015,-3.755066
1425335698.031,-2.384842
1425335698.046,-1.1998291
1425335698.062,-0.11618042
1425335698.077,0.90893555
1425335698.093,1.9302521
1425335698.109,2.9190521
1425335698.124,3.8217926
1425335698.14,4.6647797
1425335698.156,5.4994965
1425335698.171,6.350342
1425335698.187,7.211197
1425335698.202,7.954132
1425335698.218,8.516647
1425335698.234,8.969559
1425335698.249,9.57663
1425335698.265,10.672012
1425335698.281,12.615555
1425335698.296,15.5490265
1425335698.312,19.233688
1425335698.327,23.03186
1425335698.343,26.060196
1425335698.359,27.548584
1425335698.374,27.06137
1425335698.39,24.697449
1425335698.406,20.94931
1425335698.421,16.519379
1425335698.437,11.997421
1425335698.452,7.69368
1425335698.468,3.7062073
1425335698.484,-0.078048706
1425335698.499,-3.711258
1425335698.515,-7.229477
1425335698.531,-10.525467
1425335698.546,-13.481567
1425335698.562,-15.974838
1425335698.578,-17.992432
1425335698.593,-19.499405
1425335698.609,-20.459915
1425335698.624,-20.908218
1425335698.64,-20.924667
1425335698.656,-20.593307
1425335698.671,-20.009277
1425335698.687,-19.212402
1425335698.702,-18.28598
1425335698.718,-17.403305
1425335698.734,-16.79538
1425335698.749,-16.552353
1425335698.765,-16.658157
1425335698.781,-16.861633
1425335698.796,-16.838028
1425335698.812,-16.297058
1425335698.828,-15.193253
1425335698.843,-13.761017
1425335698.859,-12.362274
1425335698.874,-11.350128
1425335698.89,-10.760529
1425335698.906,-10.378281
1425335698.921,-9.822479
1425335698.937,-8.784714
1425335698.953,-7.2297974
1425335698.968,-5.2892303
1425335698.984,-3.2602997
1425335698.999,-1.3797455
1425335699.015,0.22079468
1425335699.031,1.5951233
1425335699.046,2.8938751
1425335699.062,4.384323
1425335699.078,6.2847595
1425335699.093,8.858505
1425335699.109,12.294907
1425335699.124,16.66748
1425335699.14,21.769348
1425335699.156,27.066757
1425335699.171,31.705185
1425335699.187,34.809998
1425335699.203,35.78444
1425335699.218,34.560623
1425335699.234,31.574097
1425335699.249,27.618484
1425335699.265,23.432953
1425335699.281,19.502808
1425335699.296,15.958771
1425335699.312,12.7682495
1425335699.328,9.889069
1425335699.343,7.334732
1425335699.359,5.1549377
1425335699.374,3.266693
1425335699.39,1.4365387
1425335699.406,-0.59072876
1425335699.421,-2.975525
1425335699.437,-5.5097046
1425335699.453,-7.8189697
1425335699.468,-9.497925
1425335699.484,-10.358643
1425335699.499,-10.519028
1425335699.515,-10.4127655
1425335699.531,-10.495377
1425335699.546,-11.033493
1425335699.562,-12.006073
1425335699.578,-13.16243
1425335699.593,-14.192688
1425335699.609,-14.8450775
1425335699.624,-15.004318
1425335699.64,-14.598541
1425335699.656,-13.616898
1425335699.671,-12.069565
1425335699.687,-10.061218
1425335699.703,-7.8223267
1425335699.718,-5.6769257
1425335699.734,-3.960205
1425335699.749,-2.8450317
1425335699.765,-2.2744446
1425335699.781,-1.9111023
1425335699.796,-1.3317719
1425335699.812,-0.21028137
1425335699.828,1.5343475
1425335699.843,3.705658
1425335699.859,6.006546
1425335699.874,8.237991
1425335699.89,10.388153
1425335699.906,12.694244
1425335699.921,15.337769
1425335699.937,18.35991
1425335699.953,21.600815
1425335699.968,24.711884
1425335699.984,27.191925
1425335699.999,28.599564
1425335700.015,28.602585
1425335700.031,27.047653
1425335700.046,24.04448
1425335700.062,19.906937
1425335700.078,15.163208
1425335700.093,10.405487
1425335700.109,6.146057
1425335700.124,2.5791016
1425335700.14,-0.3263092
1425335700.156,-2.7641907
1425335700.171,-4.95961
1425335700.187,-7.0193024
1425335700.203,-8.971405
1425335700.218,-10.747147
1425335700.234,-12.275002
1425335700.249,-13.50309
1425335700.265,-14.449974
1425335700.281,-15.134895
1425335700.296,-15.609039
1425335700.312,-15.952354
1425335700.328,-16.180115
1425335700.343,-16.251297
1425335700.359,-16.0867
1425335700.374,-15.530418
1425335700.39,-14.513069
1425335700.406,-13.068741
1425335700.421,-11.295906
1425335700.437,-9.413696
1425335700.453,-7.609993
1425335700.468,-6.0148163
1425335700.484,-4.617523
1425335700.499,-3.3181915
1425335700.515,-1.9819489
1425335700.531,-0.4454651
1425335700.546,1.390274
1425335700.562,3.4806976
1425335700.578,5.646614
1425335700.593,7.6993637
1425335700.609,9.483627
1425335700.624,10.981529
1425335700.64,12.209145
1425335700.656,13.21624
1425335700.671,14.029343
1425335700.687,14.719986
1425335700.703,15.406075
1425335700.718,16.414932
1425335700.734,18.193275
1425335700.749,20.97358
1425335700.765,24.57077
1425335700.781,28.263664
1425335700.796,30.991043
1425335700.812,31.829224
1425335700.828,30.33171
1425335700.843,26.783447
1425335700.859,21.961914
1425335700.874,16.862282
1425335700.89,12.199745
1425335700.906,8.358002
1425335700.921,5.2682266
1425335700.937,2.6802788
1425335700.953,0.37615204
1425335700.968,-1.8163528
1425335700.984,-3.9700165
1425335700.999,-6.0626984
1425335701.015,-8.149071
1425335701.031,-10.347054
1425335701.046,-12.684746
1425335701.062,-15.094887
1425335701.078,-17.4142
1425335701.093,-19.319065
1425335701.109,-20.552673
1425335701.124,-20.984959
1425335701.14,-20.741405
1425335701.156,-20.172543
1425335701.171,-19.650799
1425335701.187,-19.405418
1425335701.203,-19.416378
1425335701.218,-19.52394
1425335701.234,-19.41099
1425335701.249,-18.88675
1425335701.265,-17.872381
1425335701.281,-16.386951
1425335701.296,-14.584446
1425335701.312,-12.553612
1425335701.328,-10.366417
1425335701.343,-8.070229
1425335701.359,-5.723343
1425335701.374,-3.3894176
1425335701.39,-1.1591997
1425335701.406,0.88419914
1425335701.421,2.6739674
1425335701.437,4.13505
1425335701.453,5.370002
1425335701.468,6.570956
1425335701.484,8.006057
1425335701.5,9.873196
1425335701.515,12.286823
1425335701.531,15.155443
1425335701.546,18.23978
1425335701.562,21.276196
1425335701.578,23.91358
1425335701.593,25.780367
1425335701.609,26.441418
1425335701.625,25.511948
1425335701.64,22.785423
1425335701.656,18.418783
1425335701.671,12.973323
1425335701.687,7.1921425
1425335701.703,1.861681
1425335701.718,-2.5337582
1425335701.734,-5.8752365
1425335701.75,-8.337643
1425335701.765,-10.290003
1425335701.781,-12.034859
1425335701.796,-13.79912
1425335701.812,-15.619963
1425335701.828,-17.433607
1425335701.843,-19.040989
1425335701.859,-20.273235
1425335701.875,-20.99015
1425335701.89,-21.138767
1425335701.906,-20.802055
1425335701.921,-20.135674
1425335701.937,-19.346485
1425335701.953,-18.584305
1425335701.968,-17.99619
1425335701.984,-17.632927
1425335702,-17.495453
1425335702.015,-17.554726
1425335702.031,-17.640034
1425335702.046,-17.574226
1425335702.062,-17.182144
1425335702.078,-16.426182
1425335702.093,-15.341602
1425335702.109,-14.078171
1425335702.125,-12.777916
1425335702.14,-11.525635
1425335702.156,-10.328136
1425335702.171,-9.10862
1425335702.187,-7.841343
1425335702.203,-6.554859
1425335702.218,-5.2357635
1425335702.234,-3.9358368
1425335702.25,-2.616703
1425335702.265,-1.170208
1425335702.281,0.53087616
1425335702.296,2.5677452
1425335702.312,5.0367928
1425335702.328,7.898632
1425335702.343,11.192318
1425335702.359,14.943447
1425335702.375,19.131626
1425335702.39,23.63588
1425335702.406,28.127823
1425335702.421,32.030155
1425335702.437,34.634563
1425335702.453,35.286167
1425335702.468,33.673424
1425335702.484,29.934189
1425335702.5,24.72918
1425335702.515,18.914276
1425335702.531,13.265724
1425335702.546,8.174187
1425335702.562,3.6786041
1425335702.578,-0.42462158
1425335702.593,-4.290451
1425335702.609,-7.8899
1425335702.625,-11.020363
1425335702.64,-13.515236
1425335702.656,-15.356728
1425335702.671,-16.687729
1425335702.687,-17.711266
1425335702.703,-18.625153
1425335702.718,-19.390488
1425335702.734,-19.898552
1425335702.75,-20.034317
1425335702.765,-19.761993
1425335702.781,-19.189178
1425335702.796,-18.49556
1425335702.812,-17.867783
1425335702.828,-17.413406
1425335702.843,-17.24849
1425335702.859,-17.352127
1425335702.875,-17.620667
1425335702.89,-17.884819
1425335702.906,-17.970314
1425335702.921,-17.717018
1425335702.937,-17.021164
1425335702.953,-15.868462
1425335702.968,-14.291718
1425335702.984,-12.392128
1425335703,-10.2335205
1425335703.015,-7.8794785
1425335703.031,-5.405983
1425335703.046,-2.8796158
1425335703.062,-0.36177826
1425335703.078,2.1775208
1425335703.093,4.8757553
1425335703.109,7.937393
1425335703.125,11.610817
1425335703.14,15.949219
1425335703.156,20.780739
1425335703.171,25.584564
1425335703.187,29.633377
1425335703.203,32.157738
1425335703.218,32.65571
1425335703.234,31.020172
1425335703.25,27.552032
1425335703.265,22.937805
1425335703.281,17.871872
1425335703.296,12.994415
1425335703.312,8.677963
1425335703.328,5.1024704
1425335703.343,2.1672516
1425335703.359,-0.39295197
1425335703.375,-2.9263382
1425335703.39,-5.7430115
1425335703.406,-8.940865
1425335703.421,-12.402435
1425335703.437,-15.738388
1425335703.453,-18.571175
1425335703.468,-20.59948
1425335703.484,-21.8797
1425335703.5,-22.736115
1425335703.515,-23.586945
1425335703.531,-24.743523
1425335703.546,-26.198074
1425335703.562,-27.70897
1425335703.578,-28.90255
1425335703.593,-29.492981
1425335703.609,-29.352303
1425335703.625,-28.495064
1425335703.64,-27.050995
1425335703.656,-25.158821
1425335703.671,-23.003716
1425335703.687,-20.775803
1425335703.703,-18.660973
1425335703.718,-16.737953
1425335703.734,-14.952782
1425335703.75,-13.131615
1425335703.765,-11.023827
1425335703.781,-8.46051
1425335703.796,-5.383499
1425335703.812,-1.9025497
1425335703.828,1.8590622
1425335703.843,5.811798
1425335703.859,9.975494
1425335703.875,14.432274
1425335703.89,19.251823
1425335703.906,24.339005
1425335703.921,29.441017
1425335703.937,34.15287
1425335703.953,37.887627
1425335703.968,40.151085
1425335703.984,40.520393
1425335704,38.85926
1425335704.015,35.42022
1425335704.031,30.738266
1425335704.046,25.483025
1425335704.062,20.24981
1425335704.078,15.414192
1425335704.093,11.148529
1425335704.109,7.4774475
1425335704.125,4.3122635
1425335704.14,1.5163727
1425335704.156,-1.0579147
1425335704.172,-3.6007767
1425335704.187,-6.2513657
1425335704.203,-9.0131
1425335704.218,-11.677902
1425335704.234,-13.911621
1425335704.25,-15.420799
1425335704.265,-16.098412
1425335704.281,-16.06527
1425335704.297,-15.615295
1425335704.312,-15.066978
1425335704.328,-14.657059
1425335704.343,-14.386841
1425335704.359,-14.173546
1425335704.375,-13.845955
1425335704.39,-13.336174
1425335704.406,-12.706512
1425335704.422,-12.129135
1425335704.437,-11.74147
1425335704.453,-11.616409
1425335704.468,-11.558281
1425335704.484,-11.246605
1425335704.5,-10.372475
1425335704.515,-8.805336
1425335704.531,-6.6366196
1425335704.547,-4.231369
1425335704.562,-1.8971329
1425335704.578,0.2082367
1425335704.593,2.0694199
1425335704.609,3.8520584
1425335704.625,5.746849
1425335704.64,7.9260254
1425335704.656,10.55703
1425335704.672,13.834137
1425335704.687,17.834755
1425335704.703,22.389755
1425335704.718,26.979187
1425335704.734,30.806778
1425335704.75,33.01979
1425335704.765,33.027866
1425335704.781,30.695232
1425335704.797,26.431934
1425335704.812,20.997086
1425335704.828,15.142666
1425335704.843,9.524254
1425335704.859,4.5276413
1425335704.875,0.34157562
1425335704.89,-3.0125885
1425335704.906,-5.623703
1425335704.922,-7.7498474
1425335704.937,-9.702446
1425335704.953,-11.733715
1425335704.968,-13.943878
1425335704.984,-16.182274
1425335705,-18.142586
1425335705.015,-19.559616
1425335705.031,-20.259918
1425335705.047,-20.245823
1425335705.062,-19.71299
1425335705.078,-18.852596
1425335705.093,-17.889404
1425335705.109,-16.995007
1425335705.125,-16.37381
1425335705.14,-16.168072
1425335705.156,-16.413162
1425335705.172,-16.957603
1425335705.187,-17.406582
1425335705.203,-17.391026
1425335705.218,-16.69091
1425335705.234,-15.376831
1425335705.25,-13.766155
1425335705.265,-12.213051
1425335705.281,-10.880016
1425335705.297,-9.645123
1425335705.312,-8.199493
1425335705.328,-6.2569847
1425335705.343,-3.7346458
1425335705.359,-0.77944946
1425335705.375,2.3309898
1425335705.39,5.27927
1425335705.406,7.9241333
1425335705.422,10.194099
1425335705.437,12.158867
1425335705.453,13.873016
1425335705.468,15.5112
1425335705.484,17.278175
1425335705.5,19.463871
1425335705.515,22.259842
1425335705.531,25.550938
1425335705.547,28.941547
1425335705.562,31.718605
1425335705.578,33.212654
1425335705.593,32.916393
1425335705.609,30.779655
1425335705.625,27.102509
1425335705.64,22.402096
1425335705.656,17.229553
1425335705.672,12.000832
1425335705.687,7.054943
1425335705.703,2.6327057
1425335705.718,-1.0767517
1425335705.734,-3.9955826
1425335705.75,-6.182686
1425335705.765,-7.7762947
1425335705.781,-9.049164
1425335705.797,-10.200954
1425335705.812,-11.274052
1425335705.828,-12.148052
1425335705.843,-12.610527
1425335705.859,-12.576347
1425335705.875,-12.065926
1425335705.89,-11.307869
1425335705.906,-10.531342
1425335705.922,-10.004112
1425335705.937,-9.834179
1425335705.953,-10.038952
1425335705.968,-10.511051
1425335705.984,-11.067284
1425335706,-11.564974
1425335706.015,-11.820086
1425335706.031,-11.714521
1425335706.047,-11.195034
1425335706.062,-10.298414
1425335706.078,-9.096382
1425335706.093,-7.700596
1425335706.109,-6.237314
1425335706.125,-4.7014103
1425335706.14,-3.0934887
1425335706.156,-1.3224068
1425335706.172,0.60951996
1425335706.187,2.651163
1425335706.203,4.661377
1425335706.218,6.4831505
1425335706.234,8.102388
1425335706.25,9.564116
1425335706.265,11.092886
1425335706.281,12.982998
1425335706.297,15.502842
1425335706.312,18.78669
1425335706.328,22.707972
1425335706.343,26.866913
1425335706.359,30.569853
1425335706.375,33.11613
1425335706.39,33.852833
1425335706.406,32.513756
1425335706.422,29.25627
1425335706.437,24.569384
1425335706.453,19.06409
1425335706.468,13.322426
1425335706.484,7.750843
1425335706.5,2.5837631
1425335706.515,-2.0278416
1425335706.531,-5.8938217
1425335706.547,-8.893486
1425335706.562,-11.026253
1425335706.578,-12.524954
1425335706.593,-13.744656
1425335706.609,-15.076376
1425335706.625,-16.654305
1425335706.64,-18.385069
1425335706.656,-19.977045
1425335706.672,-21.199623
1425335706.687,-22.027924
1425335706.703,-22.515703
1425335706.718,-22.751604
1425335706.734,-22.690376
1425335706.75,-22.20686
1425335706.765,-21.26662
1425335706.781,-20.087002
1425335706.797,-19.049597
1425335706.812,-18.57532
1425335706.828,-18.753193
1425335706.844,-19.292585
1425335706.859,-19.66964
1425335706.875,-19.372952
1425335706.89,-18.245052
1425335706.906,-16.45184
1425335706.922,-14.391317
1425335706.937,-12.407587
1425335706.953,-10.640554
1425335706.968,-8.956491
1425335706.984,-7.1149044
1425335707,-4.846052
1425335707.015,-2.0239239
1425335707.031,1.3931084
1425335707.047,5.363571
1425335707.062,9.747004
1425335707.078,14.291214
1425335707.094,18.68309
1425335707.109,22.542864
1425335707.125,25.414492
1425335707.14,26.828222
1425335707.156,26.441551
1425335707.172,24.215626
1425335707.187,20.481106
1425335707.203,15.91604
1425335707.219,11.255881
1425335707.234,7.010824
1425335707.25,3.3183856
1425335707.265,-0.091229916
1425335707.281,-3.5181541
1425335707.297,-6.971137
1425335707.312,-10.064714
1425335707.328,-12.2165575
1425335707.344,-13.011178
1425335707.359,-12.548442
1425335707.375,-11.455827
1425335707.39,-10.5787525
1425335707.406,-10.586397
1425335707.422,-11.647411
1425335707.437,-13.420511
1425335707.453,-15.268526
1425335707.469,-16.584408
1425335707.484,-17.030268
1425335707.5,-16.537987
1425335707.515,-15.32156
1425335707.531,-13.6242895
1425335707.547,-11.597343
1425335707.562,-9.236365
1425335707.578,-6.5043364
1425335707.594,-3.3982859
1425335707.609,-0.1432209
1425335707.625,2.9106865
1425335707.64,5.428589
1425335707.656,7.2937145
1425335707.672,8.669708
1425335707.687,9.990431
1425335707.703,11.720764
1425335707.719,14.051268
1425335707.734,16.80777
1425335707.75,19.526659
1425335707.765,21.627024
1425335707.781,22.762909
1425335707.797,22.876825
1425335707.812,22.330317
1425335707.828,21.634418
1425335707.844,21.329367
1425335707.859,21.765762
1425335707.875,23.101185
1425335707.89,25.159712
1425335707.906,27.505526
1425335707.922,29.46602
1425335707.937,30.339163
1425335707.953,29.633781
1425335707.969,27.186577
1425335707.984,23.304869
1425335708,18.575167
1425335708.015,13.790586
1425335708.031,9.647329
1425335708.047,6.53755
1425335708.062,4.5017605
1425335708.078,3.2193813
1425335708.094,2.3029118
1425335708.109,1.3457222
1425335708.125,0.09666443
1425335708.14,-1.5381336
1425335708.156,-3.4182682
1425335708.172,-5.4780235
1425335708.187,-7.644083
1425335708.203,-9.839527
1425335708.219,-11.98852
1425335708.234,-13.928055
1425335708.25,-15.473934
1425335708.265,-16.467213
1425335708.281,-16.894943
1425335708.297,-16.92248
1425335708.312,-16.798172
1425335708.328,-16.77163
1425335708.344,-16.873222
1425335708.359,-16.93913
1425335708.375,-16.675913
1425335708.39,-15.801607
1425335708.406,-14.131149
1425335708.422,-11.714088
1425335708.437,-8.757601
1425335708.453,-5.5643215
1425335708.469,-2.4879227
1425335708.484,0.1940136
1425335708.5,2.2450943
1425335708.515,3.6287975
1425335708.531,4.4648724
1425335708.547,5.048378
1425335708.562,5.7083282
1425335708.578,6.7373657
1425335708.594,8.421345
1425335708.609,11.008886
1425335708.625,14.682997
1425335708.64,19.338882
1425335708.656,24.607393
1425335708.672,29.776224
1425335708.687,33.956432
1425335708.703,36.301258
1425335708.719,36.347588
1425335708.734,34.163364
1425335708.75,30.23127
1425335708.765,25.36896
1425335708.781,20.356163
1425335708.797,15.750366
1425335708.812,11.868977
1425335708.828,8.593823
1425335708.844,5.6443768
1425335708.859,2.650776
1425335708.875,-0.71706676
1425335708.89,-4.569851
1425335708.906,-8.770667
1425335708.922,-13.005755
1425335708.937,-16.870335
1425335708.953,-20.035427
1425335708.969,-22.38687
1425335708.984,-23.998743
1425335709,-25.039894
1425335709.015,-25.715736
1425335709.031,-26.159462
1425335709.047,-26.413174
1425335709.062,-26.398626
1425335709.078,-26.020605
1425335709.094,-25.178143
1425335709.109,-23.86771
1425335709.125,-22.189676
1425335709.14,-20.316036
1425335709.156,-18.419762
1425335709.172,-16.621183
1425335709.187,-14.800155
1425335709.203,-12.741199
1425335709.219,-10.265865
1425335709.234,-7.344677
1425335709.25,-4.21085
1425335709.265,-1.1953502
1425335709.281,1.3980188
1425335709.297,3.4392538
1425335709.312,5.067075
1425335709.328,6.543842
1425335709.344,8.199089
1425335709.359,10.22324
1425335709.375,12.746149
1425335709.39,15.795671
1425335709.406,19.35555
1425335709.422,23.27936
1425335709.437,27.173677
1425335709.453,30.43932
1425335709.469,32.396214
1425335709.484,32.480038
1425335709.5,30.544907
1425335709.516,26.9163
1425335709.531,22.344627
1425335709.547,17.614765
1425335709.562,13.316336
1425335709.578,9.650443
1425335709.594,6.5110064
1425335709.609,3.6797075
1425335709.625,1.0041265
1425335709.64,-1.5841265
1425335709.656,-4.0926676
1425335709.672,-6.5860796
1425335709.687,-9.162522
1425335709.703,-11.827539
1425335709.719,-14.421658
1425335709.734,-16.625319
1425335709.75,-18.158854
1425335709.766,-18.856518
1425335709.781,-18.84842
1425335709.797,-18.434357
1425335709.812,-17.935537
1425335709.828,-17.528662
1425335709.844,-17.166958
1425335709.859,-16.648586
1425335709.875,-15.783367
1425335709.891,-14.539846
1425335709.906,-12.917173
1425335709.922,-10.936611
1425335709.937,-8.555185
1425335709.953,-5.7580605
1425335709.969,-2.5785847
1425335709.984,0.8198738
1425335710,4.2814407
1425335710.016,7.664358
1425335710.031,10.89176
1425335710.047,13.96319
1425335710.062,16.893745
1425335710.078,19.742653
1425335710.094,22.57745
1425335710.109,25.489979
1425335710.125,28.610905
1425335710.141,32.006313
1425335710.156,35.71261
1425335710.172,39.63484
1425335710.187,43.598675
1425335710.203,47.359818
1425335710.219,50.56757
1425335710.234,52.87784
1425335710.25,54.009228
1425335710.266,53.816814
1425335710.281,52.468735
1425335710.297,50.443794
1425335710.312,48.410378
1425335710.328,46.94915
1425335710.344,46.344803
1425335710.359,46.46161
1425335710.375,46.90806
1425335710.391,47.230446
1425335710.406,47.074753
1425335710.422,46.30134
1425335710.437,44.897415
1425335710.453,42.86895
1425335710.469,40.252365
1425335710.484,37.09668
1425335710.5,33.559677
1425335710.516,29.90036
1425335710.531,26.386208
1425335710.547,23.085968
1425335710.562,19.857376
1425335710.578,16.419067
1425335710.594,12.463394
1425335710.609,7.848755
1425335710.625,2.6843872
1425335710.641,-2.810501
1425335710.656,-8.314804
1425335710.672,-13.640793
1425335710.687,-18.788635
1425335710.703,-23.9346
1425335710.719,-29.220245
1425335710.734,-34.691116
1425335710.75,-40.126816
1425335710.766,-45.126648
1425335710.781,-49.353287
1425335710.797,-52.546906
1425335710.812,-54.59172
1425335710.828,-55.524384
1425335710.844,-55.363358
1425335710.859,-54.11792
1425335710.875,-51.758667
1425335710.891,-48.24588
1425335710.906,-43.5782
1425335710.922,-37.94081
1425335710.937,-31.639465
1425335710.953,-25.156876
1425335710.969,-19.06369
1425335710.984,-14.00415
1425335711,-10.569489
1425335711.016,-9.220612
1425335711.031,-10.019257
1425335711.047,-12.720978
1425335711.062,-16.864258
1425335711.078,-21.885925
1425335711.094,-27.271973
1425335711.109,-32.644897
1425335711.125,-37.696594
1425335711.141,-42.23819
1425335711.156,-46.09735
1425335711.172,-49.259705
1425335711.187,-51.76709
1425335711.203,-53.877167
1425335711.219,-55.825195
1425335711.234,-57.78882
1425335711.25,-59.820984
1425335711.266,-61.823456
1425335711.281,-63.77469
1425335711.297,-65.62274
1425335711.312,-67.44275
1425335711.328,-69.337524
1425335711.344,-71.42294
1425335711.359,-73.78827
1425335711.375,-76.54675
1425335711.391,-79.77542
1425335711.406,-83.3342
1425335711.422,-86.944275
1425335711.437,-90.08093
1425335711.453,-92.17984
1425335711.469,-92.65668
1425335711.484,-91.07205
1425335711.5,-87.169556
1425335711.516,-80.886566
1425335711.531,-72.26343
1425335711.547,-61.369568
1425335711.562,-48.43788
1425335711.578,-33.782288
1425335711.594,-17.893066
1425335711.609,-1.403656
1425335711.625,14.982819
1425335711.641,30.47963
1425335711.656,44.324417
1425335711.672,55.839508
1425335711.687,64.53134
1425335711.703,70.18205
1425335711.719,72.93854
1425335711.734,73.22887
1425335711.75,71.67621
1425335711.766,68.95134
1425335711.781,65.59741
1425335711.797,61.967514
1425335711.812,58.164307
1425335711.828,54.08922
1425335711.844,49.404877
1425335711.859,43.679565
1425335711.875,36.52594
1425335711.891,27.711197
1425335711.906,17.470718
1425335711.922,6.507004
1425335711.937,-4.0168457
1425335711.953,-12.889893
1425335711.969,-19.078003
1425335711.984,-22.103806
1425335712,-22.07911
1425335712.016,-19.707878
1425335712.031,-15.911133
1425335712.047,-11.5179825
1425335712.062,-7.1571503
1425335712.078,-3.0713272
1425335712.094,0.81204224
1425335712.109,4.815811
1425335712.125,9.287315
1425335712.141,14.490707
1425335712.156,20.441757
1425335712.172,26.90329
1425335712.187,33.36921
1425335712.203,39.216843
1425335712.219,44.023582
1425335712.234,47.675316
1425335712.25,50.516624
1425335712.266,53.19863
1425335712.281,56.329094
1425335712.297,60.31079
1425335712.312,65.07027
1425335712.328,70.06592
1425335712.344,74.53458
1425335712.359,77.7832
1425335712.375,79.40101
1425335712.391,79.32443
1425335712.406,77.841995
1425335712.422,75.400635
1425335712.438,72.4958
1425335712.453,69.51095
1425335712.469,66.62562
1425335712.484,63.654015
1425335712.5,60.13012
1425335712.516,55.298332
1425335712.531,48.485725
1425335712.547,39.504417
1425335712.563,28.754196
1425335712.578,17.175888
1425335712.594,5.8851624
1425335712.609,-4.2292633
1425335712.625,-12.725098
1425335712.641,-19.635162
1425335712.656,-25.240585
1425335712.672,-29.749466
1425335712.688,-33.208366
1425335712.703,-35.608116
1425335712.719,-36.901802
1425335712.734,-37.18799
1425335712.75,-36.76245
1425335712.766,-35.96441
1425335712.781,-35.19124
1425335712.797,-34.701347
1425335712.813,-34.592422
1425335712.828,-34.783035
1425335712.844,-35.06923
1425335712.859,-35.208267
1425335712.875,-34.93792
1425335712.891,-34.135735
1425335712.906,-32.72548
1425335712.922,-30.762436
1425335712.938,-28.31894
1425335712.953,-25.615555
1425335712.969,-22.892563
1425335712.984,-20.440277
1425335713,-18.437363
1425335713.016,-16.91008
1425335713.031,-15.716675
1425335713.047,-14.53595
1425335713.063,-13.137512
1425335713.078,-11.4039
1425335713.094,-9.305588
1425335713.109,-6.975708
1425335713.125,-4.549408
1425335713.141,-2.1263885
1425335713.156,0.20220947
1425335713.172,2.3878632
1425335713.188,4.489273
1425335713.203,6.621628
1425335713.219,8.8862915
1425335713.234,11.351181
1425335713.25,13.847794
1425335713.266,16.005203
1425335713.281,17.323532
1425335713.297,17.43953
1425335713.313,16.21637
1425335713.328,13.876694
1425335713.344,10.854706
1425335713.359,7.5147247
1425335713.375,4.129013
1425335713.391,0.6982422
1425335713.406,-2.832718
1425335713.422,-6.522995
1425335713.438,-10.2912445
1425335713.453,-13.995956
1425335713.469,-17.43303
1425335713.484,-20.55243
1425335713.5,-23.40445
1425335713.516,-26.115067
1425335713.531,-28.811111
1425335713.547,-31.484314
1425335713.563,-33.994934
1425335713.578,-36.185028
1425335713.594,-37.881927
1425335713.609,-39.014328
1425335713.625,-39.64531
1425335713.641,-39.929
1425335713.656,-40.043625
1425335713.672,-40.19835
1425335713.688,-40.530823
1425335713.703,-41.04431
1425335713.719,-41.619766
1425335713.734,-42.0338
1425335713.75,-42.05342
1425335713.766,-41.54921
1425335713.781,-40.60466
1425335713.797,-39.44594
1425335713.813,-38.47245
1425335713.828,-38.037292
1425335713.844,-38.30787
1425335713.859,-39.247574
1425335713.875,-40.54528
1425335713.891,-41.571968
1425335713.906,-41.59404
1425335713.922,-39.79956
1425335713.938,-35.58262
1425335713.953,-28.82811
1425335713.969,-19.928795
1425335713.984,-9.783546
1425335714,0.52887726
1425335714.016,10.036537
1425335714.031,18.225716
1425335714.047,24.944008
1425335714.063,30.468178
1425335714.078,35.088707
1425335714.094,39.05478
1425335714.109,42.499084
1425335714.125,45.476734
1425335714.141,47.90297
1425335714.156,49.678608
1425335714.172,50.72937
1425335714.188,50.914303
1425335714.203,50.286503
1425335714.219,49.051914
1425335714.234,47.568165
1425335714.25,46.190975
1425335714.266,45.093647
1425335714.281,44.179905
1425335714.297,43.221085
1425335714.313,41.974915
1425335714.328,40.345135
1425335714.344,38.444706
1425335714.359,36.440926
1425335714.375,34.337425
1425335714.391,32.091835
1425335714.406,29.60793
1425335714.422,26.87014
1425335714.438,24.064121
1425335714.453,21.383343
1425335714.469,18.978464
1425335714.484,16.83464
1425335714.5,14.820103
1425335714.516,12.716577
1425335714.531,10.550205
1425335714.547,8.473645
1425335714.563,6.7490864
1425335714.578,5.5176134
1425335714.594,4.7553577
1425335714.609,4.2636466
1425335714.625,3.8957286
1425335714.641,3.6081114
1425335714.656,3.5542717
1425335714.672,3.9997582
1425335714.688,5.113542
1425335714.703,6.8661404
1425335714.719,8.959919
1425335714.734,10.937358
1425335714.75,12.335356
1425335714.766,12.79072
1425335714.781,12.208194
1425335714.797,10.75481
1425335714.813,8.704526
1425335714.828,6.3568583
1425335714.844,3.8972282
1425335714.859,1.4125443
1425335714.875,-1.1338501
1425335714.891,-3.7166042
1425335714.906,-6.334305
1425335714.922,-8.929017
1425335714.938,-11.35985
1425335714.953,-13.54012
1425335714.969,-15.338843
1425335714.984,-16.693619
1425335715,-17.512844
1425335715.016,-17.906517
1425335715.031,-18.059671
1425335715.047,-18.27386
1425335715.063,-18.80939
1425335715.078,-19.745064
1425335715.094,-20.96568
1425335715.11,-22.272099
1425335715.125,-23.365665
1425335715.141,-24.055496
1425335715.156,-24.21898
1425335715.172,-23.77671
1425335715.188,-22.69606
1425335715.203,-20.994762
1425335715.219,-18.8059
1425335715.235,-16.434315
1425335715.25,-14.162073
1425335715.266,-12.196383
1425335715.281,-10.522571
1425335715.297,-8.866734
1425335715.313,-6.871065
1425335715.328,-4.3054247
1425335715.344,-1.2007189
1425335715.36,2.126152
1425335715.375,5.1890345
1425335715.391,7.602995
1425335715.406,9.2438545
1425335715.422,10.266105
1425335715.438,11.109184
1425335715.453,12.218354
1425335715.469,13.881283
1425335715.485,16.149471
1425335715.5,18.78745
1425335715.516,21.269718
1425335715.531,23.027843
1425335715.547,23.504278
1425335715.563,22.378857
1425335715.578,19.606476
1425335715.594,15.560836
1425335715.61,10.807997
1425335715.625,6.107188
1425335715.641,2.0924096
1425335715.656,-0.9546833
1425335715.672,-3.0923958
1425335715.688,-4.685803
1425335715.703,-6.155105
1425335715.719,-7.736097
1425335715.735,-9.44578
1425335715.75,-11.140507
1425335715.766,-12.674383
1425335715.781,-13.97693
1425335715.797,-15.113647
1425335715.813,-16.015236
1425335715.828,-16.541843
1425335715.844,-16.447433
1425335715.86,-15.563612
1425335715.875,-13.951747
1425335715.891,-11.972267
1425335715.906,-10.057225
1425335715.922,-8.586585
1425335715.938,-7.690365
1425335715.953,-7.23102
1425335715.969,-6.9472218
1425335715.985,-6.6033306
1425335716,-6.0007877
1425335716.016,-5.0377274
1425335716.031,-3.639799
1425335716.047,-1.8069668
1425335716.063,0.38263512
1425335716.078,2.73349
1425335716.094,5.090933
1425335716.11,7.2849007
1425335716.125,9.293524
1425335716.141,11.221138
1425335716.156,13.24674
1425335716.172,15.548004
1425335716.188,18.214588
1425335716.203,21.22691
1425335716.219,24.340702
1425335716.235,27.124369
1425335716.25,29.003796
1425335716.266,29.408854
1425335716.281,28.067732
1425335716.297,25.087702
1425335716.313,21.026033
1425335716.328,16.601353
1425335716.344,12.438135
1425335716.36,8.855465
1425335716.375,5.8956547
1425335716.391,3.3602486
1425335716.406,1.0542908
1425335716.422,-1.1186638
1425335716.438,-3.2180061
1425335716.453,-5.286484
1425335716.469,-7.307579
1425335716.485,-9.270874
1425335716.5,-11.112919
1425335716.516,-12.750183
1425335716.531,-14.166569
1425335716.547,-15.385559
1425335716.563,-16.439625
1425335716.578,-17.319675
1425335716.594,-17.902557
1425335716.61,-18.021667
1425335716.625,-17.56194
1425335716.641,-16.590519
1425335716.656,-15.231979
1425335716.672,-13.727463
1425335716.688,-12.273094
1425335716.703,-10.905922
1425335716.719,-9.635101
1425335716.735,-8.383671
1425335716.75,-7.0650024
1425335716.766,-5.5931664
1425335716.781,-3.9198036
1425335716.797,-2.0306854
1425335716.813,0.0019035339
1425335716.828,2.050457
1425335716.844,4.0826035
1425335716.86,6.082554
1425335716.875,8.162731
1425335716.891,10.365242
1425335716.906,12.589176
1425335716.922,14.594444
1425335716.938,16.122944
1425335716.953,17.126167
1425335716.969,17.858082
1425335716.985,18.767517
1425335717,20.16811
1425335717.016,22.024113
1425335717.031,23.841148
1425335717.047,24.798656
1425335717.063,24.244705
1425335717.078,21.906685
1425335717.094,18.132732
1425335717.11,13.614681
1425335717.125,9.181862
1425335717.141,5.383732
1425335717.156,2.434597
1425335717.172,0.22948456
1425335717.188,-1.5122795
1425335717.203,-3.0313911
1425335717.219,-4.428219
1425335717.235,-5.5979156
1425335717.25,-6.4781876
1425335717.266,-7.0691338
1425335717.281,-7.5628967
1425335717.297,-8.276196
1425335717.313,-9.455807
1425335717.328,-11.192146
1425335717.344,-13.24102
1425335717.36,-15.2192955
1425335717.375,-16.659393
1425335717.391,-17.294357
1425335717.406,-17.099522
1425335717.422,-16.259266
1425335717.438,-15.064373
1425335717.453,-13.7201805
1425335717.469,-12.307537
1425335717.485,-10.828442
1425335717.5,-9.287594
1425335717.516,-7.78368
1425335717.531,-6.417015
1425335717.547,-5.303074
1425335717.563,-4.4041176
1425335717.578,-3.564705
1425335717.594,-2.510624
1425335717.61,-0.9774475
1425335717.625,1.13171
1425335717.641,3.7377357
1425335717.656,6.609028
1425335717.672,9.440357
1425335717.688,11.995907
1425335717.703,14.141468
1425335717.719,15.8190155
1425335717.735,17.11213
1425335717.75,18.188133
1425335717.766,19.317871
1425335717.782,20.889206
1425335717.797,23.128372
1425335717.813,25.97158
1425335717.828,28.872547
1425335717.844,30.996777
1425335717.86,31.434544
1425335717.875,29.63691
1425335717.891,25.66719
1425335717.906,20.158207
1425335717.922,14.066883
1425335717.938,8.160507
1425335717.953,2.9211884
1425335717.969,-1.5662193
1425335717.985,-5.3821487
1425335718,-8.613419
1425335718.016,-11.27589
1425335718.032,-13.352539
1425335718.047,-14.827217
1425335718.063,-15.742363
1425335718.078,-16.195
1425335718.094,-16.302055
1425335718.11,-16.128078
1425335718.125,-15.746227
1425335718.141,-15.314949
1425335718.157,-14.958061
1425335718.172,-14.862801
1425335718.188,-15.07584
1425335718.203,-15.562851
1425335718.219,-16.140472
1425335718.235,-16.58609
1425335718.25,-16.705532
1425335718.266,-16.434875
1425335718.282,-15.812164
1425335718.297,-14.9174
1425335718.313,-13.8039665
1425335718.328,-12.408844
1425335718.344,-10.543716
1425335718.36,-7.9940987
1425335718.375,-4.7159233
1425335718.391,-0.91054535
1425335718.407,3.032154
1425335718.422,6.668209
1425335718.438,9.691097
1425335718.453,12.021862
1425335718.469,13.762405
1425335718.485,15.071766
1425335718.5,16.06984
1425335718.516,16.909592
1425335718.532,17.849178
1425335718.547,19.257145
1425335718.563,21.468845
1425335718.578,24.636723
1425335718.594,28.40908
1425335718.61,31.92694
1425335718.625,34.228603
1425335718.641,34.553596
1425335718.657,32.727184
1425335718.672,29.179749
1425335718.688,24.73669
1425335718.703,20.196804
1425335718.719,16.122425
1425335718.735,12.662983
1425335718.75,9.651241
1425335718.766,6.8888206
1425335718.782,4.235447
1425335718.797,1.6376228
1425335718.813,-0.8910408
1425335718.828,-3.4180145
1425335718.844,-6.030794
1425335718.86,-8.78429
1425335718.875,-11.650255
1425335718.891,-14.450172
1425335718.907,-16.812511
1425335718.922,-18.418697
1425335718.938,-19.10978
1425335718.953,-19.017672
1425335718.969,-18.580996
1425335718.985,-18.259861
1425335719,-18.332436
1425335719.016,-18.77937
1425335719.032,-19.288836
1425335719.047,-19.47064
1425335719.063,-19.073967
1425335719.078,-18.07484
1425335719.094,-16.520988
1425335719.11,-14.56555
1425335719.125,-12.246699
1425335719.141,-9.570368
1425335719.157,-6.6133595
1425335719.172,-3.5504446
1425335719.188,-0.69144726
1425335719.203,1.6943798
1425335719.219,3.47303
1425335719.235,4.7165155
1425335719.25,5.5888453
1425335719.266,6.337739
1425335719.282,7.2552876
1425335719.297,8.621196
1425335719.313,10.774162
1425335719.328,13.927117
1425335719.344,18.123287
1425335719.36,23.081724
1425335719.375,28.235266
1425335719.391,32.777477
1425335719.407,35.934097
1425335719.422,37.104324
1425335719.438,36.032204
1425335719.453,32.9113
1425335719.469,28.201183
1425335719.485,22.527092
1425335719.5,16.465467
1425335719.516,10.548464
1425335719.532,5.0562983
1425335719.547,0.19854832
1425335719.563,-3.8937368
1425335719.578,-7.1375113
1425335719.594,-9.408933
1425335719.61,-10.685984
1425335719.625,-11.048716
1425335719.641,-10.705679
1425335719.657,-9.936256
1425335719.672,-9.036865
1425335719.688,-8.202982
1425335719.703,-7.5541687
1425335719.719,-7.125656
1425335719.735,-6.8666325
1425335719.75,-6.7847004
1425335719.766,-6.8713837
1425335719.782,-7.1038055
1425335719.797,-7.5026627
1425335719.813,-8.024666
1425335719.828,-8.569164
1425335719.844,-8.952637
1425335719.86,-8.96756
1425335719.875,-8.42432
1425335719.891,-7.2315254
1425335719.907,-5.3908043
1425335719.922,-3.0635605
1425335719.938,-0.5301895
1425335719.953,1.8459053
1425335719.969,3.8350067
1425335719.985,5.3572693
1425335720,6.53347
1425335720.016,7.663166
1425335720.032,9.101471
1425335720.047,11.112148
1425335720.063,13.819317
1425335720.078,17.145805
1425335720.094,20.820625
1425335720.11,24.453331
1425335720.125,27.511154
1425335720.141,29.37339
1425335720.157,29.470055
1425335720.172,27.429657
1425335720.188,23.280174
1425335720.203,17.525375
1425335720.219,11.027046
1425335720.235,4.7204514
1425335720.25,-0.68587494
1425335720.266,-4.9568405
1425335720.282,-8.25412
1425335720.297,-10.96003
1425335720.313,-13.345657
1425335720.328,-15.510391
1425335720.344,-17.364151
1425335720.36,-18.728851
1425335720.375,-19.590271
1425335720.391,-20.042885
1425335720.407,-20.241531
1425335720.422,-20.305244
1425335720.438,-20.231316
1425335720.454,-20.02298
1425335720.469,-19.672462
1425335720.485,-19.280487
1425335720.5,-18.991165
1425335720.516,-19.000343
1425335720.532,-19.431076
1425335720.547,-20.314194
1425335720.563,-21.486176
1425335720.578,-22.596779
1425335720.594,-23.073486
1425335720.61,-22.325478
1425335720.625,-19.946976
1425335720.641,-15.987839
1425335720.657,-11.048767
1425335720.672,-5.9818115
1425335720.688,-1.5797272
1425335720.704,1.8055267
1425335720.719,4.375046
1425335720.735,6.68985
1425335720.75,9.363876
1425335720.766,12.7969055
1425335720.782,17.096603
1425335720.797,22.119507
1425335720.813,27.633163
1425335720.829,33.275055
1425335720.844,38.51062
1425335720.86,42.656387
1425335720.875,44.955444
1425335720.891,44.89441
1425335720.907,42.416473
1425335720.922,37.963654
1425335720.938,32.281982
1425335720.954,26.162933
1425335720.969,20.263626
1425335720.985,14.91655
1425335721,10.117065
1425335721.016,5.6081696
1425335721.032,1.0643921
1425335721.047,-3.8411407
1425335721.063,-9.173828
1425335721.079,-14.713257
1425335721.094,-20.028793
1425335721.11,-24.547668
1425335721.125,-27.83638
1425335721.141,-29.722946
1425335721.157,-30.409195
1425335721.172,-30.28955
1425335721.188,-29.850143
1425335721.204,-29.492172
1425335721.219,-29.353851
1425335721.235,-29.491821
1425335721.25,-29.834671
1425335721.266,-30.312225
1425335721.282,-30.904861
1425335721.297,-31.557602
1425335721.313,-32.202454
1425335721.329,-32.712723
1425335721.344,-32.847443
1425335721.36,-32.370255
1425335721.375,-31.18576
1425335721.391,-29.378464
1425335721.407,-27.177917
1425335721.422,-24.790314
1425335721.438,-22.219727
1425335721.454,-19.310379
1425335721.469,-15.8064575
1425335721.485,-11.5151825
1425335721.5,-6.4200287
1425335721.516,-0.79125977
1425335721.532,5.1188354
1425335721.547,11.125336
1425335721.563,17.18303
1425335721.579,23.33696
1425335721.594,29.488953
1425335721.61,35.194397
1425335721.625,39.757095
1425335721.641,42.425232
1425335721.657,42.708496
1425335721.672,40.63434
1425335721.688,36.744385
1425335721.704,31.804688
1425335721.719,26.649155
1425335721.735,21.826096
1425335721.75,17.497375
1425335721.766,13.582336
1425335721.782,9.826294
1425335721.797,6.0423737
1425335721.813,2.16893
1425335721.829,-1.7599945
1425335721.844,-5.6103516
1425335721.86,-9.167877
1425335721.875,-12.231079
1425335721.891,-14.631836
1425335721.907,-16.300095
1425335721.922,-17.322906
1425335721.938,-17.839417
1425335721.954,-17.969528
1425335721.969,-17.786774
1425335721.985,-17.326569
1425335722,-16.612488
1425335722.016,-15.826309
1425335722.032,-15.241928
1425335722.047,-15.134155
1425335722.063,-15.583099
1425335722.079,-16.463821
1425335722.094,-17.225143
1425335722.11,-17.250885
1425335722.125,-16.08934
1425335722.141,-13.764023
1425335722.157,-10.730392
1425335722.172,-7.701172
1425335722.188,-5.2742157
1425335722.204,-3.6486664
1425335722.219,-2.6352234
1425335722.235,-1.6514893
1425335722.25,-0.12789917
1425335722.266,2.3469238
1425335722.282,5.928192
1425335722.297,10.525665
1425335722.313,15.917969
1425335722.329,21.671616
1425335722.344,27.214005
1425335722.36,31.748688
1425335722.375,34.51027
1425335722.391,34.865204
1425335722.407,32.582962
1425335722.422,27.938766
1425335722.438,21.558426
1425335722.454,14.373199
1425335722.469,7.2996674
1425335722.485,1.0494385
1425335722.5,-4.063385
1425335722.516,-8.0351715
1425335722.532,-11.137268
1425335722.547,-13.790009
1425335722.563,-16.29396
1425335722.579,-18.816162
1425335722.594,-21.309875
1425335722.61,-23.59996
1425335722.625,-25.456375
1425335722.641,-26.808243
1425335722.657,-27.55066
1425335722.672,-27.615204
1425335722.688,-26.992096
1425335722.704,-25.723648
1425335722.719,-24.039352
1425335722.735,-22.273071
1425335722.75,-20.787613
1425335722.766,-19.788742
1425335722.782,-19.264893
1425335722.797,-18.944626
1425335722.813,-18.442535
1425335722.829,-17.392715
1425335722.844,-15.600784
1425335722.86,-13.154907
1425335722.875,-10.281601
1425335722.891,-7.309906
1425335722.907,-4.541031
1425335722.922,-2.1775665
1425335722.938,-0.3290863
1425335722.954,0.9824829
1425335722.969,1.9516907
1425335722.985,2.876297
1425335723,4.183548
1425335723.016,6.3405457
1425335723.032,9.770248
1425335723.047,14.637711
1425335723.063,20.68251
1425335723.079,27.200836
1425335723.094,33.122665
1425335723.11,37.352997
1425335723.125,39.107025
1425335723.141,38.12761
1425335723.157,34.765274
1425335723.172,29.77916
1425335723.188,24.04831
1425335723.204,18.261932
1425335723.219,12.893738
1425335723.235,8.05394
1425335723.25,3.6616974
1425335723.266,-0.48684692
1425335723.282,-4.5401
1425335723.297,-8.559402
1425335723.313,-12.465561
1425335723.329,-16.01773
1425335723.344,-19.00322
1425335723.36,-21.222443
1425335723.376,-22.741943
1425335723.391,-23.719177
1425335723.407,-24.356873
1425335723.422,-24.729782
1425335723.438,-24.753677
1425335723.454,-24.3544
1425335723.469,-23.468048
1425335723.485,-22.235657
1425335723.501,-20.911865
1425335723.516,-19.734528
1425335723.532,-18.76683
1425335723.547,-17.822311
1425335723.563,-16.635452
1425335723.579,-15.049088
1425335723.594,-13.119675
1425335723.61,-10.9813385
1425335723.626,-8.8858795
1425335723.641,-6.9647827
1425335723.657,-5.2110443
1425335723.672,-3.4812775
1425335723.688,-1.5521088
1425335723.704,0.7185364
1425335723.719,3.3665314
1425335723.735,6.297867
1425335723.751,9.32637
1425335723.766,12.163055
1425335723.782,14.709854
1425335723.797,16.989227
1425335723.813,19.344543
1425335723.829,22.241653
1425335723.844,25.976639
1425335723.86,30.454086
1425335723.876,35.102875
1425335723.891,38.948105
1425335723.907,40.928787
1425335723.922,40.371613
1425335723.938,37.13118
1425335723.954,31.661697
1425335723.969,24.82167
1425335723.985,17.58368
1425335724.001,10.730286
1425335724.016,4.6888733
1425335724.032,-0.51651
1425335724.047,-5.0980377
1425335724.063,-9.251389
1425335724.079,-13.142792
1425335724.094,-16.776001
1425335724.11,-20.030716
1425335724.126,-22.757172
1425335724.141,-24.861618
1425335724.157,-26.336655
1425335724.172,-27.273285
1425335724.188,-27.761688
1425335724.204,-27.855087
1425335724.219,-27.581436
1425335724.235,-27.01921
1425335724.251,-26.270752
1425335724.266,-25.526794
1425335724.282,-24.908218
1425335724.297,-24.459824
1425335724.313,-24.111023
1425335724.329,-23.695602
1425335724.344,-22.955444
1425335724.36,-21.752426
1425335724.376,-20.068253
1425335724.391,-18.004562
1425335724.407,-15.741928
1425335724.422,-13.401749
1425335724.438,-10.991425
1425335724.454,-8.443298
1425335724.469,-5.674881
1425335724.485,-2.5587158
1425335724.501,0.9450226
1425335724.516,4.7814026
1425335724.532,8.843658
1425335724.547,12.94162
1425335724.563,16.865936
1425335724.579,20.340515
1425335724.594,23.15094
1425335724.61,25.175888
1425335724.626,26.601639
1425335724.641,27.822968
1425335724.657,29.326645
1425335724.672,31.5309
1425335724.688,34.454117
1425335724.704,37.663757
1425335724.719,40.407196
1425335724.735,41.883667
1425335724.751,41.476944
1425335724.766,38.96927
1425335724.782,34.502686
1425335724.797,28.551483
1425335724.813,21.726395
1425335724.829,14.553253
1425335724.844,7.522629
1425335724.86,0.9892578
1425335724.876,-4.8290253
1425335724.891,-9.850845
1425335724.907,-14.066284
1425335724.922,-17.582977
1425335724.938,-20.458267
1425335724.954,-22.683167
1425335724.969,-24.273697
1425335724.985,-25.280914
1425335725.001,-25.749542
1425335725.016,-25.808624
1425335725.032,-25.571014
1425335725.047,-25.14032
1425335725.063,-24.56166
1425335725.079,-23.872162
1425335725.094,-23.010956
1425335725.11,-22.037613
1425335725.126,-21.05774
1425335725.141,-20.149094
1425335725.157,-19.473953
1425335725.172,-19.077713
1425335725.188,-18.948303
