1430264516.438,0.0
1430264516.454,0.0
1430264516.469,0.0
1430264516.485,0.0
1430264516.501,0.0
1430264516.516,0.0
1430264516.532,0.0
1430264516.548,0.0
1430264516.563,0.0
1430264516.579,0.0022315353
1430264516.594,-0.0045169927
1430264516.61,-0.011265522
1430264516.626,-0.011383951
1430264516.641,0.0011864507
1430264516.657,0.025910312
1430264516.673,0.050634187
1430264516.688,0.051362894
1430264516.704,-0.0014929791
1430264516.719,-0.1302426
1430264516.735,-0.35562757
1430264516.751,-0.6591247
1430264516.766,-1.0095103
1430264516.782,-1.3709826
1430264516.798,-1.7197359
1430264516.813,-2.0551105
1430264516.829,-2.39945
1430264516.844,-2.7866633
1430264516.86,-3.239907
1430264516.876,-3.7960114
1430264516.891,-4.4187884
1430264516.907,-5.0596743
1430264516.923,-5.665267
1430264516.938,-6.20351
1430264516.954,-6.6823883
1430264516.969,-7.150407
1430264516.985,-7.6774435
1430264517.001,-8.308319
1430264517.016,-9.141291
1430264517.032,-10.090907
1430264517.048,-11.049688
1430264517.063,-11.900608
1430264517.079,-12.583333
1430264517.094,-13.144114
1430264517.11,-13.738619
1430264517.126,-14.580416
1430264517.141,-15.824341
1430264517.157,-17.70561
1430264517.173,-20.043036
1430264517.188,-22.576557
1430264517.204,-25.011063
1430264517.219,-27.172651
1430264517.235,-29.123236
1430264517.251,-31.166168
1430264517.266,-33.73126
1430264517.282,-37.138775
1430264517.298,-41.780045
1430264517.313,-47.313843
1430264517.329,-53.221592
1430264517.344,-58.91384
1430264517.36,-64.014084
1430264517.376,-68.560486
1430264517.391,-73.01445
1430264517.407,-78.064766
1430264517.423,-84.24884
1430264517.438,-92.12919
1430264517.454,-101.2266
1430264517.469,-110.757164
1430264517.485,-119.81369
1430264517.501,-127.77913
1430264517.516,-134.62024
1430264517.532,-140.9079
1430264517.548,-147.95805
1430264517.563,-154.5079
1430264517.579,-162.89357
1430264517.594,-173.7889
1430264517.61,-187.3355
1430264517.626,-202.29997
1430264517.641,-215.67229
1430264517.657,-222.99068
1430264517.673,-219.51108
1430264517.688,-201.84
1430264517.704,-169.17392
1430264517.719,-124.04793
1430264517.735,-70.454865
1430264517.751,-12.8038025
1430264517.766,45.71399
1430264517.782,103.70471
1430264517.798,161.11197
1430264517.813,218.20831
1430264517.829,274.73203
1430264517.844,329.71155
1430264517.86,381.4751
1430264517.876,428.88467
1430264517.891,471.13232
1430264517.907,507.65512
1430264517.923,537.7168
1430264517.938,560.09064
1430264517.954,573.19775
1430264517.969,575.44946
1430264517.985,565.9009
1430264518.001,544.3586
1430264518.016,511.7916
1430264518.032,469.68863
1430264518.048,419.67273
1430264518.063,363.27988
1430264518.079,301.99945
1430264518.094,237.51236
1430264518.11,171.85806
1430264518.126,107.38144
1430264518.141,46.307495
1430264518.157,-9.436813
1430264518.173,-58.627808
1430264518.188,-100.74213
1430264518.204,-135.7767
1430264518.219,-164.03647
1430264518.235,-186.02411
1430264518.251,-202.40616
1430264518.266,-214.02397
1430264518.282,-221.83705
1430264518.298,-226.6636
1430264518.313,-229.0464
1430264518.329,-229.15022
1430264518.344,-226.89035
1430264518.36,-222.1223
1430264518.376,-214.94608
1430264518.391,-205.7952
1430264518.407,-195.35869
1430264518.423,-184.36684
1430264518.438,-173.37842
1430264518.454,-162.6542
1430264518.469,-152.1645
1430264518.485,-141.73087
1430264518.501,-131.19366
1430264518.516,-120.56932
1430264518.532,-110.03453
1430264518.548,-99.89267
1430264518.563,-90.4139
1430264518.579,-81.73376
1430264518.594,-73.81195
1430264518.61,-66.44632
1430264518.626,-59.367523
1430264518.641,-52.369255
1430264518.657,-45.422363
1430264518.673,-38.68953
1430264518.688,-32.44084
1430264518.704,-27.0331
1430264518.72,-22.525223
1430264518.735,-18.780437
1430264518.751,-15.49585
1430264518.766,-12.351379
1430264518.782,-9.1133995
1430264518.798,-5.803566
1430264518.813,-2.7010155
1430264518.829,-0.23979187
1430264518.844,1.1512413
1430264518.86,1.3286247
1430264518.876,0.47800064
1430264518.891,-0.93247986
1430264518.907,-2.317894
1430264518.923,-3.2317924
1430264518.938,-3.4816628
1430264518.954,-3.1300926
1430264518.97,-2.3711548
1430264518.985,-1.4075241
1430264519.001,-0.32730103
1430264519.016,0.80833054
1430264519.032,1.950882
1430264519.048,2.9805489
1430264519.063,3.7712326
1430264519.079,4.243286
1430264519.095,4.406708
1430264519.11,4.362236
1430264519.126,4.2428207
1430264519.141,4.1302986
1430264519.157,4.028122
1430264519.173,3.8773842
1430264519.188,3.6172142
1430264519.204,3.201538
1430264519.22,2.6705399
1430264519.235,2.1252403
1430264519.251,1.7145844
1430264519.266,1.5670776
1430264519.282,1.7522926
1430264519.298,2.2111855
1430264519.313,2.8127518
1430264519.329,3.3905125
1430264519.345,3.8030949
1430264519.36,3.9752655
1430264519.376,3.9170284
1430264519.391,3.6804638
1430264519.407,3.3249989
1430264519.423,2.9102345
1430264519.438,2.4901352
1430264519.454,2.1242008
1430264519.47,1.8866158
1430264519.485,1.8222141
1430264519.501,1.9492664
1430264519.516,2.2085629
1430264519.532,2.5120964
1430264519.548,2.7537308
1430264519.563,2.8787098
1430264519.579,2.8710155
1430264519.595,2.7635822
1430264519.61,2.6010818
1430264519.626,2.460432
1430264519.641,2.396389
1430264519.657,2.451332
1430264519.673,2.603794
1430264519.688,2.7939663
1430264519.704,2.924097
1430264519.72,2.9301014
1430264519.735,2.7972794
1430264519.751,2.576805
1430264519.766,2.3630772
1430264519.782,2.2631893
1430264519.798,2.3429222
1430264519.813,2.6264935
1430264519.829,3.0714798
1430264519.845,3.5555172
1430264519.86,3.8462849
1430264519.876,3.681984
1430264519.891,2.849266
1430264519.907,1.2805271
1430264519.923,-0.8746128
1430264519.938,-3.2521152
1430264519.954,-5.410822
1430264519.97,-6.949251
1430264519.985,-7.6556263
1430264520.001,-7.5238075
1430264520.016,-6.732624
1430264520.032,-5.549797
1430264520.048,-4.255451
1430264520.063,-3.074747
1430264520.079,-2.1375084
1430264520.095,-1.4517059
1430264520.11,-0.954195
1430264520.126,-0.5356693
1430264520.141,-0.13969803
1430264520.157,0.24603844
1430264520.173,0.5497837
1430264520.188,0.7036743
1430264520.204,0.70105743
1430264520.22,0.643837
1430264520.235,0.6725445
1430264520.251,0.91002846
1430264520.266,1.3118896
1430264520.282,1.7343807
1430264520.298,1.9571133
1430264520.313,1.8379059
1430264520.329,1.3876591
1430264520.345,0.79530525
1430264520.36,0.31719017
1430264520.376,0.17642975
1430264520.391,0.45326614
1430264520.407,1.0455513
1430264520.423,1.7276039
1430264520.438,2.277069
1430264520.454,2.556799
1430264520.47,2.6193237
1430264520.485,2.6256104
1430264520.501,2.7685614
1430264520.516,3.1384964
1430264520.532,3.690342
1430264520.548,4.2185726
1430264520.563,4.516205
1430264520.579,4.456789
1430264520.595,4.092989
1430264520.61,3.6212559
1430264520.626,3.2933006
1430264520.641,3.264248
1430264520.657,3.518755
1430264520.673,3.8864365
1430264520.688,4.163498
1430264520.704,4.219145
1430264520.72,4.0890656
1430264520.735,3.9063835
1430264520.751,3.824707
1430264520.766,3.8815632
1430264520.782,4.0254
1430264520.798,4.11957
1430264520.813,4.114094
1430264520.829,3.9928799
1430264520.845,3.8005104
1430264520.86,3.4686985
1430264520.876,2.8012562
1430264520.891,1.5403004
1430264520.907,-0.500967
1430264520.923,-3.2296162
1430264520.938,-6.2538147
1430264520.954,-9.026672
1430264520.97,-11.046265
1430264520.985,-12.09078
1430264521.001,-12.26302
1430264521.016,-11.875387
1430264521.032,-11.242775
1430264521.048,-10.59207
1430264521.063,-9.975533
1430264521.079,-9.385964
1430264521.095,-8.8091345
1430264521.11,-8.303134
1430264521.126,-7.9286966
1430264521.141,-7.7136526
1430264521.157,-7.613801
1430264521.173,-7.5637197
1430264521.188,-7.4690237
1430264521.204,-7.3004723
1430264521.22,-7.0565004
1430264521.235,-6.8004065
1430264521.251,-6.567252
1430264521.266,-6.366452
1430264521.282,-6.1632414
1430264521.298,-5.8849096
1430264521.313,-5.4082117
1430264521.329,-4.6397047
1430264521.345,-3.5305061
1430264521.36,-2.0690165
1430264521.376,-0.35178947
1430264521.391,1.456171
1430264521.407,3.1657076
1430264521.423,4.6318607
1430264521.438,5.7803392
1430264521.454,6.617383
1430264521.47,7.218234
1430264521.485,7.6522818
1430264521.501,7.9794445
1430264521.516,8.23468
1430264521.532,8.425919
1430264521.548,8.551538
1430264521.563,8.589317
1430264521.579,8.480852
1430264521.595,8.182579
1430264521.61,7.678925
1430264521.626,7.0255227
1430264521.642,6.3431954
1430264521.657,5.788311
1430264521.673,5.464983
1430264521.688,5.3903003
1430264521.704,5.470436
1430264521.72,5.568654
1430264521.735,5.5322914
1430264521.751,5.2975388
1430264521.767,4.891965
1430264521.782,4.4195423
1430264521.798,4.0089946
1430264521.813,3.775912
1430264521.829,3.7868242
1430264521.845,4.0724316
1430264521.86,4.5392237
1430264521.876,4.9873037
1430264521.892,5.1012945
1430264521.907,4.5380306
1430264521.923,3.0553029
1430264521.938,0.6458267
1430264521.954,-2.4191685
1430264521.97,-5.6121936
1430264521.985,-8.331921
1430264522.001,-10.081901
1430264522.017,-10.64002
1430264522.032,-10.098789
1430264522.048,-8.789715
1430264522.063,-7.1274657
1430264522.079,-5.4851933
1430264522.095,-4.083731
1430264522.11,-3.0007777
1430264522.126,-2.1887143
1430264522.142,-1.5860789
1430264522.157,-1.1330909
1430264522.173,-0.8120067
1430264522.188,-0.60713077
1430264522.204,-0.52317303
1430264522.22,-0.5399538
1430264522.235,-0.6611917
1430264522.251,-0.8858892
1430264522.267,-1.2357349
1430264522.282,-1.7281362
1430264522.298,-2.375646
1430264522.313,-3.1572866
1430264522.329,-4.047886
1430264522.345,-4.9323416
1430264522.36,-5.7037754
1430264522.376,-6.272428
1430264522.392,-6.5879946
1430264522.407,-6.6147475
1430264522.423,-6.3715653
1430264522.438,-5.891086
1430264522.454,-5.237797
1430264522.47,-4.4906554
1430264522.485,-3.7262697
1430264522.501,-2.989471
1430264522.517,-2.2983441
1430264522.532,-1.6342249
1430264522.548,-0.9610691
1430264522.563,-0.23481083
1430264522.579,0.5613103
1430264522.595,1.4495063
1430264522.61,2.4153223
1430264522.626,3.4504118
1430264522.642,4.5075793
1430264522.657,5.5304966
1430264522.673,6.465156
1430264522.688,7.313508
1430264522.704,8.119522
1430264522.72,8.989928
1430264522.735,10.02415
1430264522.751,11.273951
1430264522.767,12.690527
1430264522.782,14.141192
1430264522.798,15.457755
1430264522.813,16.531721
1430264522.829,17.365932
1430264522.845,18.100124
1430264522.86,18.975727
1430264522.876,20.259863
1430264522.892,22.109404
1430264522.907,24.49339
1430264522.923,27.11277
1430264522.938,29.421627
1430264522.954,30.74594
1430264522.97,30.47147
1430264522.985,28.234211
1430264523.001,24.050093
1430264523.017,18.310102
1430264523.032,11.654225
1430264523.048,4.7838116
1430264523.063,-1.6999938
1430264523.079,-7.3944526
1430264523.095,-12.089062
1430264523.11,-15.716513
1430264523.126,-18.304016
1430264523.142,-19.939459
1430264523.157,-20.756256
1430264523.173,-20.934986
1430264523.188,-20.654488
1430264523.204,-20.075447
1430264523.22,-19.334496
1430264523.235,-18.535202
1430264523.251,-17.763393
1430264523.267,-17.080343
1430264523.282,-16.498264
1430264523.298,-15.987317
1430264523.313,-15.498104
1430264523.329,-15.002814
1430264523.345,-14.549997
1430264523.36,-14.26251
1430264523.376,-14.259287
1430264523.392,-14.596817
1430264523.407,-15.17507
1430264523.423,-15.749482
1430264523.438,-16.035297
1430264523.454,-15.809365
1430264523.47,-15.02239
1430264523.485,-13.811512
1430264523.501,-12.4050865
1430264523.517,-11.02127
1430264523.532,-9.774077
1430264523.548,-8.671206
1430264523.563,-7.665618
1430264523.579,-6.7348194
1430264523.595,-5.912819
1430264523.61,-5.242054
1430264523.626,-4.7223854
1430264523.642,-4.263603
1430264523.657,-3.694419
1430264523.673,-2.849894
1430264523.688,-1.6258516
1430264523.704,-0.029833317
1430264523.72,1.8431172
1430264523.735,3.8588462
1430264523.751,5.8965178
1430264523.767,7.872301
1430264523.782,9.745977
1430264523.798,11.494683
1430264523.813,13.1014
1430264523.829,14.544717
1430264523.845,15.836718
1430264523.86,17.052868
1430264523.876,18.379074
1430264523.892,20.056738
1430264523.907,22.31448
1430264523.923,25.215973
1430264523.938,28.541061
1430264523.954,31.753006
1430264523.97,34.11065
1430264523.985,34.874985
1430264524.001,33.572792
1430264524.017,30.144545
1430264524.032,24.961048
1430264524.048,18.671108
1430264524.063,11.988831
1430264524.079,5.5056953
1430264524.095,-0.3768282
1430264524.11,-5.4557986
1430264524.126,-9.648041
1430264524.142,-12.933956
1430264524.157,-15.309599
1430264524.173,-16.805927
1430264524.188,-17.486706
1430264524.204,-17.483633
1430264524.22,-16.979286
1430264524.235,-16.197794
1430264524.251,-15.361157
1430264524.267,-14.649084
1430264524.282,-14.152752
1430264524.298,-13.89087
1430264524.314,-13.798684
1430264524.329,-13.795222
1430264524.345,-13.810326
1430264524.36,-13.805502
1430264524.376,-13.7655945
1430264524.392,-13.680836
1430264524.407,-13.526035
1430264524.423,-13.274068
1430264524.439,-12.911038
1430264524.454,-12.451774
1430264524.47,-11.917296
1430264524.485,-11.322367
1430264524.501,-10.644966
1430264524.517,-9.853558
1430264524.532,-8.923297
1430264524.548,-7.8502073
1430264524.564,-6.6431713
1430264524.579,-5.31997
1430264524.595,-3.870367
1430264524.61,-2.3011446
1430264524.626,-0.63962936
1430264524.642,1.0389042
1430264524.657,2.640213
1430264524.673,4.097498
1430264524.689,5.431078
1430264524.704,6.726013
1430264524.72,8.108152
1430264524.735,9.647485
1430264524.751,11.312012
1430264524.767,12.97517
1430264524.782,14.51159
1430264524.798,15.862228
1430264524.814,17.109074
1430264524.829,18.455736
1430264524.845,20.158007
1430264524.86,22.421978
1430264524.876,25.27599
1430264524.892,28.471916
1430264524.907,31.490335
1430264524.923,33.584328
1430264524.939,34.015488
1430264524.954,32.25758
1430264524.97,28.245983
1430264524.985,22.386967
1430264525.001,15.451114
1430264525.017,8.308627
1430264525.032,1.6792746
1430264525.048,-4.0125675
1430264525.064,-8.630292
1430264525.079,-12.222251
1430264525.095,-14.888685
1430264525.11,-16.733292
1430264525.126,-17.845335
1430264525.142,-18.346264
1430264525.157,-18.380447
1430264525.173,-18.088764
1430264525.189,-17.594236
1430264525.204,-16.989704
1430264525.22,-16.356203
1430264525.235,-15.801399
1430264525.251,-15.455187
1430264525.267,-15.443432
1430264525.282,-15.825848
1430264525.298,-16.588663
1430264525.314,-17.606026
1430264525.329,-18.712341
1430264525.345,-19.710247
1430264525.36,-20.40811
1430264525.376,-20.640116
1430264525.392,-20.30404
1430264525.407,-19.389627
1430264525.423,-18.014177
1430264525.439,-16.378942
1430264525.454,-14.725794
1430264525.47,-13.212032
1430264525.485,-11.861603
1430264525.501,-10.559504
1430264525.517,-9.134476
1430264525.532,-7.4592247
1430264525.548,-5.5301876
1430264525.564,-3.4460258
1430264525.579,-1.355999
1430264525.595,0.632534
1430264525.61,2.4808064
1430264525.626,4.214015
1430264525.642,5.8609524
1430264525.657,7.4357986
1430264525.673,8.936283
1430264525.689,10.36404
1430264525.704,11.743715
1430264525.72,13.12856
1430264525.735,14.560318
1430264525.751,16.05774
1430264525.767,17.607105
1430264525.782,19.18456
1430264525.798,20.785896
1430264525.814,22.474487
1430264525.829,24.367548
1430264525.845,26.623823
1430264525.86,29.328735
1430264525.876,32.38475
1430264525.892,35.409775
1430264525.907,37.76258
1430264525.923,38.676575
1430264525.939,37.529648
1430264525.954,34.071247
1430264525.97,28.555988
1430264525.985,21.645061
1430264526.001,14.198417
1430264526.017,6.978469
1430264526.032,0.49755478
1430264526.048,-5.0211945
1430264526.064,-9.542862
1430264526.079,-13.113955
1430264526.095,-15.781286
1430264526.11,-17.604456
1430264526.126,-18.675636
1430264526.142,-19.149986
1430264526.157,-19.224867
1430264526.173,-19.12976
1430264526.189,-19.038235
1430264526.204,-19.053259
1430264526.22,-19.154493
1430264526.235,-19.239595
1430264526.251,-19.172478
1430264526.267,-18.881628
1430264526.282,-18.410275
1430264526.298,-17.902893
1430264526.314,-17.533457
1430264526.329,-17.407183
1430264526.345,-17.475006
1430264526.36,-17.591284
1430264526.376,-17.583023
1430264526.392,-17.362906
1430264526.407,-16.954699
1430264526.423,-16.444113
1430264526.439,-15.893557
1430264526.454,-15.273798
1430264526.47,-14.488831
1430264526.485,-13.462168
1430264526.501,-12.179785
1430264526.517,-10.720411
1430264526.532,-9.198854
1430264526.548,-7.7186947
1430264526.564,-6.335104
1430264526.579,-5.0627766
1430264526.595,-3.8827152
1430264526.61,-2.762144
1430264526.626,-1.675396
1430264526.642,-0.5940609
1430264526.657,0.50967026
1430264526.673,1.649929
1430264526.689,2.8227673
1430264526.704,4.002758
1430264526.72,5.1758556
1430264526.735,6.3418293
1430264526.751,7.546977
1430264526.767,8.836971
1430264526.782,10.252546
1430264526.798,11.796248
1430264526.814,13.42438
1430264526.829,15.068988
1430264526.845,16.668394
1430264526.86,18.19034
1430264526.876,19.674309
1430264526.892,21.249699
1430264526.907,23.112995
1430264526.923,25.441542
1430264526.939,28.287422
1430264526.954,31.456018
1430264526.97,34.50181
1430264526.986,36.778942
1430264527.001,37.622417
1430264527.017,36.53298
1430264527.032,33.34293
1430264527.048,28.262222
1430264527.064,21.829597
1430264527.079,14.746625
1430264527.095,7.685158
1430264527.11,1.1637688
1430264527.126,-4.5218725
1430264527.142,-9.277945
1430264527.157,-13.116088
1430264527.173,-16.089905
1430264527.189,-18.234911
1430264527.204,-19.598196
1430264527.22,-20.241772
1430264527.236,-20.319487
1430264527.251,-20.02414
1430264527.267,-19.571373
1430264527.282,-19.114525
1430264527.298,-18.735596
1430264527.314,-18.44319
1430264527.329,-18.198723
1430264527.345,-17.96569
1430264527.361,-17.732948
1430264527.376,-17.519978
1430264527.392,-17.360199
1430264527.407,-17.287832
1430264527.423,-17.320282
1430264527.439,-17.43804
1430264527.454,-17.583372
1430264527.47,-17.651623
1430264527.486,-17.518646
1430264527.501,-17.076653
1430264527.517,-16.310137
1430264527.532,-15.291298
1430264527.548,-14.168667
1430264527.564,-13.094664
1430264527.579,-12.151585
1430264527.595,-11.32333
1430264527.611,-10.50659
1430264527.626,-9.587774
1430264527.642,-8.507877
1430264527.657,-7.28627
1430264527.673,-6.021571
1430264527.689,-4.799039
1430264527.704,-3.6771555
1430264527.72,-2.6139584
1430264527.736,-1.5480375
1430264527.751,-0.4193821
1430264527.767,0.7689371
1430264527.782,1.9587936
1430264527.798,3.055313
1430264527.814,3.991768
1430264527.829,4.761657
1430264527.845,5.436416
1430264527.861,6.1422286
1430264527.876,7.0265403
1430264527.892,8.195492
1430264527.907,9.688007
1430264527.923,11.440898
1430264527.939,13.338453
1430264527.954,15.208894
1430264527.97,16.907263
1430264527.986,18.336016
1430264528.001,19.520319
1430264528.017,20.585524
1430264528.032,21.758572
1430264528.048,23.299961
1430264528.064,25.395744
1430264528.079,28.057402
1430264528.095,31.007017
1430264528.111,33.694355
1430264528.126,35.381554
1430264528.142,35.371647
1430264528.157,33.252934
1430264528.173,29.032154
1430264528.189,23.173218
1430264528.204,16.39684
1430264528.22,9.497214
1430264528.236,3.0839415
1430264528.251,-2.479116
1430264528.267,-7.077972
1430264528.282,-10.736917
1430264528.298,-13.532362
1430264528.314,-15.528662
1430264528.329,-16.780622
1430264528.345,-17.370518
1430264528.361,-17.41569
1430264528.376,-17.081097
1430264528.392,-16.548822
1430264528.407,-15.975827
1430264528.423,-15.501003
1430264528.439,-15.190174
1430264528.454,-15.057369
1430264528.47,-15.033183
1430264528.486,-15.03658
1430264528.501,-14.99205
1430264528.517,-14.901446
1430264528.532,-14.809687
1430264528.548,-14.782366
1430264528.564,-14.841678
1430264528.579,-14.938622
1430264528.595,-14.968727
1430264528.611,-14.841149
1430264528.626,-14.500332
1430264528.642,-13.958175
1430264528.657,-13.234529
1430264528.673,-12.357052
1430264528.689,-11.320802
1430264528.704,-10.141274
1430264528.72,-8.8683815
1430264528.736,-7.604623
1430264528.751,-6.441786
1430264528.767,-5.409053
1430264528.782,-4.4413013
1430264528.798,-3.4002366
1430264528.814,-2.1655166
1430264528.829,-0.72962284
1430264528.845,0.7889359
1430264528.861,2.2102857
1430264528.876,3.3973575
1430264528.892,4.3351793
1430264528.907,5.1594086
1430264528.923,6.0495543
1430264528.939,7.154284
1430264528.954,8.498734
1430264528.97,10.001888
1430264528.986,11.51324
1430264529.001,12.926165
1430264529.017,14.189243
1430264529.032,15.337662
1430264529.048,16.437565
1430264529.064,17.570639
1430264529.079,18.817347
1430264529.095,20.310234
1430264529.111,22.183514
1430264529.126,24.515345
1430264529.142,27.204361
1430264529.157,29.88376
1430264529.173,31.953482
1430264529.189,32.744843
1430264529.204,31.747564
1430264529.22,28.795227
1430264529.236,24.120369
1430264529.251,18.276176
1430264529.267,11.946041
1430264529.282,5.753726
1430264529.298,0.12958431
1430264529.314,-4.7085896
1430264529.329,-8.729954
1430264529.345,-11.994897
1430264529.361,-14.581681
1430264529.376,-16.532814
1430264529.392,-17.839924
1430264529.407,-18.467094
1430264529.423,-18.438234
1430264529.439,-17.862095
1430264529.454,-16.956995
1430264529.47,-15.982998
1430264529.486,-15.168063
1430264529.501,-14.631593
1430264529.517,-14.383837
1430264529.532,-14.35845
1430264529.548,-14.474167
1430264529.564,-14.675835
1430264529.579,-14.930896
1430264529.595,-15.201464
1430264529.611,-15.43129
1430264529.626,-15.549578
1430264529.642,-15.497137
1430264529.658,-15.245502
1430264529.673,-14.804639
1430264529.689,-14.200506
1430264529.704,-13.458664
1430264529.72,-12.577158
1430264529.736,-11.567622
1430264529.751,-10.45055
1430264529.767,-9.280661
1430264529.782,-8.11019
1430264529.798,-6.9804716
1430264529.814,-5.9111443
1430264529.829,-4.9053383
1430264529.845,-3.9437418
1430264529.861,-2.9842854
1430264529.876,-1.9792423
1430264529.892,-0.8766651
1430264529.908,0.34831715
1430264529.923,1.6697216
1430264529.939,3.0403643
1430264529.954,4.406884
1430264529.97,5.7554064
1430264529.986,7.117918
1430264530.001,8.547715
1430264530.017,10.0539875
1430264530.033,11.60981
1430264530.048,13.13091
1430264530.064,14.539834
1430264530.079,15.79917
1430264530.095,16.937405
1430264530.111,18.045858
1430264530.126,19.252165
1430264530.142,20.700226
1430264530.158,22.539312
1430264530.173,24.870592
1430264530.189,27.692842
1430264530.204,30.793972
1430264530.22,33.70636
1430264530.236,35.763638
1430264530.251,36.28692
1430264530.267,34.803524
1430264530.283,31.247826
1430264530.298,25.984173
1430264530.314,19.683165
1430264530.329,13.086995
1430264530.345,6.801175
1430264530.361,1.1563425
1430264530.376,-3.7605276
1430264530.392,-7.991561
1430264530.408,-11.567275
1430264530.423,-14.468778
1430264530.439,-16.614845
1430264530.454,-17.979198
1430264530.47,-18.647251
1430264530.486,-18.816406
1430264530.501,-18.724833
1430264530.517,-18.564556
1430264530.533,-18.405222
1430264530.548,-18.227304
1430264530.564,-17.969688
1430264530.579,-17.61044
1430264530.595,-17.19384
1430264530.611,-16.81165
1430264530.626,-16.55259
1430264530.642,-16.45874
1430264530.658,-16.500443
1430264530.673,-16.606602
1430264530.689,-16.688503
1430264530.704,-16.670794
1430264530.72,-16.498055
1430264530.736,-16.152481
1430264530.751,-15.628168
1430264530.767,-14.95438
1430264530.783,-14.157056
1430264530.798,-13.27217
1430264530.814,-12.320887
1430264530.829,-11.327284
1430264530.845,-10.311291
1430264530.861,-9.292551
1430264530.876,-8.282647
1430264530.892,-7.2836647
1430264530.908,-6.270214
1430264530.923,-5.227312
1430264530.939,-4.1425524
1430264530.954,-3.028718
1430264530.97,-1.9083195
1430264530.986,-0.8021803
1430264531.001,0.30500984
1430264531.017,1.4243927
1430264531.033,2.5603733
1430264531.048,3.666401
1430264531.064,4.667391
1430264531.079,5.5101986
1430264531.095,6.211464
1430264531.111,6.8740253
1430264531.126,7.658148
1430264531.142,8.699999
1430264531.158,10.063826
1430264531.173,11.708569
1430264531.189,13.530413
1430264531.204,15.402987
1430264531.22,17.231033
1430264531.236,18.940386
1430264531.251,20.518013
1430264531.267,22.001932
1430264531.283,23.521046
1430264531.298,25.260313
1430264531.314,27.388636
1430264531.329,29.921618
1430264531.345,32.58023
1430264531.361,34.79312
1430264531.376,35.82325
1430264531.392,35.043346
1430264531.408,32.17559
1430264531.423,27.407204
1430264531.439,21.304045
1430264531.454,14.57966
1430264531.47,7.902199
1430264531.486,1.7291164
1430264531.501,-3.6578217
1430264531.517,-8.126825
1430264531.533,-11.602882
1430264531.548,-14.096727
1430264531.564,-15.687248
1430264531.579,-16.541454
1430264531.595,-16.880495
1430264531.611,-16.93126
1430264531.626,-16.863382
1430264531.642,-16.777407
1430264531.658,-16.712814
1430264531.673,-16.652523
1430264531.689,-16.561127
1430264531.704,-16.395906
1430264531.72,-16.140448
1430264531.736,-15.834654
1430264531.751,-15.583571
1430264531.767,-15.529469
1430264531.783,-15.758125
1430264531.798,-16.247322
1430264531.814,-16.816334
1430264531.829,-17.226688
1430264531.845,-17.259674
1430264531.861,-16.831722
1430264531.876,-16.019608
1430264531.892,-14.99622
1430264531.908,-13.942495
1430264531.923,-12.965879
1430264531.939,-12.070629
1430264531.954,-11.197192
1430264531.97,-10.2800045
1430264531.986,-9.301391
1430264532.001,-8.303856
1430264532.017,-7.352111
1430264532.033,-6.4914494
1430264532.048,-5.7294292
1430264532.064,-5.0292664
1430264532.079,-4.348131
1430264532.095,-3.6173992
1430264532.111,-2.786169
1430264532.126,-1.7823315
1430264532.142,-0.584898
1430264532.158,0.78354263
1430264532.173,2.213894
1430264532.189,3.5548153
1430264532.204,4.6904907
1430264532.22,5.6073666
1430264532.236,6.4235992
1430264532.251,7.3330936
1430264532.267,8.506376
1430264532.283,9.980368
1430264532.298,11.652832
1430264532.314,13.339394
1430264532.329,14.879162
1430264532.345,16.240139
1430264532.361,17.500483
1430264532.376,18.801992
1430264532.392,20.26527
1430264532.408,21.96132
1430264532.423,23.909397
1430264532.439,26.10424
1430264532.454,28.458782
1430264532.47,30.756117
1430264532.486,32.601402
1430264532.501,33.45627
1430264532.517,32.781708
1430264532.533,30.249704
1430264532.548,25.895576
1430264532.564,20.140303
1430264532.58,13.660349
1430264532.595,7.1855106
1430264532.611,1.280365
1430264532.626,-3.7268143
1430264532.642,-7.7651157
1430264532.658,-10.88829
1430264532.673,-13.205507
1430264532.689,-14.80578
1430264532.705,-15.777992
1430264532.72,-16.209013
1430264532.736,-16.229067
1430264532.751,-15.995031
1430264532.767,-15.659573
1430264532.783,-15.349112
1430264532.798,-15.124786
1430264532.814,-14.991169
1430264532.83,-14.905701
1430264532.845,-14.820892
1430264532.861,-14.7107525
1430264532.876,-14.58342
1430264532.892,-14.467529
1430264532.908,-14.377771
1430264532.923,-14.306782
1430264532.939,-14.215441
1430264532.955,-14.064781
1430264532.97,-13.804932
1430264532.986,-13.434568
1430264533.001,-12.94562
1430264533.017,-12.357067
1430264533.033,-11.668837
1430264533.048,-10.871725
1430264533.064,-9.937365
1430264533.08,-8.83968
1430264533.095,-7.556986
1430264533.111,-6.1061287
1430264533.126,-4.5282364
1430264533.142,-2.9041424
1430264533.158,-1.334631
1430264533.173,0.07783127
1430264533.189,1.2681732
1430264533.205,2.2447548
1430264533.22,3.112877
1430264533.236,4.0352573
1430264533.251,5.1671124
1430264533.267,6.5725937
1430264533.283,8.207359
1430264533.298,9.928928
1430264533.314,11.575708
1430264533.33,13.047415
1430264533.345,14.36787
1430264533.361,15.661085
1430264533.376,17.099031
1430264533.392,18.813684
1430264533.408,20.859385
1430264533.423,23.203945
1430264533.439,25.73117
1430264533.455,28.224995
1430264533.47,30.368858
1430264533.486,31.720787
1430264533.501,31.78599
1430264533.517,30.147781
1430264533.533,26.648827
1430264533.548,21.47483
1430264533.564,15.188074
1430264533.58,8.529074
1430264533.595,2.2391262
1430264533.611,-3.1727781
1430264533.626,-7.4855375
1430264533.642,-10.769998
1430264533.658,-13.233167
1430264533.673,-15.107583
1430264533.689,-16.553425
1430264533.705,-17.642653
1430264533.72,-18.391785
1430264533.736,-18.817738
1430264533.751,-18.947561
1430264533.767,-18.847393
1430264533.783,-18.579325
1430264533.798,-18.196129
1430264533.814,-17.735966
1430264533.83,-17.232986
1430264533.845,-16.713924
1430264533.861,-16.222206
1430264533.876,-15.795247
1430264533.892,-15.475937
1430264533.908,-15.283696
1430264533.923,-15.225285
1430264533.939,-15.25917
1430264533.955,-15.303221
1430264533.97,-15.239585
1430264533.986,-14.9479685
1430264534.001,-14.348176
1430264534.017,-13.446364
1430264534.033,-12.330498
1430264534.048,-11.1458235
1430264534.064,-10.014596
1430264534.08,-8.997371
1430264534.095,-8.050604
1430264534.111,-7.087988
1430264534.126,-6.0141916
1430264534.142,-4.8082294
1430264534.158,-3.5134325
1430264534.173,-2.2304554
1430264534.189,-1.0389862
1430264534.205,0.02560711
1430264534.22,1.0004053
1430264534.236,1.9503078
1430264534.251,2.9378538
1430264534.267,3.9812489
1430264534.283,5.0857544
1430264534.298,6.2605095
1430264534.314,7.5467663
1430264534.33,9.002569
1430264534.345,10.663019
1430264534.361,12.484795
1430264534.376,14.355537
1430264534.392,16.117937
1430264534.408,17.651783
1430264534.423,18.933922
1430264534.439,20.070553
1430264534.455,21.253317
1430264534.47,22.708231
1430264534.486,24.583614
1430264534.501,26.902279
1430264534.517,29.50044
1430264534.533,32.029945
1430264534.548,33.989037
1430264534.564,34.82717
1430264534.58,34.070015
1430264534.595,31.479088
1430264534.611,27.123512
1430264534.626,21.373404
1430264534.642,14.808798
1430264534.658,8.078733
1430264534.673,1.7273998
1430264534.689,-3.8435116
1430264534.705,-8.440479
1430264534.72,-12.0230665
1430264534.736,-14.668794
1430264534.751,-16.502422
1430264534.767,-17.680813
1430264534.783,-18.348476
1430264534.798,-18.628431
1430264534.814,-18.613218
1430264534.83,-18.372099
1430264534.845,-17.961681
1430264534.861,-17.475298
1430264534.876,-17.012108
1430264534.892,-16.67035
1430264534.908,-16.488691
1430264534.923,-16.442757
1430264534.939,-16.45768
1430264534.955,-16.461151
1430264534.97,-16.420395
1430264534.986,-16.363628
1430264535.001,-16.337727
1430264535.017,-16.368973
1430264535.033,-16.398252
1430264535.048,-16.31763
1430264535.064,-15.997252
1430264535.08,-15.378913
1430264535.095,-14.503003
1430264535.111,-13.487168
1430264535.126,-12.461656
1430264535.142,-11.510624
1430264535.158,-10.616362
1430264535.173,-9.717501
1430264535.189,-8.731434
1430264535.205,-7.621422
1430264535.22,-6.4042873
1430264535.236,-5.148143
1430264535.252,-3.9184847
1430264535.267,-2.7693768
1430264535.283,-1.7066803
1430264535.298,-0.690691
1430264535.314,0.3415203
1430264535.33,1.4230328
1430264535.345,2.5530815
1430264535.361,3.6642895
1430264535.377,4.694557
1430264535.392,5.6020107
1430264535.408,6.4318123
1430264535.423,7.310608
1430264535.439,8.386057
1430264535.455,9.761724
1430264535.47,11.408422
1430264535.486,13.165974
1430264535.502,14.817192
1430264535.517,16.192724
1430264535.533,17.27345
1430264535.548,18.182095
1430264535.564,19.140186
1430264535.58,20.345188
1430264535.595,21.932606
1430264535.611,23.949993
1430264535.627,26.377605
1430264535.642,29.097822
1430264535.658,31.879292
1430264535.673,34.30863
1430264535.689,35.813744
1430264535.705,35.788597
1430264535.72,33.79628
1430264535.736,29.743298
1430264535.752,23.97942
1430264535.767,17.189774
1430264535.783,10.184511
1430264535.798,3.6395779
1430264535.814,-2.0343685
1430264535.83,-6.717787
1430264535.845,-10.45895
1430264535.861,-13.379766
1430264535.877,-15.558826
1430264535.892,-17.059063
1430264535.908,-17.935684
1430264535.923,-18.284122
1430264535.939,-18.228025
1430264535.955,-17.914797
1430264535.97,-17.456821
1430264535.986,-16.942226
1430264536.002,-16.41338
1430264536.017,-15.914899
1430264536.033,-15.471131
1430264536.048,-15.139084
1430264536.064,-14.979484
1430264536.08,-15.049535
1430264536.095,-15.370392
1430264536.111,-15.882922
1430264536.127,-16.441164
1430264536.142,-16.84209
1430264536.158,-16.889849
1430264536.173,-16.483421
1430264536.189,-15.660865
1430264536.205,-14.599975
1430264536.22,-13.518819
1430264536.236,-12.607412
1430264536.252,-11.926
1430264536.267,-11.404574
1430264536.283,-10.881671
1430264536.298,-10.203136
1430264536.314,-9.281755
1430264536.33,-8.122615
1430264536.345,-6.813058
1430264536.361,-5.4661045
1430264536.377,-4.166422
1430264536.392,-2.9520855
1430264536.408,-1.7941513
1430264536.423,-0.66171646
1430264536.439,0.48169613
1430264536.455,1.6230526
1430264536.47,2.724368
1430264536.486,3.7330074
1430264536.502,4.648654
1430264536.517,5.5075197
1430264536.533,6.4131174
1430264536.548,7.462734
1430264536.564,8.728393
1430264536.58,10.196747
1430264536.595,11.789309
1430264536.611,13.395447
1430264536.627,14.921036
1430264536.642,16.337944
1430264536.658,17.699703
1430264536.673,19.11139
1430264536.689,20.7351
1430264536.705,22.69569
1430264536.72,25.052431
1430264536.736,27.714481
1430264536.752,30.41645
1430264536.767,32.686676
1430264536.783,33.942326
1430264536.798,33.622757
1430264536.814,31.376556
1430264536.83,27.197632
1430264536.845,21.464611
1430264536.861,14.834721
1430264536.877,8.053352
1430264536.892,1.7526274
1430264536.908,-3.6750164
1430264536.923,-8.081303
1430264536.939,-11.487844
1430264536.955,-13.980918
1430264536.97,-15.6395445
1430264536.986,-16.561787
1430264537.002,-16.880728
1430264537.017,-16.790428
1430264537.033,-16.50055
1430264537.048,-16.174236
1430264537.064,-15.853098
1430264537.08,-15.470627
1430264537.095,-14.93
1430264537.111,-14.212944
1430264537.127,-13.435666
1430264537.142,-12.813983
1430264537.158,-12.565238
1430264537.173,-12.804175
1430264537.189,-13.466261
1430264537.205,-14.328837
1430264537.22,-15.106337
1430264537.236,-15.560514
1430264537.252,-15.560818
1430264537.267,-15.108252
1430264537.283,-14.295164
1430264537.298,-13.262703
1430264537.314,-12.153214
1430264537.33,-11.082763
1430264537.345,-10.117261
1430264537.361,-9.257973
1430264537.377,-8.4501095
1430264537.392,-7.59996
1430264537.408,-6.612352
1430264537.423,-5.3987193
1430264537.439,-3.936107
1430264537.455,-2.2607796
1430264537.47,-0.4646064
1430264537.486,1.3123155
1430264537.502,2.9451156
1430264537.517,4.36844
1430264537.533,5.6020784
1430264537.548,6.7355967
1430264537.564,7.887082
1430264537.58,9.163592
1430264537.595,10.603434
1430264537.611,12.15914
1430264537.627,13.745602
1430264537.642,15.258406
1430264537.658,16.666264
1430264537.673,18.014006
1430264537.689,19.444874
1430264537.705,21.12073
1430264537.72,23.183043
1430264537.736,25.645767
1430264537.752,28.335194
1430264537.767,30.869162
1430264537.783,32.711823
1430264537.798,33.283733
1430264537.814,32.14054
1430264537.83,29.086847
1430264537.845,24.274178
1430264537.861,18.1673
1430264537.877,11.436167
1430264537.892,4.760914
1430264537.908,-1.3107367
1430264537.924,-6.4996347
1430264537.939,-10.75062
1430264537.955,-14.152882
1430264537.97,-16.787252
1430264537.986,-18.691166
1430264538.002,-19.83568
1430264538.017,-20.225063
1430264538.033,-19.9561
1430264538.049,-19.225842
1430264538.064,-18.287098
1430264538.08,-17.364449
1430264538.095,-16.593967
1430264538.111,-16.034569
1430264538.127,-15.687785
1430264538.142,-15.558059
1430264538.158,-15.640661
1430264538.174,-15.920918
1430264538.189,-16.319294
1430264538.205,-16.720453
1430264538.22,-16.993492
1430264538.236,-17.060116
1430264538.252,-16.908306
1430264538.267,-16.576767
1430264538.283,-16.091377
1430264538.299,-15.460636
1430264538.314,-14.672765
1430264538.33,-13.742073
1430264538.345,-12.722928
1430264538.361,-11.708319
1430264538.377,-10.749577
1430264538.392,-9.844953
1430264538.408,-8.889022
1430264538.424,-7.7382927
1430264538.439,-6.2646503
1430264538.455,-4.4600973
1430264538.47,-2.4310255
1430264538.486,-0.39301205
1430264538.502,1.4371881
1430264538.517,2.928011
1430264538.533,4.08819
1430264538.549,5.0518675
1430264538.564,6.026187
1430264538.58,7.178788
1430264538.595,8.602806
1430264538.611,10.279895
1430264538.627,12.127962
1430264538.642,14.023429
1430264538.658,15.873067
1430264538.674,17.617603
1430264538.689,19.25248
1430264538.705,20.816784
1430264538.72,22.388882
1430264538.736,24.09653
1430264538.752,26.113876
1430264538.767,28.562487
1430264538.783,31.45104
1430264538.799,34.523663
1430264538.814,37.2435
1430264538.83,38.867184
1430264538.845,38.66817
1430264538.861,36.168365
1430264538.877,31.365784
1430264538.892,24.74187
1430264538.908,17.125132
1430264538.924,9.408491
1430264538.939,2.3165398
1430264538.955,-3.7500877
1430264538.97,-8.687029
1430264538.986,-12.571493
1430264539.002,-15.529429
1430264539.017,-17.66035
1430264539.033,-19.041626
1430264539.049,-19.759232
1430264539.064,-19.938953
1430264539.08,-19.744617
1430264539.095,-19.337492
1430264539.111,-18.854752
1430264539.127,-18.388718
1430264539.142,-17.999395
1430264539.158,-17.71276
1430264539.174,-17.557795
1430264539.189,-17.53537
1430264539.205,-17.626657
1430264539.22,-17.779152
1430264539.236,-17.924253
1430264539.252,-17.9924
1430264539.267,-17.95931
1430264539.283,-17.82972
1430264539.299,-17.630215
1430264539.314,-17.380781
1430264539.33,-17.043182
1430264539.345,-16.53319
1430264539.361,-15.768339
1430264539.377,-14.719719
1430264539.392,-13.4746685
1430264539.408,-12.183466
1430264539.424,-10.987366
1430264539.439,-9.920433
1430264539.455,-8.894836
1430264539.47,-7.7381706
1430264539.486,-6.318384
1430264539.502,-4.6082
1430264539.517,-2.728775
1430264539.533,-0.8691902
1430264539.549,0.80327797
1430264539.564,2.2404213
1430264539.58,3.499792
1430264539.595,4.7199497
1430264539.611,6.0319366
1430264539.627,7.493061
1430264539.642,9.08169
1430264539.658,10.730114
1430264539.674,12.359312
1430264539.689,13.933512
1430264539.705,15.464607
1430264539.72,16.980804
1430264539.736,18.52432
1430264539.752,20.12832
1430264539.767,21.817945
1430264539.783,23.671684
1430264539.799,25.804974
1430264539.814,28.32903
1430264539.83,31.241066
1430264539.845,34.32204
1430264539.861,37.070805
1430264539.877,38.814804
1430264539.892,38.866386
1430264539.908,36.760834
1430264539.924,32.432655
1430264539.939,26.249577
1430264539.955,18.88972
1430264539.97,11.168018
1430264539.986,3.7982273
1430264540.002,-2.7318401
1430264540.017,-8.187883
1430264540.033,-12.526024
1430264540.049,-15.827465
1430264540.064,-18.203976
1430264540.08,-19.781656
1430264540.095,-20.67604
1430264540.111,-21.006832
1430264540.127,-20.894217
1430264540.142,-20.473034
1430264540.158,-19.86692
1430264540.174,-19.193768
1430264540.189,-18.566383
1430264540.205,-18.085411
1430264540.22,-17.83556
1430264540.236,-17.85506
1430264540.252,-18.11293
1430264540.267,-18.50719
1430264540.283,-18.902325
1430264540.299,-19.191963
1430264540.314,-19.320713
1430264540.33,-19.294968
1430264540.345,-19.119411
1430264540.361,-18.79351
1430264540.377,-18.271904
1430264540.392,-17.522736
1430264540.408,-16.550121
1430264540.424,-15.413071
1430264540.439,-14.202263
1430264540.455,-13.004189
1430264540.47,-11.848022
1430264540.486,-10.692467
1430264540.502,-9.482937
1430264540.517,-8.174255
1430264540.533,-6.777588
1430264540.549,-5.3463364
1430264540.564,-3.9365692
1430264540.58,-2.5748978
1430264540.596,-1.2526741
1430264540.611,0.050289154
1430264540.627,1.3541908
1430264540.642,2.637909
1430264540.658,3.8911095
1430264540.674,5.1107216
1430264540.689,6.3209496
1430264540.705,7.555401
1430264540.72,8.859676
1430264540.736,10.25746
1430264540.752,11.741791
1430264540.767,13.283024
1430264540.783,14.85265
1430264540.799,16.42985
1430264540.814,18.028378
1430264540.83,19.69562
1430264540.846,21.513735
1430264540.861,23.56539
1430264540.877,25.925526
1430264540.892,28.585056
1430264540.908,31.3973
1430264540.924,34.026688
1430264540.939,35.981773
1430264540.955,36.698967
1430264540.971,35.695618
1430264540.986,32.72908
1430264541.002,27.899769
1430264541.017,21.623867
1430264541.033,14.549126
1430264541.049,7.3694534
1430264541.064,0.69036865
1430264541.08,-5.093487
1430264541.096,-9.792141
1430264541.111,-13.401764
1430264541.127,-16.002472
1430264541.142,-17.732658
1430264541.158,-18.740685
1430264541.174,-19.17464
1430264541.189,-19.186405
1430264541.205,-18.935848
1430264541.221,-18.577068
1430264541.236,-18.234715
1430264541.252,-17.98117
1430264541.267,-17.811413
1430264541.283,-17.650524
1430264541.299,-17.413387
1430264541.314,-17.062664
1430264541.33,-16.664242
1430264541.346,-16.362614
1430264541.361,-16.317207
1430264541.377,-16.572506
1430264541.392,-16.990196
1430264541.408,-17.296116
1430264541.424,-17.197899
1430264541.439,-16.541672
1430264541.455,-15.40786
1430264541.471,-14.04076
1430264541.486,-12.732662
1430264541.502,-11.640945
1430264541.517,-10.735916
1430264541.533,-9.851231
1430264541.549,-8.805759
1430264541.564,-7.505615
1430264541.58,-6.0002136
1430264541.596,-4.418648
1430264541.611,-2.897419
1430264541.627,-1.5027924
1430264541.642,-0.23324203
1430264541.658,0.954525
1430264541.674,2.1076355
1430264541.689,3.2750816
1430264541.705,4.5111237
1430264541.721,5.873966
1430264541.736,7.415634
1430264541.752,9.1429405
1430264541.767,10.981098
1430264541.783,12.806435
1430264541.799,14.464603
1430264541.814,15.861778
1430264541.83,17.000679
1430264541.846,18.023281
1430264541.861,19.156166
1430264541.877,20.666286
1430264541.892,22.750107
1430264541.908,25.418747
1430264541.924,28.430332
1430264541.939,31.312878
1430264541.955,33.4333
1430264541.971,34.174904
1430264541.986,33.085552
1430264542.002,30.012794
1430264542.017,25.127758
1430264542.033,18.886639
1430264542.049,11.907745
1430264542.064,4.868187
1430264542.08,-1.6393661
1430264542.096,-7.171818
1430264542.111,-11.508118
1430264542.127,-14.640244
1430264542.142,-16.738426
1430264542.158,-18.056267
1430264542.174,-18.840416
1430264542.189,-19.259663
1430264542.205,-19.400951
1430264542.221,-19.295227
1430264542.236,-18.992119
1430264542.252,-18.569809
1430264542.267,-18.138298
1430264542.283,-17.772282
1430264542.299,-17.491505
1430264542.314,-17.255516
1430264542.33,-17.003685
1430264542.346,-16.690826
1430264542.361,-16.329361
1430264542.377,-15.98539
1430264542.392,-15.7187
1430264542.408,-15.5425
1430264542.424,-15.4135895
1430264542.439,-15.235615
1430264542.455,-14.918373
1430264542.471,-14.416824
1430264542.486,-13.731487
1430264542.502,-12.876377
1430264542.517,-11.863712
1430264542.533,-10.683399
1430264542.549,-9.332348
1430264542.564,-7.8309364
1430264542.58,-6.2383766
1430264542.596,-4.6201057
1430264542.611,-3.0203743
1430264542.627,-1.4402504
1430264542.642,0.13482666
1430264542.658,1.7046471
1430264542.674,3.2326965
1430264542.689,4.6746216
1430264542.705,5.995085
1430264542.721,7.249296
1430264542.736,8.541008
1430264542.752,9.980871
1430264542.767,11.6015
1430264542.783,13.343752
1430264542.799,15.080587
1430264542.814,16.703896
1430264542.83,18.209793
1430264542.846,19.69175
1430264542.861,21.313736
1430264542.877,23.228891
1430264542.892,25.530628
1430264542.908,28.224295
1430264542.924,31.187557
1430264542.939,34.187973
1430264542.955,36.83715
1430264542.971,38.63472
1430264542.986,39.007244
1430264543.002,37.463753
1430264543.017,33.73928
1430264543.033,27.931738
1430264543.049,20.505363
1430264543.064,12.184727
1430264543.08,3.7671738
1430264543.096,-4.0752277
1430264543.111,-10.8851795
1430264543.127,-16.433847
1430264543.142,-20.664328
1430264543.158,-23.61843
1430264543.174,-25.407154
1430264543.189,-26.205933
1430264543.205,-26.270853
1430264543.221,-25.88885
1430264543.236,-25.354614
1430264543.252,-24.891552
1430264543.267,-24.624372
1430264543.283,-24.56428
1430264543.299,-24.662306
1430264543.314,-24.839138
1430264543.33,-25.023548
1430264543.346,-25.164799
1430264543.361,-25.219284
1430264543.377,-25.130978
1430264543.392,-24.833904
1430264543.408,-24.248873
1430264543.424,-23.30855
1430264543.439,-21.95993
1430264543.455,-20.196785
1430264543.471,-18.052538
1430264543.486,-15.61237
1430264543.502,-12.998301
1430264543.518,-10.36022
1430264543.533,-7.849903
1430264543.549,-5.60907
1430264543.564,-3.7394333
1430264543.58,-2.2721214
1430264543.596,-1.1518555
1430264543.611,-0.24263
1430264543.627,0.63064957
1430264543.643,1.6026516
1430264543.658,2.7398548
1430264543.674,4.0134296
1430264543.689,5.3398304
1430264543.705,6.6360397
1430264543.721,7.873003
1430264543.736,9.061495
1430264543.752,10.244577
1430264543.768,11.4395485
1430264543.783,12.638206
1430264543.799,13.803325
1430264543.814,14.905939
1430264543.83,15.9452
1430264543.846,16.963854
1430264543.861,18.015682
1430264543.877,19.133646
1430264543.893,20.310936
1430264543.908,21.507982
1430264543.924,22.683979
1430264543.939,23.84269
1430264543.955,25.044014
1430264543.971,26.412823
1430264543.986,28.09858
1430264544.002,30.22366
1430264544.018,32.79278
1430264544.033,35.622787
1430264544.049,38.278053
1430264544.064,40.136173
1430264544.08,40.495644
1430264544.096,38.802338
1430264544.111,34.845577
1430264544.127,28.875786
1430264544.143,21.563728
1430264544.158,13.804824
1430264544.174,6.4432335
1430264544.189,0.025090218
1430264544.205,-5.2774925
1430264544.221,-9.592356
1430264544.236,-13.142519
1430264544.252,-16.06142
1430264544.268,-18.332968
1430264544.283,-19.836428
1430264544.299,-20.509588
1430264544.314,-20.429794
1430264544.33,-19.86507
1430264544.346,-19.166254
1430264544.361,-18.644558
1430264544.377,-18.472158
1430264544.393,-18.661638
1430264544.408,-19.115105
1430264544.424,-19.733604
1430264544.439,-20.436258
1430264544.455,-21.201944
1430264544.471,-22.022171
1430264544.486,-22.859081
1430264544.502,-23.613066
1430264544.518,-24.145966
1430264544.533,-24.282782
1430264544.549,-23.901985
1430264544.564,-22.952675
1430264544.58,-21.51443
1430264544.596,-19.74678
1430264544.611,-17.848692
1430264544.627,-15.973366
1430264544.643,-14.208969
1430264544.658,-12.569109
1430264544.674,-11.043083
1430264544.689,-9.610743
1430264544.705,-8.258766
1430264544.721,-6.9754124
1430264544.736,-5.703171
1430264544.752,-4.3776875
1430264544.768,-2.95018
1430264544.783,-1.4144249
1430264544.799,0.17359924
1430264544.814,1.7425117
1430264544.83,3.2278404
1430264544.846,4.6244583
1430264544.861,5.9545345
1430264544.877,7.285475
1430264544.893,8.673004
1430264544.908,10.182291
1430264544.924,11.840059
1430264544.939,13.660997
1430264544.955,15.610548
1430264544.971,17.60742
1430264544.986,19.547194
1430264545.002,21.371048
1430264545.018,23.09747
1430264545.033,24.862225
1430264545.049,26.860918
1430264545.064,29.26053
1430264545.08,32.057243
1430264545.096,34.996613
1430264545.111,37.549324
1430264545.127,39.04982
1430264545.143,38.852303
1430264545.158,36.559372
1430264545.174,32.10781
1430264545.189,25.823296
1430264545.205,18.28476
1430264545.221,10.177095
1430264545.236,2.1386147
1430264545.252,-5.3278637
1430264545.268,-11.882734
1430264545.283,-17.332827
1430264545.299,-21.601294
1430264545.314,-24.701706
1430264545.33,-26.729992
1430264545.346,-27.831684
1430264545.361,-28.188803
1430264545.377,-27.995644
1430264545.393,-27.459963
1430264545.408,-26.779589
1430264545.424,-26.144253
1430264545.439,-25.68289
1430264545.455,-25.448298
1430264545.471,-25.407228
1430264545.486,-25.476372
1430264545.502,-25.55728
1430264545.518,-25.576473
1430264545.533,-25.468811
1430264545.549,-25.17515
1430264545.564,-24.61058
1430264545.58,-23.68356
1430264545.596,-22.332458
1430264545.611,-20.58495
1430264545.627,-18.544214
1430264545.643,-16.367828
1430264545.658,-14.18733
1430264545.674,-12.053883
1430264545.689,-9.913261
1430264545.705,-7.6701756
1430264545.721,-5.2334213
1430264545.736,-2.6015568
1430264545.752,0.14961815
1430264545.768,2.8706608
1430264545.783,5.417368
1430264545.799,7.668604
1430264545.814,9.583717
1430264545.83,11.177706
1430264545.846,12.529541
1430264545.861,13.744585
1430264545.877,14.934601
1430264545.893,16.187801
1430264545.908,17.55487
1430264545.924,19.024563
1430264545.939,20.54913
1430264545.955,22.035423
1430264545.971,23.413715
1430264545.986,24.630753
1430264546.002,25.709217
1430264546.018,26.720848
1430264546.033,27.817167
1430264546.049,29.17407
1430264546.064,30.931332
1430264546.08,33.07635
1430264546.096,35.355026
1430264546.111,37.23746
1430264546.127,38.038292
1430264546.143,37.115738
1430264546.158,34.10352
1430264546.174,29.049604
1430264546.19,22.433126
1430264546.205,14.971791
1430264546.221,7.424673
1430264546.236,0.39362526
1430264546.252,-5.7311897
1430264546.268,-10.760468
1430264546.283,-14.622023
1430264546.299,-17.32408
1430264546.315,-18.959547
1430264546.33,-19.718996
1430264546.346,-19.862637
1430264546.361,-19.66943
1430264546.377,-19.34844
1430264546.393,-19.014723
1430264546.408,-18.681704
1430264546.424,-18.346682
1430264546.44,-17.995907
1430264546.455,-17.670488
1430264546.471,-17.418468
1430264546.486,-17.27465
1430264546.502,-17.243858
1430264546.518,-17.307564
1430264546.533,-17.445694
1430264546.549,-17.634892
1430264546.565,-17.831642
1430264546.58,-17.96515
1430264546.596,-17.918205
1430264546.611,-17.577446
1430264546.627,-16.861818
1430264546.643,-15.776638
1430264546.658,-14.403711
1430264546.674,-12.891333
1430264546.69,-11.350985
1430264546.705,-9.854572
1430264546.721,-8.396997
1430264546.736,-6.9429207
1430264546.752,-5.4490604
1430264546.768,-3.9220505
1430264546.783,-2.3840141
1430264546.799,-0.8643112
1430264546.815,0.6313801
1430264546.83,2.1274242
1430264546.846,3.6614761
1430264546.861,5.2633915
1430264546.877,6.944721
1430264546.893,8.687199
1430264546.908,10.4499
1430264546.924,12.185114
1430264546.94,13.852106
1430264546.955,15.425472
1430264546.971,16.924505
1430264546.986,18.432241
1430264547.002,20.099577
1430264547.018,22.097822
1430264547.033,24.52935
1430264547.049,27.293274
1430264547.065,30.040714
1430264547.08,32.17956
1430264547.096,33.050186
1430264547.111,32.11432
1430264547.127,29.165695
1430264547.143,24.388344
1430264547.158,18.302896
1430264547.174,11.581209
1430264547.19,4.8810406
1430264547.205,-1.3049145
1430264547.221,-6.6835556
1430264547.236,-11.126097
1430264547.252,-14.601715
1430264547.268,-17.149776
1430264547.283,-18.838715
1430264547.299,-19.797812
1430264547.315,-20.195587
1430264547.33,-20.232971
1430264547.346,-20.084341
1430264547.361,-19.886196
1430264547.377,-19.694674
1430264547.393,-19.518105
1430264547.408,-19.325905
1430264547.424,-19.101685
1430264547.44,-18.83818
1430264547.455,-18.565691
1430264547.471,-18.313984
1430264547.486,-18.111563
1430264547.502,-17.955734
1430264547.518,-17.814638
1430264547.533,-17.629885
1430264547.549,-17.346619
1430264547.565,-16.937637
1430264547.58,-16.419125
1430264547.596,-15.831567
1430264547.611,-15.210938
1430264547.627,-14.564748
1430264547.643,-13.865648
1430264547.658,-13.041937
1430264547.674,-12.052202
1430264547.69,-10.879062
1430264547.705,-9.569844
1430264547.721,-8.206106
1430264547.736,-6.875433
1430264547.752,-5.6427445
1430264547.768,-4.533595
1430264547.783,-3.5364938
1430264547.799,-2.6124434
1430264547.815,-1.7114091
1430264547.83,-0.77701044
1430264547.846,0.23711836
1430264547.861,1.3372558
1430264547.877,2.501365
1430264547.893,3.6601744
1430264547.908,4.75721
1430264547.924,5.772376
1430264547.94,6.756333
1430264547.955,7.7892694
1430264547.971,8.954605
1430264547.986,10.270764
1430264548.002,11.697982
1430264548.018,13.152675
1430264548.033,14.549444
1430264548.049,15.830507
1430264548.065,17.008118
1430264548.08,18.132767
1430264548.096,19.302273
1430264548.111,20.64244
1430264548.127,22.270731
1430264548.143,24.238232
1430264548.158,26.48011
1430264548.174,28.732687
1430264548.19,30.561165
1430264548.205,31.430984
1430264548.221,30.871893
1430264548.236,28.629583
1430264548.252,24.775806
1430264548.268,19.662321
1430264548.283,13.838793
1430264548.299,7.896393
1430264548.315,2.3479843
1430264548.33,-2.4620209
1430264548.346,-6.350832
1430264548.361,-9.295395
1430264548.377,-11.365974
1430264548.393,-12.701519
1430264548.408,-13.4573
1430264548.424,-13.798664
1430264548.44,-13.884256
1430264548.455,-13.864983
1430264548.471,-13.838871
1430264548.486,-13.863472
1430264548.502,-13.916525
1430264548.518,-13.925844
1430264548.533,-13.797548
1430264548.549,-13.500076
1430264548.565,-13.0736065
1430264548.58,-12.646172
1430264548.596,-12.35899
1430264548.611,-12.301044
1430264548.627,-12.445723
1430264548.643,-12.66827
1430264548.658,-12.793829
1430264548.674,-12.691879
1430264548.69,-12.3116
1430264548.705,-11.704414
1430264548.721,-10.955973
1430264548.736,-10.166622
1430264548.752,-9.369968
1430264548.768,-8.575298
1430264548.783,-7.7619476
1430264548.799,-6.9268303
1430264548.815,-6.0887413
1430264548.83,-5.2965508
1430264548.846,-4.5826836
1430264548.862,-3.9419556
1430264548.877,-3.3188171
1430264548.893,-2.6418533
1430264548.908,-1.8455353
1430264548.924,-0.9170418
1430264548.94,0.10196686
1430264548.955,1.1335754
1430264548.971,2.1193886
1430264548.987,3.0303574
1430264549.002,3.8950806
1430264549.018,4.750683
1430264549.033,5.6394615
1430264549.049,6.558075
1430264549.065,7.477436
1430264549.08,8.361954
1430264549.096,9.217606
1430264549.112,10.0996895
1430264549.127,11.089554
1430264549.143,12.244652
1430264549.158,13.575394
1430264549.174,15.03767
1430264549.19,16.58332
1430264549.205,18.19968
1430264549.221,19.937096
1430264549.237,21.838726
1430264549.252,23.87539
1430264549.268,25.820438
1430264549.283,27.27567
1430264549.299,27.738342
1430264549.315,26.797447
1430264549.33,24.274624
1430264549.346,20.327213
1430264549.362,15.399139
1430264549.377,10.0760765
1430264549.393,4.9066353
1430264549.408,0.28983307
1430264549.424,-3.583973
1430264549.44,-6.693218
1430264549.455,-9.108002
1430264549.471,-10.918591
1430264549.487,-12.198105
1430264549.502,-12.97768
1430264549.518,-13.294823
1430264549.533,-13.205055
1430264549.549,-12.813503
1430264549.565,-12.2365265
1430264549.58,-11.605438
1430264549.596,-11.003899
1430264549.612,-10.476273
1430264549.627,-10.031967
1430264549.643,-9.671688
1430264549.658,-9.42424
1430264549.674,-9.338573
1430264549.69,-9.45248
1430264549.705,-9.747253
1430264549.721,-10.130112
1430264549.737,-10.461941
1430264549.752,-10.593201
1430264549.768,-10.452744
1430264549.783,-10.043751
1430264549.799,-9.457611
1430264549.815,-8.794014
1430264549.83,-8.125702
1430264549.846,-7.445015
1430264549.862,-6.7117615
1430264549.877,-5.882721
1430264549.893,-4.9704666
1430264549.908,-4.0215683
1430264549.924,-3.0981293
1430264549.94,-2.2289963
1430264549.955,-1.3864212
1430264549.971,-0.5052185
1430264549.987,0.44931793
1430264550.002,1.4682388
1430264550.018,2.4931183
1430264550.033,3.461769
1430264550.049,4.3517
1430264550.065,5.215645
1430264550.08,6.1278076
1430264550.096,7.171074
1430264550.112,8.341621
1430264550.127,9.579254
1430264550.143,10.769814
1430264550.158,11.840935
1430264550.174,12.752174
1430264550.19,13.53717
1430264550.205,14.26474
1430264550.221,15.036407
1430264550.237,15.962692
1430264550.252,17.169075
1430264550.268,18.75425
1430264550.283,20.741257
1430264550.299,22.997955
1430264550.315,25.207794
1430264550.33,26.914406
1430264550.346,27.62336
1430264550.362,26.941002
1430264550.377,24.715622
1430264550.393,21.071709
1430264550.408,16.377998
1430264550.424,11.131752
1430264550.44,5.8441696
1430264550.455,0.93276215
1430264550.471,-3.2960815
1430264550.487,-6.6836243
1430264550.502,-9.188606
1430264550.518,-10.86689
1430264550.533,-11.863693
1430264550.549,-12.368538
1430264550.565,-12.562416
1430264550.58,-12.598373
1430264550.596,-12.5601425
1430264550.612,-12.48278
1430264550.627,-12.364159
1430264550.643,-12.216095
1430264550.658,-12.032532
1430264550.674,-11.832695
1430264550.69,-11.618042
1430264550.705,-11.402618
1430264550.721,-11.210274
1430264550.737,-11.086716
1430264550.752,-11.079536
1430264550.768,-11.218185
1430264550.783,-11.468094
1430264550.799,-11.733765
1430264550.815,-11.889046
1430264550.83,-11.811638
1430264550.846,-11.444115
1430264550.862,-10.824669
1430264550.877,-10.072807
1430264550.893,-9.337067
1430264550.908,-8.712372
1430264550.924,-8.218788
1430264550.94,-7.7782288
1430264550.955,-7.268799
1430264550.971,-6.5605545
1430264550.987,-5.6034317
1430264551.002,-4.4262695
1430264551.018,-3.150322
1430264551.033,-1.9471207
1430264551.049,-0.95854187
1430264551.065,-0.22859192
1430264551.08,0.3032608
1430264551.096,0.77898407
1430264551.112,1.3687439
1430264551.127,2.1756058
1430264551.143,3.2023544
1430264551.158,4.3480377
1430264551.174,5.4687653
1430264551.19,6.476021
1430264551.205,7.3627014
1430264551.221,8.218864
1430264551.237,9.154404
1430264551.252,10.243942
1430264551.268,11.475174
1430264551.283,12.792084
1430264551.299,14.11364
1430264551.315,15.391876
1430264551.33,16.62133
1430264551.346,17.831734
1430264551.362,19.073196
1430264551.377,20.421799
1430264551.393,21.961601
1430264551.408,23.768715
1430264551.424,25.849152
1430264551.44,28.064781
1430264551.455,30.077232
1430264551.471,31.438255
1430264551.487,31.64222
1430264551.502,30.329948
1430264551.518,27.387703
1430264551.534,23.018837
1430264551.549,17.655113
1430264551.565,11.884476
1430264551.58,6.255638
1430264551.596,1.1894836
1430264551.612,-3.0617905
1430264551.627,-6.4121284
1430264551.643,-8.896259
1430264551.658,-10.606922
1430264551.674,-11.680054
1430264551.69,-12.267384
1430264551.705,-12.537258
1430264551.721,-12.645103
1430264551.737,-12.723354
1430264551.752,-12.851608
1430264551.768,-13.058975
1430264551.784,-13.299889
1430264551.799,-13.515022
1430264551.815,-13.63612
1430264551.83,-13.65023
1430264551.846,-13.588772
1430264551.862,-13.512695
1430264551.877,-13.480553
1430264551.893,-13.534008
1430264551.909,-13.689201
1430264551.924,-13.913364
1430264551.94,-14.147438
1430264551.955,-14.324589
1430264551.971,-14.349224
1430264551.987,-14.153637
1430264552.002,-13.690716
1430264552.018,-12.9804
1430264552.034,-12.096844
1430264552.049,-11.157711
1430264552.065,-10.248257
1430264552.08,-9.408127
1430264552.096,-8.595314
1430264552.112,-7.717407
1430264552.127,-6.6813393
1430264552.143,-5.45121
1430264552.159,-4.063568
1430264552.174,-2.6102943
1430264552.19,-1.1893005
1430264552.205,0.13895798
1430264552.221,1.3726807
1430264552.237,2.515915
1430264552.252,3.5963821
1430264552.268,4.6184044
1430264552.284,5.609951
1430264552.299,6.6263084
1430264552.315,7.7713547
1430264552.33,9.127968
1430264552.346,10.7179985
1430264552.362,12.443607
1430264552.377,14.135139
1430264552.393,15.626297
1430264552.409,16.847046
1430264552.424,17.899662
1430264552.44,19.019234
1430264552.455,20.458542
1430264552.471,22.383265
1430264552.487,24.746656
1430264552.502,27.292574
1430264552.518,29.575336
1430264552.534,31.057821
1430264552.549,31.228563
1430264552.565,29.751455
1430264552.58,26.541971
1430264552.596,21.834593
1430264552.612,16.09992
1430264552.627,9.9345455
1430264552.643,3.9095879
1430264552.659,-1.5316067
1430264552.674,-6.129923
1430264552.69,-9.77776
1430264552.705,-12.481218
1430264552.721,-14.31035
1430264552.737,-15.407782
1430264552.752,-15.929694
1430264552.768,-16.063328
1430264552.784,-15.966538
1430264552.799,-15.758338
1430264552.815,-15.506918
1430264552.83,-15.261243
1430264552.846,-15.063109
1430264552.862,-14.9525795
1430264552.877,-14.946232
1430264552.893,-15.02806
1430264552.909,-15.157633
1430264552.924,-15.307924
1430264552.94,-15.47394
1430264552.955,-15.674185
1430264552.971,-15.898811
1430264552.987,-16.096601
1430264553.002,-16.147394
1430264553.018,-15.94784
1430264553.034,-15.430348
1430264553.049,-14.635575
1430264553.065,-13.67414
1430264553.08,-12.697045
1430264553.096,-11.801233
1430264553.112,-10.991169
1430264553.127,-10.178291
1430264553.143,-9.22517
1430264553.159,-8.025438
1430264553.174,-6.563384
1430264553.19,-4.9313245
1430264553.205,-3.296667
1430264553.221,-1.8113647
1430264553.237,-0.56356764
1430264553.252,0.4804082
1430264553.268,1.4621949
1430264553.284,2.5640845
1430264553.299,3.9304318
1430264553.315,5.60574
1430264553.33,7.5104666
1430264553.346,9.477706
1430264553.362,11.320369
1430264553.377,12.91958
1430264553.393,14.245542
1430264553.409,15.384285
1430264553.424,16.482807
1430264553.44,17.743544
1430264553.455,19.368593
1430264553.471,21.4877
1430264553.487,24.083626
1430264553.502,26.935896
1430264553.518,29.586777
1430264553.534,31.449974
1430264553.549,31.928104
1430264553.565,30.606974
1430264553.58,27.372753
1430264553.596,22.459599
1430264553.612,16.376608
1430264553.627,9.786657
1430264553.643,3.3346386
1430264553.659,-2.467413
1430264553.674,-7.3045444
1430264553.69,-11.068489
1430264553.705,-13.816893
1430264553.721,-15.690006
1430264553.737,-16.85633
1430264553.752,-17.467196
1430264553.768,-17.633902
1430264553.784,-17.449816
1430264553.799,-17.027113
1430264553.815,-16.491327
1430264553.83,-15.967482
1430264553.846,-15.5374565
1430264553.862,-15.225903
1430264553.877,-14.98831
1430264553.893,-14.785822
1430264553.909,-14.590099
1430264553.924,-14.44273
1430264553.94,-14.408855
1430264553.955,-14.552319
1430264553.971,-14.86549
1430264553.987,-15.252403
1430264554.002,-15.540627
1430264554.018,-15.541061
1430264554.034,-15.11599
1430264554.049,-14.2323265
1430264554.065,-12.987324
1430264554.08,-11.55555
1430264554.096,-10.11586
1430264554.112,-8.78524
1430264554.127,-7.5690193
1430264554.143,-6.423107
1430264554.159,-5.2825584
1430264554.174,-4.122032
1430264554.19,-2.9429169
1430264554.206,-1.7539444
1430264554.221,-0.50515366
1430264554.237,0.898674
1430264554.252,2.5640717
1430264554.268,4.537697
1430264554.284,6.7681847
1430264554.299,9.098305
1430264554.315,11.3425865
1430264554.33,13.35183
1430264554.346,15.074459
1430264554.362,16.551895
1430264554.377,17.9105
1430264554.393,19.297707
1430264554.409,20.870174
1430264554.424,22.737625
1430264554.44,24.923153
1430264554.456,27.285542
1430264554.471,29.496048
1430264554.487,31.029884
1430264554.502,31.319214
1430264554.518,29.899452
1430264554.534,26.595222
1430264554.549,21.602402
1430264554.565,15.43832
1430264554.581,8.794884
1430264554.596,2.32695
1430264554.612,-3.4889297
1430264554.627,-8.398205
1430264554.643,-12.339695
1430264554.659,-15.35891
1430264554.674,-17.574799
1430264554.69,-19.12643
1430264554.706,-20.218811
1430264554.721,-21.05014
1430264554.737,-21.804752
1430264554.752,-22.550499
1430264554.768,-23.224747
1430264554.784,-23.656036
1430264554.799,-23.672997
1430264554.815,-23.181461
1430264554.831,-22.220116
1430264554.846,-20.92873
1430264554.862,-19.487354
1430264554.877,-18.045357
1430264554.893,-16.703938
1430264554.909,-15.494236
1430264554.924,-14.412807
1430264554.94,-13.400475
1430264554.956,-12.386696
1430264554.971,-11.291172
1430264554.987,-10.101952
1430264555.002,-8.862961
1430264555.018,-7.6912346
1430264555.034,-6.697132
1430264555.049,-5.905266
1430264555.065,-5.2271805
1430264555.081,-4.4859123
1430264555.096,-3.524353
1430264555.112,-2.2818604
1430264555.127,-0.84895706
1430264555.143,0.5849457
1430264555.159,1.8356247
1430264555.174,2.7934494
1430264555.19,3.4806938
1430264555.206,3.9944992
1430264555.221,4.483883
1430264555.237,5.070545
1430264555.252,5.833359
1430264555.268,6.7787323
1430264555.284,7.8566666
1430264555.299,8.989971
1430264555.315,10.105225
1430264555.331,11.156429
1430264555.346,12.160797
1430264555.362,13.186356
1430264555.377,14.3536
1430264555.393,15.801228
1430264555.409,17.63604
1430264555.424,19.851166
1430264555.44,22.279415
1430264555.456,24.551754
1430264555.471,26.154076
1430264555.487,26.561512
1430264555.502,25.408562
1430264555.518,22.609913
1430264555.534,18.393879
1430264555.549,13.208023
1430264555.565,7.586918
1430264555.581,2.009697
1430264555.596,-3.1596947
1430264555.612,-7.6880264
1430264555.627,-11.422573
1430264555.643,-14.306145
1430264555.659,-16.373363
1430264555.674,-17.750904
1430264555.69,-18.61346
1430264555.706,-19.122387
1430264555.721,-19.362858
1430264555.737,-19.350925
1430264555.752,-19.06261
1430264555.768,-18.510216
1430264555.784,-17.77724
1430264555.799,-17.011059
1430264555.815,-16.34404
1430264555.831,-15.872704
1430264555.846,-15.6112175
1430264555.862,-15.518059
1430264555.877,-15.514679
1430264555.893,-15.526409
1430264555.909,-15.471657
1430264555.924,-15.28635
1430264555.94,-14.922123
1430264555.956,-14.368149
1430264555.971,-13.663811
1430264555.987,-12.899868
1430264556.002,-12.173672
1430264556.018,-11.558807
1430264556.034,-11.052376
1430264556.049,-10.581291
1430264556.065,-10.014748
1430264556.081,-9.2324295
1430264556.096,-8.169312
1430264556.112,-6.8531494
1430264556.127,-5.3775406
1430264556.143,-3.8829193
1430264556.159,-2.4993744
1430264556.174,-1.3116493
1430264556.19,-0.3175087
1430264556.206,0.55802536
1430264556.221,1.455822
1430264556.237,2.5061188
1430264556.252,3.7962341
1430264556.268,5.30978
1430264556.284,6.962616
1430264556.299,8.616322
1430264556.315,10.1778755
1430264556.331,11.625408
1430264556.346,13.013992
1430264556.362,14.435181
1430264556.377,15.955788
1430264556.393,17.5872
1430264556.409,19.306316
1430264556.424,21.063564
1430264556.44,22.830288
1430264556.456,24.540768
1430264556.471,26.040325
1430264556.487,27.025845
1430264556.502,27.106293
1430264556.518,25.916073
1430264556.534,23.283699
1430264556.549,19.339668
1430264556.565,14.506855
1430264556.581,9.351543
1430264556.596,4.3976593
1430264556.612,-0.020915985
1430264556.627,-3.8010197
1430264556.643,-6.9808826
1430264556.659,-9.613546
1430264556.674,-11.688833
1430264556.69,-13.134928
1430264556.706,-13.90596
1430264556.721,-14.054264
1430264556.737,-13.761463
1430264556.752,-13.24843
1430264556.768,-12.699251
1430264556.784,-12.171579
1430264556.799,-11.640606
1430264556.815,-11.066399
1430264556.831,-10.47694
1430264556.846,-9.965345
1430264556.862,-9.65423
1430264556.877,-9.610523
1430264556.893,-9.79809
1430264556.909,-10.09659
1430264556.924,-10.387182
1430264556.94,-10.612341
1430264556.956,-10.807117
1430264556.971,-11.056152
1430264556.987,-11.426575
1430264557.002,-11.894405
1430264557.018,-12.3593025
1430264557.034,-12.679117
1430264557.049,-12.747606
1430264557.065,-12.509404
1430264557.081,-11.974091
1430264557.096,-11.154435
1430264557.112,-10.064278
1430264557.128,-8.715485
1430264557.143,-7.1594486
1430264557.159,-5.495349
1430264557.174,-3.8876677
1430264557.19,-2.4792423
1430264557.206,-1.3246708
1430264557.221,-0.35517788
1430264557.237,0.59151745
1430264557.253,1.688375
1430264557.268,3.027072
1430264557.284,4.5841036
1430264557.299,6.243482
1430264557.315,7.8693914
1430264557.331,9.36186
1430264557.346,10.709714
1430264557.362,11.9466305
1430264557.378,13.138184
1430264557.393,14.346598
1430264557.409,15.639577
1430264557.424,17.091331
1430264557.44,18.775639
1430264557.456,20.71408
1430264557.471,22.819672
1430264557.487,24.867321
1430264557.503,26.497868
1430264557.518,27.297503
1430264557.534,26.902905
1430264557.549,25.120668
1430264557.565,22.013918
1430264557.581,17.865223
1430264557.596,13.14454
1430264557.612,8.345942
1430264557.628,3.8838577
1430264557.643,0.009845734
1430264557.659,-3.153594
1430264557.674,-5.604781
1430264557.69,-7.4051094
1430264557.706,-8.646181
1430264557.721,-9.440763
1430264557.737,-9.904863
1430264557.753,-10.133768
1430264557.768,-10.183397
1430264557.784,-10.059944
1430264557.799,-9.746656
1430264557.815,-9.223703
1430264557.831,-8.543444
1430264557.846,-7.814516
1430264557.862,-7.1989765
1430264557.878,-6.847086
1430264557.893,-6.842266
1430264557.909,-7.167246
1430264557.924,-7.7248497
1430264557.94,-8.344425
1430264557.956,-8.854858
1430264557.971,-9.1192875
1430264557.987,-9.076954
1430264558.003,-8.744616
1430264558.018,-8.202124
1430264558.034,-7.547886
1430264558.049,-6.85454
1430264558.065,-6.1457825
1430264558.081,-5.4242516
1430264558.096,-4.6601067
1430264558.112,-3.8292198
1430264558.128,-2.901289
1430264558.143,-1.866312
1430264558.159,-0.71559143
1430264558.174,0.52433014
1430264558.19,1.8066788
1430264558.206,3.0576954
1430264558.221,4.213146
1430264558.237,5.241087
1430264558.253,6.156046
1430264558.268,7.005068
1430264558.284,7.8535423
1430264558.299,8.746157
1430264558.315,9.712587
1430264558.331,10.762218
1430264558.346,11.897438
1430264558.362,13.13114
1430264558.378,14.466656
1430264558.393,15.915012
1430264558.409,17.484146
1430264558.424,19.155308
1430264558.44,20.878155
1430264558.456,22.510418
1430264558.471,23.822998
1430264558.487,24.491508
1430264558.503,24.194767
1430264558.518,22.703896
1430264558.534,19.976303
1430264558.549,16.195984
1430264558.565,11.733612
1430264558.581,7.033615
1430264558.596,2.4936943
1430264558.612,-1.6202469
1430264558.628,-5.1915245
1430264558.643,-8.207737
1430264558.659,-10.701046
1430264558.674,-12.67926
1430264558.69,-14.113369
1430264558.706,-14.982792
1430264558.721,-15.31179
1430264558.737,-15.201347
1430264558.753,-14.82938
1430264558.768,-14.405354
1430264558.784,-14.098793
1430264558.799,-13.9995
1430264558.815,-14.092094
1430264558.831,-14.312168
1430264558.846,-14.593876
1430264558.862,-14.905525
1430264558.878,-15.260883
1430264558.893,-15.68206
1430264558.909,-16.15646
1430264558.924,-16.645458
1430264558.94,-17.079212
1430264558.956,-17.40767
1430264558.971,-17.640121
1430264558.987,-17.842411
1430264559.003,-18.097225
1430264559.018,-18.46106
1430264559.034,-18.90842
1430264559.049,-19.355019
1430264559.065,-19.673737
1430264559.081,-19.791706
1430264559.096,-19.717289
1430264559.112,-19.554817
1430264559.128,-19.436306
1430264559.143,-19.456886
1430264559.159,-19.632828
1430264559.174,-19.90213
1430264559.19,-20.173786
1430264559.206,-20.390411
1430264559.221,-20.530285
1430264559.237,-20.570782
1430264559.253,-20.427193
1430264559.268,-19.905338
1430264559.284,-18.75039
1430264559.299,-16.72889
1430264559.315,-13.728958
1430264559.331,-9.774841
1430264559.346,-5.0168
1430264559.362,0.3583374
1430264559.378,6.1910477
1430264559.393,12.332016
1430264559.409,18.623055
1430264559.424,24.847
1430264559.44,30.75895
1430264559.456,36.14071
1430264559.471,40.8813
1430264559.487,44.98375
1430264559.503,48.52323
1430264559.518,51.5095
1430264559.534,53.837654
1430264559.549,55.259842
1430264559.565,55.46865
1430264559.581,54.205177
1430264559.596,51.371475
1430264559.612,47.078186
1430264559.628,41.626297
1430264559.643,35.442314
1430264559.659,28.974289
1430264559.674,22.62748
1430264559.69,16.718712
1430264559.706,11.470558
1430264559.721,7.03154
1430264559.737,3.4765778
1430264559.753,0.8045578
1430264559.768,-1.0829926
1430264559.784,-2.363243
1430264559.8,-3.2739182
1430264559.815,-4.0222626
1430264559.831,-4.7513275
1430264559.846,-5.478325
1430264559.862,-6.142647
1430264559.878,-6.6630936
1430264559.893,-7.0122147
1430264559.909,-7.236412
1430264559.925,-7.455803
1430264559.94,-7.7888184
1430264559.956,-8.338867
1430264559.971,-9.133743
1430264559.987,-10.130028
1430264560.003,-11.189163
1430264560.018,-12.146065
1430264560.034,-12.788612
1430264560.05,-12.9850235
1430264560.065,-12.693985
1430264560.081,-12.0093155
1430264560.096,-11.103653
1430264560.112,-10.158768
1430264560.128,-9.301903
1430264560.143,-8.573387
1430264560.159,-7.95784
1430264560.175,-7.419548
1430264560.19,-6.942871
1430264560.206,-6.528534
1430264560.221,-6.1415253
1430264560.237,-5.702736
1430264560.253,-5.075012
1430264560.268,-4.1470413
1430264560.284,-2.8827362
1430264560.3,-1.3899918
1430264560.315,0.14874268
1430264560.331,1.5008698
1430264560.346,2.5151367
1430264560.362,3.1634903
1430264560.378,3.5641098
1430264560.393,3.9176636
1430264560.409,4.4465866
1430264560.425,5.2883453
1430264560.44,6.471855
1430264560.456,7.89312
1430264560.471,9.375504
1430264560.487,10.728004
1430264560.503,11.845779
1430264560.518,12.741646
1430264560.534,13.545898
1430264560.55,14.441109
1430264560.565,15.601631
1430264560.581,17.128128
1430264560.596,19.048332
1430264560.612,21.31166
1430264560.628,23.781929
1430264560.643,26.217606
1430264560.659,28.254738
1430264560.675,29.416733
1430264560.69,29.239983
1430264560.706,27.420326
1430264560.721,23.978333
1430264560.737,19.256561
1430264560.753,13.852707
1430264560.768,8.403435
1430264560.784,3.4146423
1430264560.8,-0.85769653
1430264560.815,-4.377434
1430264560.831,-7.2490997
1430264560.846,-9.586357
1430264560.862,-11.46817
1430264560.878,-12.895424
1430264560.893,-13.840446
1430264560.909,-14.287918
1430264560.925,-14.282806
1430264560.94,-13.928627
1430264560.956,-13.39576
1430264560.971,-12.845314
1430264560.987,-12.401878
1430264561.003,-12.125092
1430264561.018,-12.0008545
1430264561.034,-11.994949
1430264561.05,-12.09079
1430264561.065,-12.297539
1430264561.081,-12.655319
1430264561.096,-13.165268
1430264561.112,-13.757675
1430264561.128,-14.282463
1430264561.143,-14.575806
1430264561.159,-14.522297
1430264561.175,-14.117008
1430264561.19,-13.47657
1430264561.206,-12.762894
1430264561.221,-12.0998
1430264561.237,-11.511974
1430264561.253,-10.906723
1430264561.268,-10.160675
1430264561.284,-9.199585
1430264561.3,-8.061733
1430264561.315,-6.867264
1430264561.331,-5.7719574
1430264561.346,-4.831566
1430264561.362,-3.979538
1430264561.378,-3.0520515
1430264561.393,-1.8870087
1430264561.409,-0.43421173
1430264561.425,1.1880264
1430264561.44,2.770111
1430264561.456,4.0853615
1430264561.471,5.0466194
1430264561.487,5.732277
1430264561.503,6.356632
1430264561.518,7.145973
1430264561.534,8.2248535
1430264561.55,9.548267
1430264561.565,10.966175
1430264561.581,12.299675
1430264561.596,13.470261
1430264561.612,14.52697
1430264561.628,15.638569
1430264561.643,16.986317
1430264561.659,18.704212
1430264561.675,20.806454
1430264561.69,23.167934
1430264561.706,25.513966
1430264561.721,27.464687
1430264561.737,28.566032
1430264561.753,28.40886
1430264561.768,26.720814
1430264561.784,23.464466
1430264561.8,18.8499
1430264561.815,13.300781
1430264561.831,7.3377686
1430264561.846,1.5067368
1430264561.862,-3.7337646
1430264561.878,-8.026806
1430264561.893,-11.170429
1430264561.909,-13.130062
1430264561.925,-14.050682
1430264561.94,-14.209778
1430264561.956,-13.956047
1430264561.971,-13.581028
1430264561.987,-13.275097
1430264562.003,-13.071667
1430264562.018,-12.927227
1430264562.034,-12.773727
1430264562.05,-12.591885
1430264562.065,-12.417549
1430264562.081,-12.316711
1430264562.096,-12.333708
1430264562.112,-12.479067
1430264562.128,-12.714258
1430264562.143,-12.993414
1430264562.159,-13.262508
1430264562.175,-13.488096
1430264562.19,-13.618008
1430264562.206,-13.608202
1430264562.221,-13.403587
1430264562.237,-12.975571
1430264562.253,-12.323378
1430264562.268,-11.482889
1430264562.284,-10.505878
1430264562.3,-9.446892
1430264562.315,-8.339943
1430264562.331,-7.2085114
1430264562.346,-6.064354
1430264562.362,-4.9355717
1430264562.378,-3.8513908
1430264562.393,-2.8369694
1430264562.409,-1.8914776
1430264562.425,-0.9884014
1430264562.44,-0.047548294
1430264562.456,1.0084572
1430264562.472,2.27042
1430264562.487,3.7801094
1430264562.503,5.5317116
1430264562.518,7.4394474
1430264562.534,9.375757
1430264562.55,11.201595
1430264562.565,12.815372
1430264562.581,14.196704
1430264562.596,15.40766
1430264562.612,16.575512
1430264562.628,17.864834
1430264562.643,19.43638
1430264562.659,21.409874
1430264562.675,23.764275
1430264562.69,26.292822
1430264562.706,28.554394
1430264562.722,29.954105
1430264562.737,29.899963
1430264562.753,28.031433
1430264562.768,24.356411
1430264562.784,19.26469
1430264562.8,13.377502
1430264562.815,7.340567
1430264562.831,1.6158814
1430264562.847,-3.531397
1430264562.862,-7.997076
1430264562.878,-11.709665
1430264562.893,-14.559366
1430264562.909,-16.452824
1430264562.925,-17.378242
1430264562.94,-17.475391
1430264562.956,-17.038584
1430264562.972,-16.399397
1430264562.987,-15.81447
1430264563.003,-15.372617
1430264563.018,-15.02025
1430264563.034,-14.625389
1430264563.05,-14.108953
1430264563.065,-13.4861145
1430264563.081,-12.902091
1430264563.097,-12.533398
1430264563.112,-12.5176325
1430264563.128,-12.856108
1430264563.143,-13.435317
1430264563.159,-14.055172
1430264563.175,-14.5158
1430264563.19,-14.678385
1430264563.206,-14.497344
1430264563.222,-13.987978
1430264563.237,-13.211495
1430264563.253,-12.2284155
1430264563.268,-11.084498
1430264563.284,-9.813788
1430264563.3,-8.45287
1430264563.315,-7.0432673
1430264563.331,-5.6669827
1430264563.347,-4.400362
1430264563.362,-3.2887115
1430264563.378,-2.3030396
1430264563.393,-1.3295727
1430264563.409,-0.1996193
1430264563.425,1.2477837
1430264563.44,3.0691338
1430264563.456,5.180292
1430264563.472,7.38361
1430264563.487,9.456413
1430264563.503,11.233799
1430264563.518,12.682369
1430264563.534,13.890991
1430264563.55,15.031357
1430264563.565,16.323936
1430264563.581,17.968401
1430264563.597,20.139994
1430264563.612,22.88703
1430264563.628,26.091074
1430264563.643,29.392172
1430264563.659,32.20919
1430264563.675,33.85855
1430264563.69,33.759937
1430264563.706,31.597635
1430264563.722,27.454113
1430264563.737,21.786764
1430264563.753,15.289173
1430264563.768,8.683096
1430264563.784,2.5482922
1430264563.8,-2.7777023
1430264563.815,-7.1938515
1430264563.831,-10.75359
1430264563.847,-13.563869
1430264563.862,-15.71653
1430264563.878,-17.246273
1430264563.893,-18.190536
1430264563.909,-18.612057
1430264563.925,-18.61782
1430264563.94,-18.346123
1430264563.956,-17.935104
1430264563.972,-17.474213
1430264563.987,-16.996082
1430264564.003,-16.49709
1430264564.018,-15.982151
1430264564.034,-15.479408
1430264564.05,-15.054684
1430264564.065,-14.786274
1430264564.081,-14.756519
1430264564.097,-14.985664
1430264564.112,-15.454678
1430264564.128,-16.05196
1430264564.143,-16.61626
1430264564.159,-16.955158
1430264564.175,-16.922085
1430264564.19,-16.457592
1430264564.206,-15.634529
1430264564.222,-14.606495
1430264564.237,-13.549072
1430264564.253,-12.541
1430264564.268,-11.564671
1430264564.284,-10.490917
1430264564.3,-9.189808
1430264564.315,-7.5899124
1430264564.331,-5.7643394
1430264564.347,-3.866539
1430264564.362,-2.068409
1430264564.378,-0.44243622
1430264564.393,1.0625763
1430264564.409,2.5922318
1430264564.425,4.2780952
1430264564.44,6.156864
1430264564.456,8.133133
1430264564.472,10.034561
1430264564.487,11.710655
1430264564.503,13.117794
1430264564.518,14.319489
1430264564.534,15.463776
1430264564.55,16.708183
1430264564.565,18.181892
1430264564.581,19.964855
1430264564.597,22.122509
1430264564.612,24.659843
1430264564.628,27.504303
1430264564.643,30.39753
1430264564.659,32.88385
1430264564.675,34.36214
1430264564.69,34.25125
1430264564.706,32.164417
1430264564.722,28.078083
1430264564.737,22.335777
1430264564.753,15.5566635
1430264564.768,8.459564
1430264564.784,1.6941452
1430264564.8,-4.301464
1430264564.815,-9.300442
1430264564.831,-13.282242
1430264564.847,-16.321186
1430264564.862,-18.5304
1430264564.878,-19.971775
1430264564.893,-20.696892
1430264564.909,-20.749302
1430264564.925,-20.238205
1430264564.94,-19.340378
1430264564.956,-18.279934
1430264564.972,-17.267937
1430264564.987,-16.452507
1430264565.003,-15.883865
1430264565.018,-15.544617
1430264565.034,-15.386543
1430264565.05,-15.37315
1430264565.065,-15.474052
1430264565.081,-15.680523
1430264565.097,-15.931583
1430264565.112,-16.158073
1430264565.128,-16.256344
1430264565.144,-16.165386
1430264565.159,-15.860958
1430264565.175,-15.384037
1430264565.19,-14.79538
1430264565.206,-14.162949
1430264565.222,-13.510796
1430264565.237,-12.846577
1430264565.253,-12.134682
1430264565.268,-11.335468
1430264565.284,-10.38736
1430264565.3,-9.2378235
1430264565.315,-7.8510323
1430264565.331,-6.219105
1430264565.347,-4.38031
1430264565.362,-2.4406242
1430264565.378,-0.55903625
1430264565.394,1.0785408
1430264565.409,2.3579063
1430264565.425,3.2947426
1430264565.44,4.078251
1430264565.456,4.991253
1430264565.472,6.288788
1430264565.487,8.053818
1430264565.503,10.167725
1430264565.519,12.355328
1430264565.534,14.353542
1430264565.55,16.013256
1430264565.565,17.382694
1430264565.581,18.633099
1430264565.597,19.985737
1430264565.612,21.625423
1430264565.628,23.667973
1430264565.644,26.123215
1430264565.659,28.855518
1430264565.675,31.523113
1430264565.69,33.56532
1430264565.706,34.301308
1430264565.722,33.152847
1430264565.737,29.835312
1430264565.753,24.537224
1430264565.769,17.837101
1430264565.784,10.528866
1430264565.8,3.3757515
1430264565.815,-3.04422
1430264565.831,-8.407837
1430264565.847,-12.586292
1430264565.862,-15.586792
1430264565.878,-17.507908
1430264565.894,-18.508076
1430264565.909,-18.76989
1430264565.925,-18.475636
1430264565.94,-17.78508
1430264565.956,-16.846375
1430264565.972,-15.8089485
1430264565.987,-14.834194
1430264566.003,-14.05233
1430264566.019,-13.549618
1430264566.034,-13.325649
1430264566.05,-13.337753
1430264566.065,-13.517239
1430264566.081,-13.816418
1430264566.097,-14.167187
1430264566.112,-14.486046
1430264566.128,-14.656353
1430264566.144,-14.592258
1430264566.159,-14.27858
1430264566.175,-13.79985
1430264566.19,-13.298771
1430264566.206,-12.875053
1430264566.222,-12.49522
1430264566.237,-12.021191
1430264566.253,-11.274284
1430264566.269,-10.1567955
1430264566.284,-8.692291
1430264566.3,-7.017227
1430264566.315,-5.2677
1430264566.331,-3.5600548
1430264566.347,-1.9292183
1430264566.362,-0.38295364
1430264566.378,1.0839233
1430264566.394,2.468666
1430264566.409,3.796589
1430264566.425,5.151005
1430264566.44,6.650749
1430264566.456,8.385662
1430264566.472,10.344139
1430264566.487,12.386284
1430264566.503,14.308819
1430264566.519,15.929436
1430264566.534,17.212265
1430264566.55,18.279552
1430264566.565,19.405823
1430264566.581,20.862019
1430264566.597,22.830978
1430264566.612,25.282364
1430264566.628,27.947235
1430264566.644,30.338043
1430264566.659,31.847294
1430264566.675,31.892357
1430264566.69,30.066063
1430264566.706,26.276928
1430264566.722,20.800983
1430264566.737,14.215336
1430264566.753,7.273609
1430264566.769,0.67736816
1430264566.784,-5.042061
1430264566.8,-9.622063
1430264566.815,-13.025894
1430264566.831,-15.378407
1430264566.847,-16.867203
1430264566.862,-17.711346
1430264566.878,-18.093239
1430264566.894,-18.164043
1430264566.909,-18.025848
1430264566.925,-17.729042
1430264566.94,-17.286736
1430264566.956,-16.71627
1430264566.972,-16.037548
1430264566.987,-15.310551
1430264567.003,-14.613976
1430264567.019,-14.03027
1430264567.034,-13.615261
1430264567.05,-13.426025
1430264567.065,-13.485722
1430264567.081,-13.802769
1430264567.097,-14.321201
1430264567.112,-14.911156
1430264567.128,-15.36195
1430264567.144,-15.458237
1430264567.159,-15.04921
1430264567.175,-14.125916
1430264567.19,-12.825474
1430264567.206,-11.36665
1430264567.222,-9.946651
1430264567.237,-8.649788
1430264567.253,-7.4055443
1430264567.269,-6.0720024
1430264567.284,-4.5228195
1430264567.3,-2.7599335
1430264567.315,-0.91480637
1430264567.331,0.80749893
1430264567.347,2.271408
1430264567.362,3.4793053
1430264567.378,4.5925064
1430264567.394,5.8448296
1430264567.409,7.4144135
1430264567.425,9.335312
1430264567.44,11.472698
1430264567.456,13.585663
1430264567.472,15.460728
1430264567.487,17.016087
1430264567.503,18.331161
1430264567.519,19.61232
1430264567.534,21.110355
1430264567.55,23.023369
1430264567.565,25.4273
1430264567.581,28.20908
1430264567.597,31.03817
1430264567.612,33.377247
1430264567.628,34.57486
1430264567.644,34.033016
1430264567.659,31.419289
1430264567.675,26.791656
1430264567.69,20.639523
1430264567.706,13.708538
1430264567.722,6.789589
1430264567.737,0.47724533
1430264567.753,-4.919407
1430264567.769,-9.3397255
1430264567.784,-12.827156
1430264567.8,-15.441761
1430264567.815,-17.229515
1430264567.831,-18.269882
1430264567.847,-18.713654
1430264567.862,-18.79065
1430264567.878,-18.707462
1430264567.894,-18.583908
1430264567.909,-18.42054
1430264567.925,-18.151352
1430264567.94,-17.72805
1430264567.956,-17.18264
1430264567.972,-16.620487
1430264567.987,-16.168
1430264568.003,-15.915924
1430264568.019,-15.890427
1430264568.034,-16.060814
1430264568.05,-16.370663
1430264568.066,-16.7351
1430264568.081,-17.068275
1430264568.097,-17.265392
1430264568.112,-17.228859
1430264568.128,-16.885643
1430264568.144,-16.23716
1430264568.159,-15.330967
1430264568.175,-14.2821045
1430264568.191,-13.210018
1430264568.206,-12.225998
1430264568.222,-11.38921
1430264568.237,-10.703423
1430264568.253,-10.111282
1430264568.269,-9.509754
1430264568.284,-8.760368
1430264568.3,-7.753067
1430264568.316,-6.4582214
1430264568.331,-4.9533577
1430264568.347,-3.3913078
1430264568.362,-1.9563599
1430264568.378,-0.77124786
1430264568.394,0.123477936
1430264568.409,0.7982979
1430264568.425,1.3714199
1430264568.441,1.9790154
1430264568.456,2.6995811
1430264568.472,3.5436974
1430264568.487,4.468479
1430264568.503,5.418642
1430264568.519,6.348997
1430264568.534,7.273508
1430264568.55,8.239029
1430264568.566,9.310932
1430264568.581,10.522568
1430264568.597,11.880938
1430264568.612,13.33881
1430264568.628,14.841034
1430264568.644,16.319021
1430264568.659,17.74273
1430264568.675,19.102224
1430264568.691,20.426361
1430264568.706,21.765062
1430264568.722,23.190327
1430264568.737,24.798714
1430264568.753,26.686676
1430264568.769,28.913826
1430264568.784,31.422268
1430264568.8,33.976856
1430264568.816,36.160637
1430264568.831,37.427303
1430264568.847,37.26245
1430264568.862,35.3124
1430264568.878,31.523304
1430264568.894,26.143475
1430264568.909,19.688316
1430264568.925,12.784942
1430264568.941,6.045701
1430264568.956,-0.065701485
1430264568.972,-5.2686567
1430264568.987,-9.469148
1430264569.003,-12.68214
1430264569.019,-15.0018215
1430264569.034,-16.532396
1430264569.05,-17.392101
1430264569.066,-17.718916
1430264569.081,-17.68543
1430264569.097,-17.44141
1430264569.112,-17.114151
1430264569.128,-16.761068
1430264569.144,-16.393099
1430264569.159,-15.997744
1430264569.175,-15.607409
1430264569.191,-15.286037
1430264569.206,-15.14296
1430264569.222,-15.22957
1430264569.237,-15.520512
1430264569.253,-15.918264
1430264569.269,-16.291374
1430264569.284,-16.535023
1430264569.3,-16.605213
1430264569.316,-16.487408
1430264569.331,-16.195734
1430264569.347,-15.733067
1430264569.362,-15.102489
1430264569.378,-14.309414
1430264569.394,-13.39295
1430264569.409,-12.3920765
1430264569.425,-11.340275
1430264569.441,-10.252064
1430264569.456,-9.132809
1430264569.472,-7.9940205
1430264569.487,-6.8591557
1430264569.503,-5.7634773
1430264569.519,-4.742778
1430264569.534,-3.7981634
1430264569.55,-2.902442
1430264569.566,-1.9870176
1430264569.581,-0.9883652
1430264569.597,0.15946102
1430264569.612,1.463851
1430264569.628,2.8726711
1430264569.644,4.2639437
1430264569.659,5.5061445
1430264569.675,6.5193453
1430264569.691,7.3433943
1430264569.706,8.113193
1430264569.722,9.001279
1430264569.737,10.1322975
1430264569.753,11.496548
1430264569.769,12.979638
1430264569.784,14.44892
1430264569.8,15.837185
1430264569.816,17.205845
1430264569.831,18.68337
1430264569.847,20.405235
1430264569.862,22.433039
1430264569.878,24.77413
1430264569.894,27.375523
1430264569.909,30.152643
1430264569.925,32.920357
1430264569.941,35.34073
1430264569.956,36.89409
1430264569.972,36.97732
1430264569.987,35.113678
1430264570.003,31.158201
1430264570.019,25.414501
1430264570.034,18.565598
1430264570.05,11.423853
1430264570.066,4.6976795
1430264570.081,-1.2099485
1430264570.097,-6.1747828
1430264570.112,-10.24674
1430264570.128,-13.463895
1430264570.144,-15.800311
1430264570.159,-17.19483
1430264570.175,-17.669445
1430264570.191,-17.409752
1430264570.206,-16.76086
1430264570.222,-16.100674
1430264570.237,-15.696658
1430264570.253,-15.605539
1430264570.269,-15.712313
1430264570.284,-15.828253
1430264570.3,-15.827242
1430264570.316,-15.6965885
1430264570.331,-15.5371685
1430264570.347,-15.462788
1430264570.362,-15.542732
1430264570.378,-15.756887
1430264570.394,-16.031425
1430264570.409,-16.267591
1430264570.425,-16.404667
1430264570.441,-16.411081
1430264570.456,-16.28209
1430264570.472,-16.005022
1430264570.487,-15.544634
1430264570.503,-14.862995
1430264570.519,-13.95212
1430264570.534,-12.837158
1430264570.55,-11.608778
1430264570.566,-10.371607
1430264570.581,-9.210085
1430264570.597,-8.129633
1430264570.612,-7.078724
1430264570.628,-5.9601974
1430264570.644,-4.7218857
1430264570.659,-3.3661556
1430264570.675,-1.9571857
1430264570.691,-0.5487194
1430264570.706,0.8207073
1430264570.722,2.1631927
1430264570.738,3.4831505
1430264570.753,4.753113
1430264570.769,5.9335938
1430264570.784,7.0274944
1430264570.8,8.115727
1430264570.816,9.336882
1430264570.831,10.786098
1430264570.847,12.453268
1430264570.863,14.195796
1430264570.878,15.820705
1430264570.894,17.195885
1430264570.909,18.360874
1430264570.925,19.492937
1430264570.941,20.85551
1430264570.956,22.652994
1430264570.972,24.975433
1430264570.988,27.731304
1430264571.003,30.657925
1430264571.019,33.288788
1430264571.034,35.02061
1430264571.05,35.21274
1430264571.066,33.384975
1430264571.081,29.399778
1430264571.097,23.588285
1430264571.113,16.653255
1430264571.128,9.46331
1430264571.144,2.7543106
1430264571.159,-3.027275
1430264571.175,-7.7578983
1430264571.191,-11.501118
1430264571.206,-14.39707
1430264571.222,-16.535387
1430264571.238,-17.964151
1430264571.253,-18.741867
1430264571.269,-18.987503
1430264571.284,-18.85216
1430264571.3,-18.489017
1430264571.316,-18.00109
1430264571.331,-17.446308
1430264571.347,-16.83718
1430264571.363,-16.198952
1430264571.378,-15.574526
1430264571.394,-15.055658
1430264571.409,-14.734814
1430264571.425,-14.711023
1430264571.441,-15.01519
1430264571.456,-15.591427
1430264571.472,-16.27413
1430264571.488,-16.83027
1430264571.503,-17.024715
1430264571.519,-16.72207
1430264571.534,-15.939795
1430264571.55,-14.828918
1430264571.566,-13.600964
1430264571.581,-12.439905
1430264571.597,-11.425985
1430264571.613,-10.547613
1430264571.628,-9.714525
1430264571.644,-8.848978
1430264571.659,-7.8928814
1430264571.675,-6.8371773
1430264571.691,-5.672928
1430264571.706,-4.4039783
1430264571.722,-3.0369148
1430264571.738,-1.5948887
1430264571.753,-0.115846634
1430264571.769,1.3350029
1430264571.784,2.7007236
1430264571.8,3.964264
1430264571.816,5.176264
1430264571.831,6.4327984
1430264571.847,7.8518753
1430264571.863,9.510103
1430264571.878,11.395315
1430264571.894,13.388212
1430264571.909,15.31768
1430264571.925,17.007133
1430264571.941,18.388386
1430264571.956,19.516644
1430264571.972,20.589903
1430264571.988,21.861164
1430264572.003,23.55707
1430264572.019,25.746483
1430264572.034,28.26694
1430264572.05,30.708872
1430264572.066,32.49189
1430264572.081,32.99303
1430264572.097,31.729387
1430264572.113,28.494184
1430264572.128,23.449108
1430264572.144,17.08689
1430264572.159,10.112185
1430264572.175,3.2497845
1430264572.191,-2.9002743
1430264572.206,-7.987032
1430264572.222,-11.903229
1430264572.238,-14.720152
1430264572.253,-16.595442
1430264572.269,-17.695591
1430264572.284,-18.15123
1430264572.3,-18.085283
1430264572.316,-17.626324
1430264572.331,-16.945892
1430264572.347,-16.222178
1430264572.363,-15.603056
1430264572.378,-15.147289
1430264572.394,-14.839069
1430264572.409,-14.622093
1430264572.425,-14.450129
1430264572.441,-14.316061
1430264572.456,-14.254852
1430264572.472,-14.301149
1430264572.488,-14.449263
1430264572.503,-14.640789
1430264572.519,-14.783651
1430264572.534,-14.778049
1430264572.55,-14.559834
1430264572.566,-14.102449
1430264572.581,-13.419762
1430264572.597,-12.543976
1430264572.613,-11.555719
1430264572.628,-10.536585
1430264572.644,-9.573133
1430264572.659,-8.708092
1430264572.675,-7.9143734
1430264572.691,-7.0932274
1430264572.706,-6.1358166
1430264572.722,-4.975374
1430264572.738,-3.630804
1430264572.753,-2.203495
1430264572.769,-0.82709694
1430264572.784,0.43389702
1430264572.8,1.6090069
1430264572.816,2.8148823
1430264572.831,4.175949
1430264572.847,5.7699547
1430264572.863,7.5652485
1430264572.878,9.463573
1430264572.894,11.32506
1430264572.909,13.045538
1430264572.925,14.57197
1430264572.941,15.931942
1430264572.956,17.200825
1430264572.972,18.487093
1430264572.988,19.911776
1430264573.003,21.59184
1430264573.019,23.609428
1430264573.034,25.984806
1430264573.05,28.605745
1430264573.066,31.192417
1430264573.081,33.28521
1430264573.097,34.341377
1430264573.113,33.815407
1430264573.128,31.369865
1430264573.144,26.97308
1430264573.159,20.972948
1430264573.175,13.995853
1430264573.191,6.7933044
1430264573.206,0.039123535
1430264573.222,-5.810772
1430264573.238,-10.558954
1430264573.253,-14.223396
1430264573.269,-16.92527
1430264573.284,-18.798552
1430264573.3,-19.941065
1430264573.316,-20.41395
1430264573.331,-20.308022
1430264573.347,-19.74891
1430264573.363,-18.946646
1430264573.378,-18.118694
1430264573.394,-17.450636
1430264573.41,-17.01423
1430264573.425,-16.780619
1430264573.441,-16.64301
1430264573.456,-16.499702
1430264573.472,-16.309559
1430264573.488,-16.11645
1430264573.503,-16.010588
1430264573.519,-16.066872
1430264573.534,-16.276897
1430264573.55,-16.528175
1430264573.566,-16.64804
1430264573.581,-16.493963
1430264573.597,-16.004322
1430264573.613,-15.244642
1430264573.628,-14.339563
1430264573.644,-13.424145
1430264573.66,-12.542742
1430264573.675,-11.66465
1430264573.691,-10.71175
1430264573.706,-9.631262
1430264573.722,-8.434599
1430264573.738,-7.188034
1430264573.753,-5.98015
1430264573.769,-4.846493
1430264573.785,-3.7593765
1430264573.8,-2.6471806
1430264573.816,-1.441452
1430264573.831,-0.12752151
1430264573.847,1.2587051
1430264573.863,2.6249828
1430264573.878,3.906561
1430264573.894,5.0710335
1430264573.91,6.1568165
1430264573.925,7.2355537
1430264573.941,8.389913
1430264573.956,9.665455
1430264573.972,11.074162
1430264573.988,12.571152
1430264574.003,14.086229
1430264574.019,15.550437
1430264574.035,16.914999
1430264574.05,18.176136
1430264574.066,19.38847
1430264574.081,20.68381
1430264574.097,22.230967
1430264574.113,24.188358
1430264574.128,26.63684
1430264574.144,29.452244
1430264574.16,32.267616
1430264574.175,34.491493
1430264574.191,35.46468
1430264574.206,34.663723
1430264574.222,31.88602
1430264574.238,27.310467
1430264574.253,21.42809
1430264574.269,14.862998
1430264574.285,8.202987
1430264574.3,1.8995476
1430264574.316,-3.736125
1430264574.331,-8.493284
1430264574.347,-12.215975
1430264574.363,-14.83331
1430264574.378,-16.399815
1430264574.394,-17.131207
1430264574.41,-17.341927
1430264574.425,-17.34539
1430264574.441,-17.323086
1430264574.456,-17.312836
1430264574.472,-17.23079
1430264574.488,-16.99193
1430264574.503,-16.584919
1430264574.519,-16.091953
1430264574.535,-15.635406
1430264574.55,-15.32849
1430264574.566,-15.222058
1430264574.581,-15.283897
1430264574.597,-15.459694
1430264574.613,-15.700068
1430264574.628,-15.956394
1430264574.644,-16.179497
1430264574.66,-16.288162
1430264574.675,-16.193886
1430264574.691,-15.815981
1430264574.706,-15.133793
1430264574.722,-14.18424
1430264574.738,-13.060904
1430264574.753,-11.858775
1430264574.769,-10.66416
1430264574.785,-9.516628
1430264574.8,-8.428855
1430264574.816,-7.3753014
1430264574.831,-6.311249
1430264574.847,-5.1749697
1430264574.863,-3.907279
1430264574.878,-2.471859
1430264574.894,-0.9043269
1430264574.91,0.71134996
1430264574.925,2.241517
1430264574.941,3.5880327
1430264574.956,4.7187414
1430264574.972,5.700259
1430264574.988,6.6419764
1430264575.003,7.660492
1430264575.019,8.8094635
1430264575.035,10.104182
1430264575.05,11.528147
1430264575.066,13.060558
1430264575.081,14.685399
1430264575.097,16.382334
1430264575.113,18.103144
1430264575.128,19.803621
1430264575.144,21.475851
1430264575.16,23.198792
1430264575.175,25.10122
1430264575.191,27.291279
1430264575.206,29.712732
1430264575.222,32.066944
1430264575.238,33.791504
1430264575.253,34.22872
1430264575.269,32.836468
1430264575.285,29.429985
1430264575.3,24.25233
1430264575.316,17.910236
1430264575.331,11.138243
1430264575.347,4.5957613
1430264575.363,-1.2959175
1430264575.378,-6.347845
1430264575.394,-10.521854
1430264575.41,-13.819811
1430264575.425,-16.25028
1430264575.441,-17.832977
1430264575.456,-18.666023
1430264575.472,-18.915539
1430264575.488,-18.785755
1430264575.503,-18.428545
1430264575.519,-17.924019
1430264575.535,-17.288706
1430264575.55,-16.541046
1430264575.566,-15.741328
1430264575.581,-15.009178
1430264575.597,-14.445328
1430264575.613,-14.113412
1430264575.628,-13.996988
1430264575.644,-14.043111
1430264575.66,-14.181463
1430264575.675,-14.356921
1430264575.691,-14.521273
1430264575.706,-14.627045
1430264575.722,-14.601499
1430264575.738,-14.370848
1430264575.753,-13.892466
1430264575.769,-13.175768
1430264575.785,-12.285906
1430264575.8,-11.319363
1430264575.816,-10.34322
1430264575.831,-9.405978
1430264575.847,-8.4802475
1430264575.863,-7.522188
1430264575.878,-6.484235
1430264575.894,-5.3336797
1430264575.91,-4.054929
1430264575.925,-2.6720784
1430264575.941,-1.2222652
1430264575.956,0.23301035
1430264575.972,1.6307323
1430264575.988,2.9131076
1430264576.003,4.0654755
1430264576.019,5.121826
1430264576.035,6.165738
1430264576.05,7.2993493
1430264576.066,8.596861
1430264576.082,10.067035
1430264576.097,11.660246
1430264576.113,13.274338
1430264576.128,14.834127
1430264576.144,16.312387
1430264576.16,17.746082
1430264576.175,19.225471
1430264576.191,20.86491
1430264576.206,22.761393
1430264576.222,24.959898
1430264576.238,27.397131
1430264576.253,29.83959
1430264576.269,31.892626
1430264576.285,33.02033
1430264576.3,32.702744
1430264576.316,30.604849
1430264576.332,26.685034
1430264576.347,21.2669
1430264576.363,14.916634
1430264576.378,8.304935
1430264576.394,2.0162864
1430264576.41,-3.512909
1430264576.425,-8.049315
1430264576.441,-11.522338
1430264576.457,-13.976379
1430264576.472,-15.540024
1430264576.488,-16.405811
1430264576.503,-16.778011
1430264576.519,-16.825073
1430264576.535,-16.644793
1430264576.55,-16.262344
1430264576.566,-15.688245
1430264576.582,-14.968538
1430264576.597,-14.210824
1430264576.613,-13.566093
1430264576.628,-13.154763
1430264576.644,-13.016666
1430264576.66,-13.1005535
1430264576.675,-13.297682
1430264576.691,-13.510349
1430264576.707,-13.684035
1430264576.722,-13.793305
1430264576.738,-13.815185
1430264576.753,-13.689607
1430264576.769,-13.343172
1430264576.785,-12.713086
1430264576.8,-11.799872
1430264576.816,-10.670254
1430264576.832,-9.445101
1430264576.847,-8.227124
1430264576.863,-7.052248
1430264576.878,-5.884397
1430264576.894,-4.646327
1430264576.91,-3.2733915
1430264576.925,-1.7452666
1430264576.941,-0.10563707
1430264576.957,1.5883837
1430264576.972,3.313671
1430264576.988,5.0719175
1430264577.003,6.8749113
1430264577.019,8.705671
1430264577.035,10.497966
1430264577.05,12.136337
1430264577.066,13.561339
1430264577.082,14.780328
1430264577.097,15.920557
1430264577.113,17.167236
1430264577.128,18.69839
1430264577.144,20.608818
1430264577.16,22.89231
1430264577.175,25.42318
1430264577.191,27.953321
1430264577.207,30.119394
1430264577.222,31.451143
1430264577.238,31.45622
1430264577.253,29.7791
1430264577.269,26.313417
1430264577.285,21.28931
1430264577.3,15.2175665
1430264577.316,8.734972
1430264577.332,2.413197
1430264577.347,-3.3290722
1430264577.363,-8.247841
1430264577.378,-12.224478
1430264577.394,-15.201214
1430264577.41,-17.17878
1430264577.425,-18.241035
1430264577.441,-18.556705
1430264577.457,-18.35621
1430264577.472,-17.849266
1430264577.488,-17.173876
1430264577.503,-16.405893
1430264577.519,-15.580475
1430264577.535,-14.733002
1430264577.55,-13.952518
1430264577.566,-13.336412
1430264577.582,-12.978334
1430264577.597,-12.915691
1430264577.613,-13.122854
1430264577.628,-13.504015
1430264577.644,-13.934322
1430264577.66,-14.271635
1430264577.675,-14.3915615
1430264577.691,-14.231703
1430264577.707,-13.792553
1430264577.722,-13.1267605
1430264577.738,-12.308074
1430264577.753,-11.3839245
1430264577.769,-10.341318
1430264577.785,-9.137155
1430264577.8,-7.736634
1430264577.816,-6.149062
1430264577.832,-4.4494042
1430264577.847,-2.7316055
1430264577.863,-1.0637298
1430264577.878,0.53367805
1430264577.894,2.0903897
1430264577.91,3.6803894
1430264577.925,5.3572483
1430264577.941,7.1475453
1430264577.957,9.027662
1430264577.972,10.912153
1430264577.988,12.701383
1430264578.003,14.307111
1430264578.019,15.686798
1430264578.035,16.906467
1430264578.05,18.12695
1430264578.066,19.586891
1430264578.082,21.507349
1430264578.097,24.000616
1430264578.113,26.9581
1430264578.128,30.043522
1430264578.144,32.712616
1430264578.16,34.3407
1430264578.175,34.366104
1430264578.191,32.441372
1430264578.207,28.519405
1430264578.222,22.899601
1430264578.238,16.145226
1430264578.253,8.955316
1430264578.269,2.0070057
1430264578.285,-4.1711817
1430264578.3,-9.282208
1430264578.316,-13.221695
1430264578.332,-16.036167
1430264578.347,-17.85078
1430264578.363,-18.849194
1430264578.378,-19.247616
1430264578.394,-19.279068
1430264578.41,-19.142508
1430264578.425,-18.969913
1430264578.441,-18.779446
1430264578.457,-18.515549
1430264578.472,-18.113258
1430264578.488,-17.576885
1430264578.503,-16.980452
1430264578.519,-16.43805
1430264578.535,-16.025322
1430264578.55,-15.746632
1430264578.566,-15.549553
1430264578.582,-15.374304
1430264578.597,-15.189619
1430264578.613,-14.967945
1430264578.628,-14.666838
1430264578.644,-14.2151165
1430264578.66,-13.545048
1430264578.675,-12.653639
1430264578.691,-11.614477
1430264578.707,-10.5569725
1430264578.722,-9.562239
1430264578.738,-8.627024
1430264578.753,-7.658329
1430264578.769,-6.5356274
1430264578.785,-5.2007675
1430264578.8,-3.6933537
1430264578.816,-2.1156044
1430264578.832,-0.565073
1430264578.847,0.9338951
1430264578.863,2.4084473
1430264578.878,3.9069977
1430264578.894,5.4638367
1430264578.91,7.0818987
1430264578.925,8.735417
1430264578.941,10.405952
1430264578.957,12.061379
1430264578.972,13.668995
1430264578.988,15.186091
1430264579.004,16.598026
1430264579.019,17.93155
1430264579.035,19.280739
1430264579.05,20.791801
1430264579.066,22.621166
1430264579.082,24.86333
1430264579.097,27.471596
1430264579.113,30.183172
1430264579.129,32.5243
1430264579.144,33.86802
1430264579.16,33.60518
1430264579.175,31.35282
1430264579.191,27.092447
1430264579.207,21.208721
1430264579.222,14.380438
1430264579.238,7.37022
1430264579.254,0.8283367
1430264579.269,-4.8341503
1430264579.285,-9.456621
1430264579.3,-13.066935
1430264579.316,-15.771936
1430264579.332,-17.699202
1430264579.347,-18.957273
1430264579.363,-19.655788
1430264579.379,-19.89666
1430264579.394,-19.81067
1430264579.41,-19.509134
1430264579.425,-19.09908
1430264579.441,-18.65204
1430264579.457,-18.20655
1430264579.472,-17.775898
1430264579.488,-17.354769
1430264579.504,-16.938747
1430264579.519,-16.538187
1430264579.535,-16.179796
1430264579.55,-15.904116
1430264579.566,-15.734188
1430264579.582,-15.663273
1430264579.597,-15.636883
1430264579.613,-15.570948
1430264579.629,-15.350847
1430264579.644,-14.875471
1430264579.66,-14.090094
1430264579.675,-13.00666
1430264579.691,-11.712269
1430264579.707,-10.334522
1430264579.722,-8.999926
1430264579.738,-7.7759266
1430264579.754,-6.640583
1430264579.769,-5.51371
1430264579.785,-4.3011703
1430264579.8,-2.953802
1430264579.816,-1.479372
1430264579.832,0.06789398
1430264579.847,1.6434841
1430264579.863,3.2421227
1430264579.879,4.905607
1430264579.894,6.6701164
1430264579.91,8.544231
1430264579.925,10.474178
1430264579.941,12.37776
1430264579.957,14.154018
1430264579.972,15.743542
1430264579.988,17.12655
1430264580.004,18.349104
1430264580.019,19.523642
1430264580.035,20.841093
1430264580.05,22.518387
1430264580.066,24.712196
1430264580.082,27.363237
1430264580.097,30.104967
1430264580.113,32.29226
1430264580.129,33.18113
1430264580.144,32.190483
1430264580.16,29.141874
1430264580.175,24.301691
1430264580.191,18.280577
1430264580.207,11.799091
1430264580.222,5.4750576
1430264580.238,-0.29783058
1430264580.254,-5.3060207
1430264580.269,-9.465933
1430264580.285,-12.715723
1430264580.3,-15.020084
1430264580.316,-16.386957
1430264580.332,-16.91836
1430264580.347,-16.810442
1430264580.363,-16.31443
1430264580.379,-15.680973
1430264580.394,-15.100855
1430264580.41,-14.690376
1430264580.425,-14.475138
1430264580.441,-14.410482
1430264580.457,-14.45368
1430264580.472,-14.551304
1430264580.488,-14.698589
1430264580.504,-14.884272
1430264580.519,-15.094097
1430264580.535,-15.244816
1430264580.55,-15.246052
1430264580.566,-14.99917
1430264580.582,-14.484211
1430264580.597,-13.767752
1430264580.613,-12.97105
1430264580.629,-12.198387
1430264580.644,-11.481716
1430264580.66,-10.7555485
1430264580.675,-9.89135
1430264580.691,-8.79306
1430264580.707,-7.43557
1430264580.722,-5.8820534
1430264580.738,-4.256443
1430264580.754,-2.6349869
1430264580.769,-1.0551872
1430264580.785,0.5210304
1430264580.8,2.1572227
1430264580.816,3.9097347
1430264580.832,5.7743263
1430264580.847,7.693516
1430264580.863,9.562353
1430264580.879,11.273119
1430264580.894,12.770184
1430264580.91,14.086773
1430264580.925,15.345175
1430264580.941,16.724981
1430264580.957,18.396729
1430264580.972,20.469627
1430264580.988,22.936789
1430264581.004,25.674116
1430264581.019,28.402206
1430264581.035,30.740828
1430264581.05,32.222816
1430264581.066,32.390526
1430264581.082,30.904774
1430264581.097,27.661865
1430264581.113,22.85543
1430264581.129,16.956476
1430264581.144,10.588415
1430264581.16,4.354727
1430264581.175,-1.3141842
1430264581.191,-6.2006416
1430264581.207,-10.272245
1430264581.222,-13.569578
1430264581.238,-16.118519
1430264581.254,-17.887144
1430264581.269,-18.84067
1430264581.285,-18.989296
1430264581.3,-18.46437
1430264581.316,-17.517857
1430264581.332,-16.473349
1430264581.347,-15.616936
1430264581.363,-15.120213
1430264581.379,-14.994051
1430264581.394,-15.134945
1430264581.41,-15.376017
1430264581.425,-15.576763
1430264581.441,-15.660818
1430264581.457,-15.61105
1430264581.472,-15.435942
1430264581.488,-15.154385
1430264581.504,-14.763704
1430264581.519,-14.276533
1430264581.535,-13.70459
1430264581.55,-13.081558
1430264581.566,-12.4285145
1430264581.582,-11.746937
1430264581.597,-10.989323
1430264581.613,-10.082329
1430264581.629,-8.950001
1430264581.644,-7.5594788
1430264581.66,-5.9357414
1430264581.676,-4.1746597
1430264581.691,-2.3971024
1430264581.707,-0.7203579
1430264581.722,0.7869854
1430264581.738,2.1212826
1430264581.754,3.3581638
1430264581.769,4.594084
1430264581.785,5.938959
1430264581.801,7.445841
1430264581.816,9.112358
1430264581.832,10.879665
1430264581.847,12.677853
1430264581.863,14.467676
1430264581.879,16.2461
1430264581.894,18.03082
1430264581.91,19.852402
1430264581.926,21.726227
1430264581.941,23.67781
1430264581.957,25.72382
1430264581.972,27.862877
1430264581.988,29.982553
1430264582.004,31.816818
1430264582.019,32.90635
1430264582.035,32.711216
1430264582.051,30.769608
1430264582.066,26.91031
1430264582.082,21.357891
1430264582.097,14.71163
1430264582.113,7.75428
1430264582.129,1.2309227
1430264582.144,-4.3683167
1430264582.16,-8.866871
1430264582.176,-12.344173
1430264582.191,-14.995274
1430264582.207,-16.993576
1430264582.222,-18.417334
1430264582.238,-19.27853
1430264582.254,-19.594099
1430264582.269,-19.46801
1430264582.285,-19.076277
1430264582.301,-18.635178
1430264582.316,-18.277624
1430264582.332,-18.02169
1430264582.347,-17.78268
1430264582.363,-17.456524
1430264582.379,-17.019865
1430264582.394,-16.572918
1430264582.41,-16.274303
1430264582.426,-16.251509
1430264582.441,-16.48999
1430264582.457,-16.85502
1430264582.472,-17.147888
1430264582.488,-17.219654
1430264582.504,-17.024311
1430264582.519,-16.598003
1430264582.535,-15.979563
1430264582.551,-15.168858
1430264582.566,-14.126198
1430264582.582,-12.83886
1430264582.597,-11.372307
1430264582.613,-9.871425
1430264582.629,-8.495466
1430264582.644,-7.3364334
1430264582.66,-6.378764
1430264582.676,-5.4979153
1430264582.691,-4.547922
1430264582.707,-3.4311237
1430264582.722,-2.1300344
1430264582.738,-0.69746876
1430264582.754,0.7912226
1430264582.769,2.2563381
1430264582.785,3.644154
1430264582.801,4.92056
1430264582.816,6.099567
1430264582.832,7.2344213
1430264582.847,8.416624
1430264582.863,9.727064
1430264582.879,11.199002
1430264582.894,12.768794
1430264582.91,14.311569
1430264582.926,15.7068815
1430264582.941,16.921753
1430264582.957,18.04665
1430264582.972,19.269802
1430264582.988,20.786335
1430264583.004,22.730827
1430264583.019,25.093721
1430264583.035,27.712587
1430264583.051,30.24181
1430264583.066,32.21661
1430264583.082,33.100067
1430264583.097,32.423096
1430264583.113,29.920006
1430264583.129,25.644653
1430264583.144,19.985342
1430264583.16,13.561929
1430264583.176,7.0318627
1430264583.191,0.9112303
1430264583.207,-4.5205846
1430264583.222,-9.171386
1430264583.238,-13.0292425
1430264583.254,-16.055433
1430264583.269,-18.175583
1430264583.285,-19.33802
1430264583.301,-19.615355
1430264583.316,-19.233171
1430264583.332,-18.529709
1430264583.347,-17.83672
1430264583.363,-17.382977
1430264583.379,-17.224539
1430264583.394,-17.284504
1430264583.41,-17.421371
1430264583.426,-17.532106
1430264583.441,-17.59048
1430264583.457,-17.632313
1430264583.472,-17.700655
1430264583.488,-17.794952
1430264583.504,-17.8578
1430264583.519,-17.78829
1430264583.535,-17.482367
1430264583.551,-16.902132
1430264583.566,-16.068354
1430264583.582,-15.065712
1430264583.597,-13.993644
1430264583.613,-12.940664
1430264583.629,-11.936642
1430264583.644,-10.966804
1430264583.66,-9.972283
1430264583.676,-8.883883
1430264583.691,-7.6513643
1430264583.707,-6.2771854
1430264583.722,-4.8170033
1430264583.738,-3.3759842
1430264583.754,-2.0613422
1430264583.769,-0.93471146
1430264583.785,0.0094509125
1430264583.801,0.8396034
1430264583.816,1.6425819
1430264583.832,2.4745445
1430264583.847,3.3593006
1430264583.863,4.304138
1430264583.879,5.317381
1430264583.894,6.3875294
1430264583.91,7.5106277
1430264583.926,8.653297
1430264583.941,9.784998
1430264583.957,10.903767
1430264583.972,12.054104
1430264583.988,13.298756
1430264584.004,14.680859
1430264584.019,16.165188
1430264584.035,17.647858
1430264584.051,19.000092
1430264584.066,20.164814
1430264584.082,21.220772
1430264584.097,22.372036
1430264584.113,23.818394
1430264584.129,25.640648
1430264584.144,27.665432
1430264584.16,29.475086
1430264584.176,30.508461
1430264584.191,30.251179
1430264584.207,28.397366
1430264584.222,24.964207
1430264584.238,20.25278
1430264584.254,14.751019
1430264584.269,8.968208
1430264584.285,3.3408356
1430264584.301,-1.8143616
1430264584.316,-6.2647896
1430264584.332,-9.845333
1430264584.348,-12.454346
1430264584.363,-14.100117
1430264584.379,-14.895264
1430264584.394,-15.080826
1430264584.41,-14.922272
1430264584.426,-14.638515
1430264584.441,-14.351585
1430264584.457,-14.084526
1430264584.473,-13.799652
1430264584.488,-13.482441
1430264584.504,-13.153103
1430264584.519,-12.874718
1430264584.535,-12.709881
1430264584.551,-12.69809
1430264584.566,-12.828674
1430264584.582,-13.056541
1430264584.598,-13.296356
1430264584.613,-13.475334
1430264584.629,-13.524162
1430264584.644,-13.398949
1430264584.66,-13.063721
1430264584.676,-12.499012
1430264584.691,-11.689796
1430264584.707,-10.6609955
1430264584.723,-9.477215
1430264584.738,-8.263252
1430264584.754,-7.153969
1430264584.769,-6.250988
1430264584.785,-5.5555916
1430264584.801,-4.965763
1430264584.816,-4.3038673
1430264584.832,-3.4160347
1430264584.848,-2.2424355
1430264584.863,-0.85479355
1430264584.879,0.5883751
1430264584.894,1.9196129
1430264584.91,3.0545807
1430264584.926,4.017002
1430264584.941,4.9316597
1430264584.957,5.945175
1430264584.973,7.171364
1430264584.988,8.626598
1430264585.004,10.242718
1430264585.019,11.881783
1430264585.035,13.412327
1430264585.051,14.73415
1430264585.066,15.831234
1430264585.082,16.75903
1430264585.098,17.65176
1430264585.113,18.6613
1430264585.129,19.93681
1430264585.144,21.565983
1430264585.16,23.50172
1430264585.176,25.511253
1430264585.191,27.188538
1430264585.207,28.004532
1430264585.223,27.472786
1430264585.238,25.303864
1430264585.254,21.536469
1430264585.269,16.544395
1430264585.285,10.9266815
1430264585.301,5.2970123
1430264585.316,0.1382904
1430264585.332,-4.2846527
1430264585.348,-7.874687
1430264585.363,-10.614761
1430264585.379,-12.513405
1430264585.394,-13.614098
1430264585.41,-14.0230255
1430264585.426,-13.960701
1430264585.441,-13.685921
1430264585.457,-13.422279
1430264585.473,-13.250893
1430264585.488,-13.113693
1430264585.504,-12.871834
1430264585.519,-12.437294
1430264585.535,-11.828293
1430264585.551,-11.185272
1430264585.566,-10.686737
1430264585.582,-10.465134
1430264585.598,-10.529274
1430264585.613,-10.810776
1430264585.629,-11.177109
1430264585.644,-11.503967
1430264585.66,-11.681374
1430264585.676,-11.629272
1430264585.691,-11.278534
1430264585.707,-10.608749
1430264585.723,-9.646774
1430264585.738,-8.476967
1430264585.754,-7.2199936
1430264585.769,-5.9953156
1430264585.785,-4.875618
1430264585.801,-3.8815155
1430264585.816,-2.9707794
1430264585.832,-2.067871
1430264585.848,-1.1009521
1430264585.863,-0.0260849
1430264585.879,1.159668
1430264585.894,2.4168015
1430264585.91,3.704628
1430264585.926,5.0040894
1430264585.941,6.3421936
1430264585.957,7.762665
1430264585.973,9.314262
1430264585.988,10.980461
1430264586.004,12.690231
1430264586.019,14.325493
1430264586.035,15.777565
1430264586.051,17.010956
1430264586.066,18.096153
1430264586.082,19.198082
1430264586.098,20.533424
1430264586.113,22.258865
1430264586.129,24.392632
1430264586.144,26.709877
1430264586.16,28.778862
1430264586.176,30.024254
1430264586.191,29.913712
1430264586.207,28.119225
1430264586.223,24.635323
1430264586.238,19.758438
1430264586.254,14.015518
1430264586.269,7.9959183
1430264586.285,2.229103
1430264586.301,-2.8789139
1430264586.316,-7.0742264
1430264586.332,-10.251282
1430264586.348,-12.433647
1430264586.363,-13.776627
1430264586.379,-14.518089
1430264586.394,-14.908722
1430264586.41,-15.138748
1430264586.426,-15.294159
1430264586.441,-15.340775
1430264586.457,-15.217434
1430264586.473,-14.877312
1430264586.488,-14.34901
1430264586.504,-13.722794
1430264586.519,-13.105446
1430264586.535,-12.565342
1430264586.551,-12.13773
1430264586.566,-11.812611
1430264586.582,-11.591633
1430264586.598,-11.495224
1430264586.613,-11.565567
1430264586.629,-11.797123
1430264586.644,-12.132023
1430264586.66,-12.433384
1430264586.676,-12.552013
1430264586.691,-12.37933
1430264586.707,-11.905773
1430264586.723,-11.201393
1430264586.738,-10.39259
1430264586.754,-9.562603
1430264586.769,-8.713875
1430264586.785,-7.7740173
1430264586.801,-6.6407166
1430264586.816,-5.2452965
1430264586.832,-3.5985527
1430264586.848,-1.779644
1430264586.863,0.0695343
1430264586.879,1.8067398
1430264586.894,3.3241043
1430264586.91,4.596775
1430264586.926,5.663479
1430264586.941,6.636181
1430264586.957,7.6373367
1430264586.973,8.781101
1430264586.988,10.115875
1430264587.004,11.619595
1430264587.02,13.211491
1430264587.035,14.795979
1430264587.051,16.289047
1430264587.066,17.659405
1430264587.082,18.93895
1430264587.098,20.221607
1430264587.113,21.625053
1430264587.129,23.295837
1430264587.144,25.332973
1430264587.16,27.730686
1430264587.176,30.285294
1430264587.191,32.588066
1430264587.207,34.055
1430264587.223,34.10805
1430264587.238,32.34656
1430264587.254,28.709076
1430264587.27,23.507332
1430264587.285,17.346619
1430264587.301,10.929993
1430264587.316,4.8616714
1430264587.332,-0.46323013
1430264587.348,-4.893059
1430264587.363,-8.462318
1430264587.379,-11.264061
1430264587.395,-13.393215
1430264587.41,-14.89957
1430264587.426,-15.838131
1430264587.441,-16.279636
1430264587.457,-16.34372
1430264587.473,-16.160805
1430264587.488,-15.842907
1430264587.504,-15.464767
1430264587.52,-15.06617
1430264587.535,-14.680279
1430264587.551,-14.373295
1430264587.566,-14.234463
1430264587.582,-14.332119
1430264587.598,-14.68005
1430264587.613,-15.225494
1430264587.629,-15.853409
1430264587.645,-16.435097
1430264587.66,-16.854134
1430264587.676,-17.027393
1430264587.691,-16.884857
1430264587.707,-16.379112
1430264587.723,-15.494797
1430264587.738,-14.283257
1430264587.754,-12.878098
1430264587.77,-11.454338
1430264587.785,-10.149658
1430264587.801,-9.025169
1430264587.816,-8.031624
1430264587.832,-7.0817223
1430264587.848,-6.0883026
1430264587.863,-5.040642
1430264587.879,-3.969181
1430264587.895,-2.9017143
1430264587.91,-1.8115559
1430264587.926,-0.63251305
1430264587.941,0.680418
1430264587.957,2.1150208
1430264587.973,3.5746899
1430264587.988,4.9529915
1430264588.004,6.222561
1430264588.02,7.4675465
1430264588.035,8.854923
1430264588.051,10.515135
1430264588.066,12.435726
1430264588.082,14.448055
1430264588.098,16.339449
1430264588.113,17.950983
1430264588.129,19.316679
1430264588.145,20.648779
1430264588.16,22.255428
1430264588.176,24.333385
1430264588.191,26.857801
1430264588.207,29.50984
1430264588.223,31.742882
1430264588.238,32.94005
1430264588.254,32.575157
1430264588.27,30.377625
1430264588.285,26.413313
1430264588.301,21.038511
1430264588.316,14.809895
1430264588.332,8.311058
1430264588.348,2.0575962
1430264588.363,-3.5959759
1430264588.379,-8.428595
1430264588.395,-12.3352165
1430264588.41,-15.263552
1430264588.426,-17.229008
1430264588.441,-18.322418
1430264588.457,-18.708954
1430264588.473,-18.599554
1430264588.488,-18.205206
1430264588.504,-17.674942
1430264588.52,-17.08886
1430264588.535,-16.49747
1430264588.551,-15.942012
1430264588.566,-15.483153
1430264588.582,-15.192834
1430264588.598,-15.106198
1430264588.613,-15.208459
1430264588.629,-15.453726
1430264588.645,-15.788717
1430264588.66,-16.174618
1430264588.676,-16.596426
1430264588.691,-16.998497
1430264588.707,-17.29066
1430264588.723,-17.334831
1430264588.738,-17.000326
1430264588.754,-16.228748
1430264588.77,-15.093257
1430264588.785,-13.751307
1430264588.801,-12.412386
1430264588.816,-11.2340145
1430264588.832,-10.277652
1430264588.848,-9.489411
1430264588.863,-8.7397585
1430264588.879,-7.8603725
1430264588.895,-6.7340736
1430264588.91,-5.3169518
1430264588.926,-3.675247
1430264588.941,-1.9453493
1430264588.957,-0.2859347
1430264588.973,1.207284
1430264588.988,2.4942522
1430264589.004,3.6356757
1430264589.02,4.726865
1430264589.035,5.8603764
1430264589.051,7.0850224
1430264589.066,8.420347
1430264589.082,9.845359
1430264589.098,11.337824
1430264589.113,12.872546
1430264589.129,14.420162
1430264589.145,15.957495
1430264589.16,17.491755
1430264589.176,19.077057
1430264589.191,20.848513
1430264589.207,22.936045
1430264589.223,25.345745
1430264589.238,27.852648
1430264589.254,30.004675
1430264589.27,31.204874
1430264589.285,30.941404
1430264589.301,28.952166
1430264589.316,25.324387
1430264589.332,20.412516
1430264589.348,14.701982
1430264589.363,8.649041
1430264589.379,2.6398854
1430264589.395,-3.00647
1430264589.41,-8.008617
1430264589.426,-12.119355
1430264589.441,-15.183784
1430264589.457,-17.19716
1430264589.473,-18.279041
1430264589.488,-18.65536
1430264589.504,-18.534409
1430264589.52,-18.09142
1430264589.535,-17.452868
1430264589.551,-16.75184
1430264589.566,-16.10971
1430264589.582,-15.614195
1430264589.598,-15.2869
1430264589.613,-15.072609
1430264589.629,-14.884375
1430264589.645,-14.680367
1430264589.66,-14.473213
1430264589.676,-14.340208
1430264589.691,-14.332106
1430264589.707,-14.423123
1430264589.723,-14.50158
1430264589.738,-14.431061
1430264589.754,-14.109258
1430264589.77,-13.526673
1430264589.785,-12.759403
1430264589.801,-11.91779
1430264589.816,-11.056549
1430264589.832,-10.154331
1430264589.848,-9.10593
1430264589.863,-7.8106613
1430264589.879,-6.23193
1430264589.895,-4.4549923
1430264589.91,-2.6518831
1430264589.926,-1.0053511
1430264589.942,0.39163876
1430264589.957,1.5853057
1430264589.973,2.7405548
1430264589.988,4.036957
1430264590.004,5.5827518
1430264590.02,7.351681
1430264590.035,9.22567
1430264590.051,11.044688
1430264590.067,12.693559
1430264590.082,14.129457
1430264590.098,15.378506
1430264590.113,16.494385
1430264590.129,17.562923
1430264590.145,18.709412
1430264590.16,20.097698
1430264590.176,21.870512
1430264590.192,24.046028
1430264590.207,26.419598
1430264590.223,28.539906
1430264590.238,29.78017
1430264590.254,29.53311
1430264590.27,27.428337
1430264590.285,23.476196
1430264590.301,18.05209
1430264590.317,11.794982
1430264590.332,5.396924
1430264590.348,-0.54736423
1430264590.363,-5.665125
1430264590.379,-9.784968
1430264590.395,-12.886955
1430264590.41,-15.034976
1430264590.426,-16.348747
1430264590.442,-16.971249
1430264590.457,-17.084888
1430264590.473,-16.869999
1430264590.488,-16.48811
1430264590.504,-16.045403
1430264590.52,-15.584926
1430264590.535,-15.109368
1430264590.551,-14.612855
1430264590.567,-14.114102
1430264590.582,-13.65745
1430264590.598,-13.294468
1430264590.613,-13.0630455
1430264590.629,-12.971938
1430264590.645,-12.995489
1430264590.66,-13.069097
1430264590.676,-13.121597
1430264590.692,-13.070933
1430264590.707,-12.864295
1430264590.723,-12.480051
1430264590.738,-11.938426
1430264590.754,-11.285772
1430264590.77,-10.5588045
1430264590.785,-9.751303
1430264590.801,-8.817337
1430264590.817,-7.702775
