1434064081.957,0.0
1434064081.973,0.0
1434064081.988,0.0
1434064082.004,0.0
1434064082.02,0.0
1434064082.035,0.0
1434064082.051,0.0
1434064082.066,0.0
1434064082.082,0.0
1434064082.098,0.0022315353
1434064082.113,-0.0045169927
1434064082.129,-0.011265522
1434064082.145,-0.011383951
1434064082.16,0.0011864507
1434064082.176,0.025910312
1434064082.191,0.050634187
1434064082.207,0.051362894
1434064082.223,-0.0014929791
1434064082.238,-0.1302426
1434064082.254,-0.35562757
1434064082.27,-0.6591247
1434064082.285,-1.0095103
1434064082.301,-1.3709826
1434064082.316,-1.7197359
1434064082.332,-2.0551105
1434064082.348,-2.39945
1434064082.363,-2.7866635
1434064082.379,-3.2399073
1434064082.395,-3.796012
1434064082.41,-4.418684
1434064082.426,-5.0592937
1434064082.441,-5.6644096
1434064082.457,-6.2021537
1434064082.473,-6.6808796
1434064082.488,-7.149597
1434064082.504,-7.6782303
1434064082.52,-8.31073
1434064082.535,-9.143683
1434064082.551,-10.089941
1434064082.566,-11.041955
1434064082.582,-11.88549
1434064082.598,-12.566113
1434064082.613,-13.137274
1434064082.629,-13.760445
1434064082.645,-14.65069
1434064082.66,-15.9591675
1434064082.676,-17.913382
1434064082.692,-20.322918
1434064082.707,-22.919939
1434064082.723,-25.404707
1434064082.738,-27.602253
1434064082.754,-29.57574
1434064082.77,-31.63092
1434064082.785,-34.19924
1434064082.801,-37.601425
1434064082.817,-42.22867
1434064082.832,-47.739815
1434064082.848,-53.619156
1434064082.863,-59.284023
1434064082.879,-64.369026
1434064082.895,-68.92473
1434064082.91,-73.42202
1434064082.926,-78.54987
1434064082.942,-84.834274
1434064082.957,-92.81781
1434064082.973,-102.00001
1434064082.988,-111.58667
1434064083.004,-120.6782
1434064083.02,-128.68452
1434064083.035,-135.60765
1434064083.051,-142.04768
1434064083.067,-149.3263
1434064083.082,-156.15735
1434064083.098,-164.83305
1434064083.113,-175.98006
1434064083.129,-189.71419
1434064083.145,-204.81068
1434064083.16,-218.30333
1434064083.176,-225.7888
1434064083.192,-222.57082
1434064083.207,-205.26569
1434064083.223,-173.03629
1434064083.238,-128.35579
1434064083.254,-75.1535
1434064083.27,-17.805115
1434064083.285,40.48648
1434064083.301,98.27414
1434064083.317,155.43484
1434064083.332,212.19174
1434064083.348,268.28088
1434064083.363,322.77353
1434064083.379,374.04507
1434064083.395,421.0025
1434064083.41,462.85223
1434064083.426,499.03897
1434064083.442,528.8368
1434064083.457,551.057
1434064083.473,564.105
1434064083.488,566.25977
1434064083.504,556.3314
1434064083.52,533.8944
1434064083.535,499.9417
1434064083.551,456.44757
1434064083.567,406.01227
1434064083.582,351.34525
1434064083.598,294.8686
1434064083.613,238.5549
1434064083.629,184.00833
1434064083.645,132.56131
1434064083.66,85.14035
1434064083.676,42.26709
1434064083.692,3.7429504
1434064083.707,-31.312805
1434064083.723,-64.118225
1434064083.738,-95.698105
1434064083.754,-126.43251
1434064083.77,-155.88118
1434064083.785,-182.99054
1434064083.801,-206.5581
1434064083.817,-225.54466
1434064083.832,-239.32697
1434064083.848,-247.64722
1434064083.863,-250.51468
1434064083.879,-248.17393
1434064083.895,-241.19574
1434064083.91,-230.54707
1434064083.926,-217.5086
1434064083.942,-203.43005
1434064083.957,-189.37639
1434064083.973,-175.94687
1434064083.988,-163.23193
1434064084.004,-151.03801
1434064084.02,-139.12949
1434064084.035,-127.44652
1434064084.051,-116.1572
1434064084.067,-105.5472
1434064084.082,-95.87417
1434064084.098,-87.19727
1434064084.113,-79.43394
1434064084.129,-72.36808
1434064084.145,-65.81114
1434064084.16,-59.61226
1434064084.176,-53.685093
1434064084.192,-47.925415
1434064084.207,-42.206768
1434064084.223,-36.493355
1434064084.238,-30.697569
1434064084.254,-24.89903
1434064084.27,-19.357533
1434064084.285,-14.438057
1434064084.301,-10.4302635
1434064084.317,-7.4043007
1434064084.332,-5.1555023
1434064084.348,-3.2449875
1434064084.363,-1.2324028
1434064084.379,1.1655502
1434064084.395,3.8743286
1434064084.41,6.5230675
1434064084.426,8.6189995
1434064084.442,9.798836
1434064084.457,9.995792
1434064084.473,9.454868
1434064084.488,8.630077
1434064084.504,7.965931
1434064084.52,7.7706757
1434064084.535,8.127983
1434064084.551,8.928116
1434064084.567,9.928143
1434064084.582,10.741116
1434064084.598,10.849884
1434064084.613,9.686157
1434064084.629,6.8345566
1434064084.645,2.2778206
1434064084.66,-3.4437218
1434064084.676,-9.30212
1434064084.692,-14.095943
1434064084.707,-16.877354
1434064084.723,-17.248173
1434064084.738,-15.477135
1434064084.754,-12.241844
1434064084.77,-8.3591
1434064084.785,-4.4839973
1434064084.801,-0.9911766
1434064084.817,1.9506721
1434064084.832,4.248703
1434064084.848,5.861023
1434064084.863,6.738991
1434064084.879,6.917038
1434064084.895,6.5276947
1434064084.91,5.793024
1434064084.926,4.9564705
1434064084.942,4.1833878
1434064084.957,3.5035076
1434064084.973,2.8490543
1434064084.988,2.0863552
1434064085.004,1.1662903
1434064085.02,0.16744614
1434064085.035,-0.6554413
1434064085.051,-0.9995651
1434064085.067,-0.62122536
1434064085.082,0.49114037
1434064085.098,2.0942078
1434064085.113,3.7319965
1434064085.129,4.9474545
1434064085.145,5.4706497
1434064085.16,5.3218803
1434064085.176,4.808069
1434064085.192,4.3554077
1434064085.207,4.2852097
1434064085.223,4.6805573
1434064085.238,5.344309
1434064085.254,5.927004
1434064085.27,6.080551
1434064085.285,5.662466
1434064085.301,4.758585
1434064085.317,3.6856194
1434064085.332,2.8342953
1434064085.348,2.542902
1434064085.364,2.9500542
1434064085.379,3.9285927
1434064085.395,5.045906
1434064085.41,5.6303368
1434064085.426,5.019533
1434064085.442,2.715397
1434064085.457,-1.3442497
1434064085.473,-6.669668
1434064085.488,-12.361568
1434064085.504,-17.30624
1434064085.52,-20.575022
1434064085.535,-21.629631
1434064085.551,-20.493729
1434064085.567,-17.653301
1434064085.582,-13.882669
1434064085.598,-9.959437
1434064085.614,-6.5231133
1434064085.629,-3.9334517
1434064085.645,-2.2739782
1434064085.66,-1.4110622
1434064085.676,-1.1068125
1434064085.692,-1.1375799
1434064085.707,-1.3835793
1434064085.723,-1.8419161
1434064085.739,-2.5631475
1434064085.754,-3.5462437
1434064085.77,-4.711586
1434064085.785,-5.838238
1434064085.801,-6.707901
1434064085.817,-7.1350718
1434064085.832,-7.0584803
1434064085.848,-6.4988537
1434064085.864,-5.538288
1434064085.879,-4.208913
1434064085.895,-2.5259595
1434064085.91,-0.51106167
1434064085.926,1.8780389
1434064085.942,4.553071
1434064085.957,7.3470345
1434064085.973,10.0413265
1434064085.989,12.389892
1434064086.004,14.203764
1434064086.02,15.382117
1434064086.035,15.938255
1434064086.051,16.007349
1434064086.067,15.815798
1434064086.082,15.59093
1434064086.098,15.564365
1434064086.114,15.876362
1434064086.129,16.565819
1434064086.145,17.461393
1434064086.16,18.229197
1434064086.176,18.33569
1434064086.192,17.211615
1434064086.207,14.460936
1434064086.223,10.079361
1434064086.239,4.5509605
1434064086.254,-1.1935229
1434064086.27,-6.095093
1434064086.285,-9.322562
1434064086.301,-10.52775
1434064086.317,-9.902796
1434064086.332,-8.010415
1434064086.348,-5.464341
1434064086.364,-2.7299874
1434064086.379,-0.021436214
1434064086.395,2.561856
1434064086.41,4.944802
1434064086.426,6.98248
1434064086.442,8.498894
1434064086.457,9.371132
1434064086.473,9.580887
1434064086.489,9.201712
1434064086.504,8.378868
1434064086.52,7.2596836
1434064086.535,5.9716268
1434064086.551,4.6373277
1434064086.567,3.3670282
1434064086.582,2.2496922
1434064086.598,1.3449838
1434064086.614,0.6859298
1434064086.629,0.29848456
1434064086.645,0.26853275
1434064086.66,0.7077565
1434064086.676,1.6970851
1434064086.692,3.206603
1434064086.707,5.0167375
1434064086.723,6.78711
1434064086.739,8.156062
1434064086.754,8.91312
1434064086.77,9.107851
1434064086.785,9.0777
1434064086.801,9.288113
1434064086.817,10.192026
1434064086.832,12.012631
1434064086.848,14.690222
1434064086.864,17.830383
1434064086.879,20.797485
1434064086.895,22.792542
1434064086.91,22.778637
1434064086.926,19.916523
1434064086.942,13.77991
1434064086.957,4.575156
1434064086.973,-6.84319
1434064086.989,-19.123535
1434064087.004,-30.760916
1434064087.02,-40.51328
1434064087.035,-47.631035
1434064087.051,-51.94551
1434064087.067,-53.64674
1434064087.082,-53.119843
1434064087.098,-50.750282
1434064087.114,-46.915955
1434064087.129,-42.016453
1434064087.145,-36.49453
1434064087.16,-30.790417
1434064087.176,-25.250835
1434064087.192,-20.016533
1434064087.207,-15.03503
1434064087.223,-10.205493
1434064087.239,-5.546788
1434064087.254,-1.3096962
1434064087.27,2.077156
1434064087.285,4.210394
1434064087.301,4.927746
1434064087.317,4.4564133
1434064087.332,3.3653011
1434064087.348,2.4310427
1434064087.364,2.339096
1434064087.379,3.5240154
1434064087.395,6.0583
1434064087.41,9.705461
1434064087.426,14.023223
1434064087.442,18.509909
1434064087.457,22.7453
1434064087.473,26.493355
1434064087.489,29.785301
1434064087.504,32.911205
1434064087.52,36.364
1434064087.535,40.63926
1434064087.551,45.92386
1434064087.567,51.827732
1434064087.582,57.240433
1434064087.598,60.523678
1434064087.614,59.94542
1434064087.629,54.33493
1434064087.645,43.54426
1434064087.66,28.628532
1434064087.676,11.540668
1434064087.692,-5.4513426
1434064087.707,-20.427734
1434064087.723,-32.246754
1434064087.739,-40.608887
1434064087.754,-45.822952
1434064087.77,-48.430557
1434064087.785,-48.913963
1434064087.801,-47.58603
1434064087.817,-44.6455
1434064087.832,-40.32405
1434064087.848,-34.984768
1434064087.864,-29.131664
1434064087.879,-23.327219
1434064087.895,-18.070078
1434064087.91,-13.671875
1434064087.926,-10.254965
1434064087.942,-7.7562943
1434064087.957,-6.040373
1434064087.973,-4.939451
1434064087.989,-4.32382
1434064088.004,-4.107506
1434064088.02,-4.218609
1434064088.035,-4.5598965
1434064088.051,-5.0032463
1434064088.067,-5.393635
1434064088.082,-5.579771
1434064088.098,-5.4143696
1434064088.114,-4.79694
1434064088.129,-3.640461
1434064088.145,-1.9097576
1434064088.16,0.38079453
1434064088.176,3.1093616
1434064088.192,6.076971
1434064088.207,9.033823
1434064088.223,11.780516
1434064088.239,14.262726
1434064088.254,16.654758
1434064088.27,19.324553
1434064088.286,22.735283
1434064088.301,27.201065
1434064088.317,32.64319
1434064088.332,38.39751
1434064088.348,43.22752
1434064088.364,45.571045
1434064088.379,44.009563
1434064088.395,37.76008
1434064088.411,27.019787
1434064088.426,12.968773
1434064088.442,-2.5405607
1434064088.457,-17.536928
1434064088.473,-30.413317
1434064088.489,-40.247032
1434064088.504,-46.79019
1434064088.52,-50.28311
1434064088.536,-51.18979
1434064088.551,-50.03283
1434064088.567,-47.316154
1434064088.582,-43.533524
1434064088.598,-39.135284
1434064088.614,-34.519897
1434064088.629,-29.949188
1434064088.645,-25.543083
1434064088.661,-21.320114
1434064088.676,-17.301445
1434064088.692,-13.578585
1434064088.707,-10.373695
1434064088.723,-7.9593415
1434064088.739,-6.5793858
1434064088.754,-6.2902102
1434064088.77,-6.8937426
1434064088.786,-7.960435
1434064088.801,-8.959252
1434064088.817,-9.426624
1434064088.832,-9.108277
1434064088.848,-8.001713
1434064088.864,-6.2994547
1434064088.879,-4.2304535
1434064088.895,-1.9367347
1434064088.911,0.6165509
1434064088.926,3.5688496
1434064088.942,7.0567503
1434064088.957,11.088777
1434064088.973,15.473948
1434064088.989,19.861233
1434064089.004,23.862562
1434064089.02,27.191269
1434064089.036,29.794632
1434064089.051,31.858486
1434064089.067,33.803368
1434064089.082,36.16702
1434064089.098,39.423187
1434064089.114,43.72907
1434064089.129,48.69072
1434064089.145,53.268814
1434064089.161,55.896317
1434064089.176,54.896408
1434064089.192,49.067215
1434064089.207,38.16271
1434064089.223,23.116838
1434064089.239,5.812639
1434064089.254,-11.4427185
1434064089.27,-26.606276
1434064089.286,-38.319534
1434064089.301,-46.090378
1434064089.317,-50.122673
1434064089.332,-51.03268
1434064089.348,-49.578987
1434064089.364,-46.529186
1434064089.379,-42.568657
1434064089.395,-38.270187
1434064089.411,-34.042057
1434064089.426,-30.096893
1434064089.442,-26.478168
1434064089.457,-23.147137
1434064089.473,-20.06866
1434064089.489,-17.30915
1434064089.504,-15.021763
1434064089.52,-13.393063
1434064089.536,-12.519428
1434064089.551,-12.365345
1434064089.567,-12.692749
1434064089.582,-13.115959
1434064089.598,-13.192249
1434064089.614,-12.536594
1434064089.629,-10.934296
1434064089.645,-8.39576
1434064089.661,-5.1256027
1434064089.676,-1.4475822
1434064089.692,2.356308
1434064089.707,6.142132
1434064089.723,9.929375
1434064089.739,13.824032
1434064089.754,17.913631
1434064089.77,22.11409
1434064089.786,26.20721
1434064089.801,29.889778
1434064089.817,32.93279
1434064089.832,35.31796
1434064089.848,37.26695
1434064089.864,39.203274
1434064089.879,41.63773
1434064089.895,44.977932
1434064089.911,49.312332
1434064089.926,54.236767
1434064089.942,58.78604
1434064089.957,61.530518
1434064089.973,60.954247
1434064089.989,55.90881
1434064090.004,46.081596
1434064090.02,32.21962
1434064090.036,15.999184
1434064090.051,-0.4801712
1434064090.067,-15.305389
1434064090.082,-27.244843
1434064090.098,-35.90056
1434064090.114,-41.49727
1434064090.129,-44.52742
1434064090.145,-45.45559
1434064090.161,-44.589684
1434064090.176,-42.199905
1434064090.192,-38.634956
1434064090.207,-34.405724
1434064090.223,-30.084824
1434064090.239,-26.164154
1434064090.254,-22.875298
1434064090.27,-20.187386
1434064090.286,-17.865868
1434064090.301,-15.671562
1434064090.317,-13.500336
1434064090.332,-11.436699
1434064090.348,-9.69709
1434064090.364,-8.518936
1434064090.379,-8.018898
1434064090.395,-8.124809
1434064090.411,-8.544525
1434064090.426,-8.839981
1434064090.442,-8.520355
1434064090.457,-7.1865997
1434064090.473,-4.658127
1434064090.489,-1.0373154
1434064090.504,3.316002
1434064090.52,7.8988876
1434064090.536,12.250336
1434064090.551,16.08191
1434064090.567,19.360382
1434064090.582,22.302612
1434064090.598,25.286385
1434064090.614,28.730553
1434064090.629,32.989014
1434064090.645,38.188316
1434064090.661,44.1063
1434064090.676,50.03338
1434064090.692,54.781815
1434064090.707,56.878983
1434064090.723,54.957016
1434064090.739,48.24774
1434064090.754,36.95906
1434064090.77,22.335487
1434064090.786,6.3573456
1434064090.801,-8.862106
1434064090.817,-21.638008
1434064090.832,-31.1436
1434064090.848,-37.35338
1434064090.864,-40.77423
1434064090.879,-42.060524
1434064090.895,-41.737747
1434064090.911,-40.108185
1434064090.926,-37.389465
1434064090.942,-33.822357
1434064090.958,-29.78022
1434064090.973,-25.68785
1434064090.989,-21.919823
1434064091.004,-18.67775
1434064091.02,-15.971832
1434064091.036,-13.686699
1434064091.051,-11.682732
1434064091.067,-9.911636
1434064091.083,-8.417633
1434064091.098,-7.2908783
1434064091.114,-6.594574
1434064091.129,-6.266197
1434064091.145,-6.113968
1434064091.161,-5.837517
1434064091.176,-5.1348877
1434064091.192,-3.7779236
1434064091.208,-1.6752243
1434064091.223,1.1356277
1434064091.239,4.5165787
1434064091.254,8.261848
1434064091.27,12.134567
1434064091.286,15.918602
1434064091.301,19.433311
1434064091.317,22.628769
1434064091.333,25.594597
1434064091.348,28.593613
1434064091.364,32.007492
1434064091.379,36.215576
1434064091.395,41.36846
1434064091.411,47.167694
1434064091.426,52.734222
1434064091.442,56.70066
1434064091.458,57.482506
1434064091.473,53.841026
1434064091.489,45.294487
1434064091.504,32.419975
1434064091.52,16.739723
1434064091.536,0.30402374
1434064091.551,-14.900597
1434064091.567,-27.433403
1434064091.583,-36.631805
1434064091.598,-42.471313
1434064091.614,-45.348778
1434064091.629,-45.765366
1434064091.645,-44.22354
1434064091.661,-41.19883
1434064091.676,-37.180534
1434064091.692,-32.685303
1434064091.708,-28.189407
1434064091.723,-24.052818
1434064091.739,-20.480507
1434064091.754,-17.553902
1434064091.77,-15.297623
1434064091.786,-13.704285
1434064091.801,-12.761101
1434064091.817,-12.3847275
1434064091.833,-12.409348
1434064091.848,-12.5948105
1434064091.864,-12.714256
1434064091.879,-12.596962
1434064091.895,-12.166214
1434064091.911,-11.392265
1434064091.926,-10.236267
1434064091.942,-8.598801
1434064091.958,-6.394829
1434064091.973,-3.5397644
1434064091.989,-0.058189392
1434064092.004,3.9337845
1434064092.02,8.241051
1434064092.036,12.641624
1434064092.051,16.926483
1434064092.067,20.97284
1434064092.083,24.745712
1434064092.098,28.345787
1434064092.114,31.998276
1434064092.129,36.014244
1434064092.145,40.673546
1434064092.161,46.086624
1434064092.176,51.99276
1434064092.192,57.61817
1434064092.208,61.703484
1434064092.223,62.74819
1434064092.239,59.436928
1434064092.254,51.142204
1434064092.27,38.233032
1434064092.286,22.105072
1434064092.301,4.8001175
1434064092.317,-11.549889
1434064092.333,-25.30603
1434064092.348,-35.599174
1434064092.364,-42.356117
1434064092.379,-46.014954
1434064092.395,-47.193375
1434064092.411,-46.445206
1434064092.426,-44.223877
1434064092.442,-40.878754
1434064092.458,-36.79309
1434064092.473,-32.366737
1434064092.489,-27.989136
1434064092.504,-23.96148
1434064092.52,-20.46975
1434064092.536,-17.591377
1434064092.551,-15.366722
1434064092.567,-13.837883
1434064092.583,-13.062668
1434064092.598,-13.038979
1434064092.614,-13.655647
1434064092.629,-14.629456
1434064092.645,-15.5881195
1434064092.661,-16.13836
1434064092.676,-16.012032
1434064092.692,-15.1106415
1434064092.708,-13.513229
1434064092.723,-11.365936
1434064092.739,-8.779488
1434064092.754,-5.773773
1434064092.77,-2.3201294
1434064092.786,1.6044312
1434064092.801,5.935425
1434064092.817,10.507591
1434064092.833,15.102951
1434064092.848,19.53653
1434064092.864,23.700165
1434064092.879,27.583359
1434064092.895,31.297508
1434064092.911,35.059944
1434064092.926,39.158714
1434064092.942,43.916733
1434064092.958,49.452934
1434064092.973,55.472717
1434064092.989,61.067207
1434064093.004,64.76363
1434064093.02,64.86846
1434064093.036,60.060585
1434064093.051,49.916183
1434064093.067,35.229805
1434064093.083,17.816051
1434064093.098,-0.01335907
1434064093.114,-16.14367
1434064093.129,-29.135872
1434064093.145,-38.43571
1434064093.161,-44.192474
1434064093.176,-46.934742
1434064093.192,-47.24969
1434064093.208,-45.641785
1434064093.223,-42.533302
1434064093.239,-38.328632
1434064093.254,-33.48849
1434064093.27,-28.503906
1434064093.286,-23.815071
1434064093.301,-19.75027
1434064093.317,-16.447144
1434064093.333,-13.923412
1434064093.348,-12.10907
1434064093.364,-10.943596
1434064093.379,-10.374123
1434064093.395,-10.348049
1434064093.411,-10.759369
1434064093.426,-11.438564
1434064093.442,-12.122696
1434064093.458,-12.514172
1434064093.473,-12.300339
1434064093.489,-11.219006
1434064093.504,-9.117596
1434064093.52,-5.964882
1434064093.536,-1.8941612
1434064093.551,2.8252869
1434064093.567,7.8323326
1434064093.583,12.736412
1434064093.598,17.238678
1434064093.614,21.193016
1434064093.63,24.676407
1434064093.645,27.940865
1434064093.661,31.404667
1434064093.676,35.53113
1434064093.692,40.67595
1434064093.708,46.864277
1434064093.723,53.579678
1434064093.739,59.67185
1434064093.755,63.489536
1434064093.77,63.290913
1434064093.786,57.81616
1434064093.801,46.777214
1434064093.817,31.09459
1434064093.833,12.67981
1434064093.848,-6.0681877
1434064093.864,-22.952446
1434064093.88,-36.48214
1434064093.895,-46.061775
1434064093.911,-51.814728
1434064093.926,-54.27923
1434064093.942,-54.054558
1434064093.958,-51.65791
1434064093.973,-47.529144
1434064093.989,-42.1092
1434064094.005,-35.920853
1434064094.02,-29.557522
1434064094.036,-23.615839
1434064094.051,-18.59912
1434064094.067,-14.781448
1434064094.083,-12.204821
1434064094.098,-10.696051
1434064094.114,-9.9644985
1434064094.13,-9.69348
1434064094.145,-9.646828
1434064094.161,-9.698824
1434064094.176,-9.8034935
1434064094.192,-9.9197235
1434064094.208,-9.948946
1434064094.223,-9.675861
1434064094.239,-8.807459
1434064094.255,-7.046585
1434064094.27,-4.2051086
1434064094.286,-0.3025608
1434064094.301,4.4214916
1434064094.317,9.581366
1434064094.333,14.727852
1434064094.348,19.533016
1434064094.364,23.8633
1434064094.38,27.815207
1434064094.395,31.678123
1434064094.411,35.869347
1434064094.426,40.822742
1434064094.442,46.84278
1434064094.458,53.93436
1434064094.473,61.58539
1434064094.489,68.65776
1434064094.505,73.49962
1434064094.52,74.27585
1434064094.536,69.54527
1434064094.551,58.764538
1434064094.567,42.61456
1434064094.583,22.884054
1434064094.598,2.018354
1434064094.614,-17.561428
1434064094.63,-34.018013
1434064094.645,-46.38289
1434064094.661,-54.51628
1434064094.676,-58.834843
1434064094.692,-59.961407
1434064094.708,-58.525673
1434064094.723,-55.04772
1434064094.739,-49.98344
1434064094.755,-43.800434
1434064094.77,-37.02502
1434064094.786,-30.23209
1434064094.801,-24.023252
1434064094.817,-18.926414
1434064094.833,-15.315792
1434064094.848,-13.322372
1434064094.864,-12.81754
1434064094.88,-13.420881
1434064094.895,-14.614702
1434064094.911,-15.891418
1434064094.926,-16.877123
1434064094.942,-17.397738
1434064094.958,-17.412495
1434064094.973,-16.89653
1434064094.989,-15.75425
1434064095.005,-13.772915
1434064095.02,-10.737373
1434064095.036,-6.542774
1434064095.051,-1.3183689
1434064095.067,4.582136
1434064095.083,10.657162
1434064095.098,16.453053
1434064095.114,21.672298
1434064095.13,26.27057
1434064095.145,30.409048
1434064095.161,34.412113
1434064095.176,38.6709
1434064095.192,43.592045
1434064095.208,49.46474
1434064095.223,56.300327
1434064095.239,63.58776
1434064095.255,70.152
1434064095.27,74.24589
1434064095.286,73.952965
1434064095.301,67.81557
1434064095.317,55.44314
1434064095.333,37.799133
1434064095.348,17.025333
1434064095.364,-4.1834373
1434064095.38,-23.345486
1434064095.395,-38.801098
1434064095.411,-49.88018
1434064095.426,-56.741653
1434064095.442,-59.9794
1434064095.458,-60.28798
1434064095.473,-58.29877
1434064095.489,-54.563934
1434064095.505,-49.622383
1434064095.52,-44.01481
1434064095.536,-38.254704
1434064095.551,-32.786564
1434064095.567,-27.96392
1434064095.583,-24.06252
1434064095.598,-21.28201
1434064095.614,-19.754692
1434064095.63,-19.46954
1434064095.645,-20.261646
1434064095.661,-21.747463
1434064095.676,-23.411968
1434064095.692,-24.684826
1434064095.708,-25.122284
1434064095.723,-24.49163
1434064095.739,-22.822044
1434064095.755,-20.336594
1434064095.77,-17.308472
1434064095.786,-13.929405
1434064095.801,-10.242378
1434064095.817,-6.1428146
1434064095.833,-1.5285339
1434064095.848,3.6320877
1434064095.864,9.209656
1434064095.88,14.963928
1434064095.895,20.577087
1434064095.911,25.793251
1434064095.926,30.462723
1434064095.942,34.59868
1434064095.958,38.408493
1434064095.973,42.28772
1434064095.989,46.768578
1434064096.005,52.320457
1434064096.02,59.004715
1434064096.036,66.16561
1434064096.051,72.30893
1434064096.067,75.357
1434064096.083,73.233696
1434064096.098,64.63163
1434064096.114,49.571907
1434064096.13,29.548653
1434064096.145,7.133873
1434064096.161,-14.756554
1434064096.176,-33.641373
1434064096.192,-47.989983
1434064096.208,-57.333694
1434064096.223,-62.044167
1434064096.239,-62.93927
1434064096.255,-60.93038
1434064096.27,-56.843315
1434064096.286,-51.373764
1434064096.302,-45.14743
1434064096.317,-38.763596
1434064096.333,-32.79354
1434064096.348,-27.688347
1434064096.364,-23.74382
1434064096.38,-21.05355
1434064096.395,-19.55568
1434064096.411,-19.085922
1434064096.426,-19.472168
1434064096.442,-20.492416
1434064096.458,-21.877647
1434064096.473,-23.277473
1434064096.489,-24.278954
1434064096.505,-24.485405
1434064096.52,-23.646416
1434064096.536,-21.72261
1434064096.552,-18.87793
1434064096.567,-15.392914
1434064096.583,-11.52092
1434064096.598,-7.4075623
1434064096.614,-3.0522919
1434064096.63,1.6126175
1434064096.645,6.648796
1434064096.661,12.019928
1434064096.677,17.553673
1434064096.692,22.970413
1434064096.708,27.946404
1434064096.723,32.21579
1434064096.739,35.700493
1434064096.755,38.601936
1434064096.77,41.410683
1434064096.786,44.79444
1434064096.802,49.351204
1434064096.817,55.25329
1434064096.833,61.92885
1434064096.848,67.954124
1434064096.864,71.28921
1434064096.88,69.85188
1434064096.895,62.25599
1434064096.911,48.393166
1434064096.927,29.594559
1434064096.942,8.318779
1434064096.958,-12.61351
1434064096.973,-30.780228
1434064096.989,-44.715103
1434064097.005,-54.0195
1434064097.02,-59.087875
1434064097.036,-60.65432
1434064097.052,-59.45794
1434064097.067,-56.11708
1434064097.083,-51.178413
1434064097.098,-45.236084
1434064097.114,-38.965637
1434064097.13,-33.02838
1434064097.145,-27.951088
1434064097.161,-24.008354
1434064097.177,-21.230766
1434064097.192,-19.492172
1434064097.208,-18.656128
1434064097.223,-18.60553
1434064097.239,-19.270714
1434064097.255,-20.507645
1434064097.27,-22.04847
1434064097.286,-23.462341
1434064097.302,-24.273682
1434064097.317,-24.06585
1434064097.333,-22.639519
1434064097.348,-20.061188
1434064097.364,-16.612724
1434064097.38,-12.662659
1434064097.395,-8.511414
1434064097.411,-4.280884
1434064097.427,0.07570648
1434064097.442,4.7003326
1434064097.458,9.676765
1434064097.473,14.946503
1434064097.489,20.260208
1434064097.505,25.28659
1434064097.52,29.699364
1434064097.536,33.34497
1434064097.552,36.330612
1434064097.567,39.049965
1434064097.583,42.106667
1434064097.598,46.11113
1434064097.614,51.391617
1434064097.63,57.68895
1434064097.645,63.954315
1434064097.661,68.47249
1434064097.677,69.24095
1434064097.692,64.62586
1434064097.708,53.945442
1434064097.723,37.858627
1434064097.739,18.23233
1434064097.755,-2.3712082
1434064097.77,-21.395576
1434064097.786,-36.953316
1434064097.802,-48.14383
1434064097.817,-54.952675
1434064097.833,-57.944542
1434064097.848,-57.859505
1434064097.864,-55.36226
1434064097.88,-50.987366
1434064097.895,-45.255768
1434064097.911,-38.770973
1434064097.927,-32.28827
1434064097.942,-26.56977
1434064097.958,-22.225533
1434064097.973,-19.520607
1434064097.989,-18.33487
1434064098.005,-18.260689
1434064098.02,-18.816032
1434064098.036,-19.659912
1434064098.052,-20.65924
1434064098.067,-21.823715
1434064098.083,-23.154549
1434064098.098,-24.43739
1434064098.114,-25.237312
1434064098.13,-25.014084
1434064098.145,-23.3918
1434064098.161,-20.333591
1434064098.177,-16.218597
1434064098.192,-11.680916
1434064098.208,-7.3586273
1434064098.223,-3.6162682
1434064098.239,-0.42658615
1434064098.255,2.569378
1434064098.27,5.8524246
1434064098.286,9.800121
1434064098.302,14.488731
1434064098.317,19.685665
1434064098.333,24.931076
1434064098.348,29.719173
1434064098.364,33.65546
1434064098.38,36.618073
1434064098.395,38.776062
1434064098.411,40.598286
1434064098.427,42.729877
1434064098.442,45.83851
1434064098.458,50.301136
1434064098.473,55.951557
1434064098.489,61.883835
1434064098.505,66.51427
1434064098.52,67.92569
1434064098.536,64.46156
1434064098.552,55.31766
1434064098.567,40.91575
1434064098.583,22.84911
1434064098.598,3.4638824
1434064098.614,-14.843388
1434064098.63,-30.207256
1434064098.645,-41.64844
1434064098.661,-49.0335
1434064098.677,-52.813835
1434064098.692,-53.64341
1434064098.708,-52.169132
1434064098.723,-48.941807
1434064098.739,-44.47454
1434064098.755,-39.275158
1434064098.77,-33.88451
1434064098.786,-28.798378
1434064098.802,-24.427788
1434064098.817,-21.055746
1434064098.833,-18.831823
1434064098.848,-17.792524
1434064098.864,-17.88979
1434064098.88,-18.936634
1434064098.895,-20.636505
1434064098.911,-22.60745
1434064098.927,-24.465303
1434064098.942,-25.8703
1434064098.958,-26.616644
1434064098.974,-26.576475
1434064098.989,-25.679096
1434064099.005,-23.871582
1434064099.02,-21.151533
1434064099.036,-17.618044
1434064099.052,-13.516405
1434064099.067,-9.185454
1434064099.083,-4.986822
1434064099.098,-1.1754022
1434064099.114,2.1950684
1434064099.13,5.2737503
1434064099.145,8.346857
1434064099.161,11.712608
1434064099.177,15.520914
1434064099.192,19.704826
1434064099.208,23.979067
1434064099.224,27.936743
1434064099.239,31.197884
1434064099.255,33.583645
1434064099.27,35.18596
1434064099.286,36.370037
1434064099.302,37.688156
1434064099.317,39.735016
1434064099.333,42.990387
1434064099.349,47.67681
1434064099.364,53.560364
1434064099.38,59.84997
1434064099.395,65.19495
1434064099.411,67.887115
1434064099.427,66.275955
1434064099.442,59.32041
1434064099.458,46.995945
1434064099.474,30.439907
1434064099.489,11.671833
1434064099.505,-6.956423
1434064099.52,-23.367754
1434064099.536,-36.212975
1434064099.552,-44.997875
1434064099.567,-49.908833
1434064099.583,-51.512184
1434064099.599,-50.47968
1434064099.614,-47.430687
1434064099.63,-42.93388
1434064099.645,-37.573177
1434064099.661,-31.947128
1434064099.677,-26.687838
1434064099.692,-22.321098
1434064099.708,-19.208157
1434064099.724,-17.432415
1434064099.739,-16.839333
1434064099.755,-17.07994
1434064099.77,-17.783741
1434064099.786,-18.647861
1434064099.802,-19.536943
1434064099.817,-20.440992
1434064099.833,-21.401712
1434064099.849,-22.375626
1434064099.864,-23.163368
1434064099.88,-23.45491
1434064099.895,-22.919865
1434064099.911,-21.352913
1434064099.927,-18.799973
1434064099.942,-15.526455
1434064099.958,-11.942265
1434064099.974,-8.412849
1434064099.989,-5.146599
1434064100.005,-2.1371002
1434064100.02,0.7917824
1434064100.036,3.8925972
1434064100.052,7.3595314
1434064100.067,11.271332
1434064100.083,15.538746
1434064100.099,19.926765
1434064100.114,24.098763
1434064100.13,27.73185
1434064100.145,30.598206
1434064100.161,32.705166
1434064100.177,34.301216
1434064100.192,35.862198
1434064100.208,37.934277
1434064100.224,40.990856
1434064100.239,45.218815
1434064100.255,50.383827
1434064100.27,55.729633
1434064100.286,60.05255
1434064100.302,61.876503
1434064100.317,59.863495
1434064100.333,53.228317
1434064100.349,42.07067
1434064100.364,27.436325
1434064100.38,11.076904
1434064100.395,-5.0335236
1434064100.411,-19.199814
1434064100.427,-30.35765
1434064100.442,-38.121925
1434064100.458,-42.65535
1434064100.474,-44.38536
1434064100.489,-43.80715
1434064100.505,-41.39749
1434064100.52,-37.634193
1434064100.536,-33.03035
1434064100.552,-28.080223
1434064100.567,-23.21959
1434064100.583,-18.756042
1434064100.599,-14.838448
1434064100.614,-11.542793
1434064100.63,-8.946136
1434064100.645,-7.2006454
1434064100.661,-6.4953537
1434064100.677,-6.9734573
1434064100.692,-8.560432
1434064100.708,-10.942909
1434064100.724,-13.530357
1434064100.739,-15.646996
1434064100.755,-16.698936
1434064100.77,-16.37085
1434064100.786,-14.673706
1434064100.802,-11.918579
1434064100.817,-8.582748
1434064100.833,-5.1363907
1434064100.849,-1.8791199
1434064100.864,1.1043472
1434064100.88,3.9686127
1434064100.895,6.975151
1434064100.911,10.346474
1434064100.927,14.147469
1434064100.942,18.251785
1434064100.958,22.382942
1434064100.974,26.243301
1434064100.989,29.60711
1434064101.005,32.43746
1434064101.02,34.897476
1434064101.036,37.360893
1434064101.052,40.298912
1434064101.067,44.119514
1434064101.083,48.88118
1434064101.099,54.08544
1434064101.114,58.581482
1434064101.13,60.79718
1434064101.145,59.177444
1434064101.161,52.758904
1434064101.177,41.575096
1434064101.192,26.750725
1434064101.208,10.1434555
1434064101.224,-6.1642914
1434064101.239,-20.455894
1434064101.255,-31.686203
1434064101.27,-39.52468
1434064101.286,-44.129173
1434064101.302,-45.9216
1434064101.317,-45.376633
1434064101.333,-42.98625
1434064101.349,-39.237442
1434064101.364,-34.658096
1434064101.38,-29.769264
1434064101.395,-25.03598
1434064101.411,-20.800255
1434064101.427,-17.256233
1434064101.442,-14.480644
1434064101.458,-12.500252
1434064101.474,-11.316147
1434064101.489,-10.9596405
1434064101.505,-11.444168
1434064101.52,-12.721138
1434064101.536,-14.60643
1434064101.552,-16.76268
1434064101.567,-18.71859
1434064101.583,-19.97004
1434064101.599,-20.114204
1434064101.614,-18.971245
1434064101.63,-16.625893
1434064101.645,-13.404686
1434064101.661,-9.772652
1434064101.677,-6.1671677
1434064101.692,-2.8578186
1434064101.708,0.116744995
1434064101.724,2.970871
1434064101.739,6.049652
1434064101.755,9.693916
1434064101.77,14.070358
1434064101.786,19.093262
1434064101.802,24.431206
1434064101.817,29.636177
1434064101.833,34.295296
1434064101.849,38.186684
1434064101.864,41.372505
1434064101.88,44.205254
1434064101.896,47.2386
1434064101.911,51.047226
1434064101.927,55.963425
1434064101.942,61.79325
1434064101.958,67.60744
1434064101.974,71.84358
1434064101.989,72.61528
1434064102.005,68.35978
1434064102.021,58.41806
1434064102.036,43.399933
1434064102.052,25.042404
1434064102.067,5.7036133
1434064102.083,-12.345009
1434064102.099,-27.468655
1434064102.114,-38.90155
1434064102.13,-46.614716
1434064102.146,-51.006794
1434064102.161,-52.643875
1434064102.177,-52.08701
1434064102.192,-49.889034
1434064102.208,-46.58763
1434064102.224,-42.683876
1434064102.239,-38.61006
1434064102.255,-34.666145
1434064102.271,-31.076183
1434064102.286,-28.000706
1434064102.302,-25.595951
1434064102.317,-23.99572
1434064102.333,-23.275692
1434064102.349,-23.403175
1434064102.364,-24.217628
1434064102.38,-25.458622
1434064102.396,-26.82618
1434064102.411,-28.02359
1434064102.427,-28.79388
1434064102.442,-28.916115
1434064102.458,-28.24311
1434064102.474,-26.685524
1434064102.489,-24.237926
1434064102.505,-20.980904
1434064102.521,-17.106594
1434064102.536,-12.861759
1434064102.552,-8.532948
1434064102.567,-4.3503838
1434064102.583,-0.480381
1434064102.599,3.0795135
1434064102.614,6.456379
1434064102.63,9.893913
1434064102.646,13.60643
1434064102.661,17.719997
1434064102.677,22.160587
1434064102.692,26.69397
1434064102.708,30.979065
1434064102.724,34.710674
1434064102.739,37.715622
1434064102.755,40.056824
1434064102.771,42.005493
1434064102.786,44.0022
1434064102.802,46.575985
1434064102.817,50.181053
1434064102.833,55.06511
1434064102.849,61.05485
1434064102.864,67.36571
1434064102.88,72.59964
1434064102.896,74.92559
1434064102.911,72.591125
1434064102.927,64.49634
1434064102.942,50.725544
1434064102.958,32.618385
1434064102.974,12.446331
1434064102.989,-7.26355
1434064103.005,-24.415394
1434064103.021,-37.797962
1434064103.036,-47.10478
1434064103.052,-52.661846
1434064103.067,-55.040215
1434064103.083,-54.815594
1434064103.099,-52.483604
1434064103.114,-48.538345
1434064103.13,-43.53384
1434064103.146,-38.12682
1434064103.161,-32.955086
1434064103.177,-28.588938
1434064103.192,-25.376566
1434064103.208,-23.45909
1434064103.224,-22.737164
1434064103.239,-22.981096
1434064103.255,-23.88203
1434064103.271,-25.180502
1434064103.286,-26.683182
1434064103.302,-28.254854
1434064103.317,-29.738018
1434064103.333,-30.927288
1434064103.349,-31.531368
1434064103.364,-31.267435
1434064103.38,-29.939695
1434064103.396,-27.54668
1434064103.411,-24.26555
1434064103.427,-20.398329
1434064103.442,-16.263716
1434064103.458,-12.114837
1434064103.474,-8.096492
1434064103.489,-4.271265
1434064103.505,-0.59142685
1434064103.521,3.070446
1434064103.536,6.8832455
1434064103.552,11.002068
1434064103.567,15.4776535
1434064103.583,20.189465
1434064103.599,24.874222
1434064103.614,29.196995
1434064103.63,32.91886
1434064103.646,35.979404
1434064103.661,38.546883
1434064103.677,40.951603
1434064103.692,43.631264
1434064103.708,47.025547
1434064103.724,51.445675
1434064103.739,56.904396
1434064103.755,62.910957
1434064103.771,68.35625
1434064103.786,71.6311
1434064103.802,70.98748
1434064103.817,65.162674
1434064103.833,53.853565
1434064103.849,37.96596
1434064103.864,19.362873
1434064103.88,0.32479715
1434064103.896,-17.118551
1434064103.911,-31.59394
1434064103.927,-42.48584
1434064103.942,-49.74369
1434064103.958,-53.651115
1434064103.974,-54.603447
1434064103.989,-53.082684
1434064104.005,-49.667473
1434064104.021,-45.03328
1434064104.036,-39.90212
1434064104.052,-34.922626
1434064104.067,-30.572775
1434064104.083,-27.14577
1434064104.099,-24.729103
1434064104.114,-23.29859
1434064104.13,-22.730007
1434064104.146,-22.869905
1434064104.161,-23.559664
1434064104.177,-24.668732
1434064104.192,-26.07229
1434064104.208,-27.613005
1434064104.224,-29.072027
1434064104.239,-30.162348
1434064104.255,-30.574112
1434064104.271,-30.064838
1434064104.286,-28.51509
1434064104.302,-25.957663
1434064104.317,-22.531181
1434064104.333,-18.462143
1434064104.349,-13.991434
1434064104.364,-9.402953
1434064104.38,-4.956556
1434064104.396,-0.87150955
1434064104.411,2.7611675
1434064104.427,6.030595
1434064104.442,9.223377
1434064104.458,12.67451
1434064104.474,16.634857
1434064104.489,21.095798
1434064104.505,25.76976
1434064104.521,30.212395
1434064104.536,34.02548
1434064104.552,37.051865
1434064104.568,39.47116
1434064104.583,41.719
1434064104.599,44.36962
1434064104.614,47.91314
1434064104.63,52.63111
1434064104.646,58.417988
1434064104.661,64.67668
1434064104.677,70.23555
1434064104.693,73.49121
1434064104.708,72.723495
1434064104.724,66.63949
1434064104.739,54.86855
1434064104.755,38.261765
1434064104.771,18.74864
1434064104.786,-1.1880722
1434064104.802,-19.229841
1434064104.818,-33.780304
1434064104.833,-44.217236
1434064104.849,-50.71537
1434064104.864,-53.895966
1434064104.88,-54.44498
1434064104.896,-52.93847
1434064104.911,-49.853092
1434064104.927,-45.655064
1434064104.943,-40.851974
1434064104.958,-35.991867
1434064104.974,-31.55865
1434064104.989,-27.884775
1434064105.005,-25.12761
1434064105.021,-23.294043
1434064105.036,-22.317469
1434064105.052,-22.0772
1434064105.068,-22.435686
1434064105.083,-23.240988
1434064105.099,-24.341515
1434064105.114,-25.583618
1434064105.13,-26.797016
1434064105.146,-27.77323
1434064105.161,-28.22225
1434064105.177,-27.8364
1434064105.193,-26.361128
1434064105.208,-23.74125
1434064105.224,-20.157597
1434064105.239,-16.020514
1434064105.255,-11.809965
1434064105.271,-7.907316
1434064105.286,-4.430313
1434064105.302,-1.2253246
1434064105.318,2.043291
1434064105.333,5.7064095
1434064105.349,9.927475
1434064105.364,14.627468
1434064105.38,19.519596
1434064105.396,24.206696
1434064105.411,28.319696
1434064105.427,31.631441
1434064105.443,34.144707
1434064105.458,36.082474
1434064105.474,37.85633
1434064105.489,40.009666
1434064105.505,43.09011
1434064105.521,47.477066
1434064105.536,53.121925
1434064105.552,59.34488
1434064105.568,64.8002
1434064105.583,67.695496
1434064105.599,66.303215
1434064105.614,59.538162
1434064105.63,47.416985
1434064105.646,31.104038
1434064105.661,12.616503
1434064105.677,-5.774666
1434064105.693,-22.1059
1434064105.708,-35.116882
1434064105.724,-44.3257
1434064105.739,-49.88206
1434064105.755,-52.297432
1434064105.771,-52.217155
1434064105.786,-50.2781
1434064105.802,-47.036667
1434064105.818,-42.96356
1434064105.833,-38.441635
1434064105.849,-33.805855
1434064105.864,-29.369976
1434064105.88,-25.40487
1434064105.896,-22.124174
1434064105.911,-19.63978
1434064105.927,-17.999134
1434064105.943,-17.191135
1434064105.958,-17.19069
1434064105.974,-17.947601
1434064105.989,-19.328157
1434064106.005,-21.021557
1434064106.021,-22.548565
1434064106.036,-23.347525
1434064106.052,-22.972742
1434064106.068,-21.280119
1434064106.083,-18.475697
1434064106.099,-15.021761
1434064106.114,-11.423601
1434064106.13,-7.978985
1434064106.146,-4.682438
1434064106.161,-1.2710934
1434064106.177,2.5772343
1434064106.193,7.0613585
1434064106.208,12.101201
1434064106.224,17.370108
1434064106.239,22.40158
1434064106.255,26.805447
1434064106.271,30.407219
1434064106.286,33.33612
1434064106.302,35.986916
1434064106.318,38.91162
1434064106.333,42.62482
1434064106.349,47.399384
1434064106.364,53.032562
1434064106.38,58.733284
1434064106.396,63.155872
1434064106.411,64.66279
1434064106.427,61.81955
1434064106.443,53.89803
1434064106.458,41.208054
1434064106.474,25.123363
1434064106.489,7.687399
1434064106.505,-8.961314
1434064106.521,-23.16198
1434064106.536,-34.030643
1434064106.552,-41.436928
1434064106.568,-45.734417
1434064106.583,-47.434216
1434064106.599,-46.9874
1434064106.614,-44.739697
1434064106.63,-40.99642
1434064106.646,-36.129326
1434064106.661,-30.628267
1434064106.677,-25.07937
1434064106.693,-20.062618
1434064106.708,-16.046625
1434064106.724,-13.282355
1434064106.739,-11.789531
1434064106.755,-11.362911
1434064106.771,-11.6791935
1434064106.786,-12.372152
1434064106.802,-13.143834
1434064106.818,-13.784609
1434064106.833,-14.192311
1434064106.849,-14.310091
1434064106.864,-14.087238
1434064106.88,-13.414007
1434064106.896,-12.108299
1434064106.911,-9.984593
1434064106.927,-6.918255
1434064106.943,-2.9174013
1434064106.958,1.8133726
1434064106.974,6.9261026
1434064106.989,12.000128
1434064107.005,16.687302
1434064107.021,20.805773
1434064107.036,24.400757
1434064107.052,27.696936
1434064107.068,31.038979
1434064107.083,34.80754
1434064107.099,39.33673
1434064107.114,44.779953
1434064107.13,50.956078
1434064107.146,57.168663
1434064107.161,62.18053
1434064107.177,64.391205
1434064107.193,62.276115
1434064107.208,54.944157
1434064107.224,42.569107
1434064107.24,26.437517
1434064107.255,8.645178
1434064107.271,-8.573835
1434064107.286,-23.423195
1434064107.302,-34.915558
1434064107.318,-42.82659
1434064107.333,-47.433456
1434064107.349,-49.196594
1434064107.364,-48.58443
1434064107.38,-46.06299
1434064107.396,-42.17049
1434064107.411,-37.531372
1434064107.427,-32.780262
1434064107.443,-28.431067
1434064107.458,-24.784447
1434064107.474,-21.93655
1434064107.49,-19.874393
1434064107.505,-18.560246
1434064107.521,-18.002733
1434064107.536,-18.183704
1434064107.552,-19.018734
1434064107.568,-20.25302
1434064107.583,-21.482273
1434064107.599,-22.226984
1434064107.615,-22.087961
1434064107.63,-20.874634
1434064107.646,-18.66414
1434064107.661,-15.767624
1434064107.677,-12.5678215
1434064107.693,-9.35644
1434064107.708,-6.2170124
1434064107.724,-3.0266724
1434064107.74,0.44112968
1434064107.755,4.363493
1434064107.771,8.744417
1434064107.786,13.423389
1434064107.802,18.113653
1434064107.818,22.566313
1434064107.833,26.656971
1434064107.849,30.438152
1434064107.865,34.141327
1434064107.88,38.118443
1434064107.896,42.73626
1434064107.911,48.189133
1434064107.927,54.295174
1434064107.943,60.31385
1434064107.958,64.93672
1434064107.974,66.53997
1434064107.99,63.636444
1434064108.005,55.446262
1434064108.021,42.24377
1434064108.036,25.411179
1434064108.052,7.081335
1434064108.068,-10.477369
1434064108.083,-25.428308
1434064108.099,-36.719154
1434064108.115,-44.11868
1434064108.13,-47.993324
1434064108.146,-48.997932
1434064108.161,-47.837086
1434064108.177,-45.18553
1434064108.193,-41.62738
1434064108.208,-37.686096
1434064108.224,-33.78986
1434064108.24,-30.23296
1434064108.255,-27.160946
1434064108.271,-24.612116
1434064108.286,-22.574373
1434064108.302,-21.03713
1434064108.318,-20.040833
1434064108.333,-19.622824
1434064108.349,-19.787954
1434064108.365,-20.429436
1434064108.38,-21.307936
1434064108.396,-22.074244
1434064108.411,-22.33675
1434064108.427,-21.780907
1434064108.443,-20.233118
1434064108.458,-17.75352
1434064108.474,-14.5674
1434064108.49,-11.010696
1434064108.505,-7.3337574
1434064108.521,-3.6241703
1434064108.536,0.22821808
1434064108.552,4.4146852
1434064108.568,9.032016
1434064108.583,13.954603
1434064108.599,18.841816
1434064108.615,23.281641
1434064108.63,26.985329
1434064108.646,29.923672
1434064108.661,32.373398
1434064108.677,34.816765
1434064108.693,37.81295
1434064108.708,41.792583
1434064108.724,46.886356
1434064108.74,52.723717
1434064108.755,58.36108
1434064108.771,62.33416
1434064108.786,62.991642
1434064108.802,59.00066
1434064108.818,49.85671
1434064108.833,36.17633
1434064108.849,19.600103
1434064108.865,2.2896652
1434064108.88,-13.675305
1434064108.896,-26.841343
1434064108.911,-36.55222
1434064108.927,-42.86085
1434064108.943,-46.223675
1434064108.958,-47.21497
1434064108.974,-46.358818
1434064108.99,-44.117577
1434064109.005,-40.9034
1434064109.021,-37.15915
1434064109.036,-33.333546
1434064109.052,-29.871748
1434064109.068,-27.10647
1434064109.083,-25.18376
1434064109.099,-24.040033
1434064109.115,-23.446836
1434064109.13,-23.13246
1434064109.146,-22.916739
1434064109.161,-22.787048
1434064109.177,-22.850975
1434064109.193,-23.204954
1434064109.208,-23.792145
1434064109.224,-24.337809
1434064109.24,-24.432953
1434064109.255,-23.664047
1434064109.271,-21.789804
1434064109.286,-18.818928
1434064109.302,-15.021875
1434064109.318,-10.815494
1434064109.333,-6.6755147
1434064109.349,-2.9685564
1434064109.365,0.119496346
1434064109.38,2.678731
1434064109.396,4.996023
1434064109.411,7.4839077
1434064109.427,10.462811
1434064109.443,14.03887
1434064109.458,18.035723
1434064109.474,22.06525
1434064109.49,25.686665
1434064109.505,28.611214
1434064109.521,30.81607
1434064109.536,32.55537
1434064109.552,34.277092
1434064109.568,36.519432
1434064109.583,39.724674
1434064109.599,44.110626
1434064109.615,49.475487
1434064109.63,55.094543
1434064109.646,59.700718
1434064109.661,61.71626
1434064109.677,59.6816
1434064109.693,52.78138
1434064109.708,41.22824
1434064109.724,26.321817
1434064109.74,10.069906
1434064109.755,-5.4257603
1434064109.771,-18.586817
1434064109.786,-28.648638
1434064109.802,-35.60926
1434064109.818,-39.856693
1434064109.833,-41.81164
1434064109.849,-41.76076
1434064109.865,-39.9233
1434064109.88,-36.63736
1434064109.896,-32.49199
1434064109.912,-28.2304
1434064109.927,-24.56953
1434064109.943,-21.951042
1434064109.958,-20.444359
1434064109.974,-19.80949
1434064109.99,-19.717777
1434064110.005,-19.89809
1434064110.021,-20.239517
1434064110.036,-20.730293
1434064110.052,-21.40281
1434064110.068,-22.18906
1434064110.083,-22.954815
1434064110.099,-23.486073
1434064110.115,-23.580532
1434064110.13,-23.069008
1434064110.146,-21.86678
1434064110.162,-19.967648
1434064110.177,-17.436367
1434064110.193,-14.393059
1434064110.208,-11.020882
1434064110.224,-7.532837
1434064110.24,-4.1578674
1434064110.255,-1.05719
1434064110.271,1.7170982
1434064110.287,4.287056
1434064110.302,6.897255
1434064110.318,9.81971
1434064110.333,13.235161
1434064110.349,17.10254
1434064110.365,21.13581
1434064110.38,24.921532
1434064110.396,28.065239
1434064110.412,30.394047
1434064110.427,32.039505
1434064110.443,33.4159
1434064110.458,35.093674
1434064110.474,37.59977
1434064110.49,41.20436
1434064110.505,45.76393
1434064110.521,50.603264
1434064110.537,54.576073
1434064110.552,56.276367
1434064110.568,54.42762
1434064110.583,48.30964
1434064110.599,38.055367
1434064110.615,24.683334
1434064110.63,9.823982
1434064110.646,-4.72876
1434064110.662,-17.469292
1434064110.677,-27.47966
1434064110.693,-34.42975
1434064110.708,-38.458954
1434064110.724,-39.938538
1434064110.74,-39.35485
1434064110.755,-37.199287
1434064110.771,-33.98974
1434064110.787,-30.225822
1434064110.802,-26.360435
1434064110.818,-22.73307
1434064110.833,-19.561012
1434064110.849,-16.956787
1434064110.865,-15.003571
1434064110.88,-13.760887
1434064110.896,-13.302971
1434064110.912,-13.627922
1434064110.927,-14.643776
1434064110.943,-16.108803
1434064110.958,-17.662971
1434064110.974,-18.898376
1434064110.99,-19.465614
1434064111.005,-19.144913
1434064111.021,-17.906258
1434064111.037,-15.873604
1434064111.052,-13.272469
1434064111.068,-10.3629
1434064111.083,-7.359787
1434064111.099,-4.3940735
1434064111.115,-1.4881973
1434064111.13,1.42202
1434064111.146,4.4281387
1434064111.162,7.6022415
1434064111.177,10.910362
1434064111.193,14.220131
1434064111.208,17.320381
1434064111.224,20.050972
1434064111.24,22.361046
1434064111.255,24.399551
1434064111.271,26.506126
1434064111.287,29.122917
1434064111.302,32.61801
1434064111.318,37.093445
1434064111.333,42.17711
1434064111.349,46.987312
1434064111.365,50.215775
1434064111.38,50.507805
1434064111.396,46.875504
1434064111.412,39.1295
1434064111.427,28.01204
1434064111.443,15.03051
1434064111.458,1.9433823
1434064111.474,-9.732452
1434064111.49,-19.106758
1434064111.505,-25.938385
1434064111.521,-30.417648
1434064111.537,-32.846985
1434064111.552,-33.484238
1434064111.568,-32.500473
1434064111.583,-30.102516
1434064111.599,-26.64064
1434064111.615,-22.592567
1434064111.63,-18.47348
1434064111.646,-14.729286
1434064111.662,-11.669197
1434064111.677,-9.467041
1434064111.693,-8.196075
1434064111.708,-7.8420105
1434064111.724,-8.270744
1434064111.74,-9.229485
1434064111.755,-10.352844
1434064111.771,-11.261482
1434064111.787,-11.666679
1434064111.802,-11.43959
1434064111.818,-10.611023
1434064111.833,-9.317596
1434064111.849,-7.6912766
1434064111.865,-5.8189774
1434064111.88,-3.6998138
1434064111.896,-1.2717285
1434064111.912,1.5256653
1434064111.927,4.6836166
1434064111.943,8.108284
1434064111.958,11.620476
1434064111.974,15.008049
1434064111.99,18.108185
1434064112.005,20.887894
1434064112.021,23.474052
1434064112.037,26.139023
1434064112.052,29.220161
1434064112.068,33.014046
1434064112.083,37.62565
1434064112.099,42.845062
1434064112.115,48.004562
1434064112.13,52.03064
1434064112.146,53.6221
1434064112.162,51.617287
1434064112.177,45.444283
1434064112.193,35.394547
1434064112.208,22.616882
1434064112.224,8.813217
1434064112.24,-4.2832794
1434064112.255,-15.361725
1434064112.271,-23.746025
1434064112.287,-29.361427
1434064112.302,-32.51889
1434064112.318,-33.659164
1434064112.333,-33.21444
1434064112.349,-31.56121
1434064112.365,-29.040535
1434064112.38,-25.970963
1434064112.396,-22.654144
1434064112.412,-19.358986
1434064112.427,-16.33043
1434064112.443,-13.790237
1434064112.458,-11.928551
1434064112.474,-10.849319
1434064112.49,-10.552063
1434064112.505,-10.9034195
1434064112.521,-11.676971
1434064112.537,-12.599197
1434064112.552,-13.404419
1434064112.568,-13.864601
1434064112.583,-13.822807
1434064112.599,-13.171112
1434064112.615,-11.899399
1434064112.63,-10.054314
1434064112.646,-7.717537
1434064112.662,-4.9623566
1434064112.677,-1.8259277
1434064112.693,1.6842117
1434064112.708,5.513794
1434064112.724,9.53257
1434064112.74,13.500801
1434064112.755,17.172699
1434064112.771,20.372955
1434064112.787,23.122223
1434064112.802,25.633644
1434064112.818,28.26123
1434064112.834,31.396088
1434064112.849,35.33365
1434064112.865,40.17295
1434064112.88,45.714333
1434064112.896,51.351715
1434064112.912,56.05655
1434064112.927,58.50525
1434064112.943,57.420975
1434064112.959,51.964645
1434064112.974,42.173668
1434064112.99,29.018105
1434064113.005,14.214218
1434064113.021,-0.30326843
1434064113.037,-12.92836
1434064113.052,-22.766174
1434064113.068,-29.638031
1434064113.084,-33.87954
1434064113.099,-35.979095
1434064113.115,-36.39347
1434064113.13,-35.465736
1434064113.146,-33.519226
1434064113.162,-30.922218
1434064113.177,-28.0999
1434064113.193,-25.438972
1434064113.209,-23.198967
1434064113.224,-21.448105
1434064113.24,-20.151718
1434064113.255,-19.237686
1434064113.271,-18.67517
1434064113.287,-18.500946
1434064113.302,-18.763939
1434064113.318,-19.425873
1434064113.334,-20.331177
1434064113.349,-21.166794
1434064113.365,-21.555176
1434064113.38,-21.13646
1434064113.396,-19.692444
1434064113.412,-17.248695
1434064113.427,-14.084099
1434064113.443,-10.62661
1434064113.459,-7.3154755
1434064113.474,-4.380028
1434064113.49,-1.756691
1434064113.505,0.8726578
1434064113.521,3.9034348
1434064113.537,7.6047974
1434064113.552,11.952988
1434064113.568,16.661415
1434064113.584,21.280128
1434064113.599,25.428177
1434064113.615,28.907959
1434064113.63,31.81385
1434064113.646,34.467133
1434064113.662,37.36535
1434064113.677,40.976875
1434064113.693,45.537544
1434064113.709,50.80738
1434064113.724,55.94529
1434064113.74,59.575493
1434064113.755,60.144684
1434064113.771,56.439575
1434064113.787,48.064445
1434064113.802,35.645576
1434064113.818,20.681984
1434064113.834,5.0581512
1434064113.849,-9.482956
1434064113.865,-21.73436
1434064113.88,-31.117004
1434064113.896,-37.55204
1434064113.912,-41.243263
1434064113.927,-42.5194
1434064113.943,-41.78044
1434064113.959,-39.514366
1434064113.974,-36.283577
1434064113.99,-32.695892
1434064114.005,-29.287357
1434064114.021,-26.417702
1434064114.037,-24.23211
1434064114.052,-22.691883
1434064114.068,-21.637486
1434064114.084,-20.963253
1434064114.099,-20.619793
1434064114.115,-20.651005
1434064114.13,-21.07198
1434064114.146,-21.812618
1434064114.162,-22.62302
1434064114.177,-23.136776
1434064114.193,-22.96949
1434064114.209,-21.859982
1434064114.224,-19.779133
1434064114.24,-16.941055
1434064114.255,-13.68008
1434064114.271,-10.324451
1434064114.287,-7.0370026
1434064114.302,-3.7831116
1434064114.318,-0.37145615
1434064114.334,3.4071388
1434064114.349,7.659775
1434064114.365,12.273376
1434064114.38,16.950172
1434064114.396,21.271431
1434064114.412,24.905113
1434064114.427,27.729141
1434064114.443,29.950848
1434064114.459,32.05561
1434064114.474,34.680428
1434064114.49,38.383255
1434064114.505,43.36443
1434064114.521,49.269886
1434064114.537,55.09057
1434064114.552,59.29681
1434064114.568,60.22624
1434064114.584,56.566345
1434064114.599,47.86179
1434064114.615,34.72768
1434064114.63,18.77375
1434064114.646,2.1186562
1434064114.662,-13.176693
1434064114.677,-25.664768
1434064114.693,-34.721485
1434064114.709,-40.48451
1434064114.724,-43.518436
1434064114.74,-44.495502
1434064114.755,-43.931446
1434064114.771,-42.15679
1434064114.787,-39.402397
1434064114.802,-35.942337
1434064114.818,-32.161827
1434064114.834,-28.542294
1434064114.849,-25.530924
1434064114.865,-23.388872
1434064114.88,-22.134432
1434064114.896,-21.591063
1434064114.912,-21.451942
1434064114.927,-21.483757
1434064114.943,-21.57693
1434064114.959,-21.759645
1434064114.974,-22.094116
1434064114.99,-22.572704
1434064115.005,-23.009531
1434064115.021,-23.054611
1434064115.037,-22.29921
1434064115.052,-20.465042
1434064115.068,-17.53451
1434064115.084,-13.80134
1434064115.099,-9.760859
1434064115.115,-5.9366302
1434064115.13,-2.649294
1434064115.146,0.086984634
1434064115.162,2.5589733
1434064115.177,5.170084
1434064115.193,8.248997
1434064115.209,11.8621235
1434064115.224,15.810268
1434064115.24,19.725224
1434064115.255,23.2718
1434064115.271,26.272346
1434064115.287,28.769373
1434064115.302,30.949652
1434064115.318,33.084976
1434064115.334,35.453415
1434064115.349,38.361885
1434064115.365,42.094597
1434064115.38,46.79151
1434064115.396,52.213913
1434064115.412,57.574856
1434064115.427,61.49192
1434064115.443,62.302544
1434064115.459,58.585636
1434064115.474,49.749077
1434064115.49,36.34942
1434064115.506,19.997662
1434064115.521,2.8752632
1434064115.537,-12.908318
1434064115.552,-25.860796
1434064115.568,-35.33343
1434064115.584,-41.40182
1434064115.599,-44.55592
1434064115.615,-45.379364
1434064115.631,-44.37539
1434064115.646,-41.94245
1434064115.662,-38.43152
1434064115.677,-34.239914
1434064115.693,-29.806143
1434064115.709,-25.569336
1434064115.724,-21.86877
1434064115.74,-18.907059
1434064115.756,-16.753658
1434064115.771,-15.425765
1434064115.787,-14.920569
1434064115.802,-15.24206
1434064115.818,-16.304878
1434064115.834,-17.89026
1434064115.849,-19.597244
1434064115.865,-20.945343
1434064115.881,-21.519547
1434064115.896,-21.13058
1434064115.912,-19.846973
1434064115.927,-17.925964
1434064115.943,-15.629562
1434064115.959,-13.080776
1434064115.974,-10.212747
1434064115.99,-6.865216
1434064116.006,-2.9218163
1434064116.021,1.5604465
1434064116.037,6.3455906
1434064116.052,11.089822
1434064116.068,15.504903
1434064116.084,19.419771
1434064116.099,22.85445
1434064116.115,25.963865
1434064116.131,29.01512
1434064116.146,32.29972
1434064116.162,36.091087
1434064116.177,40.510277
1434064116.193,45.368847
1434064116.209,50.041103
1434064116.224,53.455177
1434064116.24,54.263046
1434064116.256,51.264458
1434064116.271,43.839146
1434064116.287,32.308857
1434064116.302,17.926193
1434064116.318,2.5768905
1434064116.334,-11.813699
1434064116.349,-23.76528
1434064116.365,-32.573357
1434064116.381,-38.241394
1434064116.396,-41.20166
1434064116.412,-41.954678
1434064116.427,-40.862278
1434064116.443,-38.12779
1434064116.459,-33.984848
1434064116.474,-28.82379
1434064116.49,-23.28669
1434064116.506,-18.097532
1434064116.521,-13.87388
1434064116.537,-10.927294
1434064116.552,-9.222065
1434064116.568,-8.4488535
1434064116.584,-8.237067
1434064116.599,-8.314412
1434064116.615,-8.597462
1434064116.631,-9.110775
1434064116.646,-9.897235
1434064116.662,-10.878922
1434064116.677,-11.828416
1434064116.693,-12.378985
1434064116.709,-12.141992
1434064116.724,-10.809397
1434064116.74,-8.26823
1434064116.756,-4.6355896
1434064116.771,-0.25522804
1434064116.787,4.427289
1434064116.802,8.985819
1434064116.818,13.150853
1434064116.834,16.872993
1434064116.849,20.335915
1434064116.865,23.83935
1434064116.881,27.737034
1434064116.896,32.323776
1434064116.912,37.736347
1434064116.927,43.793903
1434064116.943,49.89862
1434064116.959,54.97477
1434064116.974,57.648094
1434064116.99,56.58288
1434064117.006,50.947914
1434064117.021,40.793156
1434064117.037,27.117044
1434064117.052,11.615879
1434064117.068,-3.7787724
1434064117.084,-17.449331
1434064117.099,-28.37463
1434064117.115,-36.20323
1434064117.131,-41.02749
1434064117.146,-43.164352
1434064117.162,-42.948555
1434064117.177,-40.73761
1434064117.193,-36.931366
1434064117.209,-32.04157
1434064117.224,-26.671228
1434064117.24,-21.44711
1434064117.256,-16.90296
1434064117.271,-13.387159
1434064117.287,-10.995869
1434064117.302,-9.614552
1434064117.318,-8.975431
1434064117.334,-8.796459
1434064117.349,-8.876736
1434064117.365,-9.159374
1434064117.381,-9.658337
1434064117.396,-10.367069
1434064117.412,-11.113487
1434064117.427,-11.528679
1434064117.443,-11.110352
1434064117.459,-9.423431
1434064117.474,-6.3022766
1434064117.49,-1.9441414
1434064117.506,3.1491241
1434064117.521,8.396133
1434064117.537,13.332558
1434064117.552,17.747585
1434064117.568,21.703968
1434064117.584,25.440739
1434064117.599,29.30973
1434064117.615,33.700035
1434064117.631,38.966434
1434064117.646,45.23139
1434064117.662,52.181858
1434064117.677,58.886143
1434064117.693,63.850723
1434064117.709,65.361755
1434064117.724,62.03756
1434064117.74,53.353294
1434064117.756,39.93261
1434064117.771,23.388687
1434064117.787,5.89254
1434064117.802,-10.462704
1434064117.818,-24.140575
1434064117.834,-34.394592
1434064117.849,-41.166744
1434064117.865,-44.829193
1434064117.881,-45.90025
1434064117.896,-44.86724
1434064117.912,-42.1625
1434064117.927,-38.238136
1434064117.943,-33.633545
1434064117.959,-28.9628
1434064117.974,-24.81134
1434064117.99,-21.599403
1434064118.006,-19.462646
1434064118.021,-18.2743
1434064118.037,-17.708267
1434064118.052,-17.446129
1434064118.068,-17.261887
1434064118.084,-17.094498
1434064118.099,-16.989067
1434064118.115,-17.007462
1434064118.131,-17.131905
1434064118.146,-17.203606
1434064118.162,-16.93792
1434064118.178,-15.962105
1434064118.193,-13.934441
1434064118.209,-10.691612
1434064118.224,-6.3172073
1434064118.24,-1.1549988
1434064118.256,4.3075714
1434064118.271,9.627281
1434064118.287,14.536552
1434064118.303,18.989433
1434064118.318,23.13916
1434064118.334,27.233185
1434064118.349,31.562363
1434064118.365,36.40901
1434064118.381,41.974037
1434064118.396,48.169632
1434064118.412,54.456497
1434064118.428,59.71933
1434064118.443,62.41816
1434064118.459,60.984222
1434064118.474,54.40164
1434064118.49,42.649887
1434064118.506,26.861916
1434064118.521,9.028976
1434064118.537,-8.541885
1434064118.553,-23.855347
1434064118.568,-35.637154
1434064118.584,-43.482185
1434064118.599,-47.68924
1434064118.615,-48.98501
1434064118.631,-48.214607
1434064118.646,-46.12229
1434064118.662,-43.262543
1434064118.678,-40.022087
1434064118.693,-36.66147
1434064118.709,-33.437447
1434064118.724,-30.595276
1434064118.74,-28.339485
1434064118.756,-26.77404
1434064118.771,-25.850426
1434064118.787,-25.397324
1434064118.803,-25.21428
1434064118.818,-25.146263
1434064118.834,-25.121475
1434064118.849,-25.111801
1434064118.865,-25.080841
1434064118.881,-24.865883
1434064118.896,-24.232414
1434064118.912,-22.917252
1434064118.928,-20.761879
1434064118.943,-17.737694
1434064118.959,-13.963844
1434064118.974,-9.622139
1434064118.99,-4.894821
1434064119.006,0.09438324
1434064119.021,5.2379913
1434064119.037,10.415588
1434064119.053,15.455368
1434064119.068,20.18435
1434064119.084,24.47139
1434064119.099,28.35205
1434064119.115,32.05063
1434064119.131,35.966873
1434064119.146,40.529503
1434064119.162,45.96795
1434064119.178,52.03337
1434064119.193,57.85601
1434064119.209,61.977295
1434064119.224,62.706825
1434064119.24,58.664032
1434064119.256,49.324356
1434064119.271,35.323235
1434064119.287,18.373024
1434064119.303,0.7588806
1434064119.318,-15.355446
1434064119.334,-28.482216
1434064119.349,-38.038757
1434064119.365,-44.199806
1434064119.381,-47.505363
1434064119.396,-48.50846
1434064119.412,-47.619576
1434064119.428,-45.197914
1434064119.443,-41.69957
1434064119.459,-37.7632
1434064119.474,-34.086464
1434064119.49,-31.252129
1434064119.506,-29.487831
1434064119.521,-28.663536
1434064119.537,-28.392113
1434064119.553,-28.27105
1434064119.568,-28.066383
1434064119.584,-27.782585
1434064119.599,-27.576698
1434064119.615,-27.601036
1434064119.631,-27.861893
1434064119.646,-28.142532
1434064119.662,-28.071167
1434064119.678,-27.23922
1434064119.693,-25.342133
1434064119.709,-22.355057
1434064119.724,-18.53463
1434064119.74,-14.37339
1434064119.756,-10.396614
1434064119.771,-6.9516983
1434064119.787,-4.0434494
1434064119.803,-1.3840485
1434064119.818,1.4749756
1434064119.834,4.9024506
1434064119.849,8.997772
1434064119.865,13.55661
1434064119.881,18.170853
1434064119.896,22.390953
1434064119.912,25.885475
1434064119.928,28.519417
1434064119.943,30.39788
1434064119.959,31.82502
1434064119.974,33.300163
1434064119.99,35.402794
1434064120.006,38.653145
1434064120.021,43.238297
1434064120.037,48.781456
1434064120.053,54.205307
1434064120.068,57.896523
1434064120.084,58.121323
1434064120.099,53.633507
1434064120.115,44.159817
1434064120.131,30.57647
1434064120.146,14.708416
1434064120.162,-1.2329445
1434064120.178,-15.300144
1434064120.193,-26.280788
1434064120.209,-33.825623
1434064120.224,-38.26856
1434064120.24,-40.253105
1434064120.256,-40.4226
1434064120.271,-39.25628
1434064120.287,-37.1053
1434064120.303,-34.32921
1434064120.318,-31.308247
1434064120.334,-28.445038
1434064120.349,-26.017895
1434064120.365,-24.15414
1434064120.381,-22.824818
1434064120.396,-21.982216
1434064120.412,-21.616043
1434064120.428,-21.777111
1434064120.443,-22.49295
1434064120.459,-23.662514
1434064120.474,-25.014763
1434064120.49,-26.18037
1434064120.506,-26.786749
1434064120.521,-26.60073
1434064120.537,-25.529251
1434064120.553,-23.641138
1434064120.568,-21.068743
1434064120.584,-18.03128
1434064120.599,-14.754375
1434064120.615,-11.475257
1434064120.631,-8.373299
1434064120.646,-5.5400114
1434064120.662,-2.9270134
1434064120.678,-0.40318966
1434064120.693,2.1553373
1434064120.709,4.803192
1434064120.724,7.4922094
1434064120.74,10.126746
1434064120.756,12.63187
1434064120.771,14.994209
1434064120.787,17.282495
1434064120.803,19.571838
1434064120.818,21.902378
1434064120.834,24.224585
1434064120.85,26.42847
1434064120.865,28.354141
1434064120.881,29.908674
1434064120.896,31.10068
1434064120.912,32.133312
1434064120.928,33.396614
1434064120.943,35.399673
1434064120.959,38.552746
1434064120.974,42.916893
1434064120.99,47.991123
1434064121.006,52.667374
1434064121.021,55.41823
1434064121.037,54.767433
1434064121.053,49.79273
1434064121.068,40.494766
1434064121.084,27.862812
1434064121.1,13.594646
1434064121.115,-0.42718506
1434064121.131,-12.621368
1434064121.146,-22.053432
1434064121.162,-28.45409
1434064121.178,-32.05489
1434064121.193,-33.324104
1434064121.209,-32.794846
1434064121.225,-30.959435
1434064121.24,-28.261917
1434064121.256,-25.122425
1434064121.271,-21.91994
1434064121.287,-18.982609
1434064121.303,-16.569221
1434064121.318,-14.843243
1434064121.334,-13.863018
1434064121.35,-13.572075
1434064121.365,-13.812721
1434064121.381,-14.351303
1434064121.396,-14.980747
1434064121.412,-15.575714
1434064121.428,-16.120613
1434064121.443,-16.624317
1434064121.459,-17.043892
1434064121.475,-17.20588
1434064121.49,-16.846336
1434064121.506,-15.719635
1434064121.521,-13.763145
1434064121.537,-11.134232
1434064121.553,-8.169296
1434064121.568,-5.225273
1434064121.584,-2.5372543
1434064121.6,-0.14116669
1434064121.615,2.0863419
1434064121.631,4.3328934
1434064121.646,6.782173
1434064121.662,9.514214
1434064121.678,12.49836
1434064121.693,15.597725
1434064121.709,18.580574
1434064121.725,21.195007
1434064121.74,23.264671
1434064121.756,24.771332
1434064121.771,25.917007
1434064121.787,27.09304
1434064121.803,28.759125
1434064121.818,31.283333
1434064121.834,34.746346
1434064121.85,38.811226
1434064121.865,42.671494
1434064121.881,45.197662
1434064121.896,45.214905
1434064121.912,41.891876
1434064121.928,35.04944
1434064121.943,25.30455
1434064121.959,13.8702545
1434064121.975,2.2151108
1434064121.99,-8.361816
1434064122.006,-17.000122
1434064122.021,-23.320267
1434064122.037,-27.290947
1434064122.053,-29.094185
1434064122.068,-28.997192
1434064122.084,-27.366959
1434064122.1,-24.65319
1434064122.115,-21.38237
1434064122.131,-18.063538
1434064122.146,-15.088478
1434064122.162,-12.665413
1434064122.178,-10.831993
1434064122.193,-9.503891
1434064122.209,-8.579811
1434064122.225,-8.000381
1434064122.24,-7.783676
1434064122.256,-8.018684
1434064122.271,-8.793243
1434064122.287,-10.098007
1434064122.303,-11.738861
1434064122.318,-13.314751
1434064122.334,-14.332642
1434064122.35,-14.365837
1434064122.365,-13.251968
1434064122.381,-11.154884
1434064122.396,-8.488205
1434064122.412,-5.7072983
1434064122.428,-3.1175537
1434064122.443,-0.7644806
1434064122.459,1.5227356
1434064122.475,4.002838
1434064122.49,6.86084
1434064122.506,10.107819
1434064122.521,13.579483
1434064122.537,16.994873
1434064122.553,20.068222
1434064122.568,22.626328
1434064122.584,24.680588
1434064122.6,26.453018
1434064122.615,28.299683
1434064122.631,30.621597
1434064122.646,33.692657
1434064122.662,37.51747
1434064122.678,41.691193
1434064122.693,45.424835
1434064122.709,47.643845
1434064122.725,47.266052
1434064122.74,43.533356
1434064122.756,36.306183
1434064122.771,26.198929
1434064122.787,14.439926
1434064122.803,2.5606842
1434064122.818,-8.044128
1434064122.834,-16.469193
1434064122.85,-22.405151
1434064122.865,-26.021362
1434064122.881,-27.704575
1434064122.896,-27.8405
1434064122.912,-26.716537
1434064122.928,-24.575775
1434064122.943,-21.711472
1434064122.959,-18.527512
1434064122.975,-15.455475
1434064122.99,-12.847
1434064123.006,-10.877289
1434064123.021,-9.54248
1434064123.037,-8.743927
1434064123.053,-8.388931
1434064123.068,-8.467957
1434064123.084,-9.032562
1434064123.1,-10.088715
1434064123.115,-11.539871
1434064123.131,-13.109573
1434064123.146,-14.414749
1434064123.162,-15.074448
1434064123.178,-14.839264
1434064123.193,-13.683594
1434064123.209,-11.799286
1434064123.225,-9.508575
1434064123.24,-7.1437225
1434064123.256,-4.9088287
1434064123.271,-2.8153076
1434064123.287,-0.70155334
1434064123.303,1.66922
1434064123.318,4.515335
1434064123.334,7.918457
1434064123.35,11.796722
1434064123.365,15.922028
1434064123.381,20.008408
1434064123.396,23.775864
1434064123.412,27.057602
1434064123.428,29.846298
1434064123.443,32.32361
1434064123.459,34.849518
1434064123.475,37.865417
1434064123.49,41.699677
1434064123.506,46.37082
1434064123.521,51.369186
1434064123.537,55.659912
1434064123.553,57.880943
1434064123.568,56.752724
1434064123.584,51.522476
1434064123.6,42.290146
1434064123.615,30.012466
1434064123.631,16.231697
1434064123.646,2.6103058
1434064123.662,-9.485344
1434064123.678,-19.22026
1434064123.693,-26.295258
1434064123.709,-30.791878
1434064123.725,-32.97999
1434064123.74,-33.234543
1434064123.756,-31.983383
1434064123.772,-29.730042
1434064123.787,-27.00418
1434064123.803,-24.318726
1434064123.818,-22.01107
1434064123.834,-20.227264
1434064123.85,-18.897552
1434064123.865,-17.848549
1434064123.881,-16.928276
1434064123.897,-16.131432
1434064123.912,-15.578705
1434064123.928,-15.472717
1434064123.943,-15.940727
1434064123.959,-16.931168
1434064123.975,-18.154297
1434064123.99,-19.175041
1434064124.006,-19.5299
1434064124.022,-18.912224
1434064124.037,-17.277397
1434064124.053,-14.845276
1434064124.068,-11.978409
1434064124.084,-9.017204
1434064124.1,-6.1364365
1434064124.115,-3.3059921
1434064124.131,-0.35754395
1434064124.147,2.8917313
1434064124.162,6.5119247
1434064124.178,10.426689
1434064124.193,14.441605
1434064124.209,18.333176
1434064124.225,21.970009
1434064124.24,25.328514
1434064124.256,28.516983
1434064124.272,31.737724
1434064124.287,35.26078
1434064124.303,39.33053
1434064124.318,44.057144
1434064124.334,49.241592
1434064124.35,54.251663
1434064124.365,57.984245
1434064124.381,59.10563
1434064124.397,56.411682
1434064124.412,49.303635
1434064124.428,38.067223
1434064124.443,23.880486
1434064124.459,8.520554
1434064124.475,-6.1472015
1434064124.49,-18.657135
1434064124.506,-28.202698
1434064124.522,-34.664825
1434064124.537,-38.387352
1434064124.553,-39.92284
1434064124.568,-39.793377
1434064124.584,-38.422886
1434064124.6,-36.146004
1434064124.615,-33.257175
1434064124.631,-30.059391
1434064124.647,-26.843178
1434064124.662,-23.870502
1434064124.678,-21.324337
1434064124.693,-19.311981
1434064124.709,-17.90509
1434064124.725,-17.138794
1434064124.74,-17.053322
1434064124.756,-17.621243
1434064124.772,-18.718063
1434064124.787,-20.065262
1434064124.803,-21.275639
1434064124.818,-21.94656
1434064124.834,-21.790554
1434064124.85,-20.69836
1434064124.865,-18.776459
1434064124.881,-16.265125
1434064124.897,-13.422867
1434064124.912,-10.422924
1434064124.928,-7.290268
1434064124.943,-3.9239578
1434064124.959,-0.18873024
1434064124.975,3.9977226
1434064124.99,8.548967
1434064125.006,13.246418
1434064125.022,17.763792
1434064125.037,21.837196
1434064125.053,25.348282
1434064125.068,28.422045
1434064125.084,31.400202
1434064125.1,34.74375
1434064125.115,38.86509
1434064125.131,43.90468
1434064125.147,49.525253
1434064125.162,54.84359
1434064125.178,58.510365
1434064125.193,59.040478
1434064125.209,55.240158
1434064125.225,46.69213
1434064125.24,33.945972
1434064125.256,18.48072
1434064125.272,2.2602892
1434064125.287,-12.776175
1434064125.303,-25.231647
1434064125.318,-34.421093
1434064125.334,-40.36216
1434064125.35,-43.489185
1434064125.365,-44.375763
1434064125.381,-43.55158
1434064125.397,-41.45631
1434064125.412,-38.46334
1434064125.428,-34.954693
1434064125.443,-31.283987
1434064125.459,-27.801477
1434064125.475,-24.731815
1434064125.49,-22.199938
1434064125.506,-20.239655
1434064125.522,-18.889866
1434064125.537,-18.20762
1434064125.553,-18.277348
1434064125.568,-19.132736
1434064125.584,-20.645975
1434064125.6,-22.472893
1434064125.615,-24.090185
1434064125.631,-24.930977
1434064125.647,-24.567345
1434064125.662,-22.86163
1434064125.678,-20.02282
1434064125.693,-16.504759
1434064125.709,-12.853708
1434064125.725,-9.442116
1434064125.74,-6.3688564
1434064125.756,-3.3982468
1434064125.772,-0.14112663
1434064125.787,3.7450104
1434064125.803,8.325594
1434064125.818,13.359499
1434064125.834,18.366642
1434064125.85,22.8442
1434064125.865,26.4937
1434064125.881,29.311872
1434064125.897,31.601711
1434064125.912,33.89436
1434064125.928,36.759537
1434064125.943,40.683403
1434064125.959,45.82335
1434064125.975,51.834946
1434064125.99,57.72528
1434064126.006,61.966812
1434064126.022,62.804626
1434064126.037,58.838318
1434064126.053,49.56393
1434064126.068,35.66311
1434064126.084,18.876038
1434064126.1,1.4763718
1434064126.115,-14.404373
1434064126.131,-27.306911
1434064126.147,-36.648403
1434064126.162,-42.574997
1434064126.178,-45.63369
1434064126.193,-46.43482
1434064126.209,-45.46907
1434064126.225,-43.100372
1434064126.24,-39.65846
1434064126.256,-35.51957
1434064126.272,-31.170418
1434064126.287,-27.125435
1434064126.303,-23.846031
1434064126.318,-21.584465
1434064126.334,-20.358173
1434064126.35,-19.985027
1434064126.365,-20.195744
1434064126.381,-20.806831
1434064126.397,-21.7445
1434064126.412,-23.024029
1434064126.428,-24.607159
1434064126.444,-26.264706
1434064126.459,-27.555115
1434064126.475,-27.927536
1434064126.49,-26.961483
1434064126.506,-24.540455
1434064126.522,-20.936737
1434064126.537,-16.693481
1434064126.553,-12.433289
1434064126.569,-8.601204
1434064126.584,-5.336445
1434064126.6,-2.432705
1434064126.615,0.5283203
1434064126.631,3.9862862
1434064126.647,8.16687
1434064126.662,12.958584
1434064126.678,17.932411
1434064126.694,22.507961
1434064126.709,26.232712
1434064126.725,28.942474
1434064126.74,30.879677
1434064126.756,32.565575
1434064126.772,34.61854
1434064126.787,37.573822
1434064126.803,41.714172
1434064126.819,46.99137
1434064126.834,52.92416
1434064126.85,58.573067
1434064126.865,62.587543
1434064126.881,63.433002
1434064126.897,59.821785
1434064126.912,51.181824
1434064126.928,37.9968
1434064126.944,21.755413
1434064126.959,4.547783
1434064126.975,-11.532375
1434064126.99,-24.951138
1434064127.006,-34.976402
1434064127.022,-41.618546
1434064127.037,-45.298794
1434064127.053,-46.538
1434064127.069,-45.78328
1434064127.084,-43.401478
1434064127.1,-39.753284
1434064127.115,-35.281677
1434064127.131,-30.484852
1434064127.147,-25.863678
1434064127.162,-21.801151
1434064127.178,-18.548004
1434064127.194,-16.226757
1434064127.209,-14.871326
1434064127.225,-14.464092
1434064127.24,-14.939201
1434064127.256,-16.140686
1434064127.272,-17.811977
1434064127.287,-19.590164
1434064127.303,-21.069908
1434064127.319,-21.89302
1434064127.334,-21.829308
1434064127.35,-20.825142
1434064127.365,-18.997726
1434064127.381,-16.54274
1434064127.397,-13.674034
1434064127.412,-10.517799
1434064127.428,-7.0996704
1434064127.444,-3.3694
1434064127.459,0.7178345
1434064127.475,5.1284103
1434064127.49,9.698685
1434064127.506,14.175636
1434064127.522,18.295967
1434064127.537,21.910759
1434064127.553,25.081352
1434064127.569,28.104607
1434064127.584,31.434334
1434064127.6,35.550728
1434064127.615,40.702454
1434064127.631,46.712463
1434064127.647,52.80304
1434064127.662,57.660492
1434064127.678,59.707664
1434064127.694,57.54959
1434064127.709,50.48427
1434064127.725,38.84236
1434064127.74,23.941376
1434064127.756,7.7576447
1434064127.772,-7.680107
1434064127.787,-20.808113
1434064127.803,-30.829231
1434064127.819,-37.66326
1434064127.834,-41.653328
1434064127.85,-43.26114
1434064127.865,-42.89338
1434064127.881,-40.854866
1434064127.897,-37.463425
1434064127.912,-33.13726
1434064127.928,-28.372566
1434064127.944,-23.672684
1434064127.959,-19.46537
1434064127.975,-16.040405
1434064127.99,-13.566322
1434064128.006,-12.10585
1434064128.022,-11.644485
1434064128.037,-12.074112
1434064128.053,-13.1818695
1434064128.069,-14.626518
1434064128.084,-16.009766
1434064128.1,-16.973694
1434064128.115,-17.288506
1434064128.131,-16.882545
1434064128.147,-15.834343
1434064128.162,-14.266167
1434064128.178,-12.245552
1434064128.194,-9.737152
1434064128.209,-6.626343
1434064128.225,-2.7920532
1434064128.24,1.7481537
1434064128.256,6.8093796
1434064128.272,12.046272
1434064128.287,17.07383
1434064128.303,21.585648
1434064128.319,25.476913
1434064128.334,28.876907
1434064128.35,32.129845
1434064128.365,35.6884
1434064128.381,39.992188
1434064128.397,45.286293
1434064128.412,51.39489
1434064128.428,57.54812
1434064128.444,62.403038
1434064128.459,64.292175
1434064128.475,61.715454
1434064128.49,53.859856
1434064128.506,41.016167
1434064128.522,24.568993
1434064128.537,6.649727
1434064128.553,-10.503685
1434064128.569,-25.1128
1434064128.584,-36.20388
1434064128.6,-43.59565
1434064128.615,-47.649834
1434064128.631,-48.93
1434064128.647,-48.002907
1434064128.662,-45.360687
1434064128.678,-41.51107
1434064128.694,-36.998108
1434064128.709,-32.405357
1434064128.725,-28.232895
1434064128.74,-24.786697
1434064128.756,-22.125717
1434064128.772,-20.125282
1434064128.787,-18.614449
1434064128.803,-17.545235
1434064128.819,-17.025963
1434064128.834,-17.241257
1434064128.85,-18.252167
1434064128.865,-19.886528
1434064128.881,-21.667267
1434064128.897,-22.967545
1434064128.912,-23.208595
1434064128.928,-22.082825
1434064128.944,-19.64495
1434064128.959,-16.269066
1434064128.975,-12.467781
1434064128.99,-8.709488
1434064129.006,-5.214752
1434064129.022,-1.9111252
1434064129.037,1.5035858
1434064129.053,5.396454
1434064129.069,10.011482
1434064129.084,15.283783
1434064129.1,20.869316
1434064129.116,26.218895
1434064129.131,30.808777
1434064129.147,34.36624
1434064129.162,37.00255
1434064129.178,39.176277
1434064129.194,41.55419
1434064129.209,44.785316
1434064129.225,49.272995
1434064129.241,54.936005
1434064129.256,61.07949
1434064129.272,66.381004
1434064129.287,69.13293
1434064129.303,67.66833
1434064129.319,60.92169
1434064129.334,48.851204
1434064129.35,32.60649
1434064129.366,14.193916
1434064129.381,-4.0583344
1434064129.397,-20.174927
1434064129.412,-32.934258
1434064129.428,-41.97045
1434064129.444,-47.53311
1434064129.459,-50.17547
1434064129.475,-50.4954
1434064129.491,-49.01792
1434064129.506,-46.198685
1434064129.522,-42.473206
1434064129.537,-38.26512
1434064129.553,-33.994347
1434064129.569,-30.027893
1434064129.584,-26.696556
1434064129.6,-24.22696
1434064129.616,-22.763336
1434064129.631,-22.328606
1434064129.647,-22.84951
1434064129.662,-24.130486
1434064129.678,-25.899696
1434064129.694,-27.823944
1434064129.709,-29.567062
1434064129.725,-30.812607
1434064129.741,-31.318092
1434064129.756,-30.917542
1434064129.772,-29.53881
1434064129.787,-27.178284
1434064129.803,-23.937462
1434064129.819,-20.003479
1434064129.834,-15.673019
1434064129.85,-11.285431
1434064129.866,-7.158394
1434064129.881,-3.4462585
1434064129.897,-0.078697205
1434064129.912,3.221878
1434064129.928,6.793541
1434064129.944,10.851219
1434064129.959,15.386589
1434064129.975,20.131966
1434064129.991,24.680443
1434064130.006,28.675766
1434064130.022,31.941841
1434064130.037,34.550056
1434064130.053,36.74984
1434064130.069,38.899803
1434064130.084,41.354614
1434064130.1,44.46611
1434064130.116,48.498947
1434064130.131,53.569633
1434064130.147,59.434074
1434064130.162,65.31329
1434064130.178,69.840965
1434064130.194,71.31564
1434064130.209,68.14328
1434064130.225,59.454002
1434064130.241,45.531387
1434064130.256,27.839691
1434064130.272,8.640244
1434064130.287,-9.669022
1434064130.303,-25.218063
1434064130.319,-37.02732
1434064130.334,-44.986847
1434064130.35,-49.540344
1434064130.366,-51.33072
1434064130.381,-50.92151
1434064130.397,-48.796257
1434064130.412,-45.404488
1434064130.428,-41.24505
1434064130.444,-36.86734
1434064130.459,-32.745888
1434064130.475,-29.19674
1434064130.491,-26.363907
1434064130.506,-24.26181
1434064130.522,-22.887993
1434064130.537,-22.279816
1434064130.553,-22.49762
1434064130.569,-23.513878
1434064130.584,-25.15091
1434064130.6,-27.050423
1434064130.616,-28.769936
1434064130.631,-29.903366
1434064130.647,-30.168411
1434064130.662,-29.470184
1434064130.678,-27.886223
1434064130.694,-25.553871
1434064130.709,-22.65575
1434064130.725,-19.351479
1434064130.741,-15.781071
1434064130.756,-12.060955
1434064130.772,-8.297867
1434064130.787,-4.558979
1434064130.803,-0.86431885
1434064130.819,2.8071442
1434064130.834,6.525902
1434064130.85,10.370651
1434064130.866,14.35313
1434064130.881,18.410496
1434064130.897,22.396698
1434064130.912,26.109745
1434064130.928,29.365562
1434064130.944,32.064125
1434064130.959,34.234573
1434064130.975,36.065296
1434064130.991,37.879486
1434064131.006,40.10279
1434064131.022,43.21698
1434064131.037,47.587692
1434064131.053,53.256985
1434064131.069,59.732616
1434064131.084,65.87272
1434064131.1,70.0468
1434064131.116,70.51271
1434064131.131,65.97591
1434064131.147,56.050888
1434064131.162,41.480976
1434064131.178,23.938927
1434064131.194,5.549904
1434064131.209,-11.670742
1434064131.225,-26.24318
1434064131.241,-37.403957
1434064131.256,-44.984512
1434064131.272,-49.232018
1434064131.287,-50.603565
1434064131.303,-49.653942
1434064131.319,-47.00242
1434064131.334,-43.31916
1434064131.35,-39.22817
1434064131.366,-35.252617
1434064131.381,-31.716148
1434064131.397,-28.752884
1434064131.412,-26.38324
1434064131.428,-24.596977
1434064131.444,-23.436821
1434064131.459,-23.003174
1434064131.475,-23.374336
1434064131.491,-24.510052
1434064131.506,-26.178162
1434064131.522,-27.961166
1434064131.537,-29.365677
1434064131.553,-29.967155
1434064131.569,-29.531189
1434064131.584,-28.079483
1434064131.6,-25.833916
1434064131.616,-23.126907
1434064131.631,-20.254482
1434064131.647,-17.412655
1434064131.662,-14.618141
1434064131.678,-11.79591
1434064131.694,-8.827223
1434064131.709,-5.6350975
1434064131.725,-2.2195034
1434064131.741,1.2984238
1434064131.756,4.760092
1434064131.772,8.016811
1434064131.788,11.00717
1434064131.803,13.801296
1434064131.819,16.56884
1434064131.834,19.510164
1434064131.85,22.754263
1434064131.866,26.271109
1434064131.881,29.870209
1434064131.897,33.252968
1434064131.912,36.147263
1434064131.928,38.43307
1434064131.944,40.280327
1434064131.959,42.14569
1434064131.975,44.658916
1434064131.991,48.34245
1434064132.006,53.30661
1434064132.022,58.983402
1434064132.038,64.09935
1434064132.053,66.89568
1434064132.069,65.65986
1434064132.084,59.3033
1434064132.1,47.797314
1434064132.116,32.25884
1434064132.131,14.648797
1434064132.147,-2.8286543
1434064132.163,-18.301052
1434064132.178,-30.645891
1434064132.194,-39.526432
1434064132.209,-45.193394
1434064132.225,-48.144882
1434064132.241,-48.87404
1434064132.256,-47.736668
1434064132.272,-45.054413
1434064132.288,-41.179142
1434064132.303,-36.56795
1434064132.319,-31.749575
1434064132.334,-27.210926
1434064132.35,-23.293354
1434064132.366,-20.174425
1434064132.381,-17.909027
1434064132.397,-16.514858
1434064132.413,-16.004648
1434064132.428,-16.388805
1434064132.444,-17.578987
1434064132.459,-19.373749
1434064132.475,-21.424927
1434064132.491,-23.313816
1434064132.506,-24.621529
1434064132.522,-25.02559
1434064132.538,-24.327005
1434064132.553,-22.50328
1434064132.569,-19.698868
1434064132.584,-16.194347
1434064132.6,-12.351471
1434064132.616,-8.556607
1434064132.631,-5.076628
1434064132.647,-2.0239668
1434064132.663,0.7144394
1434064132.678,3.3858967
1434064132.694,6.292403
1434064132.709,9.652536
1434064132.725,13.507111
1434064132.741,17.705582
1434064132.756,21.955856
1434064132.772,25.9236
1434064132.788,29.35062
1434064132.803,32.129227
1434064132.819,34.34922
1434064132.834,36.265495
1434064132.85,38.26006
1434064132.866,40.759773
1434064132.881,44.10992
1434064132.897,48.369778
1434064132.913,53.113403
1434064132.928,57.325737
1434064132.944,59.5558
1434064132.959,58.27616
1434064132.975,52.453743
1434064132.991,41.979935
1434064133.006,27.820322
1434064133.022,11.735174
1434064133.038,-4.24263
1434064133.053,-18.406527
1434064133.069,-29.726488
1434064133.084,-37.88517
1434064133.1,-43.04931
1434064133.116,-45.583614
1434064133.131,-45.86652
1434064133.147,-44.26075
1434064133.163,-41.149643
1434064133.178,-37.00953
1434064133.194,-32.339584
1434064133.209,-27.601505
1434064133.225,-23.124453
1434064133.241,-19.084497
1434064133.256,-15.552746
1434064133.272,-12.583637
1434064133.288,-10.284372
1434064133.303,-8.822699
1434064133.319,-8.353401
1434064133.334,-8.92071
1434064133.35,-10.336565
1434064133.366,-12.19478
1434064133.381,-13.934263
1434064133.397,-14.986948
1434064133.413,-14.980976
1434064133.428,-13.831711
1434064133.444,-11.732834
1434064133.459,-9.035542
1434064133.475,-6.073372
1434064133.491,-3.0250626
1434064133.506,0.1210022
1434064133.522,3.50766
1434064133.538,7.281971
1434064133.553,11.48082
1434064133.569,15.978336
1434064133.584,20.501648
1434064133.6,24.739471
1434064133.616,28.446632
1434064133.631,31.565529
1434064133.647,34.260006
1434064133.663,36.91634
1434064133.678,40.016167
1434064133.694,43.984035
1434064133.709,48.936974
1434064133.725,54.476902
1434064133.741,59.581177
1434064133.756,62.761105
1434064133.772,62.418354
1434064133.788,57.39893
1434064133.803,47.42406
1434064133.819,33.319805
1434064133.834,16.7841
1434064133.85,-0.05961609
1434064133.866,-15.314117
1434064133.881,-27.727608
1434064133.897,-36.830486
1434064133.913,-42.76531
1434064133.928,-45.99489
1434064133.944,-47.01112
1434064133.959,-46.224213
1434064133.975,-43.961292
1434064133.991,-40.558132
1434064134.006,-36.379963
1434064134.022,-31.815233
1434064134.038,-27.207283
1434064134.053,-22.83091
1434064134.069,-18.889046
1434064134.084,-15.548157
1434064134.1,-12.97374
1434064134.116,-11.347004
1434064134.131,-10.802124
1434064134.147,-11.395607
1434064134.163,-13.004232
1434064134.178,-15.294237
1434064134.194,-17.739819
1434064134.209,-19.70617
1434064134.225,-20.59568
1434064134.241,-20.055367
1434064134.256,-18.070137
1434064134.272,-14.999573
1434064134.288,-11.426136
1434064134.303,-7.935627
1434064134.319,-4.864811
1434064134.334,-2.1923637
1434064134.35,0.42930222
1434064134.366,3.484768
1434064134.381,7.327873
1434064134.397,12.037701
1434064134.413,17.347301
1434064134.428,22.783615
1434064134.444,27.836693
1434064134.459,32.15512
1434064134.475,35.657574
1434064134.491,38.532772
1434064134.506,41.195866
1434064134.522,44.14976
1434064134.538,47.8905
1434064134.553,52.676838
1434064134.569,58.335655
1434064134.584,64.09266
1434064134.6,68.582466
1434064134.616,70.09354
1434064134.631,67.09938
1434064134.647,58.804394
1434064134.663,45.505386
1434064134.678,28.617767
1434064134.694,10.232719
1434064134.71,-7.493225
1434064134.725,-22.882872
1434064134.741,-35.027245
1434064134.756,-43.688522
1434064134.772,-49.056137
1434064134.788,-51.470264
1434064134.803,-51.33859
1434064134.819,-49.12452
1434064134.835,-45.413677
1434064134.85,-40.85856
1434064134.866,-36.1115
1434064134.881,-31.65915
1434064134.897,-27.787363
1434064134.913,-24.604864
1434064134.928,-22.12266
1434064134.944,-20.326242
1434064134.96,-19.194742
1434064134.975,-18.71166
1434064134.991,-18.866398
1434064135.006,-19.60999
1434064135.022,-20.873775
1434064135.038,-22.511536
1434064135.053,-24.23143
1434064135.069,-25.6084
1434064135.085,-26.137947
1434064135.1,-25.3849
1434064135.116,-23.157291
1434064135.131,-19.608107
1434064135.147,-15.193823
1434064135.163,-10.542256
1434064135.178,-6.2233467
1434064135.194,-2.5512743
1434064135.21,0.5034542
1434064135.225,3.288288
1434064135.241,6.2974443
1434064135.256,9.95775
1434064135.272,14.42758
1434064135.288,19.529217
1434064135.303,24.783138
1434064135.319,29.612629
1434064135.335,33.570503
1434064135.35,36.544277
1434064135.366,38.79557
1434064135.381,40.91179
1434064135.397,43.599483
1434064135.413,47.46927
1434064135.428,52.769753
1434064135.444,59.183395
1434064135.46,65.71055
1434064135.475,70.793724
1434064135.491,72.59821
1434064135.506,69.56923
1434064135.522,60.95653
1434064135.538,47.160076
1434064135.553,29.688313
1434064135.569,10.74475
1434064135.585,-7.406403
1434064135.6,-22.994076
1434064135.616,-35.05887
1434064135.631,-43.395744
1434064135.647,-48.332916
1434064135.663,-50.429462
1434064135.678,-50.294167
1434064135.694,-48.484898
1434064135.71,-45.501526
1434064135.725,-41.79116
1434064135.741,-37.755905
1434064135.756,-33.748253
1434064135.772,-30.072578
1434064135.788,-26.981384
1434064135.803,-24.639631
1434064135.819,-23.13049
1434064135.835,-22.463768
1434064135.85,-22.569687
1434064135.866,-23.345083
1434064135.881,-24.64784
1434064135.897,-26.29281
1434064135.913,-28.030241
1434064135.928,-29.528248
1434064135.944,-30.394321
1434064135.96,-30.265524
1434064135.975,-28.891685
1434064135.991,-26.249485
1434064136.006,-22.541603
1434064136.022,-18.171455
1434064136.038,-13.60367
1434064136.053,-9.2726965
1434064136.069,-5.408984
1434064136.085,-1.989543
1434064136.1,1.2680664
1434064136.116,4.7702217
1434064136.131,8.878684
1434064136.147,13.713785
1434064136.163,19.084902
1434064136.178,24.523682
1434064136.194,29.477993
1434064136.21,33.513184
1434064136.225,36.49464
1434064136.241,38.627224
1434064136.256,40.39578
1434064136.272,42.416985
1434064136.288,45.299305
1434064136.303,49.45587
1434064136.319,54.948692
1434064136.335,61.29609
1434064136.35,67.4168
1434064136.366,71.701355
1434064136.381,72.35581
1434064136.397,67.96938
1434064136.413,58.022446
1434064136.428,43.175385
1434064136.444,25.154953
1434064136.46,6.257622
1434064136.475,-11.323551
1434064136.491,-26.041061
1434064136.506,-37.210648
1434064136.522,-44.899376
1434064136.538,-49.5461
1434064136.553,-51.67682
1434064136.569,-51.67411
1434064136.585,-49.841114
1434064136.6,-46.48323
1434064136.616,-42.0439
1434064136.631,-37.108818
1434064136.647,-32.29622
1434064136.663,-28.11745
1434064136.678,-24.878704
1434064136.694,-22.640362
1434064136.71,-21.297049
1434064136.725,-20.702374
1434064136.741,-20.747992
1434064136.756,-21.350256
1434064136.772,-22.421658
1434064136.788,-23.746857
1434064136.803,-25.011566
1434064136.819,-25.825737
1434064136.835,-25.868532
1434064136.85,-24.979263
1434064136.866,-23.223661
1434064136.881,-20.863644
1434064136.897,-18.271751
1434064136.913,-15.802551
1434064136.928,-13.698196
1434064136.944,-11.985603
1434064136.96,-10.454529
1434064136.975,-8.6710205
1434064136.991,-6.113758
1434064137.006,-2.3596153
1434064137.022,2.7364082
1434064137.038,8.926914
1434064137.053,15.596622
1434064137.069,21.982693
1434064137.085,27.443584
1434064137.1,31.718536
1434064137.116,34.994778
1434064137.131,37.841564
1434064137.147,40.972046
1434064137.163,45.016434
1434064137.178,50.24866
1434064137.194,56.412712
1434064137.21,62.654396
1434064137.225,67.591965
1434064137.241,69.56538
1434064137.256,67.09091
1434064137.272,59.348667
1434064137.288,46.55165
1434064137.303,29.971985
1434064137.319,11.632652
1434064137.335,-6.2703476
1434064137.35,-21.911983
1434064137.366,-34.236813
1434064137.382,-42.953156
1434064137.397,-48.31862
1434064137.413,-50.814945
1434064137.428,-50.94773
1434064137.444,-49.16387
1434064137.46,-45.921455
1434064137.475,-41.690464
1434064137.491,-36.970898
1434064137.507,-32.226078
1434064137.522,-27.828148
1434064137.538,-24.014942
1434064137.553,-20.93206
1434064137.569,-18.667576
1434064137.585,-17.291267
1434064137.6,-16.837074
1434064137.616,-17.295166
1434064137.632,-18.56152
1434064137.647,-20.408127
1434064137.663,-22.478783
1434064137.678,-24.306606
1434064137.694,-25.392899
1434064137.71,-25.341331
1434064137.725,-23.97314
1434064137.741,-21.409023
1434064137.757,-18.032818
1434064137.772,-14.334232
1434064137.788,-10.696548
1434064137.803,-7.229557
1434064137.819,-3.7501411
1434064137.835,0.06985855
1434064137.85,4.5315056
1434064137.866,9.684513
1434064137.882,15.289169
1434064137.897,20.869827
1434064137.913,25.91084
1434064137.928,30.041191
1434064137.944,33.18019
1434064137.96,35.5929
1434064137.975,37.838295
1434064137.991,40.60463
1434064138.007,44.488716
1434064138.022,49.69217
1434064138.038,55.78654
1434064138.053,61.632046
1434064138.069,65.56964
1434064138.085,65.84423
1434064138.1,61.176994
1434064138.116,51.235313
1434064138.132,36.81997
1434064138.147,19.663061
1434064138.163,1.9203243
1434064138.178,-14.416201
1434064138.194,-27.946991
1434064138.21,-38.041634
1434064138.225,-44.71524
1434064138.241,-48.359406
1434064138.257,-49.462036
1434064138.272,-48.48152
1434064138.288,-45.81488
1434064138.303,-41.8525
1434064138.319,-37.00458
1434064138.335,-31.737185
1434064138.35,-26.478588
1434064138.366,-21.630228
1434064138.382,-17.498316
1434064138.397,-14.320967
1434064138.413,-12.25639
1434064138.428,-11.381304
1434064138.444,-11.662886
1434064138.46,-12.937519
1434064138.475,-14.860556
1434064138.491,-16.952017
1434064138.507,-18.658285
1434064138.522,-19.483236
1434064138.538,-19.118664
1434064138.553,-17.53766
1434064138.569,-14.971777
1434064138.585,-11.813095
1434064138.6,-8.426994
1434064138.616,-5.0274143
1434064138.632,-1.5585613
1434064138.647,2.1970177
1434064138.663,6.473633
1434064138.678,11.329929
1434064138.694,16.576698
1434064138.71,21.820349
1434064138.725,26.61461
1434064138.741,30.642622
1434064138.757,33.89927
1434064138.772,36.707355
1434064138.788,39.68298
1434064138.803,43.500534
1434064138.819,48.63531
1434064138.835,55.04126
1434064138.85,61.96286
1434064138.866,67.95386
1434064138.882,71.20624
1434064138.897,70.04097
1434064138.913,63.478043
1434064138.928,51.584106
1434064138.944,35.511692
1434064138.96,17.163933
1434064138.975,-1.3080215
1434064138.991,-18.039757
1434064139.007,-31.770699
1434064139.022,-41.931164
1434064139.038,-48.490593
1434064139.053,-51.791615
1434064139.069,-52.345463
1434064139.085,-50.7545
1434064139.1,-47.632675
1434064139.116,-43.593243
1434064139.132,-39.15984
1434064139.147,-34.73848
1434064139.163,-30.57809
1434064139.178,-26.816708
1434064139.194,-23.518425
1434064139.21,-20.777794
1434064139.225,-18.726429
1434064139.241,-17.549183
1434064139.257,-17.368092
1434064139.272,-18.173244
1434064139.288,-19.713291
1434064139.303,-21.547867
1434064139.319,-23.108456
1434064139.335,-23.867
1434064139.35,-23.481628
1434064139.366,-21.895275
1434064139.382,-19.30634
1434064139.397,-16.089699
1434064139.413,-12.617531
1434064139.428,-9.128681
1434064139.444,-5.6226807
1434064139.46,-1.9236641
1434064139.475,2.2156105
1434064139.491,6.959053
1434064139.507,12.291565
1434064139.522,17.96416
1434064139.538,23.59414
1434064139.553,28.761196
1434064139.569,33.204475
1434064139.585,36.90317
1434064139.6,40.15203
1434064139.616,43.48477
1434064139.632,47.510715
1434064139.647,52.63224
1434064139.663,58.74501
1434064139.678,65.04715
1434064139.694,70.05184
1434064139.71,71.923035
1434064139.725,69.03253
1434064139.741,60.546833
1434064139.757,46.831223
1434064139.772,29.367706
1434064139.788,10.362164
1434064139.803,-7.959461
1434064139.819,-23.87276
1434064139.835,-36.440475
1434064139.85,-45.41175
1434064139.866,-50.97296
1434064139.882,-53.485016
1434064139.897,-53.358315
1434064139.913,-51.078503
1434064139.928,-47.271294
1434064139.944,-42.666615
1434064139.96,-37.976814
1434064139.975,-33.72542
1434064139.991,-30.138206
1434064140.007,-27.165672
1434064140.022,-24.643486
1434064140.038,-22.445396
1434064140.054,-20.646172
1434064140.069,-19.475815
1434064140.085,-19.213997
1434064140.1,-19.989346
1434064140.116,-21.635765
1434064140.132,-23.646221
1434064140.147,-25.316795
1434064140.163,-25.977032
1434064140.179,-25.22247
1434064140.194,-23.05312
1434064140.21,-19.81808
1434064140.225,-16.028751
1434064140.241,-12.148926
1434064140.257,-8.381477
1434064140.272,-4.6776733
1434064140.288,-0.80228806
1434064140.304,3.4710197
1434064140.319,8.24057
1434064140.335,13.381992
1434064140.35,18.606407
1434064140.366,23.569115
1434064140.382,27.98162
1434064140.397,31.73856
1434064140.413,34.92893
1434064140.429,37.830376
1434064140.444,40.87859
1434064140.46,44.551205
1434064140.475,49.19959
1434064140.491,54.818092
1434064140.507,60.838066
1434064140.522,66.025795
1434064140.538,68.703514
1434064140.554,67.184906
1434064140.569,60.380917
1434064140.585,48.266197
1434064140.6,32.00608
1434064140.616,13.619446
1434064140.632,-4.614052
1434064140.647,-20.779259
1434064140.663,-33.71371
1434064140.679,-43.048023
1434064140.694,-48.975124
1434064140.71,-51.95834
1434064140.725,-52.483246
1434064140.741,-51.025177
1434064140.757,-48.038467
1434064140.772,-44.025215
1434064140.788,-39.509422
1434064140.804,-35.029053
1434064140.819,-31.022217
1434064140.835,-27.802261
1434064140.85,-25.482708
1434064140.866,-24.008682
1434064140.882,-23.200367
1434064140.897,-22.849785
1434064140.913,-22.806313
1434064140.929,-23.034061
1434064140.944,-23.575481
1434064140.96,-24.424183
1434064140.975,-25.449127
1434064140.991,-26.359549
1434064141.007,-26.763536
1434064141.022,-26.302265
1434064141.038,-24.765781
1434064141.054,-22.175117
1434064141.069,-18.732948
1434064141.085,-14.777664
1434064141.1,-10.637293
1434064141.116,-6.5742493
1434064141.132,-2.7535725
1434064141.147,0.7738514
1434064141.163,4.102396
1434064141.179,7.4093876
1434064141.194,10.912468
1434064141.21,14.764057
1434064141.225,18.962486
1434064141.241,23.312893
1434064141.257,27.488708
1434064141.272,31.12098
1434064141.288,33.968292
1434064141.304,36.01819
1434064141.319,37.527184
1434064141.335,38.979435
1434064141.35,40.993134
1434064141.366,44.11576
1434064141.382,48.570877
1434064141.397,54.041317
1434064141.413,59.54811
1434064141.429,63.54472
1434064141.444,64.298004
1434064141.46,60.42277
1434064141.475,51.417534
1434064141.491,37.893734
1434064141.507,21.448185
1434064141.522,4.1489654
1434064141.538,-12.042236
1434064141.554,-25.760746
1434064141.569,-36.353878
1434064141.585,-43.762547
1434064141.6,-48.233086
1434064141.616,-50.07978
1434064141.632,-49.632053
1434064141.647,-47.271503
1434064141.663,-43.462585
1434064141.679,-38.779747
1434064141.694,-33.816605
1434064141.71,-29.084621
1434064141.725,-24.934128
1434064141.741,-21.561632
1434064141.757,-19.031828
1434064141.772,-17.364594
1434064141.788,-16.534437
1434064141.804,-16.500488
1434064141.819,-17.166864
1434064141.835,-18.390049
1434064141.85,-19.950045
1434064141.866,-21.543726
1434064141.882,-22.813503
1434064141.897,-23.385872
1434064141.913,-22.940266
1434064141.929,-21.349981
1434064141.944,-18.697147
1434064141.96,-15.307702
1434064141.975,-11.624307
1434064141.991,-8.0617485
1434064142.007,-4.853734
1434064142.022,-1.9901438
1434064142.038,0.7810497
1434064142.054,3.7896824
1434064142.069,7.3017654
1434064142.085,11.383785
1434064142.1,15.85113
1434064142.116,20.345345
1434064142.132,24.457573
1434064142.147,27.880709
1434064142.163,30.523111
1434064142.179,32.547997
1434064142.194,34.30725
1434064142.21,36.24804
1434064142.225,38.792316
1434064142.241,42.179234
1434064142.257,46.360077
1434064142.272,50.824303
1434064142.288,54.59735
1434064142.304,56.33773
1434064142.319,54.704178
1434064142.335,48.783566
1434064142.35,38.51694
1434064142.366,24.832806
1434064142.382,9.429394
1434064142.397,-5.718914
1434064142.413,-18.902523
1434064142.429,-29.096237
1434064142.444,-35.98996
1434064142.46,-39.821083
1434064142.475,-41.05704
1434064142.491,-40.21089
1434064142.507,-37.75183
1434064142.522,-34.13429
1434064142.538,-29.825424
1434064142.554,-25.289387
1434064142.569,-20.925053
1434064142.585,-17.024822
1434064142.6,-13.774456
1434064142.616,-11.288349
1434064142.632,-9.620335
1434064142.647,-8.810314
1434064142.663,-8.841335
1434064142.679,-9.653152
1434064142.694,-11.140511
1434064142.71,-13.137856
1434064142.726,-15.399277
1434064142.741,-17.596153
1434064142.757,-19.27819
1434064142.772,-19.966965
1434064142.788,-19.293259
1434064142.804,-17.174793
1434064142.819,-13.8981285
1434064142.835,-10.072491
1434064142.85,-6.390278
1434064142.866,-3.3467026
1434064142.882,-1.02285
1434064142.897,0.9480324
1434064142.913,3.1767235
1434064142.929,6.2070885
1434064142.944,10.226715
1434064142.96,14.9609375
1434064142.976,19.818813
1434064142.991,24.1487
1434064143.007,27.536957
1434064143.022,29.947826
1434064143.038,31.708298
1434064143.054,33.342953
1434064143.069,35.425415
1434064143.085,38.391663
1434064143.101,42.422188
1434064143.116,47.269558
1434064143.132,52.200188
1434064143.147,55.978687
1434064143.163,57.116646
1434064143.179,54.297096
1434064143.194,46.83293
1434064143.21,35.021263
1434064143.226,20.165367
1434064143.241,4.205902
1434064143.257,-10.813438
1434064143.272,-23.325577
1434064143.288,-32.519836
1434064143.304,-38.36747
1434064143.319,-41.332832
1434064143.335,-42.07939
1434064143.351,-41.201164
1434064143.366,-39.165184
1434064143.382,-36.326073
1434064143.397,-33.0093
1434064143.413,-29.513893
1434064143.429,-26.117058
1434064143.444,-23.029335
1434064143.46,-20.38723
1434064143.476,-18.274467
1434064143.491,-16.755653
1434064143.507,-15.867676
1434064143.522,-15.621201
1434064143.538,-15.9431305
1434064143.554,-16.694496
1434064143.569,-17.657593
1434064143.585,-18.61847
1434064143.601,-19.374191
1434064143.616,-19.760033
1434064143.632,-19.61634
1434064143.647,-18.783485
1434064143.663,-17.150291
1434064143.679,-14.733765
1434064143.694,-11.714561
1434064143.71,-8.427391
1434064143.726,-5.2217484
1434064143.741,-2.3357315
1434064143.757,0.24777222
1434064143.772,2.741455
1434064143.788,5.4992447
1434064143.804,8.788597
1434064143.819,12.662346
1434064143.835,16.920563
1434064143.851,21.190186
1434064143.866,25.069145
1434064143.882,28.309486
1434064143.897,30.833435
1434064143.913,32.783028
1434064143.929,34.43168
1434064143.944,36.146927
1434064143.96,38.32734
1434064143.976,41.33436
1434064143.991,45.340187
1434064144.007,50.13671
1434064144.022,54.98368
1434064144.038,58.612465
1434064144.054,59.472885
1434064144.069,56.234924
1434064144.085,48.277603
1434064144.101,36.05484
1434064144.116,21.018723
1434064144.132,5.1922073
1434064144.147,-9.458702
1434064144.163,-21.548859
1434064144.179,-30.51545
1434064144.194,-36.474068
1434064144.21,-39.890617
1434064144.226,-41.228065
1434064144.241,-40.825478
1434064144.257,-38.903244
1434064144.272,-35.754204
1434064144.288,-31.797462
1434064144.304,-27.57917
1434064144.319,-23.6148
1434064144.335,-20.243896
1434064144.351,-17.57103
1434064144.366,-15.524925
1434064144.382,-13.998375
1434064144.397,-12.957016
1434064144.413,-12.465553
1434064144.429,-12.626808
1434064144.444,-13.460007
1434064144.46,-14.839867
1434064144.476,-16.474571
1434064144.491,-17.976448
1434064144.507,-18.960342
1434064144.522,-19.153389
1434064144.538,-18.415382
1434064144.554,-16.79319
1434064144.569,-14.4350815
1434064144.585,-11.577736
1434064144.601,-8.468323
1434064144.616,-5.326828
1434064144.632,-2.2987137
1434064144.647,0.53312683
1434064144.663,3.1953354
1434064144.679,5.792961
1434064144.694,8.485245
1434064144.71,11.440979
1434064144.726,14.773323
1434064144.741,18.43901
1434064144.757,22.254837
1434064144.772,25.892746
1434064144.788,29.051422
1434064144.804,31.547783
1434064144.819,33.447784
1434064144.835,35.05475
1434064144.851,36.868263
1434064144.866,39.430923
1434064144.882,43.13452
1434064144.897,48.003113
1434064144.913,53.5149
1434064144.929,58.566795
1434064144.944,61.64052
1434064144.96,61.20867
1434064144.976,56.249214
1434064144.991,46.635857
1434064145.007,33.275513
1434064145.022,17.842926
1434064145.038,2.2991562
1434064145.054,-11.693611
1434064145.069,-23.089996
1434064145.085,-31.544289
1434064145.101,-37.19345
1434064145.116,-40.38848
1434064145.132,-41.47751
1434064145.147,-40.790443
1434064145.163,-38.6681
1434064145.179,-35.518677
1434064145.194,-31.83326
1434064145.21,-28.08046
1434064145.226,-24.622795
1434064145.241,-21.69194
1434064145.257,-19.373543
1434064145.272,-17.705399
1434064145.288,-16.717308
1434064145.304,-16.465294
1434064145.319,-16.941498
1434064145.335,-18.058182
1434064145.351,-19.582405
1434064145.366,-21.201286
1434064145.382,-22.586182
1434064145.398,-23.472496
1434064145.413,-23.685692
1434064145.429,-23.14463
1434064145.444,-21.845764
1434064145.46,-19.849869
1434064145.476,-17.280556
1434064145.491,-14.310463
1434064145.507,-11.13031
1434064145.522,-7.8982086
1434064145.538,-4.710373
1434064145.554,-1.584938
1434064145.569,1.526886
1434064145.585,4.6932526
1434064145.601,7.977028
1434064145.616,11.401947
1434064145.632,14.95488
1434064145.648,18.585243
1434064145.663,22.211739
1434064145.679,25.722984
1434064145.694,29.003326
1434064145.71,31.951118
1434064145.726,34.549553
1434064145.741,36.900223
1434064145.757,39.260147
1434064145.773,42.01291
1434064145.788,45.570045
1434064145.804,50.14582
1434064145.819,55.551613
1434064145.835,60.985474
1434064145.851,65.107475
1434064145.866,66.30317
1434064145.882,63.20469
1434064145.898,55.20369
1434064145.913,42.746964
1434064145.929,27.260162
1434064145.944,10.695984
1434064145.96,-5.0602036
1434064145.976,-18.652893
1434064145.991,-29.450607
1434064146.007,-37.379265
1434064146.023,-42.605896
1434064146.038,-45.33847
1434064146.054,-45.757866
1434064146.069,-44.126617
1434064146.085,-40.937977
1434064146.101,-36.86496
1434064146.116,-32.61737
1434064146.132,-28.735607
1434064146.148,-25.469791
1434064146.163,-22.810944
1434064146.179,-20.67147
1434064146.194,-19.027752
1434064146.21,-17.97477
1434064146.226,-17.659405
1434064146.241,-18.160782
1434064146.257,-19.37558
1434064146.273,-21.044468
1434064146.288,-22.804745
1434064146.304,-24.263832
1434064146.319,-25.069637
1434064146.335,-24.96373
1434064146.351,-23.794674
1434064146.366,-21.614712
1434064146.382,-18.66602
1434064146.398,-15.318466
1434064146.413,-11.951691
1434064146.429,-8.790573
1434064146.444,-5.808235
1434064146.46,-2.7904968
1434064146.476,0.55371857
1434064146.491,4.396347
1434064146.507,8.678295
1434064146.523,13.123886
1434064146.538,17.386978
1434064146.554,21.168793
1434064146.569,24.382652
1434064146.585,27.136463
1434064146.601,29.709652
1434064146.616,32.440613
1434064146.632,35.681602
1434064146.648,39.698807
1434064146.663,44.598568
1434064146.679,50.15391
1434064146.694,55.688198
1434064146.71,60.02115
1434064146.726,61.697884
1434064146.741,59.354156
1434064146.757,52.256542
1434064146.773,40.653427
1434064146.788,25.810774
1434064146.804,9.655388
1434064146.819,-5.8150826
1434064146.835,-19.109709
1434064146.851,-29.51113
1434064146.866,-36.993637
1434064146.882,-41.89809
1434064146.898,-44.60128
1434064146.913,-45.31771
1434064146.929,-44.182854
1434064146.944,-41.38054
1434064146.96,-37.297318
1434064146.976,-32.46925
1434064146.991,-27.466076
1434064147.007,-22.737307
1434064147.023,-18.585157
1434064147.038,-15.168344
1434064147.054,-12.62123
1434064147.069,-11.07597
1434064147.085,-10.643513
1434064147.101,-11.305172
1434064147.116,-12.868706
1434064147.132,-14.932417
1434064147.148,-17.004751
1434064147.163,-18.587135
1434064147.179,-19.346985
1434064147.194,-19.14075
1434064147.21,-18.034458
1434064147.226,-16.200787
1434064147.241,-13.851912
1434064147.257,-11.113329
1434064147.273,-8.0080185
1434064147.288,-4.4707036
1434064147.304,-0.44351745
1434064147.319,4.037378
1434064147.335,8.801872
1434064147.351,13.581821
1434064147.366,18.088037
1434064147.382,22.148022
1434064147.398,25.732224
1434064147.413,28.995823
1434064147.429,32.24138
1434064147.444,35.869736
1434064147.46,40.246735
1434064147.476,45.531933
1434064147.491,51.439175
1434064147.507,57.089317
1434064147.523,61.06419
1434064147.538,61.72615
1434064147.554,57.757206
1434064147.569,48.680065
1434064147.585,35.129578
1434064147.601,18.730314
1434064147.616,1.6052294
1434064147.632,-14.217753
1434064147.648,-27.350605
1434064147.663,-37.191444
1434064147.679,-43.81521
1434064147.694,-47.632385
1434064147.71,-49.111732
1434064147.726,-48.593857
1434064147.741,-46.34826
1434064147.757,-42.653664
1434064147.773,-37.891525
1434064147.788,-32.54594
1434064147.804,-27.125298
1434064147.819,-22.075546
1434064147.835,-17.754053
1434064147.851,-14.401026
1434064147.866,-12.181923
1434064147.882,-11.1757145
1434064147.898,-11.343891
1434064147.913,-12.485144
1434064147.929,-14.214243
1434064147.944,-16.015963
1434064147.96,-17.397121
1434064147.976,-17.98388
1434064147.991,-17.627209
1434064148.007,-16.384834
1434064148.023,-14.417217
1434064148.038,-11.861176
1434064148.054,-8.773449
1434064148.069,-5.114914
1434064148.085,-0.8576851
1434064148.101,3.9608421
1434064148.116,9.167999
1434064148.132,14.497467
1434064148.148,19.659557
1434064148.163,24.440979
1434064148.179,28.76484
1434064148.194,32.73157
1434064148.21,36.591644
1434064148.226,40.706566
1434064148.241,45.448288
1434064148.257,51.033836
1434064148.273,57.292313
1434064148.288,63.475792
1434064148.304,68.22543
1434064148.32,69.86102
1434064148.335,66.84045
1434064148.351,58.396275
1434064148.366,44.88499
1434064148.382,27.789143
1434064148.398,9.281719
1434064148.413,-8.422565
1434064148.429,-23.660488
1434064148.445,-35.57103
1434064148.46,-44.023327
1434064148.476,-49.318512
1434064148.491,-51.87895
1434064148.507,-52.094284
1434064148.523,-50.3397
1434064148.538,-47.05223
1434064148.554,-42.808815
1434064148.57,-38.210785
1434064148.585,-33.80414
1434064148.601,-29.9096
1434064148.616,-26.63826
1434064148.632,-23.96035
1434064148.648,-21.827904
1434064148.663,-20.28646
1434064148.679,-19.492607
1434064148.695,-19.619667
1434064148.71,-20.691742
1434064148.726,-22.508156
1434064148.741,-24.58744
1434064148.757,-26.280533
1434064148.773,-26.960197
1434064148.788,-26.23101
1434064148.804,-24.061203
1434064148.82,-20.738014
1434064148.835,-16.753387
1434064148.851,-12.571747
1434064148.866,-8.481506
1434064148.882,-4.5197525
1434064148.898,-0.5389786
1434064148.913,3.6888733
1434064148.929,8.305267
1434064148.945,13.314636
1434064148.96,18.53434
1434064148.976,23.65551
1434064148.991,28.341927
1434064149.007,32.362442
1434064149.023,35.70182
1434064149.038,38.650246
1434064149.054,41.753067
1434064149.07,45.64895
1434064149.085,50.798378
1434064149.101,57.18367
1434064149.116,64.0623
1434064149.132,69.98806
1434064149.148,73.08157
1434064149.163,71.60218
1434064149.179,64.51966
1434064149.195,51.92653
1434064149.21,35.07437
1434064149.226,16.04972
1434064149.241,-2.8543549
1434064149.257,-19.715141
1434064149.273,-33.36019
1434064149.288,-43.401634
1434064149.304,-50.022453
1434064149.32,-53.658653
1434064149.335,-54.78
1434064149.351,-53.80709
1434064149.366,-51.156075
1434064149.382,-47.304596
1434064149.398,-42.80301
1434064149.413,-38.191948
1434064149.429,-33.954132
1434064149.445,-30.413841
1434064149.46,-27.748573
1434064149.476,-26.012756
1434064149.491,-25.194
1434064149.507,-25.211227
1434064149.523,-25.949814
1434064149.538,-27.25447
1434064149.554,-28.902946
1434064149.57,-30.64309
1434064149.585,-32.193184
1434064149.601,-33.229393
1434064149.616,-33.449196
1434064149.632,-32.61505
1434064149.648,-30.623764
1434064149.663,-27.54818
1434064149.679,-23.648209
1434064149.695,-19.279251
1434064149.71,-14.844109
1434064149.726,-10.621918
1434064149.741,-6.7459564
1434064149.757,-3.1415482
1434064149.773,0.39231873
1434064149.788,4.1155167
1434064149.804,8.247299
1434064149.82,12.866226
1434064149.835,17.875786
1434064149.851,22.99958
1434064149.866,27.84063
1434064149.882,32.04245
1434064149.898,35.381516
1434064149.913,37.930466
1434064149.929,40.030746
1434064149.945,42.262733
1434064149.96,45.269913
1434064149.976,49.568604
1434064149.991,55.269165
1434064150.007,61.886795
1434064150.023,68.262634
1434064150.038,72.714516
1434064150.054,73.40931
1434064150.07,68.922874
1434064150.085,58.715828
1434064150.101,43.42054
1434064150.116,24.718018
1434064150.132,4.9003525
1434064150.148,-13.735062
1434064150.163,-29.425682
1434064150.179,-41.23156
1434064150.195,-48.992577
1434064150.21,-53.118553
1434064150.226,-54.26596
1434064150.241,-53.16432
1434064150.257,-50.465004
1434064150.273,-46.75332
1434064150.288,-42.547737
1434064150.304,-38.30185
1434064150.32,-34.407402
1434064150.335,-31.163574
1434064150.351,-28.752441
1434064150.366,-27.263382
1434064150.382,-26.676216
1434064150.398,-26.905731
1434064150.413,-27.809822
1434064150.429,-29.198334
1434064150.445,-30.84037
1434064150.46,-32.474724
1434064150.476,-33.79368
1434064150.491,-34.513664
1434064150.507,-34.390083
1434064150.523,-33.287224
1434064150.538,-31.194138
1434064150.554,-28.244446
1434064150.57,-24.672523
1434064150.585,-20.74002
1434064150.601,-16.647392
1434064150.616,-12.525131
1434064150.632,-8.420387
1434064150.648,-4.356247
1434064150.663,-0.359581
1434064150.679,3.5418777
1434064150.695,7.3462524
1434064150.71,11.096931
1434064150.726,14.870384
1434064150.741,18.717712
1434064150.757,22.649582
1434064150.773,26.600777
1434064150.788,30.463326
1434064150.804,34.104004
1434064150.82,37.41532
1434064150.835,40.314133
1434064150.851,42.805237
1434064150.866,45.02236
1434064150.882,47.300476
1434064150.898,50.15834
1434064150.913,54.151184
1434064150.929,59.528862
1434064150.945,65.87776
1434064150.96,71.96112
1434064150.976,75.90399
1434064150.992,75.69664
1434064151.007,69.90093
1434064151.023,58.198425
1434064151.038,41.567307
1434064151.054,21.98993
1434064151.07,1.8865967
1434064151.085,-16.550377
1434064151.101,-31.80346
1434064151.117,-43.189484
1434064151.132,-50.70632
1434064151.148,-54.781693
1434064151.163,-55.98465
1434064151.179,-54.885796
1434064151.195,-52.01275
1434064151.21,-47.90059
1434064151.226,-43.117706
1434064151.242,-38.25963
1434064151.257,-33.859245
1434064151.273,-30.270042
1434064151.288,-27.6025
1434064151.304,-25.768242
1434064151.32,-24.605576
1434064151.335,-24.011642
1434064151.351,-24.003708
1434064151.367,-24.675415
1434064151.382,-26.02327
1434064151.398,-27.863396
1434064151.413,-29.782928
1434064151.429,-31.2785
1434064151.445,-31.940948
1434064151.46,-31.58796
1434064151.476,-30.277466
1434064151.492,-28.211842
1434064151.507,-25.554623
1434064151.523,-22.390945
1434064151.538,-18.709747
1434064151.554,-14.5384865
1434064151.57,-10.015587
1434064151.585,-5.413059
1434064151.601,-1.0359535
1434064151.617,2.89114
1434064151.632,6.3294144
1434064151.648,9.44529
1434064151.663,12.529018
1434064151.679,15.873058
1434064151.695,19.653896
1434064151.71,23.844574
1434064151.726,28.238468
1434064151.742,32.505207
1434064151.757,36.313942
1434064151.773,39.44063
1434064151.788,41.87715
1434064151.804,43.849472
1434064151.82,45.801083
1434064151.835,48.293922
1434064151.851,51.844395
1434064151.867,56.63703
1434064151.882,62.282616
1434064151.898,67.72653
1434064151.913,71.32208
1434064151.929,71.27257
1434064151.945,66.19107
1434064151.96,55.630653
1434064151.976,40.35091
1434064151.992,22.111923
1434064152.007,3.202465
1434064152.023,-14.240807
1434064152.038,-28.695755
1434064152.054,-39.48819
1434064152.07,-46.623116
1434064152.085,-50.53032
1434064152.101,-51.76163
1434064152.117,-50.834602
1434064152.132,-48.191315
1434064152.148,-44.25402
1434064152.163,-39.466316
1434064152.179,-34.30957
1434064152.195,-29.25113
1434064152.21,-24.681215
1434064152.226,-20.86793
1434064152.242,-17.963905
1434064152.257,-16.019884
1434064152.273,-15.052452
1434064152.288,-15.029348
1434064152.304,-15.903421
1434064152.32,-17.534878
1434064152.335,-19.694777
1434064152.351,-22.029234
1434064152.367,-24.106823
1434064152.382,-25.472248
1434064152.398,-25.761068
1434064152.413,-24.76952
1434064152.429,-22.545725
1434064152.445,-19.34799
1434064152.46,-15.583058
1434064152.476,-11.667657
1434064152.492,-7.9039907
1434064152.507,-4.381092
1434064152.523,-0.99168587
1434064152.538,2.4960089
1434064152.554,6.3145447
1434064152.57,10.589561
1434064152.585,15.278704
1434064152.601,20.197489
1434064152.617,25.05474
1434064152.632,29.555445
1434064152.648,33.45329
1434064152.663,36.66963
1434064152.679,39.28875
1434064152.695,41.61718
1434064152.71,44.120182
1434064152.726,47.303642
1434064152.742,51.49991
1434064152.757,56.657978
1434064152.773,62.144302
1434064152.788,66.73868
1434064152.804,68.854485
1434064152.82,66.962814
1434064152.835,60.110374
1434064152.851,48.325863
1434064152.867,32.68329
1434064152.882,15.073517
1434064152.898,-2.3648608
1434064152.913,-17.768225
1434064152.929,-29.997004
1434064152.945,-38.65582
1434064152.96,-43.942345
1434064152.976,-46.343494
1434064152.992,-46.40471
1434064153.007,-44.597332
1434064153.023,-41.3286
1434064153.038,-36.997536
1434064153.054,-32.020508
1434064153.07,-26.821058
1434064153.085,-21.798176
1434064153.101,-17.27349
1434064153.117,-13.502645
1434064153.132,-10.6710415
1434064153.148,-8.931772
1434064153.163,-8.375402
1434064153.179,-9.029573
1434064153.195,-10.760295
1434064153.21,-13.240658
1434064153.226,-15.948421
1434064153.242,-18.276375
1434064153.257,-19.660494
1434064153.273,-19.772821
1434064153.288,-18.592646
1434064153.304,-16.386047
1434064153.32,-13.543973
1434064153.335,-10.389587
1434064153.351,-7.0443506
1434064153.367,-3.4333673
1434064153.382,0.59183383
1434064153.398,5.0920277
1434064153.413,9.984004
1434064153.429,15.00705
1434064153.445,19.858818
1434064153.46,24.302765
1434064153.476,28.254347
1434064153.492,31.823446
1434064153.507,35.31765
1434064153.523,39.188984
1434064153.538,43.891457
1434064153.554,49.63795
1434064153.57,56.120422
1434064153.585,62.33162
1434064153.601,66.65813
1434064153.617,67.27104
1434064153.632,62.757523
1434064153.648,52.678062
1434064153.664,37.83856
1434064153.679,20.068832
1434064153.695,1.6644106
1434064153.71,-15.286413
1434064153.726,-29.363342
1434064153.742,-39.97284
1434064153.757,-47.130566
1434064153.773,-51.1817
1434064153.788,-52.52618
1434064153.804,-51.554386
1434064153.82,-48.68347
1434064153.835,-44.40386
1434064153.851,-39.306274
1434064153.867,-33.98884
1434064153.882,-28.91687
1434064153.898,-24.391605
1434064153.914,-20.521315
1434064153.929,-17.356369
1434064153.945,-14.937894
1434064153.96,-13.393218
1434064153.976,-12.850586
1434064153.992,-13.386396
1434064154.007,-14.858265
1434064154.023,-16.895561
1434064154.039,-18.913185
1434064154.054,-20.286217
1434064154.07,-20.526772
1434064154.085,-19.451176
1434064154.101,-17.21445
1434064154.117,-14.210297
1434064154.132,-10.874382
1434064154.148,-7.5193596
1434064154.164,-4.184332
1434064154.179,-0.6774578
1434064154.195,3.297142
1434064154.21,7.9379864
1434064154.226,13.219017
1434064154.242,18.840443
1434064154.257,24.360859
1434064154.273,29.372007
1434064154.289,33.690758
1434064154.304,37.42742
1434064154.32,40.95549
1434064154.335,44.835968
1434064154.351,49.57793
1434064154.367,55.405293
1434064154.382,62.024685
1434064154.398,68.46325
1434064154.414,73.1622
1434064154.429,74.30316
1434064154.445,70.36163
1434064154.46,60.648354
1434064154.476,45.6728
1434064154.492,27.04332
1434064154.507,7.064932
1434064154.523,-11.914133
1434064154.539,-28.079874
1434064154.554,-40.44513
1434064154.57,-48.80486
1434064154.585,-53.48876
1434064154.601,-55.07174
1434064154.617,-54.163265
1434064154.632,-51.34597
1434064154.648,-47.189648
1434064154.664,-42.25699
1434064154.679,-37.10556
1434064154.695,-32.207336
1434064154.71,-27.917007
1434064154.726,-24.424362
1434064154.742,-21.796835
1434064154.757,-19.995792
1434064154.773,-18.969206
1434064154.789,-18.648579
1434064154.804,-18.984962
1434064154.82,-19.875679
1434064154.835,-21.123302
1434064154.851,-22.39658
1434064154.867,-23.277687
1434064154.882,-23.361828
1434064154.898,-22.40123
1434064154.914,-20.390156
1434064154.929,-17.55164
1434064154.945,-14.207497
1434064154.96,-10.625256
1434064154.976,-6.873085
1434064154.992,-2.833168
1434064155.007,1.6858864
1434064155.023,6.795658
1434064155.039,12.399506
1434064155.054,18.191502
1434064155.07,23.762215
1434064155.085,28.768875
1434064155.101,33.070595
1434064155.117,36.773357
1434064155.132,40.232224
1434064155.148,43.933403
1434064155.164,48.379467
1434064155.179,53.847466
1434064155.195,60.17468
1434064155.21,66.57019
1434064155.226,71.61701
1434064155.242,73.522545
1434064155.257,70.66385
1434064155.273,62.12913
1434064155.289,48.14881
1434064155.304,30.113457
1434064155.32,10.215427
1434064155.335,-9.193943
1434064155.351,-26.160923
1434064155.367,-39.505974
1434064155.382,-48.8143
1434064155.398,-54.24589
1434064155.414,-56.26922
1434064155.429,-55.51476
1434064155.445,-52.67664
1434064155.46,-48.498028
1434064155.476,-43.708397
1434064155.492,-38.91155
1434064155.507,-34.499622
1434064155.523,-30.645027
1434064155.539,-27.357033
1434064155.554,-24.627167
1434064155.57,-22.502262
1434064155.585,-21.111732
1434064155.601,-20.589283
1434064155.617,-20.984638
1434064155.632,-22.170208
1434064155.648,-23.842197
1434064155.664,-25.524803
1434064155.679,-26.710537
1434064155.695,-26.961334
1434064155.71,-26.037045
1434064155.726,-23.932983
1434064155.742,-20.883072
1434064155.757,-17.216534
1434064155.773,-13.231834
1434064155.789,-9.061382
1434064155.804,-4.6737976
1434064155.82,0.09804535
1434064155.835,5.374504
1434064155.851,11.146645
1434064155.867,17.180153
1434064155.882,23.083439
1434064155.898,28.421959
1434064155.914,32.8967
1434064155.929,36.45402
1434064155.945,39.34828
1434064155.96,42.101856
1434064155.976,45.374523
1434064155.992,49.70862
1434064156.007,55.266655
1434064156.023,61.529007
1434064156.039,67.25809
1434064156.054,70.64935
1434064156.07,69.83765
1434064156.085,63.519802
1434064156.101,51.464764
1434064156.117,34.710514
1434064156.132,15.292263
1434064156.148,-4.3738174
1434064156.164,-22.110432
1434064156.179,-36.495686
1434064156.195,-46.925213
1434064156.21,-53.454315
1434064156.226,-56.493137
1434064156.242,-56.586063
1434064156.257,-54.287113
1434064156.273,-50.215748
1434064156.289,-45.050568
1434064156.304,-39.51587
1434064156.32,-34.252266
1434064156.336,-29.738499
1434064156.351,-26.186283
1434064156.367,-23.609425
1434064156.382,-21.910263
1434064156.398,-20.975021
1434064156.414,-20.739292
1434064156.429,-21.183517
1434064156.445,-22.255653
1434064156.46,-23.814423
1434064156.476,-25.53923
1434064156.492,-26.974503
1434064156.507,-27.587772
1434064156.523,-26.973125
