1430349870.184,0.0
1430349870.199,0.0
1430349870.215,0.0
1430349870.23,0.0
1430349870.246,0.0
1430349870.262,0.0
1430349870.277,0.0
1430349870.293,0.0
1430349870.309,0.0
1430349870.324,0.0021780876
1430349870.34,-0.004661602
1430349870.355,-0.011502458
1430349870.371,-0.011620887
1430349870.387,0.0011610583
1430349870.402,0.026324267
1430349870.418,0.051491134
1430349870.434,0.052219864
1430349870.449,-0.0014779435
1430349870.465,-0.1318923
1430349870.48,-0.3589118
1430349870.496,-0.6625011
1430349870.512,-1.0098393
1430349870.527,-1.3642963
1430349870.543,-1.702695
1430349870.559,-2.0265186
1430349870.574,-2.3610015
1430349870.59,-2.7423947
1430349870.605,-3.1945965
1430349870.621,-3.7528934
1430349870.637,-4.3779573
1430349870.652,-5.0179787
1430349870.668,-5.6177244
1430349870.684,-6.1458917
1430349870.699,-6.6137466
1430349870.715,-7.074317
1430349870.73,-7.600671
1430349870.746,-8.237574
1430349870.762,-9.078561
1430349870.777,-10.030878
1430349870.793,-10.980984
1430349870.809,-11.811237
1430349870.824,-12.468927
1430349870.84,-13.014612
1430349870.856,-13.619579
1430349870.871,-14.506197
1430349870.887,-15.825907
1430349870.902,-17.796211
1430349870.918,-20.21073
1430349870.934,-22.787607
1430349870.949,-25.22375
1430349870.965,-27.357063
1430349870.981,-29.277542
1430349870.996,-31.321344
1430349871.012,-33.939247
1430349871.027,-37.44918
1430349871.043,-42.21287
1430349871.059,-47.84453
1430349871.074,-53.787167
1430349871.09,-59.439266
1430349871.106,-64.45017
1430349871.121,-68.91448
1430349871.137,-73.35769
1430349871.152,-78.50761
1430349871.168,-84.89342
1430349871.184,-93.017426
1430349871.199,-102.31346
1430349871.215,-111.92722
1430349871.231,-120.936386
1430349871.246,-128.7834
1430349871.262,-135.5494
1430349871.277,-141.92719
1430349871.293,-149.29012
1430349871.309,-156.3509
1430349871.324,-165.3305
1430349871.34,-176.75392
1430349871.356,-190.65575
1430349871.371,-205.78189
1430349871.387,-219.1914
1430349871.402,-226.54195
1430349871.418,-223.22176
1430349871.434,-205.9557
1430349871.449,-174.03911
1430349871.465,-130.0773
1430349871.481,-78.080536
1430349871.496,-22.39949
1430349871.512,33.914764
1430349871.527,89.64923
1430349871.543,144.90826
1430349871.559,200.04755
1430349871.574,254.80914
1430349871.59,308.19434
1430349871.606,358.51907
1430349871.621,404.70102
1430349871.637,446.01163
1430349871.652,481.93506
1430349871.668,511.67264
1430349871.684,533.8361
1430349871.699,546.5801
1430349871.715,548.0111
1430349871.731,536.95166
1430349871.746,513.1813
1430349871.762,478.00656
1430349871.777,433.68616
1430349871.793,382.97382
1430349871.809,328.5157
1430349871.824,272.4596
1430349871.84,216.33029
1430349871.856,161.18604
1430349871.871,107.93509
1430349871.887,57.466034
1430349871.902,10.938995
1430349871.918,-30.507431
1430349871.934,-65.99054
1430349871.949,-95.13794
1430349871.965,-118.19849
1430349871.981,-135.93953
1430349871.996,-149.38144
1430349872.012,-159.44958
1430349872.027,-166.76007
1430349872.043,-171.47412
1430349872.059,-173.49277
1430349872.074,-172.70245
1430349872.09,-169.2186
1430349872.106,-163.50966
1430349872.121,-156.34486
1430349872.137,-148.54784
1430349872.152,-140.76416
1430349872.168,-133.27727
1430349872.184,-126.0011
1430349872.199,-118.64221
1430349872.215,-110.890335
1430349872.231,-102.502304
1430349872.246,-93.33126
1430349872.262,-83.35963
1430349872.277,-72.87831
1430349872.293,-62.656395
1430349872.309,-53.983765
1430349872.324,-48.356647
1430349872.34,-46.899864
1430349872.356,-49.762096
1430349872.371,-55.79907
1430349872.387,-62.894943
1430349872.402,-68.729614
1430349872.418,-71.670525
1430349872.434,-71.239296
1430349872.449,-68.13287
1430349872.465,-63.4316
1430349872.481,-58.04889
1430349872.496,-52.50085
1430349872.512,-46.95175
1430349872.527,-41.54699
1430349872.543,-36.607246
1430349872.559,-32.60646
1430349872.574,-29.880226
1430349872.59,-28.359377
1430349872.606,-27.505772
1430349872.621,-26.525194
1430349872.637,-24.732027
1430349872.652,-21.81028
1430349872.668,-17.993946
1430349872.684,-13.879452
1430349872.699,-10.150906
1430349872.715,-7.292782
1430349872.731,-5.409012
1430349872.746,-4.2288437
1430349872.762,-3.2702408
1430349872.777,-2.0851517
1430349872.793,-0.39940643
1430349872.809,1.752079
1430349872.824,4.0622444
1430349872.84,6.0435753
1430349872.856,7.1446266
1430349872.871,6.9652786
1430349872.887,5.373905
1430349872.902,2.6076317
1430349872.918,-0.78738785
1430349872.934,-4.0959625
1430349872.949,-6.676628
1430349872.965,-8.1483
1430349872.981,-8.431168
1430349872.996,-7.7437096
1430349873.012,-6.440632
1430349873.027,-4.888008
1430349873.043,-3.3356857
1430349873.059,-1.9106064
1430349873.074,-0.6334381
1430349873.09,0.5010185
1430349873.106,1.4774323
1430349873.121,2.2681046
1430349873.137,2.8115044
1430349873.152,3.0803185
1430349873.168,3.0351372
1430349873.184,2.6649742
1430349873.199,1.9261932
1430349873.215,0.78982544
1430349873.231,-0.737278
1430349873.246,-2.5699348
1430349873.262,-4.485054
1430349873.277,-6.196003
1430349873.293,-7.4195747
1430349873.309,-7.9815598
1430349873.324,-7.8748894
1430349873.34,-7.288643
1430349873.356,-6.4845657
1430349873.371,-5.68124
1430349873.387,-4.972086
1430349873.402,-4.282631
1430349873.418,-3.399767
1430349873.434,-2.1235218
1430349873.449,-0.36143494
1430349873.465,1.7875423
1430349873.481,4.046177
1430349873.496,6.0653934
1430349873.512,7.5764503
1430349873.528,8.49012
1430349873.543,8.900576
1430349873.559,9.001249
1430349873.574,8.992895
1430349873.59,8.964277
1430349873.606,8.908575
1430349873.621,8.740135
1430349873.637,8.36923
1430349873.652,7.769966
1430349873.668,6.9884777
1430349873.684,6.1803036
1430349873.699,5.5552044
1430349873.715,5.24893
1430349873.731,5.253355
1430349873.746,5.3025856
1430349873.762,5.008295
1430349873.778,4.0043125
1430349873.793,2.1859016
1430349873.809,-0.1647358
1430349873.824,-2.4513245
1430349873.84,-4.0798397
1430349873.856,-4.7476673
1430349873.871,-4.5990505
1430349873.887,-4.126381
1430349873.903,-3.867426
1430349873.918,-4.0737476
1430349873.934,-4.619299
1430349873.949,-5.077265
1430349873.965,-5.040203
1430349873.981,-4.3191223
1430349873.996,-3.0843525
1430349874.012,-1.6562786
1430349874.028,-0.40263176
1430349874.043,0.53435135
1430349874.059,1.1454659
1430349874.074,1.5561123
1430349874.09,1.8574333
1430349874.106,2.063034
1430349874.121,2.0944195
1430349874.137,1.8950024
1430349874.153,1.4885426
1430349874.168,0.9885082
1430349874.184,0.5544987
1430349874.199,0.40901756
1430349874.215,0.6628647
1430349874.231,1.3703136
1430349874.246,2.4279232
1430349874.262,3.634718
1430349874.278,4.682747
1430349874.293,5.3300476
1430349874.309,5.428337
1430349874.324,5.059105
1430349874.34,4.471266
1430349874.356,3.968521
1430349874.371,3.741335
1430349874.387,3.8119411
1430349874.403,4.0173187
1430349874.418,4.1516247
1430349874.434,4.0681114
1430349874.449,3.800352
1430349874.465,3.4865646
1430349874.481,3.3446484
1430349874.496,3.4624023
1430349874.512,3.8506184
1430349874.528,4.361351
1430349874.543,4.795845
1430349874.559,4.971182
1430349874.574,4.7702866
1430349874.59,4.1872864
1430349874.606,3.2853603
1430349874.621,2.205408
1430349874.637,1.1507874
1430349874.653,0.32409286
1430349874.668,-0.17139244
1430349874.684,-0.42238617
1430349874.699,-0.7258568
1430349874.715,-1.5248241
1430349874.731,-3.1615639
1430349874.746,-5.7368565
1430349874.762,-8.949686
1430349874.778,-12.240625
1430349874.793,-15.015377
1430349874.809,-16.90513
1430349874.824,-17.86037
1430349874.84,-18.108206
1430349874.856,-17.999605
1430349874.871,-17.78671
1430349874.887,-17.582525
1430349874.903,-17.361694
1430349874.918,-17.059145
1430349874.934,-16.659584
1430349874.949,-16.152916
1430349874.965,-15.510241
1430349874.981,-14.635321
1430349874.996,-13.445749
1430349875.012,-11.902863
1430349875.028,-10.055561
1430349875.043,-8.092972
1430349875.059,-6.084049
1430349875.074,-4.1305113
1430349875.09,-2.241496
1430349875.106,-0.4013462
1430349875.121,1.4206018
1430349875.137,3.2060595
1430349875.153,4.9201508
1430349875.168,6.4974804
1430349875.184,7.9088554
1430349875.199,9.114881
1430349875.215,10.080087
1430349875.231,10.745731
1430349875.246,11.054192
1430349875.262,10.980148
1430349875.278,10.577311
1430349875.293,9.985936
1430349875.309,9.377282
1430349875.324,8.91395
1430349875.34,8.63649
1430349875.356,8.491119
1430349875.371,8.34222
1430349875.387,8.03686
1430349875.403,7.472971
1430349875.418,6.6715546
1430349875.434,5.7382174
1430349875.449,4.824831
1430349875.465,4.0788584
1430349875.481,3.5681183
1430349875.496,3.3181896
1430349875.512,3.2609975
1430349875.528,3.278019
1430349875.543,3.2503414
1430349875.559,3.1165366
1430349875.574,2.8626084
1430349875.59,2.533186
1430349875.606,2.2082345
1430349875.621,1.9541438
1430349875.637,1.9011412
1430349875.653,2.13826
1430349875.668,2.6916618
1430349875.684,3.521881
1430349875.699,4.473105
1430349875.715,5.2496786
1430349875.731,5.4179273
1430349875.746,4.577863
1430349875.762,2.4534383
1430349875.778,-0.7127361
1430349875.793,-4.3599777
1430349875.809,-7.7166085
1430349875.824,-10.015461
1430349875.84,-10.794697
1430349875.856,-9.928408
1430349875.871,-7.656192
1430349875.887,-4.3232856
1430349875.903,-0.30574918
1430349875.918,4.329916
1430349875.934,9.464268
1430349875.949,14.868127
1430349875.965,20.172277
1430349875.981,24.973038
1430349875.996,28.983604
1430349876.012,32.263
1430349876.028,35.331978
1430349876.043,37.659157
1430349876.059,39.423492
1430349876.074,40.7552
1430349876.09,41.54852
1430349876.106,41.48517
1430349876.121,40.13286
1430349876.137,37.170998
1430349876.153,32.482918
1430349876.168,26.230341
1430349876.184,18.702091
1430349876.2,10.452348
1430349876.215,1.8612356
1430349876.231,-6.8694983
1430349876.246,-15.630353
1430349876.262,-24.340008
1430349876.278,-32.85706
1430349876.293,-40.923744
1430349876.309,-48.200638
1430349876.324,-54.32057
1430349876.34,-58.816788
1430349876.356,-61.42029
1430349876.371,-62.12278
1430349876.387,-61.107056
1430349876.403,-58.72975
1430349876.418,-55.35134
1430349876.434,-51.266838
1430349876.45,-46.6484
1430349876.465,-41.559723
1430349876.481,-35.821262
1430349876.496,-29.211628
1430349876.512,-21.477217
1430349876.528,-12.481259
1430349876.543,-2.4321775
1430349876.559,7.904602
1430349876.575,17.209528
1430349876.59,23.860893
1430349876.606,26.503773
1430349876.621,24.671503
1430349876.637,19.115028
1430349876.653,11.6566725
1430349876.668,4.643445
1430349876.684,0.10754204
1430349876.7,-0.88893414
1430349876.715,1.475317
1430349876.731,6.0553045
1430349876.746,11.265122
1430349876.762,15.732559
1430349876.778,18.610949
1430349876.793,19.632893
1430349876.809,18.905222
1430349876.825,16.63963
1430349876.84,12.972639
1430349876.856,7.9852624
1430349876.871,1.8107955
1430349876.887,-5.1907554
1430349876.903,-12.443124
1430349876.918,-19.273746
1430349876.934,-25.158796
1430349876.95,-29.937004
1430349876.965,-33.834587
1430349876.981,-37.35067
1430349876.996,-40.997536
1430349877.012,-45.099724
1430349877.028,-49.676693
1430349877.043,-54.52236
1430349877.059,-59.35719
1430349877.075,-63.971462
1430349877.09,-68.3134
1430349877.106,-72.42885
1430349877.121,-76.374176
1430349877.137,-80.109344
1430349877.153,-83.40747
1430349877.168,-85.8565
1430349877.184,-86.941986
1430349877.2,-86.13495
1430349877.215,-83.05092
1430349877.231,-77.56223
1430349877.246,-69.84405
1430349877.262,-60.311256
1430349877.278,-49.445175
1430349877.293,-37.700127
1430349877.309,-25.361069
1430349877.325,-12.63945
1430349877.34,0.2715149
1430349877.356,13.069962
1430349877.371,25.33979
1430349877.387,36.62336
1430349877.403,46.555916
1430349877.418,54.934128
1430349877.434,61.76053
1430349877.45,67.133194
1430349877.465,71.22664
1430349877.481,74.16612
1430349877.496,76.081436
1430349877.512,77.09277
1430349877.528,77.33566
1430349877.543,76.9604
1430349877.559,76.126495
1430349877.575,74.99695
1430349877.59,73.777115
1430349877.606,72.69156
1430349877.621,71.94336
1430349877.637,71.580124
1430349877.653,71.41409
1430349877.668,70.99397
1430349877.684,69.70792
1430349877.7,67.03021
1430349877.715,62.76953
1430349877.731,57.1904
1430349877.746,50.935883
1430349877.762,44.746887
1430349877.778,39.14258
1430349877.793,34.201385
1430349877.809,29.601639
1430349877.825,24.835754
1430349877.84,19.547318
1430349877.856,13.754044
1430349877.871,7.8003387
1430349877.887,2.1853485
1430349877.903,-2.704239
1430349877.918,-6.732132
1430349877.934,-9.999603
1430349877.95,-12.693008
1430349877.965,-14.940765
1430349877.981,-16.713638
1430349877.996,-17.906845
1430349878.012,-18.418045
1430349878.028,-18.284363
1430349878.043,-17.714493
1430349878.059,-17.037766
1430349878.075,-16.61618
1430349878.09,-16.683975
1430349878.106,-17.326859
1430349878.121,-18.445404
1430349878.137,-19.789063
1430349878.153,-21.091888
1430349878.168,-22.145721
1430349878.184,-22.843552
1430349878.2,-23.149338
1430349878.215,-23.017426
1430349878.231,-22.343002
1430349878.246,-20.991241
1430349878.262,-18.88173
1430349878.278,-16.053894
1430349878.293,-12.642136
1430349878.309,-8.7881775
1430349878.325,-4.575592
1430349878.34,-0.03741455
1430349878.356,4.6866455
1430349878.371,9.149124
1430349878.387,12.517105
1430349878.403,13.727936
1430349878.418,11.896774
1430349878.434,6.811249
1430349878.45,-0.6756134
1430349878.465,-8.630371
1430349878.481,-14.490997
1430349878.496,-15.834656
1430349878.512,-11.229782
1430349878.528,-0.7104492
1430349878.543,14.239319
1430349878.559,31.251587
1430349878.575,47.820496
1430349878.59,62.038376
1430349878.606,72.806335
1430349878.621,79.73198
1430349878.637,82.8251
1430349878.653,82.17514
1430349878.668,77.947495
1430349878.684,70.53755
1430349878.7,60.74077
1430349878.715,49.70552
1430349878.731,38.69513
1430349878.746,28.678253
1430349878.762,20.058899
1430349878.778,12.681305
1430349878.793,6.051407
1430349878.809,-0.26420593
1430349878.825,-6.4138947
1430349878.84,-12.155609
1430349878.856,-17.055237
1430349878.871,-20.71666
1430349878.887,-23.018341
1430349878.903,-24.179428
1430349878.918,-24.69397
1430349878.934,-25.113785
1430349878.95,-25.864044
1430349878.965,-27.090271
1430349878.981,-28.665405
1430349878.996,-30.276184
1430349879.012,-31.59433
1430349879.028,-32.41745
1430349879.043,-32.77855
1430349879.059,-32.841843
1430349879.075,-32.825058
1430349879.09,-32.815582
1430349879.106,-32.741714
1430349879.122,-32.406586
1430349879.137,-31.628052
1430349879.153,-30.351883
1430349879.168,-28.716599
1430349879.184,-26.959503
1430349879.2,-25.283188
1430349879.215,-23.749832
1430349879.231,-22.2509
1430349879.247,-20.605286
1430349879.262,-18.671005
1430349879.278,-16.441483
1430349879.293,-14.047134
1430349879.309,-11.6753235
1430349879.325,-9.481949
1430349879.34,-7.523926
1430349879.356,-5.7469635
1430349879.372,-4.0332336
1430349879.387,-2.3138428
1430349879.403,-0.5580597
1430349879.418,1.1633148
1430349879.434,2.7714233
1430349879.45,4.1992645
1430349879.465,5.4632263
1430349879.481,6.6121063
1430349879.497,7.723755
1430349879.512,8.873489
1430349879.528,10.141708
1430349879.543,11.616867
1430349879.559,13.389389
1430349879.575,15.524841
1430349879.59,17.976654
1430349879.606,20.515274
1430349879.622,22.721085
1430349879.637,24.033783
1430349879.653,23.925262
1430349879.668,22.050964
1430349879.684,18.416656
1430349879.7,13.34935
1430349879.715,7.4691315
1430349879.731,1.4654083
1430349879.747,-4.037323
1430349879.762,-8.635895
1430349879.778,-12.156006
1430349879.793,-14.640579
1430349879.809,-16.268463
1430349879.825,-17.255707
1430349879.84,-17.774231
1430349879.856,-17.915298
1430349879.872,-17.679184
1430349879.887,-17.043732
1430349879.903,-15.993774
1430349879.918,-14.615845
1430349879.934,-13.066101
1430349879.95,-11.560379
1430349879.965,-10.297043
1430349879.981,-9.375748
1430349879.997,-8.781921
1430349880.012,-8.398132
1430349880.028,-8.030167
1430349880.043,-7.441818
1430349880.059,-6.4223022
1430349880.075,-4.8314056
1430349880.09,-2.634613
1430349880.106,0.0040283203
1430349880.122,2.7631226
1430349880.137,5.2235565
1430349880.153,7.019745
1430349880.168,7.9539795
1430349880.184,8.115219
1430349880.2,7.815262
1430349880.215,7.475235
1430349880.231,7.496414
1430349880.247,8.0989685
1430349880.262,9.306137
1430349880.278,10.976028
1430349880.293,12.914246
1430349880.309,14.92572
1430349880.325,16.878784
1430349880.34,18.707306
1430349880.356,20.353363
1430349880.372,21.760193
1430349880.387,22.84436
1430349880.403,23.522629
1430349880.418,23.751923
1430349880.434,23.568207
1430349880.45,23.107925
1430349880.465,22.558441
1430349880.481,22.148392
1430349880.497,22.043915
1430349880.512,22.339218
1430349880.528,22.998383
1430349880.543,23.876663
1430349880.559,24.698074
1430349880.575,25.124481
1430349880.59,24.812836
1430349880.606,23.503525
1430349880.622,21.118835
1430349880.637,17.807007
1430349880.653,13.914398
1430349880.668,9.888046
1430349880.684,6.146042
1430349880.7,2.9497528
1430349880.715,0.3458252
1430349880.731,-1.7301483
1430349880.747,-3.458969
1430349880.762,-4.982605
1430349880.778,-6.4144745
1430349880.793,-7.788315
1430349880.809,-9.129959
1430349880.825,-10.434036
1430349880.84,-11.706436
1430349880.856,-12.94368
1430349880.872,-14.133957
1430349880.887,-15.261917
1430349880.903,-16.303604
1430349880.918,-17.217026
1430349880.934,-17.950394
1430349880.95,-18.460556
1430349880.965,-18.72757
1430349880.981,-18.772934
1430349880.997,-18.68193
1430349881.012,-18.519562
1430349881.028,-18.328415
1430349881.043,-18.045471
1430349881.059,-17.576813
1430349881.075,-16.792389
1430349881.09,-15.643646
1430349881.106,-14.187103
1430349881.122,-12.587479
1430349881.137,-11.018753
1430349881.153,-9.641342
1430349881.168,-8.497604
1430349881.184,-7.5485687
1430349881.2,-6.7147827
1430349881.215,-5.9503784
1430349881.231,-5.2548065
1430349881.247,-4.666931
1430349881.262,-4.1796875
1430349881.278,-3.7154388
1430349881.293,-3.120819
1430349881.309,-2.2421265
1430349881.325,-0.99967957
1430349881.34,0.5300598
1430349881.356,2.1525269
1430349881.372,3.6500854
1430349881.387,4.8699036
1430349881.403,5.802536
1430349881.418,6.555908
1430349881.434,7.2798157
1430349881.45,8.116867
1430349881.465,9.1536255
1430349881.481,10.482315
1430349881.497,12.172943
1430349881.512,14.275177
1430349881.528,16.688614
1430349881.543,19.126114
1430349881.559,21.090485
1430349881.575,22.026794
1430349881.59,21.52269
1430349881.606,19.491547
1430349881.622,16.211761
1430349881.637,12.231934
1430349881.653,8.156052
1430349881.668,4.4469757
1430349881.684,1.3136139
1430349881.7,-1.2614899
1430349881.715,-3.4434204
1430349881.731,-5.392044
1430349881.747,-7.1998444
1430349881.762,-8.845123
1430349881.778,-10.23735
1430349881.794,-11.278351
1430349881.809,-11.913467
1430349881.825,-12.170166
1430349881.84,-12.138397
1430349881.856,-11.933319
1430349881.872,-11.630295
1430349881.887,-11.253387
1430349881.903,-10.777542
1430349881.919,-10.204117
1430349881.934,-9.5842285
1430349881.95,-9.001083
1430349881.965,-8.54361
1430349881.981,-8.260681
1430349881.997,-8.151001
1430349882.012,-8.191559
1430349882.028,-8.325012
1430349882.044,-8.507355
1430349882.059,-8.667343
1430349882.075,-8.729446
1430349882.09,-8.614136
1430349882.106,-8.284637
1430349882.122,-7.767395
1430349882.137,-7.106674
1430349882.153,-6.331848
1430349882.169,-5.4321136
1430349882.184,-4.376541
1430349882.2,-3.1848602
1430349882.215,-1.9604187
1430349882.231,-0.86642456
1430349882.247,-0.060546875
1430349882.262,0.4050598
1430349882.278,0.6335449
1430349882.294,0.79400635
1430349882.309,1.0727081
1430349882.325,1.5428467
1430349882.34,2.2143097
1430349882.356,3.0272522
1430349882.372,3.9300537
1430349882.387,4.8868256
1430349882.403,5.859543
1430349882.419,6.801651
1430349882.434,7.6724396
1430349882.45,8.459549
1430349882.465,9.190063
1430349882.481,9.936981
1430349882.497,10.787186
1430349882.512,11.783264
1430349882.528,12.951508
1430349882.544,14.25769
1430349882.559,15.633331
1430349882.575,16.92781
1430349882.59,17.920609
1430349882.606,18.325119
1430349882.622,17.873611
1430349882.637,16.39618
1430349882.653,13.910645
1430349882.669,10.639542
1430349882.684,6.9390564
1430349882.7,3.1905975
1430349882.715,-0.31541443
1430349882.731,-3.4121704
1430349882.747,-6.0511017
1430349882.762,-8.287216
1430349882.778,-10.181488
1430349882.794,-11.805298
1430349882.809,-13.184113
1430349882.825,-14.335617
1430349882.84,-15.271164
1430349882.856,-16.027374
1430349882.872,-16.636414
1430349882.887,-17.157822
1430349882.903,-17.637909
1430349882.919,-18.117233
1430349882.934,-18.623474
1430349882.95,-19.172699
1430349882.965,-19.773697
1430349882.981,-20.400497
1430349882.997,-20.959717
1430349883.012,-21.297363
1430349883.028,-21.253967
1430349883.044,-20.759079
1430349883.059,-19.849884
1430349883.075,-18.731247
1430349883.09,-17.681564
1430349883.106,-16.967361
1430349883.122,-16.71376
1430349883.137,-16.831009
1430349883.153,-17.014069
1430349883.169,-16.792099
1430349883.184,-15.65477
1430349883.2,-13.229218
1430349883.215,-9.4608
1430349883.231,-4.6522064
1430349883.247,0.58132935
1430349883.262,5.5442505
1430349883.278,9.688156
1430349883.294,12.781448
1430349883.309,14.884048
1430349883.325,16.20198
1430349883.34,16.895523
1430349883.356,17.015503
1430349883.372,16.573044
1430349883.387,15.671936
1430349883.403,14.594986
1430349883.419,13.733994
1430349883.434,13.391357
1430349883.45,13.672897
1430349883.465,14.439941
1430349883.481,15.452042
1430349883.497,16.525375
1430349883.512,17.61412
1430349883.528,18.66243
1430349883.544,19.444016
1430349883.559,19.470413
1430349883.575,18.110199
1430349883.59,14.891418
1430349883.606,9.801697
1430349883.622,3.4513855
1430349883.637,-3.0479736
1430349883.653,-8.451355
1430349883.669,-11.700104
1430349883.684,-12.211609
1430349883.7,-9.936554
1430349883.715,-5.277527
1430349883.731,1.1334839
1430349883.747,8.5784
1430349883.762,16.397156
1430349883.778,23.979065
1430349883.794,30.779053
1430349883.809,36.25467
1430349883.825,39.877625
1430349883.84,41.217285
1430349883.856,40.07135
1430349883.872,36.56195
1430349883.887,31.171844
1430349883.903,24.627014
1430349883.919,17.724823
1430349883.934,11.088104
1430349883.95,5.12619
1430349883.965,0.029418945
1430349883.981,-4.071533
1430349883.997,-7.0801697
1430349884.012,-8.900116
1430349884.028,-9.590515
1430349884.044,-9.426559
1430349884.059,-8.890167
1430349884.075,-8.47612
1430349884.09,-8.497131
1430349884.106,-8.9930725
1430349884.122,-9.727585
1430349884.137,-10.365707
1430349884.153,-10.667847
1430349884.169,-10.590836
1430349884.184,-10.292618
1430349884.2,-9.990768
1430349884.215,-9.840698
1430349884.231,-9.837128
1430349884.247,-9.861298
1430349884.262,-9.750092
1430349884.278,-9.422607
1430349884.294,-8.888565
1430349884.309,-8.246933
1430349884.325,-7.586197
1430349884.34,-6.936493
1430349884.356,-6.23024
1430349884.372,-5.355591
1430349884.387,-4.2213593
1430349884.403,-2.8106842
1430349884.419,-1.2324982
1430349884.434,0.31811523
1430349884.45,1.6453247
1430349884.466,2.6117554
1430349884.481,3.2097473
1430349884.497,3.5582123
1430349884.512,3.871704
1430349884.528,4.3815155
1430349884.544,5.2608795
1430349884.559,6.5649567
1430349884.575,8.26239
1430349884.591,10.252502
1430349884.606,12.477905
1430349884.622,14.926453
1430349884.637,17.653198
1430349884.653,20.60495
1430349884.669,23.582382
1430349884.684,26.192337
1430349884.7,27.920944
1430349884.716,28.323395
1430349884.731,27.216812
1430349884.747,24.737137
1430349884.762,21.314407
1430349884.778,17.51149
1430349884.794,13.860321
1430349884.809,10.741226
1430349884.825,8.330719
1430349884.841,6.6109314
1430349884.856,5.4044952
1430349884.872,4.445572
1430349884.887,3.4553375
1430349884.903,2.259735
1430349884.919,0.83125305
1430349884.934,-0.6833954
1430349884.95,-2.070053
1430349884.966,-3.1434937
1430349884.981,-3.8633423
1430349884.997,-4.3300476
1430349885.012,-4.719528
1430349885.028,-5.2082977
1430349885.044,-5.8837433
1430349885.059,-6.7541046
1430349885.075,-7.796219
1430349885.091,-8.971817
1430349885.106,-10.248032
1430349885.122,-11.58847
1430349885.137,-12.902191
1430349885.153,-14.06192
1430349885.169,-14.9785
1430349885.184,-15.573761
1430349885.2,-15.853485
1430349885.216,-15.868408
1430349885.231,-15.673248
1430349885.247,-15.320282
1430349885.262,-14.845047
1430349885.278,-14.2886505
1430349885.294,-13.702698
1430349885.309,-13.150513
1430349885.325,-12.667114
1430349885.341,-12.192352
1430349885.356,-11.593323
1430349885.372,-10.683182
1430349885.387,-9.358307
1430349885.403,-7.689865
1430349885.419,-5.908554
1430349885.434,-4.28627
1430349885.45,-2.9793396
1430349885.466,-1.8837128
1430349885.481,-0.73031616
1430349885.497,0.7451782
1430349885.512,2.6046143
1430349885.528,4.6470337
1430349885.544,6.534424
1430349885.559,8.024078
1430349885.575,9.116745
1430349885.591,10.05484
1430349885.606,11.135696
1430349885.622,12.535629
1430349885.637,14.1918335
1430349885.653,15.907898
1430349885.669,17.51973
1430349885.684,19.075806
1430349885.7,20.779755
1430349885.716,22.84822
1430349885.731,25.261002
1430349885.747,27.706589
1430349885.762,29.595459
1430349885.778,30.275345
1430349885.794,29.275108
1430349885.809,26.45887
1430349885.825,22.06343
1430349885.841,16.656998
1430349885.856,10.918236
1430349885.872,5.483032
1430349885.887,0.7672348
1430349885.903,-3.1066284
1430349885.919,-6.2176285
1430349885.934,-8.744514
1430349885.95,-10.809326
1430349885.966,-12.398262
1430349885.981,-13.444458
1430349885.997,-13.854187
1430349886.012,-13.668747
1430349886.028,-13.038795
1430349886.044,-12.215454
1430349886.059,-11.455307
1430349886.075,-10.923447
1430349886.091,-10.681686
1430349886.106,-10.751663
1430349886.122,-11.105545
1430349886.137,-11.727898
1430349886.153,-12.616997
1430349886.169,-13.777115
1430349886.184,-15.176102
1430349886.2,-16.775063
1430349886.216,-18.499695
1430349886.231,-20.293335
1430349886.247,-22.10299
1430349886.262,-23.895348
1430349886.278,-25.617874
1430349886.294,-27.158524
1430349886.309,-28.299362
1430349886.325,-28.822906
1430349886.341,-28.634636
1430349886.356,-27.881691
1430349886.372,-26.971634
1430349886.387,-26.433487
1430349886.403,-26.640839
1430349886.419,-27.575378
1430349886.434,-28.753365
1430349886.45,-29.38836
1430349886.466,-28.705498
1430349886.481,-26.327316
1430349886.497,-22.387375
1430349886.512,-17.484154
1430349886.528,-12.318726
1430349886.544,-7.374565
1430349886.559,-2.6841125
1430349886.575,2.0942001
1430349886.591,7.4239426
1430349886.606,13.560005
1430349886.622,20.400902
1430349886.637,27.497223
1430349886.653,34.1632
1430349886.669,39.598946
1430349886.684,42.98021
1430349886.7,43.435814
1430349886.716,40.253098
1430349886.731,33.206253
1430349886.747,22.993507
1430349886.762,11.439934
1430349886.778,1.2474747
1430349886.794,-4.826359
1430349886.809,-4.9746437
1430349886.825,0.91246414
1430349886.841,11.184422
1430349886.856,23.10284
1430349886.872,33.917866
1430349886.887,41.752274
1430349886.903,45.948776
1430349886.919,46.8231
1430349886.934,45.109177
1430349886.95,41.471024
1430349886.966,36.33784
1430349886.981,30.025238
1430349886.997,22.931664
1430349887.012,15.659534
1430349887.028,8.898865
1430349887.044,3.1848335
1430349887.059,-1.2877464
1430349887.075,-4.716755
1430349887.091,-7.5785484
1430349887.106,-10.406761
1430349887.122,-13.565117
1430349887.138,-17.128983
1430349887.153,-20.856026
1430349887.169,-24.315922
1430349887.184,-27.071266
1430349887.2,-28.888153
1430349887.216,-29.808235
1430349887.231,-30.156662
1430349887.247,-30.33022
1430349887.262,-30.662535
1430349887.278,-31.274515
1430349887.294,-32.033417
1430349887.309,-32.659973
1430349887.325,-32.84655
1430349887.341,-32.374355
1430349887.356,-31.225832
1430349887.372,-29.58735
1430349887.388,-27.778456
1430349887.403,-26.163946
1430349887.419,-25.029493
1430349887.434,-24.443098
1430349887.45,-24.270065
1430349887.466,-24.169685
1430349887.481,-23.69224
1430349887.497,-22.35049
1430349887.513,-19.65006
1430349887.528,-15.132278
1430349887.544,-8.542217
1430349887.559,0.02238369
1430349887.575,9.987736
1430349887.591,20.347582
1430349887.606,29.953993
1430349887.622,37.95603
1430349887.638,44.100254
1430349887.653,48.75812
1430349887.669,52.652824
1430349887.684,56.46049
1430349887.7,60.404945
1430349887.716,64.23929
1430349887.731,67.37683
1430349887.747,69.213615
1430349887.763,69.33384
1430349887.778,67.61231
1430349887.794,64.162704
1430349887.809,59.29719
1430349887.825,53.420937
1430349887.841,47.00178
1430349887.856,40.47599
1430349887.872,34.194313
1430349887.888,28.350296
1430349887.903,22.983776
1430349887.919,18.013897
1430349887.934,13.313042
1430349887.95,8.765877
1430349887.966,4.315716
1430349887.981,-0.046117783
1430349887.997,-4.2530937
1430349888.013,-8.249126
1430349888.028,-11.985096
1430349888.044,-15.448055
1430349888.059,-18.644306
1430349888.075,-21.57605
1430349888.091,-24.207329
1430349888.106,-26.487495
1430349888.122,-28.380424
1430349888.138,-29.932495
1430349888.153,-31.252686
1430349888.169,-32.47767
1430349888.184,-33.635864
1430349888.2,-34.632996
1430349888.216,-35.261406
1430349888.231,-35.361145
1430349888.247,-34.898376
1430349888.263,-34.0299
1430349888.278,-33.00168
1430349888.294,-32.034454
1430349888.309,-31.20082
1430349888.325,-30.43412
1430349888.341,-29.598175
1430349888.356,-28.59517
1430349888.372,-27.375778
1430349888.388,-25.962227
1430349888.403,-24.37909
1430349888.419,-22.646873
1430349888.434,-20.7584
1430349888.45,-18.75772
1430349888.466,-16.69345
1430349888.481,-14.668167
1430349888.497,-12.769737
1430349888.513,-11.037598
1430349888.528,-9.445999
1430349888.544,-7.9337234
1430349888.559,-6.3795853
1430349888.575,-4.680565
1430349888.591,-2.7234879
1430349888.606,-0.43886566
1430349888.622,2.1926956
1430349888.638,5.118553
1430349888.653,8.21756
1430349888.669,11.344734
1430349888.684,14.374496
1430349888.7,17.280144
1430349888.716,20.17138
1430349888.731,23.267715
1430349888.747,26.853256
1430349888.763,31.050262
1430349888.778,35.699615
1430349888.794,40.207153
1430349888.809,43.696014
1430349888.825,45.203003
1430349888.841,44.066666
1430349888.856,40.154404
1430349888.872,33.933258
1430349888.888,26.264267
1430349888.903,18.11116
1430349888.919,10.269318
1430349888.934,3.2680511
1430349888.95,-2.638916
1430349888.966,-7.3759003
1430349888.981,-10.9874115
1430349888.997,-13.613037
1430349889.013,-15.505264
1430349889.028,-16.963562
1430349889.044,-18.284271
1430349889.059,-19.60527
1430349889.075,-20.919586
1430349889.091,-22.070984
1430349889.106,-22.883438
1430349889.122,-23.247513
1430349889.138,-23.215164
1430349889.153,-22.960114
1430349889.169,-22.734573
1430349889.184,-22.763733
1430349889.2,-23.203247
1430349889.216,-24.068542
1430349889.231,-25.274338
1430349889.247,-26.620453
1430349889.263,-27.880219
1430349889.278,-28.8219
1430349889.294,-29.304169
1430349889.309,-29.215057
1430349889.325,-28.547195
1430349889.341,-27.34375
1430349889.356,-25.72136
1430349889.372,-23.829056
1430349889.388,-21.822906
1430349889.403,-19.811172
1430349889.419,-17.822876
1430349889.434,-15.814728
1430349889.45,-13.723709
1430349889.466,-11.530014
1430349889.481,-9.293716
1430349889.497,-7.1142273
1430349889.513,-5.070587
1430349889.528,-3.1275177
1430349889.544,-1.1786652
1430349889.559,0.97998047
1430349889.575,3.4737244
1430349889.591,6.310028
1430349889.606,9.31752
1430349889.622,12.24173
1430349889.638,14.837769
1430349889.653,17.018204
1430349889.669,18.903046
1430349889.684,20.823914
1430349889.7,23.17015
1430349889.716,26.22757
1430349889.731,29.982712
1430349889.747,34.038055
1430349889.763,37.6801
1430349889.778,40.072723
1430349889.794,40.48636
1430349889.809,38.552887
1430349889.825,34.338898
1430349889.841,28.343597
1430349889.856,21.303268
1430349889.872,14.029312
1430349889.888,7.206955
1430349889.903,1.281784
1430349889.919,-3.5624847
1430349889.934,-7.37677
1430349889.95,-10.378204
1430349889.966,-12.836395
1430349889.981,-14.979614
1430349889.997,-16.940475
1430349890.013,-18.717148
1430349890.028,-20.21791
1430349890.044,-21.362488
1430349890.06,-22.133942
1430349890.075,-22.617416
1430349890.091,-22.987213
1430349890.106,-23.424805
1430349890.122,-24.0262
1430349890.138,-24.792877
1430349890.153,-25.618225
1430349890.169,-26.380157
1430349890.185,-26.973312
1430349890.2,-27.366531
1430349890.216,-27.550903
1430349890.231,-27.503113
1430349890.247,-27.143265
1430349890.263,-26.361008
1430349890.278,-25.091263
1430349890.294,-23.395645
1430349890.31,-21.461151
1430349890.325,-19.560211
1430349890.341,-17.896942
1430349890.356,-16.564941
1430349890.372,-15.475449
1430349890.388,-14.462372
1430349890.403,-13.322052
1430349890.419,-11.909607
1430349890.435,-10.115509
1430349890.45,-7.9383545
1430349890.466,-5.464493
1430349890.481,-2.8907928
1430349890.497,-0.46987915
1430349890.513,1.5568542
1430349890.528,3.099762
1430349890.544,4.237976
1430349890.56,5.2190704
1430349890.575,6.34964
1430349890.591,7.8486023
1430349890.606,9.754257
1430349890.622,11.968246
1430349890.638,14.285202
1430349890.653,16.529495
1430349890.669,18.572495
1430349890.685,20.389465
1430349890.7,22.037537
1430349890.716,23.680649
1430349890.731,25.574478
1430349890.747,28.01828
1430349890.763,31.21814
1430349890.778,35.144333
1430349890.794,39.417267
1430349890.81,43.315994
1430349890.825,45.94246
1430349890.841,46.461487
1430349890.856,44.353195
1430349890.872,39.62233
1430349890.888,32.782684
1430349890.903,24.739517
1430349890.919,16.50592
1430349890.935,8.940872
1430349890.95,2.523346
1430349890.966,-2.6531067
1430349890.981,-6.760803
1430349890.997,-10.01741
1430349891.013,-12.568375
1430349891.028,-14.459869
1430349891.044,-15.746277
1430349891.06,-16.598434
1430349891.075,-17.304993
1430349891.091,-18.171387
1430349891.106,-19.363556
1430349891.122,-20.814392
1430349891.138,-22.264725
1430349891.153,-23.40303
1430349891.169,-24.060303
1430349891.185,-24.269775
1430349891.2,-24.253815
1430349891.216,-24.282654
1430349891.231,-24.548462
1430349891.247,-25.0766
1430349891.263,-25.758865
1430349891.278,-26.397491
1430349891.294,-26.795883
1430349891.31,-26.816803
1430349891.325,-26.385117
1430349891.341,-25.503082
1430349891.356,-24.237656
1430349891.372,-22.668137
1430349891.388,-20.914108
1430349891.403,-19.093933
1430349891.419,-17.34703
1430349891.435,-15.791306
1430349891.45,-14.521393
1430349891.466,-13.546402
1430349891.481,-12.795898
1430349891.497,-12.109512
1430349891.513,-11.287628
1430349891.528,-10.159958
1430349891.544,-8.636017
1430349891.56,-6.7244263
1430349891.575,-4.540924
1430349891.591,-2.2520447
1430349891.606,-0.021713257
1430349891.622,2.0576782
1430349891.638,3.9974213
1430349891.653,5.9132843
1430349891.669,7.941025
1430349891.685,10.184891
1430349891.7,12.64447
1430349891.716,15.213516
1430349891.731,17.725906
1430349891.747,20.077316
1430349891.763,22.257904
1430349891.778,24.366394
1430349891.794,26.585892
1430349891.81,29.112427
1430349891.825,32.083847
1430349891.841,35.524338
1430349891.856,39.21306
1430349891.872,42.66945
1430349891.888,45.134003
1430349891.903,45.769638
1430349891.919,43.914307
1430349891.935,39.406982
1430349891.95,32.700256
1430349891.966,24.779129
1430349891.981,16.801178
1430349891.997,9.698578
1430349892.013,3.9407043
1430349892.028,-0.49978638
1430349892.044,-3.945221
1430349892.06,-6.7679596
1430349892.075,-9.20414
1430349892.091,-11.337563
1430349892.106,-13.179955
1430349892.122,-14.750725
1430349892.138,-16.108208
1430349892.153,-17.292053
1430349892.169,-18.329697
1430349892.185,-19.20459
1430349892.2,-19.919403
1430349892.216,-20.497078
1430349892.231,-21.005264
1430349892.247,-21.524124
1430349892.263,-22.106285
1430349892.278,-22.75225
1430349892.294,-23.416359
1430349892.31,-23.988869
1430349892.325,-24.332764
1430349892.341,-24.31137
1430349892.356,-23.858627
1430349892.372,-22.98362
1430349892.388,-21.812073
1430349892.403,-20.515274
1430349892.419,-19.238678
1430349892.435,-18.042206
1430349892.45,-16.91124
1430349892.466,-15.750771
1430349892.481,-14.428352
1430349892.497,-12.816063
1430349892.513,-10.8300705
1430349892.528,-8.463249
1430349892.544,-5.830597
1430349892.56,-3.1679535
1430349892.575,-0.7875366
1430349892.591,1.0686188
1430349892.606,2.3406296
1430349892.622,3.2106247
1430349892.638,4.0458984
1430349892.653,5.248703
1430349892.669,7.039879
1430349892.685,9.403481
1430349892.7,12.0653305
1430349892.716,14.672508
1430349892.732,16.960747
1430349892.747,18.901108
1430349892.763,20.667778
1430349892.778,22.577766
1430349892.794,24.924294
1430349892.81,27.857468
1430349892.825,31.29757
1430349892.841,34.930603
1430349892.857,38.23594
1430349892.872,40.61808
1430349892.888,41.50287
1430349892.903,40.47477
1430349892.919,37.384598
1430349892.935,32.42524
1430349892.95,26.10672
1430349892.966,19.151909
1430349892.982,12.317116
1430349892.997,6.1950912
1430349893.013,1.0776901
1430349893.028,-3.0164642
1430349893.044,-6.2655487
1430349893.06,-8.844963
1430349893.075,-10.868835
1430349893.091,-12.350357
1430349893.107,-13.2846985
1430349893.122,-13.714554
1430349893.138,-13.79541
1430349893.153,-13.742783
1430349893.169,-13.773277
1430349893.185,-14.029411
1430349893.2,-14.548973
1430349893.216,-15.269188
1430349893.232,-16.097275
1430349893.247,-16.90229
1430349893.263,-17.587128
1430349893.278,-18.070328
1430349893.294,-18.311455
1430349893.31,-18.277557
1430349893.325,-17.971054
1430349893.341,-17.379776
1430349893.357,-16.532158
1430349893.372,-15.470413
1430349893.388,-14.274605
1430349893.403,-13.029335
1430349893.419,-11.838089
1430349893.435,-10.73344
1430349893.45,-9.676552
1430349893.466,-8.566261
1430349893.482,-7.2861404
1430349893.497,-5.7404137
1430349893.513,-3.936737
1430349893.528,-1.935833
1430349893.544,0.16431046
1430349893.56,2.2739716
1430349893.575,4.3550644
1430349893.591,6.40287
1430349893.607,8.421387
1430349893.622,10.436584
1430349893.638,12.450176
1430349893.653,14.465168
1430349893.669,16.475803
1430349893.685,18.503284
1430349893.7,20.597466
1430349893.716,22.888306
1430349893.732,25.546917
1430349893.747,28.717712
1430349893.763,32.396908
1430349893.778,36.298504
1430349893.794,39.8254
1430349893.81,42.197647
1430349893.825,42.63816
1430349893.841,40.682426
1430349893.857,36.314465
1430349893.872,30.054325
1430349893.888,22.73111
1430349893.903,15.270992
1430349893.919,8.413124
1430349893.935,2.5571213
1430349893.95,-2.2614746
1430349893.966,-6.245758
1430349893.982,-9.687897
1430349893.997,-12.758472
1430349894.013,-15.470779
1430349894.028,-17.712112
1430349894.044,-19.351322
1430349894.06,-20.33794
1430349894.075,-20.740726
1430349894.091,-20.724659
1430349894.107,-20.484058
1430349894.122,-20.17905
1430349894.138,-19.892582
1430349894.153,-19.661503
1430349894.169,-19.50822
1430349894.185,-19.394375
1430349894.2,-19.277107
1430349894.216,-19.11705
1430349894.232,-18.903282
1430349894.247,-18.632523
1430349894.263,-18.327953
1430349894.278,-18.002167
1430349894.294,-17.644146
1430349894.31,-17.21696
1430349894.325,-16.694866
1430349894.341,-16.0635
1430349894.357,-15.3563
1430349894.372,-14.557846
1430349894.388,-13.6258545
1430349894.403,-12.488628
1430349894.419,-11.1070595
1430349894.435,-9.474503
1430349894.45,-7.6741753
1430349894.466,-5.79496
1430349894.482,-3.9442406
1430349894.497,-2.20393
1430349894.513,-0.66163826
1430349894.528,0.6342392
1430349894.544,1.6675415
1430349894.56,2.5667267
1430349894.575,3.5883484
1430349894.591,5.032036
1430349894.607,7.116184
1430349894.622,9.804346
1430349894.638,12.823286
1430349894.653,15.768148
1430349894.669,18.27798
1430349894.685,20.224094
1430349894.7,21.756086
1430349894.716,23.212046
1430349894.732,24.940838
1430349894.747,27.219532
1430349894.763,30.140505
1430349894.778,33.623466
1430349894.794,37.37593
1430349894.81,40.927696
1430349894.825,43.625534
1430349894.841,44.765675
1430349894.857,43.756905
1430349894.872,40.330425
1430349894.888,34.668922
1430349894.903,27.403915
1430349894.919,19.429647
1430349894.935,11.668854
1430349894.95,4.802248
1430349894.966,-0.8766289
1430349894.982,-5.4502907
1430349894.997,-9.1827545
1430349895.013,-12.374144
1430349895.028,-15.153336
1430349895.044,-17.514746
1430349895.06,-19.388472
1430349895.075,-20.771929
1430349895.091,-21.783966
1430349895.107,-22.611576
1430349895.122,-23.397324
1430349895.138,-24.14628
1430349895.153,-24.764597
1430349895.169,-25.180769
1430349895.185,-25.398302
1430349895.2,-25.59735
1430349895.216,-25.97544
1430349895.232,-26.644094
1430349895.247,-27.527754
1430349895.263,-28.397753
1430349895.278,-28.944687
1430349895.294,-28.951164
1430349895.31,-28.29184
1430349895.325,-26.990547
1430349895.341,-25.170757
1430349895.357,-23.032642
1430349895.372,-20.8015
1430349895.388,-18.709908
1430349895.404,-16.921387
1430349895.419,-15.497712
1430349895.435,-14.370717
1430349895.45,-13.395302
1430349895.466,-12.408647
1430349895.482,-11.326251
1430349895.497,-10.107897
1430349895.513,-8.771025
1430349895.529,-7.3274603
1430349895.544,-5.7752504
1430349895.56,-4.0937624
1430349895.575,-2.2922912
1430349895.591,-0.41359997
1430349895.607,1.4351773
1430349895.622,3.1530476
1430349895.638,4.6992044
1430349895.654,6.1250925
1430349895.669,7.5313253
1430349895.685,9.086089
1430349895.7,10.883965
1430349895.716,12.91956
1430349895.732,15.073074
1430349895.747,17.185486
1430349895.763,19.116512
1430349895.779,20.848248
1430349895.794,22.460453
1430349895.81,24.118221
1430349895.825,26.002018
1430349895.841,28.273884
1430349895.857,30.991938
1430349895.872,34.10934
1430349895.888,37.363274
1430349895.904,40.251526
1430349895.919,42.095734
1430349895.935,42.220055
1430349895.95,40.148952
1430349895.966,35.85212
1430349895.982,29.773685
1430349895.997,22.705
1430349896.013,15.549683
1430349896.029,9.074333
1430349896.044,3.7212448
1430349896.06,-0.40254593
1430349896.075,-3.4470406
1430349896.091,-5.688057
1430349896.107,-7.433174
1430349896.122,-8.919876
1430349896.138,-10.320427
1430349896.154,-11.680626
1430349896.169,-12.985065
1430349896.185,-14.169704
1430349896.2,-15.168552
1430349896.216,-15.9403305
1430349896.232,-16.483654
1430349896.247,-16.791435
1430349896.263,-16.876652
1430349896.279,-16.78376
1430349896.294,-16.62239
1430349896.31,-16.527138
1430349896.325,-16.613289
1430349896.341,-16.88892
1430349896.357,-17.238453
1430349896.372,-17.47181
1430349896.388,-17.424606
1430349896.404,-17.020267
1430349896.419,-16.330063
1430349896.435,-15.4506645
1430349896.45,-14.473194
1430349896.466,-13.389191
1430349896.482,-12.141048
1430349896.497,-10.659431
1430349896.513,-8.948822
1430349896.529,-7.0680695
1430349896.544,-5.1340866
1430349896.56,-3.2643738
1430349896.575,-1.5339432
1430349896.591,0.030345917
1430349896.607,1.4632759
1430349896.622,2.8719215
1430349896.638,4.3762665
1430349896.654,6.075157
1430349896.669,7.964203
1430349896.685,9.947922
1430349896.7,11.843395
1430349896.716,13.490601
1430349896.732,14.821377
1430349896.747,15.893143
1430349896.763,16.875805
1430349896.779,18.002502
1430349896.794,19.484993
1430349896.81,21.546711
1430349896.825,24.286884
1430349896.841,27.627445
1430349896.857,31.174618
1430349896.872,34.24843
1430349896.888,35.99438
1430349896.904,35.703865
1430349896.919,33.076134
1430349896.935,28.377316
1430349896.95,22.319588
1430349896.966,15.780716
1430349896.982,9.506603
1430349896.997,3.9687767
1430349897.013,-0.66991425
1430349897.029,-4.415043
1430349897.044,-7.34774
1430349897.06,-9.543327
1430349897.075,-11.122536
1430349897.091,-12.24305
1430349897.107,-13.133495
1430349897.122,-13.993786
1430349897.138,-14.926353
1430349897.154,-15.889858
1430349897.169,-16.745216
1430349897.185,-17.289219
1430349897.2,-17.41689
1430349897.216,-17.174023
1430349897.232,-16.778114
1430349897.247,-16.530838
1430349897.263,-16.683666
1430349897.279,-17.298115
1430349897.294,-18.226349
1430349897.31,-19.166939
1430349897.325,-19.80492
1430349897.341,-19.939205
1430349897.357,-19.561768
1430349897.372,-18.774593
1430349897.388,-17.726803
1430349897.404,-16.527336
1430349897.419,-15.232899
1430349897.435,-13.87878
1430349897.45,-12.50222
1430349897.466,-11.160442
1430349897.482,-9.907539
1430349897.497,-8.733513
1430349897.513,-7.5650864
1430349897.529,-6.2741165
1430349897.544,-4.7803116
1430349897.56,-3.0528793
1430349897.575,-1.2068787
1430349897.591,0.5770798
1430349897.607,2.0943604
1430349897.622,3.2482376
1430349897.638,4.080719
1430349897.654,4.8062744
1430349897.669,5.674782
1430349897.685,6.8918457
1430349897.7,8.498009
1430349897.716,10.383118
1430349897.732,12.347748
1430349897.747,14.22258
1430349897.763,15.940681
1430349897.779,17.534302
1430349897.794,19.08789
1430349897.81,20.734947
1430349897.825,22.58628
1430349897.841,24.781944
1430349897.857,27.432007
1430349897.872,30.528969
1430349897.888,33.869255
1430349897.904,36.984154
1430349897.919,39.200455
1430349897.935,39.849777
1430349897.95,38.488228
1430349897.966,35.066666
1430349897.982,29.93808
1430349897.997,23.780487
1430349898.013,17.354485
1430349898.029,11.328621
1430349898.044,6.113991
1430349898.06,1.8461685
1430349898.076,-1.5732574
1430349898.091,-4.351845
1430349898.107,-6.7255173
1430349898.122,-8.836563
1430349898.138,-10.753555
1430349898.154,-12.453712
1430349898.169,-13.906418
1430349898.185,-15.055473
1430349898.2,-15.88401
1430349898.216,-16.390915
1430349898.232,-16.63485
1430349898.247,-16.719513
1430349898.263,-16.814781
1430349898.279,-17.08538
1430349898.294,-17.638725
1430349898.31,-18.402672
1430349898.326,-19.164085
1430349898.341,-19.678162
1430349898.357,-19.79702
1430349898.372,-19.59607
1430349898.388,-19.301254
1430349898.404,-19.134659
1430349898.419,-19.173248
1430349898.435,-19.299866
1430349898.451,-19.311653
1430349898.466,-19.06652
1430349898.482,-18.58722
1430349898.497,-18.025322
1430349898.513,-17.525604
1430349898.529,-17.078087
1430349898.544,-16.507378
1430349898.56,-15.577629
1430349898.576,-14.153961
1430349898.591,-12.297676
1430349898.607,-10.276947
1430349898.622,-8.396378
1430349898.638,-6.847687
1430349898.654,-5.593712
1430349898.669,-4.43351
1430349898.685,-3.095665
1430349898.701,-1.4034653
1430349898.716,0.6201706
1430349898.732,2.7664185
1430349898.747,4.736374
1430349898.763,6.272171
1430349898.779,7.304268
1430349898.794,7.9641266
1430349898.81,8.546204
1430349898.826,9.390045
1430349898.841,10.698715
1430349898.857,12.477791
1430349898.872,14.555336
1430349898.888,16.638329
1430349898.904,18.489815
1430349898.919,20.020493
1430349898.935,21.32647
1430349898.951,22.616165
1430349898.966,24.172592
1430349898.982,26.235924
1430349898.997,28.924995
1430349899.013,32.159103
1430349899.029,35.59179
1430349899.044,38.611122
1430349899.06,40.45263
1430349899.076,40.391182
1430349899.091,38.049095
1430349899.107,33.50271
1430349899.122,27.374847
1430349899.138,20.552208
1430349899.154,13.965736
1430349899.169,8.266136
1430349899.185,3.7120667
1430349899.201,0.21385956
1430349899.216,-2.492897
1430349899.232,-4.6612473
1430349899.247,-6.4301453
1430349899.263,-7.8243027
1430349899.279,-8.84436
1430349899.294,-9.57869
1430349899.31,-10.199043
1430349899.326,-10.92131
1430349899.341,-11.878151
1430349899.357,-13.052483
1430349899.372,-14.248688
1430349899.388,-15.233299
1430349899.404,-15.841812
1430349899.419,-16.108025
1430349899.435,-16.188065
1430349899.451,-16.314987
1430349899.466,-16.642235
1430349899.482,-17.19529
1430349899.497,-17.880463
1430349899.513,-18.560448
1430349899.529,-19.110062
1430349899.544,-19.424294
1430349899.56,-19.43457
1430349899.576,-19.104187
1430349899.591,-18.397903
1430349899.607,-17.381699
1430349899.622,-16.144028
1430349899.638,-14.838684
1430349899.654,-13.581985
1430349899.669,-12.429863
1430349899.685,-11.3274765
1430349899.701,-10.188011
1430349899.716,-8.897858
1430349899.732,-7.4112167
1430349899.747,-5.767456
1430349899.763,-4.079445
1430349899.779,-2.4781036
1430349899.794,-1.0178833
1430349899.81,0.38323975
1430349899.826,1.9162674
1430349899.841,3.7957
1430349899.857,6.0982437
1430349899.872,8.705406
1430349899.888,11.321213
1430349899.904,13.607468
1430349899.919,15.335304
1430349899.935,16.49157
1430349899.951,17.257484
1430349899.966,17.942825
1430349899.982,18.870338
1430349899.997,20.333176
1430349900.013,22.518845
1430349900.029,25.467667
1430349900.044,29.004456
1430349900.06,32.714226
1430349900.076,35.926537
1430349900.091,37.881958
1430349900.107,37.927338
1430349900.122,35.74241
1430349900.138,31.432266
1430349900.154,25.52861
1430349900.169,18.770424
1430349900.185,11.962135
1430349900.201,5.7216873
1430349900.216,0.4300995
1430349900.232,-3.7853317
1430349900.247,-6.983177
1430349900.263,-9.352791
1430349900.279,-11.087944
1430349900.294,-12.382286
1430349900.31,-13.367088
1430349900.326,-14.1067505
1430349900.341,-14.628304
1430349900.357,-14.96862
1430349900.372,-15.155945
1430349900.388,-15.241272
1430349900.404,-15.271805
1430349900.419,-15.283699
1430349900.435,-15.29567
1430349900.451,-15.326706
1430349900.466,-15.396553
1430349900.482,-15.542603
1430349900.497,-15.786041
1430349900.513,-16.125938
1430349900.529,-16.492615
1430349900.544,-16.813393
1430349900.56,-16.970055
1430349900.576,-16.883987
1430349900.591,-16.491829
1430349900.607,-15.758949
1430349900.622,-14.675713
1430349900.638,-13.254028
1430349900.654,-11.545601
1430349900.669,-9.642929
1430349900.685,-7.673584
1430349900.701,-5.7838364
1430349900.716,-4.070244
1430349900.732,-2.5527954
1430349900.747,-1.1415634
1430349900.763,0.29424286
1430349900.779,1.8863068
1430349900.794,3.6718063
1430349900.81,5.5955734
1430349900.826,7.520714
1430349900.841,9.343292
1430349900.857,11.032143
1430349900.872,12.688301
1430349900.888,14.474133
1430349900.904,16.539963
1430349900.919,18.970226
1430349900.935,21.758663
1430349900.951,24.804493
1430349900.966,27.952457
1430349900.982,30.971226
1430349900.998,33.5323
1430349901.013,35.19402
1430349901.029,35.453934
1430349901.044,33.882996
1430349901.06,30.315182
1430349901.076,24.972065
1430349901.091,18.491177
1430349901.107,11.738144
1430349901.123,5.5787697
1430349901.138,0.56814575
1430349901.154,-3.1635742
1430349901.169,-5.904827
1430349901.185,-8.096371
1430349901.201,-10.138691
1430349901.216,-12.19878
1430349901.232,-14.191364
1430349901.248,-15.917656
1430349901.263,-17.210678
1430349901.279,-18.029087
1430349901.294,-18.459602
1430349901.31,-18.594147
1430349901.326,-18.495213
1430349901.341,-18.187908
1430349901.357,-17.75861
1430349901.373,-17.362186
1430349901.388,-17.249935
1430349901.404,-17.620197
1430349901.419,-18.5211
1430349901.435,-19.756165
1430349901.451,-21.000404
1430349901.466,-21.91008
1430349901.482,-22.289127
1430349901.498,-22.104477
1430349901.513,-21.470024
1430349901.529,-20.52
1430349901.544,-19.349197
1430349901.56,-18.010311
1430349901.576,-16.55008
1430349901.591,-15.036015
1430349901.607,-13.565189
1430349901.623,-12.206326
1430349901.638,-10.947403
1430349901.654,-9.691967
1430349901.669,-8.375942
1430349901.685,-6.9294243
1430349901.701,-5.4037094
1430349901.716,-3.903141
1430349901.732,-2.5163956
1430349901.748,-1.2540207
1430349901.763,-0.026958466
1430349901.779,1.3525276
1430349901.794,3.0538826
1430349901.81,5.1825256
1430349901.826,7.7131004
1430349901.841,10.495403
1430349901.857,13.295406
1430349901.873,15.909157
1430349901.888,18.198563
1430349901.904,20.165775
1430349901.919,21.933006
1430349901.935,23.726074
1430349901.951,25.799274
1430349901.966,28.381302
1430349901.982,31.52219
1430349901.998,35.052635
1430349902.013,38.504025
1430349902.029,41.17507
1430349902.044,42.314724
1430349902.06,41.373787
1430349902.076,38.203007
1430349902.091,33.155434
1430349902.107,26.936611
1430349902.123,20.391075
1430349902.138,14.206703
1430349902.154,8.833187
1430349902.169,4.38459
1430349902.185,0.80680466
1430349902.201,-2.0790215
1430349902.216,-4.4601326
1430349902.232,-6.5278244
1430349902.248,-8.399212
1430349902.263,-10.140072
1430349902.279,-11.730869
1430349902.294,-13.122257
1430349902.31,-14.261391
1430349902.326,-15.139303
1430349902.341,-15.802471
1430349902.357,-16.345793
1430349902.373,-16.870007
1430349902.388,-17.46964
1430349902.404,-18.223843
1430349902.419,-19.207764
1430349902.435,-20.401949
1430349902.451,-21.728691
1430349902.466,-23.005129
1430349902.482,-24.031006
1430349902.498,-24.637125
1430349902.513,-24.765692
1430349902.529,-24.442797
1430349902.544,-23.783272
1430349902.56,-22.893187
1430349902.576,-21.85112
1430349902.591,-20.685947
1430349902.607,-19.417028
1430349902.623,-18.02846
1430349902.638,-16.532866
1430349902.654,-14.937672
1430349902.669,-13.306253
1430349902.685,-11.711882
1430349902.701,-10.248045
1430349902.716,-8.960665
1430349902.732,-7.839821
1430349902.748,-6.8267593
1430349902.763,-5.84482
1430349902.779,-4.8101826
1430349902.794,-3.6609077
1430349902.81,-2.2796135
1430349902.826,-0.55863
1430349902.841,1.6032944
1430349902.857,4.183836
1430349902.873,7.0198116
1430349902.888,9.847334
1430349902.904,12.418879
1430349902.919,14.583315
1430349902.935,16.356995
1430349902.951,17.85608
1430349902.966,19.250826
1430349902.982,20.696833
1430349902.998,22.377573
1430349903.013,24.491196
1430349903.029,27.252138
1430349903.044,30.750525
1430349903.06,34.82118
1430349903.076,38.924973
1430349903.091,42.23211
1430349903.107,43.81643
1430349903.123,42.96042
1430349903.138,39.423317
1430349903.154,33.54783
1430349903.169,26.148733
1430349903.185,18.32537
1430349903.201,11.06381
1430349903.216,5.0134506
1430349903.232,0.30989075
1430349903.248,-3.2910805
1430349903.263,-6.253565
1430349903.279,-8.948334
1430349903.294,-11.523079
1430349903.31,-13.855448
1430349903.326,-15.716488
1430349903.341,-16.923025
1430349903.357,-17.461466
1430349903.373,-17.479559
1430349903.388,-17.22307
1430349903.404,-16.933132
1430349903.419,-16.790783
1430349903.435,-16.870117
1430349903.451,-17.191536
1430349903.466,-17.720404
1430349903.482,-18.427217
1430349903.498,-19.25975
1430349903.513,-20.16999
1430349903.529,-21.05952
1430349903.544,-21.779896
1430349903.56,-22.103172
1430349903.576,-21.848734
1430349903.591,-20.928875
1430349903.607,-19.438442
1430349903.623,-17.63419
1430349903.638,-15.839482
1430349903.654,-14.282041
1430349903.67,-13.004513
1430349903.685,-11.851723
1430349903.701,-10.583425
1430349903.716,-9.0256195
1430349903.732,-7.1854706
1430349903.748,-5.191784
1430349903.763,-3.2292032
1430349903.779,-1.3889494
1430349903.795,0.37749577
1430349903.81,2.2405844
1430349903.826,4.346179
1430349903.841,6.747898
1430349903.857,9.325479
1430349903.873,11.856376
1430349903.888,14.104347
1430349903.904,15.93407
1430349903.92,17.382677
1430349903.935,18.696829
1430349903.951,20.223133
1430349903.966,22.29493
1430349903.982,25.06632
1430349903.998,28.427683
1430349904.013,31.993362
1430349904.029,35.177265
1430349904.045,37.29876
1430349904.06,37.769028
1430349904.076,36.200684
1430349904.091,32.525986
1430349904.107,27.027622
1430349904.123,20.30265
1430349904.138,13.132097
1430349904.154,6.2965937
1430349904.17,0.38427877
1430349904.185,-4.2940035
1430349904.201,-7.766411
1430349904.216,-10.2449465
1430349904.232,-12.017871
1430349904.248,-13.311533
1430349904.263,-14.245204
1430349904.279,-14.842207
1430349904.295,-15.09592
1430349904.31,-14.994986
1430349904.326,-14.581318
1430349904.341,-13.942922
1430349904.357,-13.245738
1430349904.373,-12.668065
1430349904.388,-12.385769
1430349904.404,-12.490523
1430349904.42,-12.973223
1430349904.435,-13.733828
1430349904.451,-14.621789
1430349904.466,-15.48838
1430349904.482,-16.199871
1430349904.498,-16.575064
1430349904.513,-16.41314
1430349904.529,-15.550133
1430349904.545,-13.94977
1430349904.56,-11.742765
1430349904.576,-9.258957
1430349904.591,-6.856268
1430349904.607,-4.784955
1430349904.623,-3.0934753
1430349904.638,-1.6108322
1430349904.654,-0.08758354
1430349904.67,1.6654425
1430349904.685,3.7043896
1430349904.701,5.916065
1430349904.716,8.12549
1430349904.732,10.170425
1430349904.748,12.012968
1430349904.763,13.717337
1430349904.779,15.436459
1430349904.795,17.334198
1430349904.81,19.551128
1430349904.826,22.174488
1430349904.841,25.250477
1430349904.857,28.7549
1430349904.873,32.562164
1430349904.888,36.313812
1430349904.904,39.402084
1430349904.92,41.029278
1430349904.935,40.449966
1430349904.951,37.25721
1430349904.966,31.624958
1430349904.982,24.289963
1430349904.998,16.335224
1430349905.013,8.8246765
1430349905.029,2.4607086
1430349905.045,-2.5559387
1430349905.06,-6.3885612
1430349905.076,-9.397648
1430349905.091,-11.877739
1430349905.107,-13.960915
1430349905.123,-15.665176
1430349905.138,-16.98478
1430349905.154,-17.997707
1430349905.17,-18.849182
1430349905.185,-19.705597
1430349905.201,-20.658066
1430349905.216,-21.658016
1430349905.232,-22.577415
1430349905.248,-23.239693
1430349905.263,-23.555794
1430349905.279,-23.547756
1430349905.295,-23.379505
1430349905.31,-23.229614
1430349905.326,-23.248901
1430349905.341,-23.448032
1430349905.357,-23.724243
1430349905.373,-23.884682
1430349905.388,-23.743587
1430349905.404,-23.153423
1430349905.42,-22.037518
1430349905.435,-20.371624
1430349905.451,-18.205475
1430349905.466,-15.660179
1430349905.482,-12.938591
1430349905.498,-10.256485
1430349905.513,-7.787529
1430349905.529,-5.559616
1430349905.545,-3.4911041
1430349905.56,-1.3881226
1430349905.576,0.89385986
1430349905.591,3.4036865
1430349905.607,6.0559845
1430349905.623,8.733437
1430349905.638,11.341522
1430349905.654,13.856285
1430349905.67,16.299034
1430349905.685,18.717293
1430349905.701,21.155586
1430349905.716,23.725494
1430349905.732,26.600388
1430349905.748,29.979477
1430349905.763,33.925987
1430349905.779,38.223694
1430349905.795,42.289276
1430349905.81,45.3412
1430349905.826,46.56533
1430349905.841,45.414063
1430349905.857,41.74656
1430349905.873,35.87854
1430349905.888,28.456512
1430349905.904,20.321823
1430349905.92,12.310341
1430349905.935,5.0882263
1430349905.951,-0.96110535
1430349905.966,-5.7725906
1430349905.982,-9.586472
1430349905.998,-12.773979
1430349906.013,-15.690399
1430349906.029,-18.522179
1430349906.045,-21.253914
1430349906.06,-23.6977
1430349906.076,-25.642517
1430349906.091,-26.938492
1430349906.107,-27.604782
1430349906.123,-27.821663
1430349906.138,-27.862442
1430349906.154,-27.982445
1430349906.17,-28.335304
1430349906.185,-28.900177
1430349906.201,-29.536827
1430349906.216,-30.062782
1430349906.232,-30.373848
1430349906.248,-30.456146
1430349906.263,-30.377823
1430349906.279,-30.165947
1430349906.295,-29.789093
1430349906.31,-29.147598
1430349906.326,-28.155418
1430349906.342,-26.808167
1430349906.357,-25.220825
1430349906.373,-23.542488
1430349906.388,-21.903404
1430349906.404,-20.35006
1430349906.42,-18.861603
1430349906.435,-17.390564
1430349906.451,-15.92028
1430349906.467,-14.43396
1430349906.482,-12.907715
1430349906.498,-11.286583
1430349906.513,-9.498489
1430349906.529,-7.496025
1430349906.545,-5.3104095
1430349906.56,-3.0146332
1430349906.576,-0.7456665
1430349906.592,1.4041367
1430349906.607,3.40625
1430349906.623,5.33593
1430349906.638,7.3141937
1430349906.654,9.468918
1430349906.67,11.855522
1430349906.685,14.421646
1430349906.701,17.017517
1430349906.717,19.471008
1430349906.732,21.64582
1430349906.748,23.579613
1430349906.763,25.444946
1430349906.779,27.550156
1430349906.795,30.198662
1430349906.81,33.573257
1430349906.826,37.569366
1430349906.842,41.77443
1430349906.857,45.46248
1430349906.873,47.737686
1430349906.888,47.767952
1430349906.904,45.0503
1430349906.92,39.6081
1430349906.935,32.06984
1430349906.951,23.460777
1430349906.967,14.9189
1430349906.982,7.3532715
1430349906.998,1.2604294
1430349907.013,-3.3476486
1430349907.029,-6.753952
1430349907.045,-9.402657
1430349907.06,-11.708778
1430349907.076,-13.974976
1430349907.092,-16.329948
1430349907.107,-18.753212
1430349907.123,-21.065681
1430349907.138,-23.03833
1430349907.154,-24.493828
1430349907.17,-25.410812
1430349907.185,-25.89112
1430349907.201,-26.162567
1430349907.217,-26.419785
1430349907.232,-26.756866
1430349907.248,-27.169395
1430349907.263,-27.6165
1430349907.279,-28.034462
1430349907.295,-28.350098
1430349907.31,-28.396767
1430349907.326,-27.974312
1430349907.342,-26.944954
1430349907.357,-25.368782
1430349907.373,-23.529701
1430349907.388,-21.864258
1430349907.404,-20.713066
1430349907.42,-20.160164
1430349907.435,-19.965775
1430349907.451,-19.737778
1430349907.467,-19.124977
1430349907.482,-18.014328
1430349907.498,-16.483757
1430349907.513,-14.73127
1430349907.529,-12.906174
1430349907.545,-11.082016
1430349907.56,-9.23645
1430349907.576,-7.385437
1430349907.592,-5.5847626
1430349907.607,-3.939949
1430349907.623,-2.5299988
1430349907.638,-1.3666077
1430349907.654,-0.3535385
1430349907.67,0.6518822
1430349907.685,1.8828812
1430349907.701,3.514019
1430349907.717,5.617649
1430349907.732,8.117672
1430349907.748,10.793884
1430349907.763,13.319115
1430349907.779,15.438442
1430349907.795,17.047169
1430349907.81,18.271057
1430349907.826,19.395348
1430349907.842,20.794323
1430349907.857,22.77269
1430349907.873,25.532925
1430349907.888,29.052074
1430349907.904,33.071323
1430349907.92,37.056324
1430349907.935,40.25519
1430349907.951,41.829556
1430349907.967,41.083027
1430349907.982,37.71809
1430349907.998,31.964924
1430349908.013,24.588406
1430349908.029,16.638811
1430349908.045,9.1108055
1430349908.06,2.7086906
1430349908.076,-2.3122196
1430349908.092,-6.0510483
1430349908.107,-8.805714
1430349908.123,-10.853504
1430349908.138,-12.384705
1430349908.154,-13.474308
1430349908.17,-14.194019
1430349908.185,-14.645891
1430349908.201,-14.978037
1430349908.217,-15.316633
1430349908.232,-15.7131
1430349908.248,-16.08905
1430349908.263,-16.32503
1430349908.279,-16.345535
1430349908.295,-16.217108
1430349908.31,-16.111685
1430349908.326,-16.241077
1430349908.342,-16.724188
1430349908.357,-17.530588
1430349908.373,-18.473898
1430349908.388,-19.326313
1430349908.404,-19.893448
1430349908.42,-20.104572
1430349908.435,-19.971
1430349908.451,-19.55505
1430349908.467,-18.894753
1430349908.482,-17.990719
1430349908.498,-16.810692
1430349908.513,-15.364515
1430349908.529,-13.689808
1430349908.545,-11.896275
1430349908.56,-10.105631
1430349908.576,-8.432119
1430349908.592,-6.9143734
1430349908.607,-5.536297
1430349908.623,-4.1869526
1430349908.638,-2.737814
1430349908.654,-1.0679646
1430349908.67,0.8756237
1430349908.685,3.0951767
1430349908.701,5.504713
1430349908.717,8.005177
1430349908.732,10.466036
1430349908.748,12.762951
1430349908.763,14.829441
1430349908.779,16.7046
1430349908.795,18.565794
1430349908.81,20.754301
1430349908.826,23.591663
1430349908.842,27.221466
1430349908.857,31.397984
1430349908.873,35.48472
1430349908.888,38.570538
1430349908.904,39.802757
1430349908.92,38.639683
1430349908.935,35.05029
1430349908.951,29.478516
1430349908.967,22.693352
1430349908.982,15.529461
1430349908.998,8.721333
1430349909.014,2.7612114
1430349909.029,-2.1147346
1430349909.045,-5.919037
1430349909.06,-8.816242
1430349909.076,-11.049358
1430349909.092,-12.814785
1430349909.107,-14.235725
1430349909.123,-15.333626
1430349909.138,-16.107037
1430349909.154,-16.562813
1430349909.17,-16.80994
1430349909.185,-16.963737
1430349909.201,-17.171005
1430349909.217,-17.471123
1430349909.232,-17.838642
1430349909.248,-18.1834
1430349909.264,-18.41835
1430349909.279,-18.487038
1430349909.295,-18.405525
1430349909.31,-18.22293
1430349909.326,-17.97734
1430349909.342,-17.620209
1430349909.357,-17.026169
1430349909.373,-16.001541
1430349909.389,-14.415054
1430349909.404,-12.260986
1430349909.42,-9.760071
1430349909.435,-7.2446594
1430349909.451,-5.0742645
1430349909.467,-3.4393768
1430349909.482,-2.310997
1430349909.498,-1.4563522
1430349909.514,-0.58979034
1430349909.529,0.5155258
1430349909.545,1.9293671
1430349909.56,3.6111221
1430349909.576,5.470978
1430349909.592,7.421768
1430349909.607,9.395447
1430349909.623,11.307976
1430349909.639,13.036797
1430349909.654,14.45668
1430349909.67,15.506264
1430349909.685,16.256355
1430349909.701,16.86132
1430349909.717,17.517448
1430349909.732,18.322815
1430349909.748,19.301003
1430349909.764,20.35279
1430349909.779,21.378784
1430349909.795,22.332481
1430349909.81,23.253258
1430349909.826,24.247902
1430349909.842,25.459175
1430349909.857,27.02797
1430349909.873,29.068207
1430349909.889,31.5878
1430349909.904,34.438446
1430349909.92,37.204903
1430349909.935,39.28492
1430349909.951,39.976105
1430349909.967,38.730377
1430349909.982,35.32669
1430349909.998,30.026978
1430349910.014,23.477943
1430349910.029,16.548347
1430349910.045,10.052788
1430349910.06,4.5434036
1430349910.076,0.21051788
1430349910.092,-3.0447388
1430349910.107,-5.5027084
1430349910.123,-7.4305344
1430349910.139,-9.011223
1430349910.154,-10.334702
1430349910.17,-11.481361
1430349910.185,-12.491348
1430349910.201,-13.4500885
1430349910.217,-14.410736
1430349910.232,-15.361404
1430349910.248,-16.212097
1430349910.264,-16.857567
1430349910.279,-17.236534
1430349910.295,-17.370102
1430349910.31,-17.345093
1430349910.326,-17.272621
1430349910.342,-17.225616
1430349910.357,-17.227798
1430349910.373,-17.270287
1430349910.389,-17.366196
1430349910.404,-17.518692
1430349910.42,-17.737045
1430349910.435,-17.970695
1430349910.451,-18.141975
1430349910.467,-18.165756
1430349910.482,-17.984756
1430349910.498,-17.536469
1430349910.514,-16.781563
1430349910.529,-15.69207
1430349910.545,-14.256912
1430349910.56,-12.545403
1430349910.576,-10.733986
1430349910.592,-9.046791
1430349910.607,-7.6885605
1430349910.623,-6.7352905
1430349910.639,-6.0873337
1430349910.654,-5.5051346
1430349910.67,-4.754715
1430349910.685,-3.6641388
1430349910.701,-2.2423248
1430349910.717,-0.6291275
1430349910.732,0.9903183
1430349910.748,2.484764
1430349910.764,3.8205643
1430349910.779,5.065727
1430349910.795,6.338684
1430349910.81,7.749756
1430349910.826,9.3456955
1430349910.842,11.074089
1430349910.857,12.809364
1430349910.873,14.433395
1430349910.889,15.860558
1430349910.904,17.13198
1430349910.92,18.353401
1430349910.935,19.728592
1430349910.951,21.445976
1430349910.967,23.6419
1430349910.982,26.301521
1430349910.998,29.22055
1430349911.014,32.028053
1430349911.029,34.192
1430349911.045,35.129776
1430349911.06,34.36351
1430349911.076,31.649841
1430349911.092,27.12651
1430349911.107,21.294495
1430349911.123,14.927475
1430349911.139,8.812119
1430349911.154,3.5478668
1430349911.17,-0.63113403
1430349911.185,-3.8111038
1430349911.201,-6.3025055
1430349911.217,-8.414246
1430349911.232,-10.32431
1430349911.248,-12.001953
1430349911.264,-13.310684
1430349911.279,-14.119514
1430349911.295,-14.424347
1430349911.31,-14.383919
1430349911.326,-14.240105
1430349911.342,-14.201614
1430349911.357,-14.357048
1430349911.373,-14.676445
1430349911.389,-15.0685425
1430349911.404,-15.439125
1430349911.42,-15.7825165
1430349911.435,-16.117699
1430349911.451,-16.492073
1430349911.467,-16.909943
1430349911.482,-17.326569
1430349911.498,-17.64994
1430349911.514,-17.765396
1430349911.529,-17.57586
1430349911.545,-17.020058
1430349911.56,-16.106293
1430349911.576,-14.909988
1430349911.592,-13.522781
1430349911.607,-12.035301
1430349911.623,-10.415604
1430349911.639,-8.584793
1430349911.654,-6.473282
1430349911.67,-4.136032
1430349911.686,-1.7974243
1430349911.701,0.1954956
1430349911.717,1.5582123
1430349911.732,2.2259827
1430349911.748,2.424286
1430349911.764,2.5692596
1430349911.779,3.1049042
1430349911.795,4.293625
1430349911.81,6.1693115
1430349911.826,8.5555725
1430349911.842,11.180542
1430349911.857,13.774643
1430349911.873,16.126831
1430349911.889,18.093674
1430349911.904,19.651703
1430349911.92,20.876053
1430349911.936,21.987
1430349911.951,23.313263
1430349911.967,25.213547
1430349911.982,27.865494
1430349911.998,31.186768
1430349912.014,34.705765
1430349912.029,37.662323
1430349912.045,39.20186
1430349912.061,38.671707
1430349912.076,35.848602
1430349912.092,31.034332
1430349912.107,24.930252
1430349912.123,18.426407
1430349912.139,12.3358
1430349912.154,7.223465
1430349912.17,3.3449402
1430349912.186,0.7250061
1430349912.201,-0.8006897
1430349912.217,-1.4854965
1430349912.232,-1.6370468
1430349912.248,-1.5386658
1430349912.264,-1.4173584
1430349912.279,-1.3847504
1430349912.295,-1.4768448
1430349912.311,-1.685646
1430349912.326,-2.053238
1430349912.342,-2.6606827
1430349912.357,-3.60952
1430349912.373,-4.9245453
1430349912.389,-6.5361557
1430349912.404,-8.311211
1430349912.42,-10.154701
1430349912.436,-12.034241
1430349912.451,-14.002068
1430349912.467,-16.077484
1430349912.482,-18.195015
1430349912.498,-20.187057
1430349912.514,-21.842484
1430349912.529,-23.0057
1430349912.545,-23.66188
1430349912.561,-23.842102
1430349912.576,-23.63446
1430349912.592,-23.081604
1430349912.607,-22.19526
1430349912.623,-20.993362
1430349912.639,-19.5261
1430349912.654,-17.888695
1430349912.67,-16.17926
1430349912.686,-14.485916
1430349912.701,-12.84198
1430349912.717,-11.244003
1430349912.732,-9.669144
1430349912.748,-8.043953
1430349912.764,-6.2819443
1430349912.779,-4.2553253
1430349912.795,-1.8552933
1430349912.811,1.0219955
1430349912.826,4.4361496
1430349912.842,8.420082
1430349912.857,12.963425
1430349912.873,18.018875
1430349912.889,23.472427
1430349912.904,29.097534
1430349912.92,34.51126
1430349912.936,39.25078
1430349912.951,42.779694
1430349912.967,44.60267
1430349912.982,44.36457
1430349912.998,41.947952
1430349913.014,37.51793
1430349913.029,31.558197
1430349913.045,24.734024
1430349913.061,17.781982
1430349913.076,11.29277
1430349913.092,5.6003494
1430349913.107,0.725502
1430349913.123,-3.4820175
1430349913.139,-7.264908
1430349913.154,-10.7825775
1430349913.17,-14.101784
1430349913.186,-17.144958
1430349913.201,-19.76506
1430349913.217,-21.733765
1430349913.232,-22.793732
1430349913.248,-22.698677
1430349913.264,-21.313217
1430349913.279,-18.651657
1430349913.295,-14.913979
1430349913.311,-10.38961
1430349913.326,-5.464012
1430349913.342,-0.543026
1430349913.357,3.9106674
1430349913.373,7.44672
1430349913.389,9.650871
1430349913.404,10.295605
1430349913.42,9.386562
1430349913.436,7.1604996
1430349913.451,3.9456406
1430349913.467,0.019931793
1430349913.482,-4.477165
1430349913.498,-9.443108
1430349913.514,-14.708485
1430349913.529,-19.901218
1430349913.545,-24.489063
1430349913.561,-27.914875
1430349913.576,-29.82917
1430349913.592,-30.151184
1430349913.607,-29.095688
1430349913.623,-27.031593
1430349913.639,-24.340519
1430349913.654,-21.287003
1430349913.67,-18.00058
1430349913.686,-14.392193
1430349913.701,-10.332439
1430349913.717,-5.673908
1430349913.732,-0.42396545
1430349913.748,5.2336693
1430349913.764,10.918774
1430349913.779,16.185966
1430349913.795,20.625801
1430349913.811,24.010914
1430349913.826,26.305065
1430349913.842,27.635422
1430349913.857,28.216091
1430349913.873,28.306297
1430349913.889,28.141174
1430349913.904,27.933617
1430349913.92,27.84954
1430349913.936,27.976204
1430349913.951,28.262634
1430349913.967,28.47747
1430349913.982,28.171274
1430349913.998,26.78962
1430349914.014,23.817028
1430349914.029,19.050817
1430349914.045,12.799437
1430349914.061,5.9698677
1430349914.076,-0.18206215
1430349914.092,-4.46212
1430349914.107,-6.2787304
1430349914.123,-5.9254875
1430349914.139,-4.568245
1430349914.154,-3.7721424
1430349914.17,-4.88089
1430349914.186,-8.435093
1430349914.201,-13.985828
1430349914.217,-20.293676
1430349914.232,-25.908445
1430349914.248,-29.741488
1430349914.264,-31.590961
1430349914.279,-32.21042
1430349914.295,-33.054543
1430349914.311,-35.6662
1430349914.326,-41.133034
1430349914.342,-49.661015
1430349914.357,-60.52488
1430349914.373,-72.38425
1430349914.389,-83.70928
1430349914.404,-93.17601
1430349914.42,-99.90596
1430349914.436,-103.46892
1430349914.451,-103.97519
1430349914.467,-102.1363
1430349914.482,-99.28955
1430349914.498,-96.98234
1430349914.514,-96.216965
1430349914.529,-96.53148
1430349914.545,-95.64288
1430349914.561,-90.02761
1430349914.576,-76.39829
1430349914.592,-53.390102
1430349914.608,-22.554451
1430349914.623,12.083626
1430349914.639,45.5042
1430349914.654,73.60249
1430349914.67,94.37164
1430349914.686,107.9369
1430349914.701,115.562195
1430349914.717,118.53421
1430349914.733,117.498146
1430349914.748,112.69369
1430349914.764,104.59119
1430349914.779,94.40019
1430349914.795,83.98577
1430349914.811,75.30764
1430349914.826,69.579254
1430349914.842,66.76625
1430349914.858,65.66904
1430349914.873,64.47758
1430349914.889,61.63817
1430349914.904,56.544388
1430349914.92,49.73014
1430349914.936,42.543747
1430349914.951,36.488144
1430349914.967,32.607674
1430349914.983,31.145454
1430349914.998,31.703003
1430349915.014,33.561035
1430349915.029,36.02958
1430349915.045,38.546463
1430349915.061,40.605354
1430349915.076,41.596992
1430349915.092,40.830025
1430349915.108,37.725227
1430349915.123,32.111984
1430349915.139,24.427528
1430349915.154,15.666771
1430349915.17,7.033371
1430349915.186,-0.3868637
1430349915.201,-5.9767914
1430349915.217,-9.633331
1430349915.233,-11.646133
1430349915.248,-12.443794
1430349915.264,-12.415039
1430349915.279,-11.816029
1430349915.295,-10.866074
1430349915.311,-9.803265
1430349915.326,-8.934559
1430349915.342,-8.554737
1430349915.358,-8.816582
1430349915.373,-9.651169
1430349915.389,-10.822578
1430349915.404,-12.048149
1430349915.42,-13.175308
1430349915.436,-14.19413
1430349915.451,-15.206661
1430349915.467,-16.249855
1430349915.483,-17.250235
1430349915.498,-18.005352
1430349915.514,-18.336302
1430349915.529,-18.185568
1430349915.545,-17.674803
1430349915.561,-17.034676
1430349915.576,-16.50455
1430349915.592,-16.210194
1430349915.608,-16.180058
1430349915.623,-16.314116
1430349915.639,-16.474648
1430349915.654,-16.498024
1430349915.67,-16.226803
1430349915.686,-15.556562
1430349915.701,-14.46861
1430349915.717,-13.029531
1430349915.733,-11.328715
1430349915.748,-9.396854
1430349915.764,-7.1827755
1430349915.779,-4.5678425
1430349915.795,-1.5103626
1430349915.811,1.8927746
1430349915.826,5.3720093
1430349915.842,8.622887
1430349915.858,11.410959
1430349915.873,13.7165165
1430349915.889,15.693737
1430349915.904,17.593533
1430349915.92,19.684895
1430349915.936,22.22813
1430349915.951,25.426167
1430349915.967,29.392544
1430349915.983,34.00943
1430349915.998,38.795315
1430349916.014,42.882984
1430349916.029,45.186825
1430349916.045,44.741978
1430349916.061,41.11138
1430349916.076,34.584106
1430349916.092,26.112812
1430349916.108,16.942085
1430349916.123,8.265312
1430349916.139,0.85681915
1430349916.154,-4.9980927
1430349916.17,-9.434753
1430349916.186,-12.7920685
1430349916.201,-15.433472
1430349916.217,-17.616386
1430349916.233,-19.468643
1430349916.248,-21.028648
1430349916.264,-22.315086
1430349916.279,-23.36055
1430349916.295,-24.241562
1430349916.311,-25.010643
1430349916.326,-25.730896
1430349916.342,-26.418907
1430349916.358,-27.124496
1430349916.373,-27.888374
1430349916.389,-28.769127
1430349916.404,-29.790588
1430349916.42,-30.926537
1430349916.436,-32.071175
1430349916.451,-33.085304
1430349916.467,-33.808136
1430349916.483,-34.07128
1430349916.498,-33.69375
1430349916.514,-32.524796
1430349916.529,-30.471344
1430349916.545,-27.621666
1430349916.561,-24.247345
1430349916.576,-20.784447
1430349916.592,-17.65712
1430349916.608,-15.11998
1430349916.623,-13.151779
1430349916.639,-11.498245
1430349916.654,-9.816895
1430349916.67,-7.822693
1430349916.686,-5.378937
1430349916.701,-2.4715881
1430349916.717,0.81391907
1430349916.733,4.357132
1430349916.748,8.034363
1430349916.764,11.702225
1430349916.779,15.250702
1430349916.795,18.606628
1430349916.811,21.792435
1430349916.826,24.91809
1430349916.842,28.209946
1430349916.858,31.92514
1430349916.873,36.296585
1430349916.889,41.336853
1430349916.904,46.67488
1430349916.92,51.48799
1430349916.936,54.634964
1430349916.951,54.978607
1430349916.967,51.83371
1430349916.983,45.258102
1430349916.998,36.103012
1430349917.014,25.68956
1430349917.029,15.39209
1430349917.045,6.210388
1430349917.061,-1.3714752
1430349917.076,-7.3560486
1430349917.092,-12.033676
1430349917.108,-15.825882
1430349917.123,-19.095917
1430349917.139,-22.127335
1430349917.154,-25.02385
1430349917.17,-27.73616
1430349917.186,-30.107956
1430349917.201,-31.988342
1430349917.217,-33.348877
1430349917.233,-34.292526
1430349917.248,-34.957718
1430349917.264,-35.477753
1430349917.28,-35.888596
1430349917.295,-36.21756
1430349917.311,-36.551468
1430349917.326,-37.055313
1430349917.342,-37.87233
1430349917.358,-39.00148
1430349917.373,-40.18289
1430349917.389,-40.97821
1430349917.405,-40.983765
1430349917.42,-40.042038
1430349917.436,-38.27826
1430349917.451,-36.05211
1430349917.467,-33.696777
1430349917.483,-31.372879
1430349917.498,-28.995712
1430349917.514,-26.388382
1430349917.53,-23.412796
1430349917.545,-20.11493
1430349917.561,-16.711884
1430349917.576,-13.514465
1430349917.592,-10.758255
1430349917.608,-8.524155
1430349917.623,-6.6202545
1430349917.639,-4.740494
1430349917.655,-2.5940857
1430349917.67,-0.09942627
1430349917.686,2.591919
1430349917.701,5.1404266
1430349917.717,7.2397766
1430349917.733,8.804626
1430349917.748,10.032333
1430349917.764,11.284912
1430349917.78,12.900513
1430349917.795,15.022568
1430349917.811,17.565659
1430349917.826,20.283524
1430349917.842,22.907349
1430349917.858,25.23732
1430349917.873,27.206467
1430349917.889,28.87033
1430349917.905,30.449188
1430349917.92,32.29773
1430349917.936,34.860962
1430349917.951,38.50737
1430349917.967,43.298782
1430349917.983,48.79335
1430349917.998,54.054993
1430349918.014,57.8134
1430349918.03,58.854645
1430349918.045,56.42279
1430349918.061,50.481323
1430349918.076,41.716553
1430349918.092,31.320313
1430349918.108,20.59201
1430349918.123,10.605698
1430349918.139,1.9839172
1430349918.155,-5.1144104
1430349918.17,-10.877182
1430349918.186,-15.616287
1430349918.201,-19.651016
1430349918.217,-23.19812
1430349918.233,-26.373291
1430349918.248,-29.201813
1430349918.264,-31.644226
1430349918.28,-33.613525
1430349918.295,-35.04065
1430349918.311,-35.907837
1430349918.326,-36.30179
1430349918.342,-36.390976
1430349918.358,-36.384415
1430349918.373,-36.41295
1430349918.389,-36.570328
1430349918.405,-36.882492
1430349918.42,-37.382416
1430349918.436,-38.07219
1430349918.451,-38.901566
1430349918.467,-39.702652
1430349918.483,-40.206818
1430349918.498,-40.15529
1430349918.514,-39.39926
1430349918.53,-37.997147
1430349918.545,-36.175156
1430349918.561,-34.202164
1430349918.576,-32.321167
1430349918.592,-30.641693
1430349918.608,-29.1781
1430349918.623,-27.834717
1430349918.639,-26.495117
1430349918.655,-24.997894
1430349918.67,-23.223602
1430349918.686,-21.101273
1430349918.701,-18.711334
1430349918.717,-16.269623
1430349918.733,-14.072342
1430349918.748,-12.311981
1430349918.764,-10.993011
1430349918.78,-9.904266
1430349918.795,-8.729874
1430349918.811,-7.223816
1430349918.826,-5.343811
1430349918.842,-3.223114
1430349918.858,-1.11586
1430349918.873,0.7723999
1430349918.889,2.3705444
1430349918.905,3.7588196
1430349918.92,5.1117706
1430349918.936,6.6845703
1430349918.951,8.665253
1430349918.967,11.134903
1430349918.983,14.03038
1430349918.998,17.16452
1430349919.014,20.295868
1430349919.03,23.214859
1430349919.045,25.795837
1430349919.061,28.03476
1430349919.076,30.06923
1430349919.092,32.16279
1430349919.108,34.654243
1430349919.123,37.86612
1430349919.139,41.884094
1430349919.155,46.369476
1430349919.17,50.45546
1430349919.186,52.961555
1430349919.201,52.736572
1430349919.217,49.174873
1430349919.233,42.48535
1430349919.248,33.666847
1430349919.264,24.110764
1430349919.28,15.115875
1430349919.295,7.5247726
1430349919.311,1.6725235
1430349919.326,-2.5235977
1430349919.342,-5.348152
1430349919.358,-7.1422806
1430349919.373,-8.266869
1430349919.389,-9.096848
1430349919.405,-9.953178
1430349919.42,-11.06369
1430349919.436,-12.450317
1430349919.451,-13.946693
1430349919.467,-15.299477
1430349919.483,-16.304169
1430349919.498,-16.880646
1430349919.514,-17.105408
1430349919.53,-17.181679
1430349919.545,-17.310104
1430349919.561,-17.637558
1430349919.576,-18.206772
1430349919.592,-18.928932
1430349919.608,-19.62397
1430349919.623,-20.073448
1430349919.639,-20.102654
1430349919.655,-19.607758
1430349919.67,-18.632149
1430349919.686,-17.238884
1430349919.701,-15.565819
1430349919.717,-13.739124
1430349919.733,-11.915924
1430349919.748,-10.21254
1430349919.764,-8.719318
1430349919.78,-7.4264793
1430349919.795,-6.214409
1430349919.811,-4.881489
1430349919.826,-3.231411
1430349919.842,-1.1831169
1430349919.858,1.1689949
1430349919.873,3.6110382
1430349919.889,5.8601875
1430349919.905,7.6989555
1430349919.92,9.006599
1430349919.936,9.825459
1430349919.952,10.306654
1430349919.967,10.716913
1430349919.983,11.329367
1430349919.998,12.37204
1430349920.014,13.917595
1430349920.03,15.855303
1430349920.045,17.932964
1430349920.061,19.923754
1430349920.076,21.707516
1430349920.092,23.375055
1430349920.108,25.176535
1430349920.123,27.423214
1430349920.139,30.298992
1430349920.155,33.753708
1430349920.17,37.40695
1430349920.186,40.57188
1430349920.202,42.41186
1430349920.217,42.167297
1430349920.233,39.37694
1430349920.248,34.14976
1430349920.264,27.106384
1430349920.28,19.23739
1430349920.295,11.578845
1430349920.311,4.920843
1430349920.327,-0.38585854
1430349920.342,-4.3670173
1430349920.358,-7.3150997
1430349920.373,-9.579136
1430349920.389,-11.448332
1430349920.405,-13.106289
1430349920.42,-14.639133
1430349920.436,-16.026981
1430349920.452,-17.202396
1430349920.467,-18.091358
1430349920.483,-18.664442
1430349920.498,-18.960335
1430349920.514,-19.072952
1430349920.53,-19.105556
1430349920.545,-19.141832
1430349920.561,-19.249352
1430349920.577,-19.499607
1430349920.592,-19.96488
1430349920.608,-20.697529
1430349920.623,-21.621866
1430349920.639,-22.533768
1430349920.655,-23.145
1430349920.67,-23.190468
1430349920.686,-22.546648
1430349920.702,-21.299503
1430349920.717,-19.676525
1430349920.733,-17.962204
1430349920.748,-16.376905
1430349920.764,-15.026516
1430349920.78,-13.901871
1430349920.795,-12.929924
1430349920.811,-11.983107
1430349920.827,-10.962151
1430349920.842,-9.796425
1430349920.858,-8.4805565
1430349920.873,-7.06094
1430349920.889,-5.623747
1430349920.905,-4.2363434
1430349920.92,-2.930214
1430349920.936,-1.6895485
1430349920.952,-0.4687004
1430349920.967,0.7591591
1430349920.983,1.9901543
1430349920.998,3.2292938
1430349921.014,4.4775543
1430349921.03,5.766636
1430349921.045,7.1420517
1430349921.061,8.652317
1430349921.077,10.30542
1430349921.092,12.112087
1430349921.108,14.04192
1430349921.123,16.037113
1430349921.139,18.020111
1430349921.155,19.90675
1430349921.17,21.639584
1430349921.186,23.272194
1430349921.202,24.948582
1430349921.217,26.902714
1430349921.233,29.344166
1430349921.248,32.366306
1430349921.264,35.8258
1430349921.28,39.286293
1430349921.295,42.051407
1430349921.311,43.343147
1430349921.327,42.514915
1430349921.342,39.315178
1430349921.358,33.989197
1430349921.373,27.314964
1430349921.389,20.281853
1430349921.405,13.805412
1430349921.42,8.405556
1430349921.436,4.1466293
1430349921.452,0.7635498
1430349921.467,-2.0801468
1430349921.483,-4.59729
1430349921.498,-6.778778
1430349921.514,-8.509911
1430349921.53,-9.736237
1430349921.545,-10.532936
1430349921.561,-11.049545
1430349921.577,-11.446259
1430349921.592,-11.750786
1430349921.608,-11.922409
1430349921.623,-11.88427
1430349921.639,-11.659737
1430349921.655,-11.398933
1430349921.67,-11.322754
1430349921.686,-11.622009
1430349921.702,-12.381271
1430349921.717,-13.522507
1430349921.733,-14.844109
1430349921.748,-16.062477
1430349921.764,-16.919365
1430349921.78,-17.249146
1430349921.795,-17.056526
1430349921.811,-16.485237
1430349921.827,-15.766769
1430349921.842,-15.103767
1430349921.858,-14.599228
1430349921.873,-14.197815
1430349921.889,-13.750793
1430349921.905,-13.089775
1430349921.92,-12.129562
1430349921.936,-10.90741
1430349921.952,-9.578735
1430349921.967,-8.357208
1430349921.983,-7.4263763
1430349921.998,-6.8355255
1430349922.014,-6.50399
1430349922.03,-6.23571
1430349922.045,-5.810402
1430349922.061,-5.1020126
1430349922.077,-4.1212845
1430349922.092,-2.9893951
1430349922.108,-1.8722534
1430349922.123,-0.81967926
1430349922.139,0.22060394
1430349922.155,1.3874207
1430349922.17,2.7947235
1430349922.186,4.4678726
1430349922.202,6.313347
1430349922.217,8.203621
1430349922.233,10.027695
1430349922.248,11.748566
1430349922.264,13.360634
1430349922.28,14.880959
1430349922.295,16.326141
1430349922.311,17.800896
1430349922.327,19.498062
1430349922.342,21.693405
1430349922.358,24.609108
1430349922.373,28.268875
1430349922.389,32.360466
1430349922.405,36.26139
1430349922.42,39.13952
1430349922.436,40.213646
1430349922.452,38.98722
1430349922.467,35.407715
1430349922.483,29.87584
1430349922.498,23.172546
1430349922.514,16.214699
1430349922.53,9.833412
1430349922.545,4.574669
1430349922.561,0.6374817
1430349922.577,-2.1143723
1430349922.592,-3.9925766
1430349922.608,-5.3754272
1430349922.624,-6.5506516
1430349922.639,-7.690674
1430349922.655,-8.835213
1430349922.67,-9.953888
1430349922.686,-10.9572525
1430349922.702,-11.798035
1430349922.717,-12.443878
1430349922.733,-12.941566
1430349922.748,-13.3517
1430349922.764,-13.746437
1430349922.78,-14.147842
1430349922.795,-14.562164
1430349922.811,-14.966843
1430349922.827,-15.354515
1430349922.842,-15.728363
1430349922.858,-16.09356
1430349922.874,-16.416794
1430349922.889,-16.639519
1430349922.905,-16.673012
1430349922.92,-16.479462
1430349922.936,-16.052696
1430349922.952,-15.440254
1430349922.967,-14.67115
1430349922.983,-13.765297
1430349922.999,-12.694122
1430349923.014,-11.444229
1430349923.03,-10.033737
1430349923.045,-8.522522
1430349923.061,-6.9515533
1430349923.077,-5.3306656
1430349923.092,-3.6520157
1430349923.108,-1.9561615
1430349923.124,-0.37071228
1430349923.139,0.90774536
1430349923.155,1.7153549
1430349923.17,2.0140839
1430349923.186,1.991333
1430349923.202,1.9953079
1430349923.217,2.4276047
1430349923.233,3.5725174
1430349923.249,5.5389557
1430349923.264,8.209473
1430349923.28,11.322479
1430349923.295,14.537956
1430349923.311,17.554733
1430349923.327,20.187325
1430349923.342,22.414993
1430349923.358,24.397743
1430349923.374,26.435104
1430349923.389,28.832344
1430349923.405,31.742508
1430349923.42,34.995445
1430349923.436,38.114372
1430349923.452,40.382927
1430349923.467,41.071304
1430349923.483,39.654785
1430349923.499,35.977264
1430349923.514,30.312798
1430349923.53,23.288895
1430349923.545,15.724167
1430349923.561,8.439995
1430349923.577,2.1057892
1430349923.592,-2.8682861
1430349923.608,-6.3880844
1430349923.624,-8.603836
1430349923.639,-9.880341
1430349923.655,-10.62941
1430349923.67,-11.22171
1430349923.686,-11.837296
1430349923.702,-12.496681
1430349923.717,-13.060562
1430349923.733,-13.379524
1430349923.749,-13.393761
1430349923.764,-13.174698
1430349923.78,-12.8815
1430349923.795,-12.683304
1430349923.811,-12.631767
1430349923.827,-12.655518
1430349923.842,-12.619774
1430349923.858,-12.455154
1430349923.874,-12.174835
1430349923.889,-11.915138
1430349923.905,-11.799744
1430349923.92,-11.871742
1430349923.936,-12.045929
1430349923.952,-12.1440735
1430349923.967,-11.968262
1430349923.983,-11.385277
1430349923.999,-10.349808
1430349924.014,-8.905289
1430349924.03,-7.15287
1430349924.045,-5.2369385
1430349924.061,-3.2762604
1430349924.077,-1.3747635
1430349924.092,0.4572525
1430349924.108,2.2735825
1430349924.124,4.1813965
1430349924.139,6.2515106
1430349924.155,8.48159
1430349924.17,10.7374115
1430349924.186,12.864456
1430349924.202,14.731033
1430349924.217,16.31945
1430349924.233,17.727722
1430349924.249,19.139404
1430349924.264,20.773636
1430349924.28,22.873474
1430349924.295,25.606308
1430349924.311,29.028473
1430349924.327,32.9682
1430349924.342,36.988487
1430349924.358,40.35692
1430349924.374,42.25419
1430349924.389,41.96884
1430349924.405,39.134117
1430349924.42,33.892746
1430349924.436,26.8844
1430349924.452,19.048447
1430349924.467,11.384598
1430349924.483,4.6613007
1430349924.499,-0.7403145
1430349924.514,-4.853718
1430349924.53,-7.989464
1430349924.545,-10.5448265
1430349924.561,-12.789097
1430349924.577,-14.81686
1430349924.592,-16.575653
1430349924.608,-18.019344
1430349924.624,-19.151585
1430349924.639,-20.059265
1430349924.655,-20.794209
1430349924.67,-21.373337
1430349924.686,-21.736435
1430349924.702,-21.870876
1430349924.717,-21.857288
1430349924.733,-21.88911
1430349924.749,-22.128654
1430349924.764,-22.640575
1430349924.78,-23.308918
1430349924.795,-23.901493
1430349924.811,-24.158531
1430349924.827,-23.918766
1430349924.842,-23.148037
1430349924.858,-21.952206
1430349924.874,-20.520004
1430349924.889,-19.046373
1430349924.905,-17.685854
1430349924.92,-16.489035
1430349924.936,-15.335388
1430349924.952,-14.0439625
1430349924.967,-12.426317
1430349924.983,-10.458879
1430349924.999,-8.274881
1430349925.014,-6.114954
1430349925.03,-4.1415367
1430349925.045,-2.3598747
1430349925.061,-0.59952927
1430349925.077,1.3726997
1430349925.092,3.680153
1430349925.108,6.2963734
1430349925.124,9.109041
1430349925.139,11.973521
1430349925.155,14.793682
1430349925.17,17.487604
1430349925.186,20.00291
1430349925.202,22.339874
1430349925.217,24.639809
1430349925.233,27.197472
1430349925.249,30.378696
1430349925.264,34.395954
1430349925.28,39.07806
1430349925.295,43.74904
1430349925.311,47.429977
1430349925.327,49.080128
1430349925.342,48.0194
1430349925.358,44.11329
1430349925.374,37.78011
1430349925.389,29.846542
1430349925.405,21.295422
1430349925.42,13.019348
1430349925.436,5.690032
1430349925.452,-0.35423088
1430349925.467,-5.1098423
1430349925.483,-8.845768
1430349925.499,-11.941832
1430349925.514,-14.750043
1430349925.53,-17.437277
1430349925.546,-19.972906
1430349925.561,-22.18379
1430349925.577,-23.874012
1430349925.592,-24.93054
1430349925.608,-25.403236
1430349925.624,-25.466509
1430349925.639,-25.363016
1430349925.655,-25.316076
1430349925.671,-25.496502
1430349925.686,-25.959473
1430349925.702,-26.703226
1430349925.717,-27.646011
1430349925.733,-28.682957
1430349925.749,-29.676254
1430349925.764,-30.485344
1430349925.78,-30.96315
1430349925.796,-30.996677
1430349925.811,-30.534351
1430349925.827,-29.600586
1430349925.842,-28.2994
1430349925.858,-26.777203
1430349925.874,-25.151752
1430349925.889,-23.513485
1430349925.905,-21.894985
1430349925.921,-20.322266
1430349925.936,-18.799889
1430349925.952,-17.36145
1430349925.967,-15.996315
1430349925.983,-14.663673
1430349925.999,-13.271412
1430349926.014,-11.7451935
1430349926.03,-10.041363
1430349926.046,-8.194225
1430349926.061,-6.2367516
1430349926.077,-4.210392
1430349926.092,-2.0788383
1430349926.108,0.2282486
1430349926.124,2.7917404
1430349926.139,5.607067
1430349926.155,8.603058
1430349926.171,11.633163
1430349926.186,14.544022
1430349926.202,17.214546
1430349926.217,19.616756
1430349926.233,21.799492
1430349926.249,23.930199
1430349926.264,26.219284
1430349926.28,28.903385
1430349926.296,32.140305
1430349926.311,35.96833
1430349926.327,40.20723
1430349926.342,44.469856
1430349926.358,48.136013
1430349926.374,50.47729
1430349926.389,50.778984
1430349926.405,48.546646
1430349926.421,43.636524
1430349926.436,36.39944
1430349926.452,27.596348
1430349926.467,18.254951
1430349926.483,9.406052
1430349926.499,1.8403931
1430349926.514,-4.092823
1430349926.53,-8.462242
1430349926.546,-11.671883
1430349926.561,-14.249317
1430349926.577,-16.633595
1430349926.592,-19.02835
1430349926.608,-21.409393
1430349926.624,-23.53833
1430349926.639,-25.175297
1430349926.655,-26.20095
1430349926.671,-26.687042
1430349926.686,-26.825787
1430349926.702,-26.852852
1430349926.717,-26.897648
1430349926.733,-27.002327
1430349926.749,-27.17704
1430349926.764,-27.476017
1430349926.78,-27.989948
1430349926.796,-28.787773
1430349926.811,-29.783695
1430349926.827,-30.733448
1430349926.842,-31.286518
1430349926.858,-31.172863
1430349926.874,-30.31253
1430349926.889,-28.880451
1430349926.905,-27.194717
1430349926.921,-25.571762
1430349926.936,-24.220676
1430349926.952,-23.182003
1430349926.967,-22.365097
1430349926.983,-21.606396
1430349926.999,-20.680801
1430349927.014,-19.39333
1430349927.03,-17.634262
1430349927.046,-15.46574
1430349927.061,-13.113323
1430349927.077,-10.916313
1430349927.092,-9.13879
1430349927.108,-7.909794
1430349927.124,-7.170803
1430349927.139,-6.736511
1430349927.155,-6.398552
1430349927.171,-5.982113
1430349927.186,-5.3303986
1430349927.202,-4.3298607
1430349927.217,-2.9024315
1430349927.233,-1.0852013
1430349927.249,0.9765892
1430349927.264,3.042305
1430349927.28,4.899889
1430349927.296,6.4471264
1430349927.311,7.7294884
1430349927.327,8.898666
1430349927.342,10.139206
1430349927.358,11.566645
1430349927.374,13.276335
1430349927.389,15.273659
1430349927.405,17.491377
1430349927.421,19.75716
1430349927.436,21.845085
1430349927.452,23.54786
1430349927.467,24.865864
1430349927.483,26.052422
1430349927.499,27.564295
1430349927.514,29.833538
1430349927.53,32.98329
1430349927.546,36.653988
1430349927.561,40.07068
1430349927.577,42.27188
1430349927.592,42.46002
1430349927.608,40.256218
1430349927.624,35.76583
1430349927.639,29.528198
1430349927.655,22.341011
1430349927.671,15.03908
1430349927.686,8.348332
1430349927.702,2.7233224
1430349927.717,-1.672426
1430349927.733,-4.9869704
1430349927.749,-7.511285
1430349927.764,-9.58553
1430349927.78,-11.431128
1430349927.796,-13.121123
1430349927.811,-14.574659
1430349927.827,-15.682065
1430349927.842,-16.377922
1430349927.858,-16.742987
1430349927.874,-16.950247
1430349927.889,-17.190495
1430349927.905,-17.559006
1430349927.921,-18.030321
1430349927.936,-18.468637
1430349927.952,-18.750689
1430349927.967,-18.842438
1430349927.983,-18.85638
1430349927.999,-18.928318
1430349928.014,-19.15876
1430349928.03,-19.478725
1430349928.046,-19.677216
1430349928.061,-19.507536
1430349928.077,-18.832752
1430349928.092,-17.709438
1430349928.108,-16.357061
1430349928.124,-15.005232
1430349928.139,-13.798056
1430349928.155,-12.705841
1430349928.171,-11.613809
1430349928.186,-10.375219
1430349928.202,-8.95998
1430349928.218,-7.401335
1430349928.233,-5.7950974
1430349928.249,-4.21513
1430349928.264,-2.7112064
1430349928.28,-1.286871
1430349928.296,0.10000038
1430349928.311,1.5432205
1430349928.327,3.171692
1430349928.343,5.103264
1430349928.358,7.35853
1430349928.374,9.83633
1430349928.389,12.332462
1430349928.405,14.620697
1430349928.421,16.53892
1430349928.436,18.095823
1430349928.452,19.438736
1430349928.468,20.832077
1430349928.483,22.51316
1430349928.499,24.719936
1430349928.514,27.55278
1430349928.53,30.991013
1430349928.546,34.74335
1430349928.561,38.269928
1430349928.577,40.790913
1430349928.593,41.523674
1430349928.608,39.909008
1430349928.624,35.86499
1430349928.639,29.845741
1430349928.655,22.693748
1430349928.671,15.372662
1430349928.686,8.719578
1430349928.702,3.1992188
1430349928.718,-1.114891
1430349928.733,-4.461937
1430349928.749,-7.1723976
1430349928.764,-9.526649
1430349928.78,-11.601154
1430349928.796,-13.341511
1430349928.811,-14.637909
1430349928.827,-15.455326
1430349928.843,-15.869205
1430349928.858,-16.04306
1430349928.874,-16.086079
1430349928.889,-16.036076
1430349928.905,-15.862957
1430349928.921,-15.581398
1430349928.936,-15.307571
1430349928.952,-15.273552
1430349928.968,-15.651039
1430349928.983,-16.454712
1430349928.999,-17.468449
1430349929.014,-18.358326
1430349929.03,-18.82405
1430349929.046,-18.752846
1430349929.061,-18.18023
1430349929.077,-17.245338
1430349929.093,-16.071442
1430349929.108,-14.74313
1430349929.124,-13.329689
1430349929.139,-11.9030075
1430349929.155,-10.534176
1430349929.171,-9.252853
1430349929.186,-8.011631
1430349929.202,-6.7291527
1430349929.218,-5.3420143
1430349929.233,-3.884594
1430349929.249,-2.440342
1430349929.264,-1.1267204
1430349929.28,0.022956848
1430349929.296,1.0364151
1430349929.311,2.0378609
1430349929.327,3.1547623
1430349929.343,4.500904
1430349929.358,6.1531487
1430349929.374,8.147156
1430349929.389,10.440411
1430349929.405,12.905113
1430349929.421,15.334141
1430349929.436,17.53054
1430349929.452,19.376759
1430349929.468,20.942398
1430349929.483,22.487087
1430349929.499,24.361305
1430349929.514,26.85041
1430349929.53,29.980297
1430349929.546,33.408733
1430349929.561,36.46388
1430349929.577,38.31721
1430349929.593,38.267094
1430349929.608,35.96093
1430349929.624,31.5513
1430349929.639,25.60888
1430349929.655,18.9515
1430349929.671,12.35791
1430349929.686,6.3765717
1430349929.702,1.2511292
1430349929.718,-3.0140991
1430349929.733,-6.5425873
1430349929.749,-9.450806
1430349929.764,-11.838341
1430349929.78,-13.754654
1430349929.796,-15.265556
1430349929.811,-16.412643
1430349929.827,-17.255974
1430349929.843,-17.850452
1430349929.858,-18.282738
1430349929.874,-18.62365
1430349929.889,-18.961678
1430349929.905,-19.348434
1430349929.921,-19.826843
1430349929.936,-20.393074
1430349929.952,-21.024284
1430349929.968,-21.675308
1430349929.983,-22.283508
1430349929.999,-22.732834
1430349930.014,-22.89344
1430349930.03,-22.6679
1430349930.046,-22.057983
1430349930.061,-21.14193
1430349930.077,-20.069702
1430349930.093,-18.95124
1430349930.108,-17.823349
1430349930.124,-16.632545
1430349930.139,-15.350105
1430349930.155,-13.987114
1430349930.171,-12.660858
1430349930.186,-11.44783
1430349930.202,-10.355255
1430349930.218,-9.267494
1430349930.233,-8.053261
1430349930.249,-6.6223145
1430349930.264,-5.059944
1430349930.28,-3.544426
1430349930.296,-2.2683334
1430349930.311,-1.3407974
1430349930.327,-0.72029114
1430349930.343,-0.25029755
1430349930.358,0.2623062
1430349930.374,1.040062
1430349930.389,2.239952
1430349930.405,3.9662018
1430349930.421,6.185364
1430349930.436,8.75251
1430349930.452,11.419945
1430349930.468,13.97068
1430349930.483,16.288307
1430349930.499,18.45655
1430349930.514,20.710625
1430349930.53,23.365692
1430349930.546,26.677872
1430349930.561,30.806854
1430349930.577,35.749718
1430349930.593,41.329437
1430349930.608,47.128624
1430349930.624,52.51848
1430349930.639,56.66658
1430349930.655,58.775383
1430349930.671,58.287277
1430349930.686,55.113617
1430349930.702,49.712204
1430349930.718,42.938995
1430349930.733,35.759033
1430349930.749,28.975609
1430349930.764,22.984276
1430349930.78,17.795952
1430349930.796,13.1576
1430349930.811,8.799919
1430349930.827,4.562866
1430349930.843,0.47768402
1430349930.858,-3.3396072
1430349930.874,-6.811592
1430349930.89,-9.976326
1430349930.905,-12.9689865
1430349930.921,-15.960846
1430349930.936,-18.994934
1430349930.952,-21.992851
1430349930.968,-24.768456
1430349930.983,-27.136917
1430349930.999,-28.9618
1430349931.015,-30.229935
1430349931.03,-31.017456
1430349931.046,-31.482407
1430349931.061,-31.82914
1430349931.077,-32.235634
1430349931.093,-32.787796
1430349931.108,-33.446877
1430349931.124,-33.973778
1430349931.14,-34.07363
1430349931.155,-33.51049
1430349931.171,-32.273674
1430349931.186,-30.576683
1430349931.202,-28.781693
1430349931.218,-27.203491
1430349931.233,-26.00386
1430349931.249,-25.141891
1430349931.265,-24.487434
1430349931.28,-23.874054
1430349931.296,-23.17688
1430349931.311,-22.227455
1430349931.327,-20.814583
1430349931.343,-18.7398
1430349931.358,-15.905556
1430349931.374,-12.430725
1430349931.39,-8.66172
1430349931.405,-5.0026627
1430349931.421,-1.7804794
1430349931.436,0.9306946
1430349931.452,3.2643585
1430349931.468,5.4291687
1430349931.483,7.503006
1430349931.499,9.434914
1430349931.515,11.05542
1430349931.53,12.256256
1430349931.546,13.127754
1430349931.561,13.958763
1430349931.577,15.160782
1430349931.593,17.142372
1430349931.608,20.140213
1430349931.624,24.175652
1430349931.64,29.026733
1430349931.655,34.216545
1430349931.671,39.02819
1430349931.686,42.646843
1430349931.702,44.281395
1430349931.718,43.37687
1430349931.733,39.829903
1430349931.749,34.05693
1430349931.765,26.86129
1430349931.78,19.234642
1430349931.796,12.026077
1430349931.811,5.78257
1430349931.827,0.69101715
1430349931.843,-3.2983704
1430349931.858,-6.355957
1430349931.874,-8.612289
1430349931.89,-10.200996
1430349931.905,-11.217751
1430349931.921,-11.795639
1430349931.936,-12.047585
1430349931.952,-12.073662
1430349931.968,-11.932579
1430349931.983,-11.670227
1430349931.999,-11.364044
1430349932.015,-11.126022
1430349932.03,-11.080299
1430349932.046,-11.310074
1430349932.061,-11.797058
1430349932.077,-12.43885
1430349932.093,-13.078949
1430349932.108,-13.62561
1430349932.124,-14.011017
1430349932.14,-14.237892
1430349932.155,-14.274185
1430349932.171,-14.095566
1430349932.186,-13.655098
1430349932.202,-12.962082
1430349932.218,-12.058174
1430349932.233,-11.008507
1430349932.249,-9.787529
1430349932.265,-8.295258
1430349932.28,-6.382454
1430349932.296,-3.9786987
1430349932.311,-1.1767883
1430349932.327,1.7637405
1430349932.343,4.524719
1430349932.358,6.8682175
1430349932.374,8.778152
1430349932.39,10.424301
1430349932.405,12.058769
1430349932.421,13.878944
1430349932.436,15.946327
1430349932.452,18.135925
1430349932.468,20.255707
1430349932.483,22.139122
1430349932.499,23.745705
1430349932.515,25.190529
1430349932.53,26.757172
1430349932.546,28.773186
1430349932.561,31.49379
1430349932.577,34.92843
1430349932.593,38.746033
1430349932.608,42.271248
1430349932.624,44.655907
1430349932.64,45.09446
1430349932.655,43.114243
1430349932.671,38.721825
1430349932.686,32.442184
1430349932.702,25.115929
1430349932.718,17.68547
1430349932.733,10.882828
1430349932.749,5.1139297
1430349932.765,0.43817902
1430349932.78,-3.3000488
1430349932.796,-6.3123093
1430349932.811,-8.727997
1430349932.827,-10.614052
1430349932.843,-11.986176
1430349932.858,-12.95208
1430349932.874,-13.6632
1430349932.89,-14.310883
1430349932.905,-15.011131
1430349932.921,-15.754829
1430349932.936,-16.453606
1430349932.952,-17.026329
1430349932.968,-17.474747
1430349932.983,-17.905106
1430349932.999,-18.448967
1430349933.015,-19.17804
1430349933.03,-20.04467
1430349933.046,-20.89827
1430349933.061,-21.539558
1430349933.077,-21.838898
1430349933.093,-21.737831
1430349933.108,-21.275291
1430349933.124,-20.533928
1430349933.14,-19.63031
1430349933.155,-18.650574
1430349933.171,-17.66397
1430349933.186,-16.663132
1430349933.202,-15.602104
1430349933.218,-14.391243
1430349933.233,-12.958809
1430349933.249,-11.244133
1430349933.265,-9.2449875
1430349933.28,-7.008896
1430349933.296,-4.635002
1430349933.311,-2.260353
1430349933.327,-0.022712708
1430349933.343,1.9597244
1430349933.358,3.6366043
1430349933.374,5.105278
1430349933.39,6.55645
1430349933.405,8.232826
1430349933.421,10.291611
1430349933.436,12.722099
1430349933.452,15.352657
1430349933.468,17.925285
1430349933.483,20.202808
1430349933.499,22.116398
1430349933.515,23.779686
1430349933.53,25.479721
1430349933.546,27.551735
1430349933.562,30.325783
1430349933.577,33.901787
1430349933.593,38.06992
1430349933.608,42.21864
1430349933.624,45.464867
1430349933.64,46.861446
1430349933.655,45.743538
1430349933.671,41.94584
1430349933.686,35.863594
1430349933.702,28.282158
1430349933.718,20.138618
1430349933.733,12.243595
1430349933.749,5.194462
1430349933.765,-0.6797371
1430349933.78,-5.2789116
1430349933.796,-8.704376
1430349933.812,-11.227417
1430349933.827,-13.21006
1430349933.843,-14.986607
1430349933.858,-16.767082
1430349933.874,-18.562496
1430349933.89,-20.249477
1430349933.905,-21.663488
1430349933.921,-22.733824
1430349933.937,-23.513836
1430349933.952,-24.146687
1430349933.968,-24.756392
1430349933.983,-25.429934
1430349933.999,-26.150322
1430349934.015,-26.864096
1430349934.03,-27.516739
1430349934.046,-28.089903
1430349934.062,-28.56982
1430349934.077,-28.96241
1430349934.093,-29.220001
1430349934.108,-29.269222
1430349934.124,-28.956696
1430349934.14,-28.159658
1430349934.155,-26.842941
1430349934.171,-25.12996
1430349934.187,-23.258974
1430349934.202,-21.525045
1430349934.218,-20.108128
1430349934.233,-19.007994
1430349934.249,-18.027527
1430349934.265,-16.92186
1430349934.28,-15.504198
1430349934.296,-13.765661
1430349934.312,-11.81215
1430349934.327,-9.800966
1430349934.343,-7.831622
1430349934.358,-5.9202194
1430349934.374,-3.9871914
1430349934.39,-1.9604537
1430349934.405,0.2384789
1430349934.421,2.618022
1430349934.437,5.1449347
1430349934.452,7.741251
1430349934.468,10.293223
1430349934.483,12.674468
1430349934.499,14.820118
1430349934.515,16.760397
1430349934.53,18.632523
1430349934.546,20.664665
1430349934.562,23.119705
1430349934.577,26.233578
1430349934.593,30.101366
1430349934.608,34.596
1430349934.624,39.3178
1430349934.64,43.59199
1430349934.655,46.56773
1430349934.671,47.402145
1430349934.687,45.561234
1430349934.702,40.987274
1430349934.718,34.17279
1430349934.733,26.023525
1430349934.749,17.613655
1430349934.765,9.881999
1430349934.78,3.4257517
1430349934.796,-1.5858016
1430349934.812,-5.357607
1430349934.827,-8.281439
1430349934.843,-10.765774
1430349934.858,-13.097378
1430349934.874,-15.353558
1430349934.89,-17.49796
1430349934.905,-19.415426
1430349934.921,-21.044464
1430349934.937,-22.362614
1430349934.952,-23.367474
1430349934.968,-23.97589
1430349934.983,-24.030285
1430349934.999,-23.343666
1430349935.015,-21.832996
1430349935.03,-19.631382
1430349935.046,-17.100441
1430349935.062,-14.721548
1430349935.077,-12.962545
1430349935.093,-12.126595
1430349935.108,-12.3507
1430349935.124,-13.569998
1430349935.14,-15.546377
1430349935.155,-17.854517
1430349935.171,-19.92518
1430349935.187,-21.168236
1430349935.202,-21.172333
1430349935.218,-19.848377
1430349935.233,-17.479345
1430349935.249,-14.587088
1430349935.265,-11.7414665
1430349935.28,-9.346687
1430349935.296,-7.596678
1430349935.312,-6.5039253
1430349935.327,-6.003929
1430349935.343,-6.006052
1430349935.358,-6.4024563
1430349935.374,-6.9995747
1430349935.39,-7.5356445
1430349935.405,-7.720995
1430349935.421,-7.36331
1430349935.437,-6.422165
1430349935.452,-5.023123
1430349935.468,-3.3280811
1430349935.483,-1.4885731
1430349935.499,0.48405838
1430349935.515,2.6610928
1430349935.53,5.165182
1430349935.546,8.039181
1430349935.562,11.214462
1430349935.577,14.504597
1430349935.593,17.705542
1430349935.608,20.691656
1430349935.624,23.57869
1430349935.64,26.622776
1430349935.655,30.058626
1430349935.671,33.820457
1430349935.687,37.46039
1430349935.702,40.16935
1430349935.718,41.105873
1430349935.733,39.754234
1430349935.749,36.159927
1430349935.765,30.881144
1430349935.78,24.778517
1430349935.796,18.68029
1430349935.812,13.177149
1430349935.827,8.524214
1430349935.843,4.7191067
1430349935.858,1.6222534
1430349935.874,-0.9114895
1430349935.89,-3.0112038
1430349935.905,-4.7450447
1430349935.921,-6.162054
1430349935.937,-7.319004
1430349935.952,-8.291044
1430349935.968,-9.160395
1430349935.983,-10.055624
1430349935.999,-11.074713
1430349936.015,-12.281914
1430349936.03,-13.650703
1430349936.046,-15.127157
1430349936.062,-16.639257
1430349936.077,-18.147057
1430349936.093,-19.647476
1430349936.108,-21.177322
1430349936.124,-22.723059
1430349936.14,-24.232986
1430349936.155,-25.588943
1430349936.171,-26.675581
1430349936.187,-27.353685
1430349936.202,-27.538702
1430349936.218,-27.228329
1430349936.233,-26.520552
1430349936.249,-25.553679
1430349936.265,-24.50097
1430349936.28,-23.469524
1430349936.296,-22.492216
1430349936.312,-21.517141
1430349936.327,-20.447472
1430349936.343,-19.16407
1430349936.358,-17.553303
1430349936.374,-15.49515
1430349936.39,-12.927799
1430349936.405,-9.908623
1430349936.421,-6.66716
1430349936.437,-3.5453663
1430349936.452,-0.9003124
1430349936.468,1.063036
1430349936.484,2.4202042
1430349936.499,3.5123386
1430349936.515,4.8092976
1430349936.53,6.7421265
1430349936.546,9.543505
1430349936.562,13.2330475
1430349936.577,17.600487
1430349936.593,22.28327
1430349936.609,26.730865
1430349936.624,30.268827
1430349936.64,32.167603
1430349936.655,31.810696
1430349936.671,28.838043
1430349936.687,23.233988
1430349936.702,15.30142
1430349936.718,5.52696
1430349936.734,-5.568027
1430349936.749,-17.392614
1430349936.765,-29.342669
1430349936.78,-40.721985
1430349936.796,-50.828568
1430349936.812,-59.025433
1430349936.827,-64.92746
1430349936.843,-68.43878
1430349936.859,-69.87396
1430349936.874,-69.88146
1430349936.89,-69.33904
1430349936.905,-69.06567
1430349936.921,-69.485405
1430349936.937,-70.24194
1430349936.952,-70.2256
1430349936.968,-67.90275
1430349936.984,-62.02848
1430349936.999,-52.3699
1430349937.015,-40.180855
1430349937.03,-28.025242
1430349937.046,-18.984657
1430349937.062,-15.457603
1430349937.077,-18.123474
1430349937.093,-25.469566
1430349937.109,-34.261375
1430349937.124,-40.604317
1430349937.14,-41.351555
1430349937.155,-35.06051
1430349937.171,-22.36177
1430349937.187,-5.555519
1430349937.202,12.112648
1430349937.218,27.42765
1430349937.234,37.993706
1430349937.249,42.816444
1430349937.265,42.516808
1430349937.28,39.163376
1430349937.296,35.644188
1430349937.312,34.827705
1430349937.327,38.56331
1430349937.343,47.15242
1430349937.359,59.335785
1430349937.374,72.951904
1430349937.39,85.80968
1430349937.405,96.34152
1430349937.421,103.775986
1430349937.437,107.846344
1430349937.452,108.472946
1430349937.468,105.62042
1430349937.484,99.49568
1430349937.499,90.85278
1430349937.515,81.032135
1430349937.53,71.62271
1430349937.546,63.966553
1430349937.562,58.66635
1430349937.577,55.445328
1430349937.593,53.42163
1430349937.609,51.52629
1430349937.624,49.012848
1430349937.64,45.617157
1430349937.655,41.515305
1430349937.671,37.053055
1430349937.687,32.571503
1430349937.702,28.191849
1430349937.718,23.837067
1430349937.734,19.298264
1430349937.749,14.370743
1430349937.765,8.93541
1430349937.78,3.0001984
1430349937.796,-3.277954
1430349937.812,-9.699387
1430349937.827,-16.032639
1430349937.843,-22.08989
1430349937.859,-27.697205
1430349937.874,-32.65184
1430349937.89,-36.72383
1430349937.905,-39.71649
1430349937.921,-41.54692
1430349937.937,-42.38495
1430349937.952,-42.60765
1430349937.968,-42.71393
1430349937.984,-43.125473
1430349937.999,-44.031097
1430349938.015,-45.335464
1430349938.03,-46.76596
1430349938.046,-47.98044
1430349938.062,-48.65825
1430349938.077,-48.546097
1430349938.093,-47.519623
1430349938.109,-45.73912
1430349938.124,-43.850082
1430349938.14,-43.075455
1430349938.155,-44.92508
1430349938.171,-50.409958
1430349938.187,-59.20192
1430349938.202,-69.02655
1430349938.218,-76.08191
1430349938.234,-76.29883
1430349938.249,-66.95332
1430349938.265,-47.87027
1430349938.28,-21.485016
1430349938.296,8.149475
1430349938.312,36.730316
1430349938.327,60.77127
1430349938.343,77.95796
1430349938.359,86.97418
1430349938.374,87.3268
1430349938.39,79.542694
1430349938.405,65.51958
1430349938.421,48.671417
1430349938.437,33.262207
1430349938.452,23.154022
1430349938.468,20.468964
1430349938.484,24.963135
1430349938.499,34.37288
1430349938.515,45.611526
1430349938.53,55.95227
1430349938.546,63.810028
1430349938.562,68.69353
1430349938.577,70.84009
1430349938.593,70.66797
1430349938.609,68.64534
1430349938.624,65.3618
1430349938.64,61.56389
1430349938.655,58.064285
1430349938.671,55.480743
1430349938.687,53.872543
1430349938.702,52.639145
1430349938.718,50.731064
1430349938.734,47.102676
1430349938.749,41.153336
1430349938.765,33.000275
1430349938.78,23.374573
1430349938.796,13.342316
1430349938.812,3.9203339
1430349938.827,-4.211319
1430349938.843,-10.862473
1430349938.859,-16.195068
1430349938.874,-20.606216
1430349938.89,-24.457977
1430349938.905,-27.917618
1430349938.921,-30.873108
1430349938.937,-33.015366
1430349938.952,-33.981995
1430349938.968,-33.560486
1430349938.984,-31.790741
1430349938.999,-28.966492
1430349939.015,-25.573769
1430349939.03,-22.200691
1430349939.046,-19.400208
1430349939.062,-17.642845
1430349939.077,-17.18341
1430349939.093,-18.054153
1430349939.109,-20.043884
1430349939.124,-22.769272
1430349939.14,-25.70311
1430349939.156,-28.404083
1430349939.171,-30.513924
1430349939.187,-31.817902
1430349939.202,-32.260254
1430349939.218,-31.914307
1430349939.234,-30.937317
1430349939.249,-29.529282
1430349939.265,-27.877953
1430349939.281,-26.075104
1430349939.296,-24.098907
1430349939.312,-21.92234
1430349939.327,-19.513947
1430349939.343,-16.984535
1430349939.359,-14.489815
1430349939.374,-12.148956
1430349939.39,-9.93206
1430349939.406,-7.7199936
1430349939.421,-5.3827896
1430349939.437,-2.9022675
1430349939.452,-0.41999817
1430349939.468,1.8532524
1430349939.484,3.7770348
1430349939.499,5.3482933
1430349939.515,6.746464
1430349939.531,8.199844
1430349939.546,9.934605
1430349939.562,12.134682
1430349939.577,14.952015
1430349939.593,18.47396
1430349939.609,22.659473
1430349939.624,27.219467
1430349939.64,31.556297
1430349939.656,34.81398
1430349939.671,36.12338
1430349939.687,34.84884
1430349939.702,30.846836
1430349939.718,24.542995
1430349939.734,16.836159
1430349939.749,8.854099
1430349939.765,1.6175766
1430349939.781,-4.2281914
1430349939.796,-8.515099
1430349939.812,-11.511452
1430349939.827,-13.71719
1430349939.843,-15.613388
1430349939.859,-17.499947
1430349939.874,-19.425419
1430349939.89,-21.254581
1430349939.906,-22.798927
1430349939.921,-23.93053
1430349939.937,-24.583412
1430349939.952,-24.773155
1430349939.968,-24.599926
1430349939.984,-24.220173
1430349939.999,-23.889973
1430349940.015,-23.860897
1430349940.031,-24.357765
1430349940.046,-25.44141
1430349940.062,-27.012886
1430349940.077,-28.82465
1430349940.093,-30.595257
1430349940.109,-32.084465
1430349940.124,-33.140144
1430349940.14,-33.690742
1430349940.156,-33.734196
1430349940.171,-33.301563
1430349940.187,-32.490925
1430349940.202,-31.408974
1430349940.218,-30.169468
1430349940.234,-28.814781
1430349940.249,-27.32375
1430349940.265,-25.584877
1430349940.281,-23.475674
1430349940.296,-20.91069
1430349940.312,-17.865498
1430349940.327,-14.402004
1430349940.343,-10.683086
1430349940.359,-6.942127
1430349940.374,-3.4542618
1430349940.39,-0.47548294
1430349940.406,1.8534584
1430349940.421,3.5685425
1430349940.437,4.8441124
1430349940.452,5.9849205
1430349940.468,7.275242
1430349940.484,8.976231
1430349940.499,11.259781
1430349940.515,14.193935
1430349940.531,17.718128
1430349940.546,21.594368
1430349940.562,25.470894
1430349940.577,28.98286
1430349940.593,31.901508
1430349940.609,34.216736
1430349940.624,36.115562
1430349940.64,37.88055
1430349940.656,39.714394
1430349940.671,41.651836
1430349940.687,43.580982
1430349940.702,45.292725
1430349940.718,46.475735
1430349940.734,46.811787
1430349940.749,45.94131
1430349940.765,43.617767
1430349940.781,39.777443
1430349940.796,34.70166
1430349940.812,28.924095
1430349940.827,23.12445
1430349940.843,17.853352
1430349940.859,13.353413
1430349940.874,9.548523
1430349940.89,6.1684
1430349940.906,2.930996
1430349940.921,-0.29137802
1430349940.937,-3.4385605
1430349940.952,-6.367405
1430349940.968,-8.946804
1430349940.984,-11.134357
1430349940.999,-13.027107
1430349941.015,-14.736706
1430349941.031,-16.380386
1430349941.046,-17.954144
1430349941.062,-19.360092
1430349941.077,-20.46413
1430349941.093,-21.22371
1430349941.109,-21.761364
1430349941.124,-22.299412
1430349941.14,-23.074581
1430349941.156,-24.155891
1430349941.171,-25.369549
1430349941.187,-26.411716
1430349941.202,-26.945187
1430349941.218,-26.817722
1430349941.234,-26.07122
1430349941.249,-24.892624
1430349941.265,-23.465714
1430349941.281,-21.911648
1430349941.296,-20.243843
1430349941.312,-18.44529
1430349941.327,-16.504745
1430349941.343,-14.466198
1430349941.359,-12.387054
1430349941.374,-10.354771
1430349941.39,-8.436047
1430349941.406,-6.6595955
1430349941.421,-5.0231323
1430349941.437,-3.4362068
1430349941.452,-1.7554932
1430349941.468,0.15436935
1430349941.484,2.3399162
1430349941.499,4.6765594
1430349941.515,6.932358
1430349941.531,8.818535
1430349941.546,10.165909
1430349941.562,10.970085
1430349941.577,11.427704
1430349941.593,11.807785
1430349941.609,12.382999
1430349941.624,13.385307
1430349941.64,14.927689
1430349941.656,16.95523
1430349941.671,19.255257
1430349941.687,21.513165
1430349941.702,23.396873
1430349941.718,24.736813
1430349941.734,25.636707
1430349941.749,26.439701
1430349941.765,27.620327
1430349941.781,29.48346
1430349941.796,31.996986
1430349941.812,34.688076
1430349941.828,36.776585
1430349941.843,37.36376
1430349941.859,35.805305
1430349941.874,31.886086
1430349941.89,25.95375
1430349941.906,18.772408
1430349941.921,11.308449
1430349941.937,4.4142723
1430349941.953,-1.3704453
1430349941.968,-5.887924
1430349941.984,-9.277496
1430349941.999,-11.776512
1430349942.015,-13.604908
1430349942.031,-14.886246
1430349942.046,-15.676556
1430349942.062,-16.080742
1430349942.078,-16.210411
1430349942.093,-16.219269
1430349942.109,-16.221958
1430349942.124,-16.269978
1430349942.14,-16.352264
1430349942.156,-16.4315
1430349942.171,-16.507336
1430349942.187,-16.592365
1430349942.203,-16.719082
1430349942.218,-16.8922
1430349942.234,-17.060238
1430349942.249,-17.159126
1430349942.265,-17.115896
1430349942.281,-16.933308
1430349942.296,-16.638218
1430349942.312,-16.30211
1430349942.328,-15.951843
1430349942.343,-15.540205
1430349942.359,-14.929764
1430349942.374,-13.944323
1430349942.39,-12.464161
1430349942.406,-10.530283
1430349942.421,-8.373198
1430349942.437,-6.3098736
1430349942.453,-4.628998
1430349942.468,-3.455368
1430349942.484,-2.673563
1430349942.499,-2.0080128
1430349942.515,-1.1706543
1430349942.531,0.024381638
1430349942.546,1.6255779
1430349942.562,3.5241451
1430349942.578,5.5811634
1430349942.593,7.6427994
1430349942.609,9.568975
1430349942.624,11.248983
1430349942.64,12.611189
1430349942.656,13.675926
1430349942.671,14.617973
1430349942.687,15.699728
1430349942.703,17.17541
1430349942.718,19.097874
1430349942.734,21.211342
1430349942.749,22.987429
1430349942.765,23.757452
1430349942.781,22.90739
1430349942.796,20.100836
1430349942.812,15.368874
1430349942.828,9.132431
1430349942.843,2.0678692
1430349942.859,-5.0512238
1430349942.874,-11.545332
1430349942.89,-16.969378
1430349942.906,-21.202415
1430349942.921,-24.4306
1430349942.937,-27.023619
1430349942.953,-29.365644
1430349942.968,-31.711823
1430349942.984,-34.10756
1430349942.999,-36.395042
1430349943.015,-38.32752
1430349943.031,-39.74077
1430349943.046,-40.604206
1430349943.062,-41.14394
1430349943.078,-41.683617
1430349943.093,-42.549427
1430349943.109,-43.871136
1430349943.124,-45.508972
1430349943.14,-47.082085
1430349943.156,-48.14446
1430349943.171,-48.340965
1430349943.187,-47.519363
1430349943.203,-45.73703
1430349943.218,-43.227776
1430349943.234,-40.33225
1430349943.249,-37.469475
1430349943.265,-35.04547
1430349943.281,-33.366035
1430349943.296,-32.47209
1430349943.312,-32.049347
1430349943.328,-31.452515
1430349943.343,-29.896439
1430349943.359,-26.72297
1430349943.374,-21.645058
1430349943.39,-14.952446
1430349943.406,-7.4543533
1430349943.421,-0.3083496
1430349943.437,5.396927
1430349943.453,9.110985
1430349943.468,11.132301
1430349943.484,12.62265
1430349943.499,15.264801
1430349943.515,20.543411
1430349943.531,29.112
1430349943.546,40.484344
1430349943.562,53.25181
1430349943.578,65.72625
1430349943.593,76.61293
1430349943.609,85.35397
1430349943.624,91.98303
1430349943.64,96.76446
1430349943.656,99.83149
1430349943.671,101.119644
1430349943.687,100.620674
1430349943.703,98.52775
1430349943.718,95.23868
1430349943.734,91.1371
1430349943.749,86.33397
1430349943.765,80.577484
1430349943.781,73.43024
1430349943.796,64.571686
1430349943.812,54.061356
1430349943.828,42.402374
1430349943.843,30.360596
1430349943.859,18.736008
1430349943.874,8.16539
1430349943.89,-1.0063629
1430349943.906,-8.722366
1430349943.921,-15.228851
1430349943.937,-20.980225
1430349943.953,-26.502762
1430349943.968,-32.193085
1430349943.984,-38.146606
1430349943.999,-44.06598
1430349944.015,-49.388657
1430349944.031,-53.50699
1430349944.046,-56.05603
1430349944.062,-57.021805
1430349944.078,-56.78441
1430349944.093,-55.92282
1430349944.109,-55.031418
1430349944.124,-54.51773
1430349944.14,-54.503235
1430349944.156,-54.84851
1430349944.171,-55.273422
1430349944.187,-55.46103
1430349944.203,-55.20813
1430349944.218,-54.469254
1430349944.234,-53.371597
1430349944.249,-52.034943
1430349944.265,-50.525986
1430349944.281,-48.689056
1430349944.296,-46.226288
1430349944.312,-42.763824
1430349944.328,-38.031525
1430349944.343,-31.995682
1430349944.359,-24.927658
1430349944.374,-17.330994
1430349944.39,-9.841431
1430349944.406,-3.0639648
1430349944.421,2.5683136
1430349944.437,6.866394
1430349944.453,9.849884
1430349944.468,11.680603
1430349944.484,12.545685
1430349944.5,12.6175995
1430349944.515,11.994705
1430349944.531,10.757477
1430349944.546,8.925812
1430349944.562,6.5163116
1430349944.578,3.5466003
1430349944.593,0.020568848
1430349944.609,-4.0012207
1430349944.624,-8.46286
1430349944.64,-13.310593
