1426798905.606,0.0
1426798905.621,0.0
1426798905.637,0.0
1426798905.653,0.0
1426798905.668,0.0
1426798905.684,0.0
1426798905.7,0.0
1426798905.715,0.0
1426798905.731,0.0
1426798905.746,0.0022315353
1426798905.762,-0.0045169927
1426798905.778,-0.011265522
1426798905.793,-0.011383951
1426798905.809,0.0011864507
1426798905.825,0.025910312
1426798905.84,0.050634187
1426798905.856,0.051362894
1426798905.871,-0.0014929791
1426798905.887,-0.1302426
1426798905.903,-0.35562757
1426798905.918,-0.6591247
1426798905.934,-1.0095103
1426798905.95,-1.3709826
1426798905.965,-1.7197359
1426798905.981,-2.0551105
1426798905.996,-2.39945
1426798906.012,-2.7866635
1426798906.028,-3.2399073
1426798906.043,-3.796012
1426798906.059,-4.418684
1426798906.075,-5.0592937
1426798906.09,-5.6644096
1426798906.106,-6.2021537
1426798906.121,-6.6808796
1426798906.137,-7.149598
1426798906.153,-7.6782336
1426798906.168,-8.310739
1426798906.184,-9.143657
1426798906.2,-10.089731
1426798906.215,-11.041313
1426798906.231,-11.8842125
1426798906.246,-12.564316
1426798906.262,-13.13563
1426798906.278,-13.760044
1426798906.293,-14.65232
1426798906.309,-15.962056
1426798906.325,-17.914442
1426798906.34,-20.317299
1426798906.356,-22.903854
1426798906.371,-25.37947
1426798906.387,-27.578028
1426798906.403,-29.57246
1426798906.418,-31.675173
1426798906.434,-34.3178
1426798906.45,-37.813618
1426798906.465,-42.541233
1426798906.481,-48.1463
1426798906.496,-54.104755
1426798906.512,-59.83309
1426798906.528,-64.972374
1426798906.543,-69.58293
1426798906.559,-74.14353
1426798906.575,-79.344986
1426798906.59,-85.70726
1426798906.606,-93.76193
1426798906.621,-102.99779
1426798906.637,-112.61757
1426798906.653,-121.73034
1426798906.668,-129.76602
1426798906.684,-136.75102
1426798906.7,-143.30344
1426798906.715,-150.74623
1426798906.731,-157.77356
1426798906.746,-166.64323
1426798906.762,-177.94798
1426798906.778,-191.79102
1426798906.793,-206.96808
1426798906.809,-220.56592
1426798906.825,-228.24644
1426798906.84,-225.36154
1426798906.856,-208.53198
1426798906.871,-176.87024
1426798906.887,-132.76222
1426798906.903,-80.04997
1426798906.918,-23.069275
1426798906.934,34.94339
1426798906.95,92.43695
1426798906.965,149.15695
1426798906.981,205.22772
1426798906.996,260.36963
1426798907.012,313.74133
1426798907.028,363.87396
1426798907.043,409.83353
1426798907.059,450.90775
1426798907.075,486.50244
1426798907.09,515.73865
1426798907.106,537.2274
1426798907.121,549.22
1426798907.137,549.9613
1426798907.153,538.367
1426798907.168,514.2055
1426798907.184,478.674
1426798907.2,433.87952
1426798907.215,382.45126
1426798907.231,327.02106
1426798907.246,269.84186
1426798907.262,212.63379
1426798907.278,156.6594
1426798907.293,102.95233
1426798907.309,52.373596
1426798907.325,5.9046936
1426798907.34,-35.580414
1426798907.356,-71.42584
1426798907.371,-101.35184
1426798907.387,-125.50113
1426798907.403,-144.3797
1426798907.418,-158.69403
1426798907.434,-169.15071
1426798907.45,-176.3711
1426798907.465,-180.75139
1426798907.481,-182.57419
1426798907.496,-182.06863
1426798907.512,-179.5066
1426798907.528,-175.23325
1426798907.543,-169.65286
1426798907.559,-163.17691
1426798907.575,-156.14568
1426798907.59,-148.80681
1426798907.606,-141.29686
1426798907.621,-133.68983
1426798907.637,-126.01962
1426798907.653,-118.33268
1426798907.668,-110.68864
1426798907.684,-103.15572
1426798907.7,-95.80455
1426798907.715,-88.684166
1426798907.731,-81.82744
1426798907.746,-75.24594
1426798907.762,-68.9526
1426798907.778,-62.949055
1426798907.793,-57.247356
1426798907.809,-51.85686
1426798907.825,-46.78222
1426798907.84,-42.0268
1426798907.856,-37.583904
1426798907.872,-33.45027
1426798907.887,-29.612663
1426798907.903,-26.070877
1426798907.918,-22.811182
1426798907.934,-19.8318
1426798907.95,-17.127226
1426798907.965,-14.690582
1426798907.981,-12.517403
1426798907.997,-10.59471
1426798908.012,-8.912461
1426798908.028,-7.4536057
1426798908.043,-6.204866
1426798908.059,-5.1461353
1426798908.075,-4.258051
1426798908.09,-3.5212727
1426798908.106,-2.919566
1426798908.122,-2.4331386
1426798908.137,-2.0433176
1426798908.153,-1.7392197
1426798908.168,-1.5063788
1426798908.184,-1.3344868
1426798908.2,-1.2105422
1426798908.215,-1.1287552
1426798908.231,-1.0819117
1426798908.247,-1.062254
1426798908.262,-1.0709374
1426798908.278,-1.0990194
1426798908.293,-1.1459136
1426798908.309,-1.2092522
1426798908.325,-1.2911159
1426798908.34,-1.3921115
1426798908.356,-1.5074099
1426798908.372,-1.6416563
1426798908.387,-1.7946064
1426798908.403,-1.9678931
1426798908.418,-2.1640313
1426798908.434,-2.3806713
1426798908.45,-2.6229646
1426798908.465,-2.8874094
1426798908.481,-3.185469
1426798908.497,-3.5084481
1426798908.512,-3.8656125
1426798908.528,-4.2548695
1426798908.543,-4.6828737
1426798908.559,-5.144481
1426798908.575,-5.6438947
1426798908.59,-6.1806083
1426798908.606,-6.7598658
1426798908.622,-7.3813243
1426798908.637,-8.045285
1426798908.653,-8.751036
1426798908.668,-9.500749
1426798908.684,-10.292749
1426798908.7,-11.127687
1426798908.715,-12.004969
1426798908.731,-12.920633
1426798908.747,-13.887268
1426798908.762,-14.911384
1426798908.778,-15.991949
1426798908.793,-17.132957
1426798908.809,-18.329052
1426798908.825,-19.571499
1426798908.84,-20.822826
1426798908.856,-22.035078
1426798908.872,-23.133575
1426798908.887,-24.026318
1426798908.903,-24.598682
1426798908.918,-24.721996
1426798908.934,-24.285723
1426798908.95,-23.193922
1426798908.965,-21.387604
1426798908.981,-18.851318
1426798908.997,-15.633392
1426798909.012,-11.78875
1426798909.028,-7.476742
1426798909.043,-2.8867416
1426798909.059,1.7862129
1426798909.075,6.3214455
1426798909.09,10.52388
1426798909.106,14.225204
1426798909.122,17.301304
1426798909.137,19.669476
1426798909.153,21.319748
1426798909.168,22.245712
1426798909.184,22.53458
1426798909.2,22.278881
1426798909.215,21.586166
1426798909.231,20.577602
1426798909.247,19.353996
1426798909.262,18.017365
1426798909.278,16.626541
1426798909.293,15.245064
1426798909.309,13.88105
1426798909.325,12.566879
1426798909.34,11.317978
1426798909.356,10.128677
1426798909.372,8.973915
1426798909.387,7.8318405
1426798909.403,6.672455
1426798909.418,5.4629593
1426798909.434,4.1662827
1426798909.45,2.7555466
1426798909.465,1.253067
1426798909.481,-0.28504944
1426798909.497,-1.848671
1426798909.512,-3.415741
1426798909.528,-4.9799576
1426798909.543,-6.5427856
1426798909.559,-8.165192
1426798909.575,-9.920258
1426798909.59,-11.976936
1426798909.606,-14.336212
1426798909.622,-17.088158
1426798909.637,-20.360924
1426798909.653,-24.286621
1426798909.668,-28.974487
1426798909.684,-34.553696
1426798909.7,-41.08818
1426798909.715,-48.622314
1426798909.731,-57.18416
1426798909.747,-66.49446
1426798909.762,-76.26883
1426798909.778,-86.2272
1426798909.793,-96.088974
1426798909.809,-105.587875
1426798909.825,-114.4884
1426798909.84,-122.665924
1426798909.856,-130.0754
1426798909.872,-136.82686
1426798909.887,-142.74278
1426798909.903,-147.74265
1426798909.918,-151.7821
1426798909.934,-154.78253
1426798909.95,-156.56856
1426798909.965,-156.86644
1426798909.981,-155.17133
1426798909.997,-150.63174
1426798910.012,-144.65402
1426798910.028,-137.70972
1426798910.043,-130.13861
1426798910.059,-122.182526
1426798910.075,-114.00717
1426798910.09,-105.74155
1426798910.106,-97.454926
1426798910.122,-89.27966
1426798910.137,-81.37335
1426798910.153,-74.05112
1426798910.168,-67.265625
1426798910.184,-61.043915
1426798910.2,-55.350983
1426798910.215,-50.09616
1426798910.231,-45.03064
1426798910.247,-39.965668
1426798910.262,-34.743286
1426798910.278,-29.401184
1426798910.293,-24.164246
1426798910.309,-19.132874
1426798910.325,-14.435913
1426798910.34,-10.097107
1426798910.356,-5.906311
1426798910.372,-1.4769287
1426798910.387,3.642273
1426798910.403,9.739075
1426798910.418,16.855652
1426798910.434,24.636414
1426798910.45,32.695557
1426798910.465,40.625732
1426798910.481,48.288025
1426798910.497,55.910095
1426798910.512,64.09198
1426798910.528,73.53851
1426798910.544,84.78235
1426798910.559,97.85962
1426798910.575,112.326965
1426798910.59,127.44232
1426798910.606,142.44238
1426798910.622,156.8363
1426798910.637,170.61304
1426798910.653,184.3006
1426798910.668,198.76154
1426798910.684,215.0935
1426798910.7,234.31348
1426798910.715,256.79376
1426798910.731,281.88568
1426798910.747,307.48828
1426798910.762,330.24957
1426798910.778,346.2998
1426798910.794,352.4265
1426798910.809,347.13977
1426798910.825,331.22754
1426798910.84,307.39954
1426798910.856,279.3706
1426798910.872,250.69214
1426798910.887,223.89197
1426798910.903,200.16748
1426798910.919,179.63611
1426798910.934,161.77295
1426798910.95,145.8512
1426798910.965,131.20898
1426798910.981,117.40674
1426798910.997,104.30554
1426798911.012,92.002625
1426798911.028,80.7738
1426798911.044,70.9126
1426798911.059,62.560974
1426798911.075,55.680176
1426798911.09,50.122437
1426798911.106,45.667053
1426798911.122,42.07379
1426798911.137,38.905884
1426798911.153,35.489197
1426798911.169,30.797546
1426798911.184,23.768066
1426798911.2,13.68512
1426798911.215,0.50756836
1426798911.231,-14.970886
1426798911.247,-31.325256
1426798911.262,-46.99402
1426798911.278,-60.85736
1426798911.294,-72.70233
1426798911.309,-83.059204
1426798911.325,-92.82727
1426798911.34,-102.591
1426798911.356,-112.21051
1426798911.372,-120.7381
1426798911.387,-126.86908
1426798911.403,-129.5863
1426798911.419,-128.74506
1426798911.434,-125.1734
1426798911.45,-120.346985
1426798911.465,-115.64258
1426798911.481,-111.81671
1426798911.497,-108.660095
1426798911.512,-105.332886
1426798911.528,-100.89508
1426798911.544,-94.96814
1426798911.559,-87.9361
1426798911.575,-80.82709
1426798911.59,-74.73047
1426798911.606,-70.276306
1426798911.622,-67.31085
1426798911.637,-65.059204
1426798911.653,-62.541626
1426798911.669,-59.188843
1426798911.684,-55.113525
1426798911.7,-50.92987
1426798911.715,-47.414734
1426798911.731,-44.989502
1426798911.747,-43.447998
1426798911.762,-42.05359
1426798911.778,-39.882813
1426798911.794,-36.453247
1426798911.809,-31.996216
1426798911.825,-27.359802
1426798911.84,-23.560608
1426798911.856,-21.273682
1426798911.872,-20.450806
1426798911.887,-20.34137
1426798911.903,-19.952332
1426798911.919,-18.569885
1426798911.934,-16.143433
1426798911.95,-13.374512
1426798911.965,-11.095093
1426798911.981,-9.961975
1426798911.997,-9.862671
1426798912.012,-10.12439
1426798912.028,-9.761963
1426798912.044,-8.1258545
1426798912.059,-5.218445
1426798912.075,-1.7339478
1426798912.09,1.2480469
1426798912.106,2.925293
1426798912.122,3.0653687
1426798912.137,2.21344
1426798912.153,1.3530273
1426798912.169,1.3997192
1426798912.184,2.6627197
1426798912.2,4.82312
1426798912.215,7.098694
1426798912.231,8.746948
1426798912.247,9.596741
1426798912.262,10.133728
1426798912.278,11.305054
1426798912.294,13.996826
1426798912.309,18.465942
1426798912.325,24.175415
1426798912.34,30.152405
1426798912.356,35.420044
1426798912.372,39.499695
1426798912.387,42.654297
1426798912.403,45.646545
1426798912.419,49.23535
1426798912.434,53.762756
1426798912.45,58.897156
1426798912.465,64.00665
1426798912.481,68.41809
1426798912.497,71.95538
1426798912.512,74.89111
1426798912.528,77.75214
1426798912.544,80.77985
1426798912.559,83.523315
1426798912.575,84.91089
1426798912.59,83.54736
1426798912.606,78.36676
1426798912.622,69.20886
1426798912.637,56.93213
1426798912.653,43.085815
1426798912.669,29.318665
1426798912.684,16.705505
1426798912.7,5.447693
1426798912.715,-4.944031
1426798912.731,-15.132446
1426798912.747,-25.329346
1426798912.762,-34.963318
1426798912.778,-42.919495
1426798912.794,-48.059143
1426798912.809,-49.8255
1426798912.825,-48.652893
1426798912.84,-45.71747
1426798912.856,-42.390503
1426798912.872,-39.52704
1426798912.887,-37.076355
1426798912.903,-34.253662
1426798912.919,-30.042969
1426798912.934,-23.987305
1426798912.95,-16.538025
1426798912.965,-8.930786
1426798912.981,-2.55896
1426798912.997,1.6641846
1426798913.012,3.7722778
1426798913.028,4.649475
1426798913.044,5.536316
1426798913.059,7.383606
1426798913.075,10.340088
1426798913.09,13.795105
1426798913.106,16.74533
1426798913.122,18.404816
1426798913.137,18.710571
1426798913.153,18.382507
1426798913.169,18.529541
1426798913.184,20.079681
1426798913.2,23.351654
1426798913.216,28.007019
1426798913.231,33.26248
1426798913.247,38.40686
1426798913.262,43.133484
1426798913.278,47.51367
1426798913.294,51.622192
1426798913.309,55.146942
1426798913.325,57.156372
1426798913.34,56.352478
1426798913.356,51.52893
1426798913.372,42.12097
1426798913.387,28.646362
1426798913.403,12.470764
1426798913.419,-4.5344543
1426798913.434,-20.703766
1426798913.45,-35.217377
1426798913.466,-48.17169
1426798913.481,-60.162445
1426798913.497,-71.799164
1426798913.512,-83.07938
1426798913.528,-93.23984
1426798913.544,-101.075134
1426798913.559,-105.40323
1426798913.575,-105.813416
1426798913.591,-102.78012
1426798913.606,-97.47623
1426798913.622,-91.173065
1426798913.637,-84.64752
1426798913.653,-78.05887
1426798913.669,-71.02646
1426798913.684,-63.259735
1426798913.7,-54.86133
1426798913.716,-46.501007
1426798913.731,-38.97528
1426798913.747,-32.670258
1426798913.762,-27.20581
1426798913.778,-21.538422
1426798913.794,-14.570282
1426798913.809,-5.8591003
1426798913.825,3.7737732
1426798913.841,12.583496
1426798913.856,18.60965
1426798913.872,20.81012
1426798913.887,19.673706
1426798913.903,17.134308
1426798913.919,15.639404
1426798913.934,17.13272
1426798913.95,22.132385
1426798913.966,29.535248
1426798913.981,37.279846
1426798913.997,43.179443
1426798914.012,45.862427
1426798914.028,45.006958
1426798914.044,41.172577
1426798914.059,35.2489
1426798914.075,27.93692
1426798914.091,19.46698
1426798914.106,9.787079
1426798914.122,-1.2622986
1426798914.137,-13.435425
1426798914.153,-26.066864
1426798914.169,-38.139954
1426798914.184,-48.654175
1426798914.2,-56.947937
1426798914.216,-62.87918
1426798914.231,-66.78473
1426798914.247,-69.11401
1426798914.262,-70.11771
1426798914.278,-69.64542
1426798914.294,-67.22714
1426798914.309,-62.447693
1426798914.325,-55.30005
1426798914.341,-46.435455
1426798914.356,-37.044647
1426798914.372,-28.387054
1426798914.387,-21.276428
1426798914.403,-15.6604
1426798914.419,-10.796173
1426798914.434,-5.547638
1426798914.45,0.8781128
1426798914.466,8.500092
1426798914.481,16.56665
1426798914.497,23.957428
1426798914.512,29.77472
1426798914.528,33.801025
1426798914.544,36.595
1426798914.559,39.138245
1426798914.575,42.39081
1426798914.591,46.664642
1426798914.606,51.73935
1426798914.622,56.9599
1426798914.637,61.789063
1426798914.653,66.01611
1426798914.669,69.75421
1426798914.684,73.14752
1426798914.7,76.04874
1426798914.716,77.79355
1426798914.731,77.408966
1426798914.747,73.95801
1426798914.762,67.064514
1426798914.778,57.157135
1426798914.794,45.368835
1426798914.809,33.01407
1426798914.825,21.181274
1426798914.841,10.313049
1426798914.856,0.23208618
1426798914.872,-9.5425415
1426798914.887,-19.401001
1426798914.903,-29.131897
1426798914.919,-37.9747
1426798914.934,-44.827484
1426798914.95,-48.818176
1426798914.966,-49.67975
1426798914.981,-47.963013
1426798914.997,-44.737
1426798915.012,-41.160706
1426798915.028,-37.836426
1426798915.044,-34.705383
1426798915.059,-31.209625
1426798915.075,-26.697052
1426798915.091,-21.05716
1426798915.106,-14.784424
1426798915.122,-8.8567505
1426798915.137,-4.140457
1426798915.153,-0.9015198
1426798915.169,1.400589
1426798915.184,3.768509
1426798915.2,7.1675873
1426798915.216,11.941742
1426798915.231,17.642792
1426798915.247,23.32074
1426798915.262,27.986145
1426798915.278,31.295258
1426798915.294,33.77446
1426798915.309,36.508896
1426798915.325,40.64502
1426798915.341,46.741776
1426798915.356,54.403183
1426798915.372,62.373672
1426798915.387,69.00841
1426798915.403,72.839935
1426798915.419,73.13309
1426798915.434,70.0103
1426798915.45,64.148636
1426798915.466,56.3127
1426798915.481,47.029343
1426798915.497,36.481277
1426798915.512,24.59842
1426798915.528,11.511902
1426798915.544,-2.26622
1426798915.559,-15.869507
1426798915.575,-28.237274
1426798915.591,-38.647675
1426798915.606,-46.899643
1426798915.622,-53.307404
1426798915.637,-58.326385
1426798915.653,-62.270447
1426798915.669,-64.91232
1426798915.684,-65.65271
1426798915.7,-63.93593
1426798915.716,-59.622986
1426798915.731,-53.33087
1426798915.747,-46.273056
1426798915.762,-39.77031
1426798915.778,-34.7237
1426798915.794,-31.187714
1426798915.809,-28.452568
1426798915.825,-25.491432
1426798915.841,-21.529366
1426798915.856,-16.376938
1426798915.872,-10.453423
1426798915.887,-4.4401703
1426798915.903,1.2206955
1426798915.919,6.549202
1426798915.934,12.11496
1426798915.95,18.653618
1426798915.966,26.577888
1426798915.981,35.683723
1426798915.997,45.29149
1426798916.012,54.491394
1426798916.028,62.642036
1426798916.044,69.774536
1426798916.059,76.45101
1426798916.075,83.39072
1426798916.091,90.81137
1426798916.106,98.034325
1426798916.122,103.36488
1426798916.138,104.82037
1426798916.153,100.7628
1426798916.169,90.64464
1426798916.184,75.28166
1426798916.2,56.450455
1426798916.216,36.193336
1426798916.231,16.059334
1426798916.247,-3.1187456
1426798916.263,-21.201277
1426798916.278,-38.158833
1426798916.294,-53.685646
1426798916.309,-67.06027
1426798916.325,-77.332756
1426798916.341,-83.8588
1426798916.356,-86.64549
1426798916.372,-86.54734
1426798916.388,-84.90849
1426798916.403,-83.153595
1426798916.419,-82.14043
1426798916.434,-81.90895
1426798916.45,-81.92772
1426798916.466,-81.37137
1426798916.481,-79.88674
1426798916.497,-77.68563
1426798916.513,-75.46171
1426798916.528,-73.89201
1426798916.544,-73.09525
1426798916.559,-72.34805
1426798916.575,-70.34865
1426798916.591,-65.923775
1426798916.606,-58.62516
1426798916.622,-49.15264
1426798916.638,-39.04
1426798916.653,-29.994698
1426798916.669,-23.04641
1426798916.684,-18.111061
1426798916.7,-14.119026
1426798916.716,-9.572472
1426798916.731,-3.4609756
1426798916.747,4.4041214
1426798916.763,13.2929535
1426798916.778,22.02884
1426798916.794,29.5186
1426798916.809,35.1491
1426798916.825,38.769653
1426798916.841,40.428284
1426798916.856,40.04003
1426798916.872,37.200478
1426798916.888,31.499443
1426798916.903,22.793053
1426798916.919,11.521286
1426798916.934,-1.2171478
1426798916.95,-14.003265
1426798916.966,-25.631683
1426798916.981,-35.434937
1426798916.997,-43.49237
1426798917.013,-50.285347
1426798917.028,-56.285095
1426798917.044,-61.591354
1426798917.059,-65.64788
1426798917.075,-67.56761
1426798917.091,-66.505585
1426798917.106,-62.247246
1426798917.122,-55.309586
1426798917.138,-46.88407
1426798917.153,-38.34474
1426798917.169,-30.731773
1426798917.184,-24.422707
1426798917.2,-19.080254
1426798917.216,-14.022842
1426798917.231,-8.594528
1426798917.247,-2.5958633
1426798917.263,3.6994934
1426798917.278,9.7309265
1426798917.294,15.101379
1426798917.309,19.837143
1426798917.325,24.415787
1426798917.341,29.535934
1426798917.356,35.596603
1426798917.372,42.495056
1426798917.388,49.489086
1426798917.403,55.746143
1426798917.419,60.732338
1426798917.434,64.602264
1426798917.45,68.19386
1426798917.466,72.500565
1426798917.481,78.10025
1426798917.497,84.52736
1426798917.513,90.365166
1426798917.528,93.638176
1426798917.544,92.65756
1426798917.559,86.73592
1426798917.575,76.44649
1426798917.591,63.3294
1426798917.606,49.196068
1426798917.622,35.340622
1426798917.638,22.115112
1426798917.653,9.175049
1426798917.669,-4.0783653
1426798917.684,-17.834526
1426798917.7,-31.518192
1426798917.716,-43.93538
1426798917.731,-53.822067
1426798917.747,-60.458363
1426798917.763,-63.930267
1426798917.778,-65.02036
1426798917.794,-64.67646
1426798917.809,-63.550407
1426798917.825,-61.718445
1426798917.841,-58.80918
1426798917.856,-54.393204
1426798917.872,-48.46283
1426798917.888,-41.67907
1426798917.903,-35.159668
1426798917.919,-29.95507
1426798917.934,-26.548141
1426798917.95,-24.54435
1426798917.966,-22.873016
1426798917.981,-20.26133
1426798917.997,-15.979904
1426798918.013,-10.066811
1426798918.028,-3.3098602
1426798918.044,3.2528458
1426798918.059,9.0056305
1426798918.075,14.036087
1426798918.091,19.07074
1426798918.106,25.059608
1426798918.122,32.58909
1426798918.138,41.495277
1426798918.153,51.03775
1426798918.169,60.194626
1426798918.184,68.09546
1426798918.2,74.15844
1426798918.216,78.13415
1426798918.231,79.86387
1426798918.247,79.018166
1426798918.263,75.037964
1426798918.278,67.33206
1426798918.294,55.67151
1426798918.309,40.490486
1426798918.325,22.978935
1426798918.341,4.789543
1426798918.356,-12.410202
1426798918.372,-27.504364
1426798918.388,-40.162834
1426798918.403,-50.78405
1426798918.419,-59.9989
1426798918.434,-68.13087
1426798918.45,-74.907974
1426798918.466,-79.48648
1426798918.481,-80.91465
1426798918.497,-78.707466
1426798918.513,-73.32639
1426798918.528,-66.00033
1426798918.544,-58.283714
1426798918.559,-51.40641
1426798918.575,-45.757088
1426798918.591,-40.96585
1426798918.606,-36.209686
1426798918.622,-30.858727
1426798918.638,-24.827942
1426798918.653,-18.59578
1426798918.669,-12.864143
1426798918.684,-7.9646606
1426798918.7,-3.7307892
1426798918.716,0.4757843
1426798918.731,5.3728714
1426798918.747,11.346855
1426798918.763,18.129578
1426798918.778,24.999939
1426798918.794,31.188354
1426798918.81,36.30484
1426798918.825,40.646355
1426798918.841,45.009705
1426798918.856,50.25843
1426798918.872,56.71411
1426798918.888,63.802742
1426798918.903,69.99971
1426798918.919,73.438545
1426798918.935,72.66782
1426798918.95,67.21265
1426798918.966,57.77722
1426798918.981,45.838745
1426798918.997,33.04602
1426798919.013,20.453857
1426798919.028,8.327469
1426798919.044,-3.69339
1426798919.06,-16.077156
1426798919.075,-28.811073
1426798919.091,-41.31671
1426798919.106,-52.432457
1426798919.122,-61.0381
1426798919.138,-66.4885
1426798919.153,-68.791466
1426798919.169,-68.58464
1426798919.185,-66.71022
1426798919.2,-63.842285
1426798919.216,-60.22811
1426798919.231,-55.816185
1426798919.247,-50.439713
1426798919.263,-44.25643
1426798919.278,-37.889503
1426798919.294,-32.162804
1426798919.31,-27.805473
1426798919.325,-24.957054
1426798919.341,-23.092705
1426798919.356,-21.116158
1426798919.372,-17.96357
1426798919.388,-13.020645
1426798919.403,-6.5692368
1426798919.419,0.42098236
1426798919.435,6.8129272
1426798919.45,11.903038
1426798919.466,15.790627
1426798919.481,19.2882
1426798919.497,23.568611
1426798919.513,29.39257
1426798919.528,36.778893
1426798919.544,44.86238
1426798919.56,52.270775
1426798919.575,57.732056
1426798919.591,60.4601
1426798919.606,60.318077
1426798919.622,57.60013
1426798919.638,52.71147
1426798919.653,45.810295
1426798919.669,36.882286
1426798919.685,25.919922
1426798919.7,13.203316
1426798919.716,-0.44841766
1426798919.731,-13.856834
1426798919.747,-25.781067
1426798919.763,-35.374763
1426798919.778,-42.460056
1426798919.794,-47.492287
1426798919.81,-51.187912
1426798919.825,-54.080235
1426798919.841,-56.2059
1426798919.856,-57.055595
1426798919.872,-55.965096
1426798919.888,-52.4731
1426798919.903,-46.84542
1426798919.919,-40.022533
1426798919.935,-33.31786
1426798919.95,-27.839413
1426798919.966,-23.973145
1426798919.981,-21.354298
1426798919.997,-19.05254
1426798920.013,-16.170628
1426798920.028,-12.254276
1426798920.044,-7.483555
1426798920.06,-2.433094
1426798920.075,2.245247
1426798920.091,6.304779
1426798920.106,9.965221
1426798920.122,13.706215
1426798920.138,18.013182
1426798920.153,22.980644
1426798920.169,28.38779
1426798920.185,33.88598
1426798920.2,39.235245
1426798920.216,44.48156
1426798920.231,49.89199
1426798920.247,55.545643
1426798920.263,61.077675
1426798920.278,65.48021
1426798920.294,67.35336
1426798920.31,65.463646
1426798920.325,59.17375
1426798920.341,48.77939
1426798920.356,35.443893
1426798920.372,20.703735
1426798920.388,5.9938383
1426798920.403,-7.832223
1426798920.419,-20.518957
1426798920.435,-32.2577
1426798920.45,-43.23777
1426798920.466,-53.251442
1426798920.481,-61.638596
1426798920.497,-67.37203
1426798920.513,-69.545845
1426798920.528,-67.92975
1426798920.544,-63.114197
1426798920.56,-56.35289
1426798920.575,-49.14008
1426798920.591,-42.598732
1426798920.606,-37.10059
1426798920.622,-32.35715
1426798920.638,-27.769306
1426798920.653,-23.004856
1426798920.669,-18.273981
1426798920.685,-14.114906
1426798920.7,-11.07324
1426798920.716,-9.189299
1426798920.731,-7.801811
1426798920.747,-5.8209915
1426798920.763,-2.2400246
1426798920.778,3.3124924
1426798920.794,10.31184
1426798920.81,17.644943
1426798920.825,24.214008
1426798920.841,29.43015
1426798920.856,33.62494
1426798920.872,37.833614
1426798920.888,43.24248
1426798920.903,50.427864
1426798920.919,58.9502
1426798920.935,67.34291
1426798920.95,73.7213
1426798920.966,76.54614
1426798920.981,75.18163
1426798920.997,70.018776
1426798921.013,62.18828
1426798921.028,52.806023
1426798921.044,42.452076
1426798921.06,31.12107
1426798921.075,18.54464
1426798921.091,4.6882553
1426798921.106,-9.799934
1426798921.122,-23.751228
1426798921.138,-35.871872
1426798921.153,-45.25968
1426798921.169,-51.84633
1426798921.185,-56.213875
1426798921.2,-59.16262
1426798921.216,-61.146317
1426798921.231,-62.037262
1426798921.247,-61.189545
1426798921.263,-57.919365
1426798921.278,-52.03373
1426798921.294,-44.1501
1426798921.31,-35.582077
1426798921.325,-27.794556
1426798921.341,-21.852402
1426798921.356,-17.994843
1426798921.372,-15.666061
1426798921.388,-13.797043
1426798921.403,-11.422699
1426798921.419,-8.045593
1426798921.435,-3.8408432
1426798921.45,0.6092148
1426798921.466,4.666832
1426798921.482,8.097641
1426798921.497,11.207878
1426798921.513,14.629524
1426798921.528,19.040756
1426798921.544,24.63662
1426798921.56,31.048584
1426798921.575,37.518753
1426798921.591,43.288284
1426798921.606,47.989113
1426798921.622,51.829918
1426798921.638,55.343513
1426798921.653,58.827072
1426798921.669,62.02182
1426798921.685,63.949524
1426798921.7,63.378906
1426798921.716,59.345993
1426798921.732,51.693237
1426798921.747,41.161438
1426798921.763,29.009766
1426798921.778,16.577042
1426798921.794,4.6992035
1426798921.81,-6.452194
1426798921.825,-17.16832
1426798921.841,-27.76242
1426798921.857,-38.18869
1426798921.872,-47.79811
1426798921.888,-55.495422
1426798921.903,-60.238388
1426798921.919,-61.44899
1426798921.935,-59.414413
1426798921.95,-55.119873
1426798921.966,-49.8936
1426798921.982,-44.77565
1426798921.997,-40.180923
1426798922.013,-35.864822
1426798922.028,-31.248352
1426798922.044,-26.067825
1426798922.06,-20.640732
1426798922.075,-15.672089
1426798922.091,-11.891373
1426798922.107,-9.4275055
1426798922.122,-7.683792
1426798922.138,-5.530426
1426798922.153,-1.8774261
1426798922.169,3.7677612
1426798922.185,10.920349
1426798922.2,18.489822
1426798922.216,25.248062
1426798922.232,30.437485
1426798922.247,34.210983
1426798922.263,37.387115
1426798922.278,41.092438
1426798922.294,46.149704
1426798922.31,52.709473
1426798922.325,60.167786
1426798922.341,67.414856
1426798922.357,73.24927
1426798922.372,76.838
1426798922.388,77.86432
1426798922.403,76.417755
1426798922.419,72.68791
1426798922.435,66.719406
1426798922.45,58.382126
1426798922.466,47.49475
1426798922.482,34.223007
1426798922.497,19.253754
1426798922.513,3.7799225
1426798922.528,-10.828445
1426798922.544,-23.54596
1426798922.56,-34.175232
1426798922.575,-43.20453
1426798922.591,-51.46692
1426798922.607,-59.52568
1426798922.622,-67.19806
1426798922.638,-73.585785
1426798922.653,-77.6084
1426798922.669,-78.5677
1426798922.685,-76.61688
1426798922.7,-72.69617
1426798922.716,-68.043686
1426798922.732,-63.642273
1426798922.747,-59.7446
1426798922.763,-55.931885
1426798922.778,-51.429764
1426798922.794,-45.67009
1426798922.81,-38.696228
1426798922.825,-31.089874
1426798922.841,-23.721848
1426798922.857,-17.286911
1426798922.872,-11.982529
1426798922.888,-7.430069
1426798922.903,-2.9254303
1426798922.919,2.1784515
1426798922.935,8.057465
1426798922.95,14.318893
1426798922.966,20.211731
1426798922.982,24.998596
1426798922.997,28.524979
1426798923.013,31.306442
1426798923.028,34.370132
1426798923.044,38.775635
1426798923.06,44.93103
1426798923.075,52.23958
1426798923.091,59.2704
1426798923.107,64.29375
1426798923.122,65.96936
1426798923.138,64.013794
1426798923.153,59.046646
1426798923.169,52.169113
1426798923.185,44.277634
1426798923.2,35.649292
1426798923.216,26.031052
1426798923.232,15.136383
1426798923.247,3.1097565
1426798923.263,-9.197174
1426798923.278,-20.483871
1426798923.294,-29.478378
1426798923.31,-35.574936
1426798923.325,-38.89328
1426798923.341,-40.1053
1426798923.357,-39.87526
1426798923.372,-38.481934
1426798923.388,-35.58966
1426798923.403,-30.52539
1426798923.419,-22.707672
1426798923.435,-12.115616
1426798923.45,0.4602661
1426798923.466,13.582794
1426798923.482,25.440857
1426798923.497,34.580704
1426798923.513,40.296356
1426798923.528,42.85376
1426798923.544,43.314438
1426798923.56,42.927444
1426798923.575,42.576706
1426798923.591,42.357727
1426798923.607,41.690598
1426798923.622,39.690247
1426798923.638,35.904938
1426798923.653,30.589996
1426798923.669,24.639893
1426798923.685,19.123184
1426798923.7,14.731476
1426798923.716,11.532501
1426798923.732,9.194336
1426798923.747,7.3342743
1426798923.763,6.021881
1426798923.778,5.7838593
1426798923.794,7.353073
1426798923.81,10.936813
1426798923.825,15.877853
1426798923.841,20.683014
1426798923.857,23.658218
1426798923.872,23.6035
1426798923.888,20.322052
1426798923.903,14.692154
1426798923.919,8.007233
1426798923.935,1.2756348
1426798923.95,-5.397873
1426798923.966,-12.768433
1426798923.982,-21.87471
1426798923.997,-33.273636
1426798924.013,-46.47403
1426798924.028,-59.941467
1426798924.044,-71.64513
1426798924.06,-79.865326
1426798924.075,-83.91162
1426798924.091,-84.357086
1426798924.107,-82.64461
1426798924.122,-80.40857
1426798924.138,-78.73212
1426798924.154,-77.84834
1426798924.169,-77.22102
1426798924.185,-76.04764
1426798924.2,-73.76579
1426798924.216,-70.15376
1426798924.232,-65.35182
1426798924.247,-59.370056
1426798924.263,-51.91774
1426798924.278,-42.39818
1426798924.294,-30.364548
1426798924.31,-15.891647
1426798924.325,-0.07757568
1426798924.341,15.196548
1426798924.357,27.878143
1426798924.372,36.457825
1426798924.388,40.623657
1426798924.404,41.30774
1426798924.419,40.247437
1426798924.435,39.179504
1426798924.45,39.178192
1426798924.466,40.346497
1426798924.482,41.96521
1426798924.497,43.17935
1426798924.513,43.496613
1426798924.529,42.970306
1426798924.544,41.993652
1426798924.56,40.824615
1426798924.575,39.1044
1426798924.591,35.959717
1426798924.607,30.291351
1426798924.622,21.38092
1426798924.638,9.484985
1426798924.654,-4.2653503
1426798924.669,-18.267212
1426798924.685,-31.07074
1426798924.7,-42.092377
1426798924.716,-51.531982
1426798924.732,-60.03415
1426798924.747,-68.03592
1426798924.763,-75.34952
1426798924.779,-80.8801
1426798924.794,-83.31677
1426798924.81,-81.65628
1426798924.825,-75.91843
1426798924.841,-67.29602
1426798924.857,-57.609802
1426798924.872,-48.620483
1426798924.888,-41.362183
1426798924.904,-35.8627
1426798924.919,-31.388977
1426798924.935,-26.972351
1426798924.95,-22.08014
1426798924.966,-16.85083
1426798924.982,-11.966949
1426798924.997,-8.196899
1426798925.013,-5.7709656
1426798925.029,-4.2901306
1426798925.044,-2.7806396
1426798925.06,-0.17373657
1426798925.075,4.024231
1426798925.091,9.48999
1426798925.107,15.1763
1426798925.122,19.883453
1426798925.138,22.897644
1426798925.154,24.521637
1426798925.169,25.84848
1426798925.185,28.331268
1426798925.2,33.045197
1426798925.216,39.95157
1426798925.232,48.001953
1426798925.247,55.55127
1426798925.263,61.101166
1426798925.279,63.897552
1426798925.294,64.07678
1426798925.31,62.315125
1426798925.325,59.36673
1426798925.341,55.52478
1426798925.357,50.453705
1426798925.372,43.6015
1426798925.388,34.68347
1426798925.404,24.064148
1426798925.419,12.715881
1426798925.435,1.8572388
1426798925.45,-7.4815063
1426798925.466,-14.904541
1426798925.482,-20.556885
1426798925.497,-24.942566
1426798925.513,-28.389893
1426798925.529,-30.764404
1426798925.544,-31.591858
1426798925.56,-30.358887
1426798925.575,-26.925476
1426798925.591,-21.697876
1426798925.607,-15.74646
1426798925.622,-10.200439
1426798925.638,-5.9784546
1426798925.654,-3.2913818
1426798925.669,-1.6716919
1426798925.685,-0.24383545
1426798925.7,1.8566895
1426798925.716,4.951416
1426798925.732,8.819519
1426798925.747,12.768127
1426798925.763,16.217773
1426798925.779,19.048279
1426798925.794,21.694763
1426798925.81,24.87268
1426798925.825,29.040771
1426798925.841,34.196106
1426798925.857,39.695007
1426798925.872,44.7818
1426798925.888,48.932617
1426798925.904,52.240967
1426798925.919,55.492554
1426798925.935,59.64496
1426798925.95,65.34863
1426798925.966,72.417786
1426798925.982,79.84009
1426798925.997,85.97894
1426798926.013,89.33209
1426798926.029,89.03027
1426798926.044,85.1759
1426798926.06,78.640625
1426798926.075,70.509155
1426798926.091,61.61908
1426798926.107,52.08667
1426798926.122,41.591248
1426798926.138,29.718445
1426798926.154,16.580994
1426798926.169,2.980957
1426798926.185,-9.774719
1426798926.2,-20.374023
1426798926.216,-28.119019
1426798926.232,-33.09662
1426798926.247,-36.066772
1426798926.263,-37.866455
1426798926.279,-39.02948
1426798926.294,-39.432922
1426798926.31,-38.549194
1426798926.325,-35.860718
1426798926.341,-31.298035
1426798926.357,-25.41565
1426798926.372,-19.123291
1426798926.388,-13.352539
1426798926.404,-8.493713
1426798926.419,-4.3397827
1426798926.435,-0.1519165
1426798926.45,4.8529053
1426798926.466,11.043701
1426798926.482,18.195374
1426798926.497,25.615906
1426798926.513,32.529175
1426798926.529,38.358826
1426798926.544,43.08368
1426798926.56,47.010742
1426798926.575,50.640686
1426798926.591,54.226135
1426798926.607,57.545593
1426798926.622,59.96527
1426798926.638,60.65808
1426798926.654,59.14386
1426798926.669,55.557922
1426798926.685,50.784485
1426798926.7,45.961792
1426798926.716,42.0058
1426798926.732,38.995483
1426798926.747,36.01715
1426798926.763,31.717407
1426798926.779,24.822266
1426798926.794,14.992004
1426798926.81,2.8479614
1426798926.825,-10.243835
1426798926.841,-23.032959
1426798926.857,-34.91095
1426798926.872,-46.067505
1426798926.888,-57.160095
1426798926.904,-68.56854
1426798926.919,-80.05066
1426798926.935,-90.587524
1426798926.95,-98.86365
1426798926.966,-103.72058
1426798926.982,-104.79578
1426798926.997,-102.55786
1426798927.013,-97.96533
1426798927.029,-92.094604
1426798927.044,-85.54431
1426798927.06,-78.37067
1426798927.076,-70.190735
1426798927.091,-60.636597
1426798927.107,-49.765564
1426798927.122,-38.26242
1426798927.138,-27.290222
1426798927.154,-17.905151
1426798927.169,-10.646362
1426798927.185,-5.2507324
1426798927.201,-0.7712097
1426798927.216,3.8403625
1426798927.232,9.243805
1426798927.247,15.278046
1426798927.263,21.27658
1426798927.279,26.284882
1426798927.294,29.865662
1426798927.31,32.263947
1426798927.326,34.338745
1426798927.341,37.091644
1426798927.357,41.13971
1426798927.372,46.403625
1426798927.388,52.23587
1426798927.404,57.826965
1426798927.419,62.668488
1426798927.435,66.65451
1426798927.451,69.98889
1426798927.466,72.80121
1426798927.482,74.80481
1426798927.497,75.202545
1426798927.513,73.11267
1426798927.529,67.86426
1426798927.544,59.47754
1426798927.56,48.71228
1426798927.576,36.72467
1426798927.591,24.734192
1426798927.607,13.515167
1426798927.622,3.2271118
1426798927.638,-6.512512
1426798927.654,-16.178131
1426798927.669,-25.924164
1426798927.685,-35.34842
1426798927.701,-43.44403
1426798927.716,-49.111237
1426798927.732,-51.615723
1426798927.747,-51.117004
1426798927.763,-48.50287
1426798927.779,-45.125366
1426798927.794,-42.03305
1426798927.81,-39.64334
1426798927.826,-37.562836
1426798927.841,-35.121277
1426798927.857,-31.896362
1426798927.872,-28.078857
1426798927.888,-24.375427
1426798927.904,-21.619843
1426798927.919,-20.089935
1426798927.935,-19.32486
1426798927.951,-18.322937
1426798927.966,-16.023285
1426798927.982,-11.872192
1426798927.997,-6.2688293
1426798928.013,-0.1723938
1426798928.029,5.2469482
1426798928.044,9.286774
1426798928.06,12.010651
1426798928.076,14.209503
1426798928.091,16.890472
1426798928.107,20.851654
1426798928.122,26.257874
1426798928.138,32.629364
1426798928.154,39.10013
1426798928.169,44.846436
1426798928.185,49.317535
1426798928.201,52.31375
1426798928.216,53.858063
1426798928.232,53.913757
1426798928.247,52.277863
1426798928.263,48.597107
1426798928.279,42.49652
1426798928.294,33.904358
1426798928.31,23.226135
1426798928.326,11.352356
1426798928.341,-0.5657654
1426798928.357,-11.460114
1426798928.372,-20.805756
1426798928.388,-28.66211
1426798928.404,-35.508057
1426798928.419,-41.77481
1426798928.435,-47.440613
1426798928.451,-51.975403
1426798928.466,-54.553864
1426798928.482,-54.54065
1426798928.497,-52.003754
1426798928.513,-47.807526
1426798928.529,-43.206696
1426798928.544,-39.34204
1426798928.56,-36.69934
1426798928.576,-34.954193
1426798928.591,-33.25769
1426798928.607,-30.781921
1426798928.622,-27.24707
1426798928.638,-23.006805
1426798928.654,-18.865814
1426798928.669,-15.501312
1426798928.685,-13.067902
1426798928.701,-10.979614
1426798928.716,-8.343933
1426798928.732,-4.3504333
1426798928.747,1.1489258
1426798928.763,7.596527
1426798928.779,13.965546
1426798928.794,19.30365
1426798928.81,23.16803
1426798928.826,25.835907
1426798928.841,28.236969
1426798928.857,31.37558
1426798928.872,35.91574
1426798928.888,41.86557
1426798928.904,48.57083
1426798928.919,55.052277
1426798928.935,60.40396
1426798928.951,64.03586
1426798928.966,65.74295
1426798928.982,65.564026
1426798928.997,63.51001
1426798929.013,59.37619
1426798929.029,52.869904
1426798929.044,43.809845
1426798929.06,32.510284
1426798929.076,19.83142
1426798929.091,7.04895
1426798929.107,-4.5387573
1426798929.122,-14.18811
1426798929.138,-21.923462
1426798929.154,-28.38379
1426798929.169,-34.421783
1426798929.185,-40.46469
1426798929.201,-46.20401
1426798929.216,-50.74707
1426798929.232,-53.186035
1426798929.247,-53.125183
1426798929.263,-51.035156
1426798929.279,-48.03012
1426798929.294,-45.23532
1426798929.31,-43.320953
1426798929.326,-42.162903
1426798929.341,-41.07144
1426798929.357,-39.228516
1426798929.372,-36.28955
1426798929.388,-32.496704
1426798929.404,-28.53003
1426798929.419,-25.065826
1426798929.435,-22.373444
1426798929.451,-20.09851
1426798929.466,-17.477844
1426798929.482,-13.74411
1426798929.497,-8.552307
1426798929.513,-2.290619
1426798929.529,4.092987
1426798929.544,9.517273
1426798929.56,13.273132
1426798929.576,15.420914
1426798929.591,16.720978
1426798929.607,18.38208
1426798929.622,21.457413
1426798929.638,26.431854
1426798929.654,32.97087
1426798929.669,40.040665
1426798929.685,46.41902
1426798929.701,51.05298
1426798929.716,53.41803
1426798929.732,53.545883
1426798929.748,51.70549
1426798929.763,48.098785
1426798929.779,42.672073
1426798929.794,35.21733
1426798929.81,25.600388
1426798929.826,14.172821
1426798929.841,1.8000793
1426798929.857,-10.234741
1426798929.873,-20.710907
1426798929.888,-28.99585
1426798929.904,-35.15486
1426798929.919,-39.70508
1426798929.935,-43.223923
1426798929.951,-45.911804
1426798929.966,-47.387405
1426798929.982,-46.9821
1426798929.998,-44.224503
1426798930.013,-39.254837
1426798930.029,-33.018402
1426798930.044,-26.927383
1426798930.06,-22.254196
1426798930.076,-19.559753
1426798930.091,-18.5168
1426798930.107,-18.115234
1426798930.123,-17.306122
1426798930.138,-15.556824
1426798930.154,-13.090073
1426798930.169,-10.622681
1426798930.185,-8.843231
1426798930.201,-7.8667603
1426798930.216,-7.184906
1426798930.232,-5.8446655
1426798930.248,-3.0802307
1426798930.263,1.260498
1426798930.279,6.6470337
1426798930.294,12.093643
1426798930.31,16.748428
1426798930.326,20.341675
1426798930.341,23.385117
1426798930.357,26.833847
1426798930.373,31.5625
1426798930.388,37.8683
1426798930.404,45.096527
1426798930.419,51.950806
1426798930.435,56.903976
1426798930.451,58.859604
1426798930.466,57.568817
1426798930.482,53.583145
1426798930.498,47.853394
1426798930.513,41.1799
1426798930.529,33.836823
1426798930.544,25.525925
1426798930.56,15.846817
1426798930.576,4.750107
1426798930.591,-7.188965
1426798930.607,-18.855743
1426798930.623,-29.108353
1426798930.638,-37.212936
1426798930.654,-43.17015
1426798930.669,-47.45372
1426798930.685,-50.752975
1426798930.701,-53.356064
1426798930.716,-55.054764
1426798930.732,-55.285126
1426798930.748,-53.55313
1426798930.763,-49.91307
1426798930.779,-45.039
1426798930.794,-40.011063
1426798930.81,-35.818115
1426798930.826,-32.992477
1426798930.841,-31.301254
1426798930.857,-29.947922
1426798930.873,-28.011337
1426798930.888,-24.827042
1426798930.904,-20.339172
1426798930.919,-15.047379
1426798930.935,-9.741119
1426798930.951,-5.051483
1426798930.966,-1.1240845
1426798930.982,2.4327545
1426798930.998,6.2418823
1426798931.013,10.805122
1426798931.029,16.060211
1426798931.044,21.537216
1426798931.06,26.541542
1426798931.076,30.687927
1426798931.091,34.17096
1426798931.107,37.740517
1426798931.123,42.32376
1426798931.138,48.392113
1426798931.154,55.60219
1426798931.169,62.835037
1426798931.185,68.55185
1426798931.201,71.48678
1426798931.216,71.04982
1426798931.232,67.53852
1426798931.248,61.693993
1426798931.263,54.38247
1426798931.279,46.025963
1426798931.294,36.628853
1426798931.31,25.927261
1426798931.326,13.789757
1426798931.341,0.5532303
1426798931.357,-12.916985
1426798931.373,-25.529198
1426798931.388,-36.312332
1426798931.404,-44.883614
1426798931.419,-51.374275
1426798931.435,-56.257698
1426798931.451,-59.95701
1426798931.466,-62.530045
1426798931.482,-63.677345
1426798931.498,-63.060318
1426798931.513,-60.497643
1426798931.529,-56.296715
1426798931.544,-51.212578
1426798931.56,-46.210342
1426798931.576,-42.04991
1426798931.591,-38.94615
1426798931.607,-36.528564
1426798931.623,-34.010468
1426798931.638,-30.606472
1426798931.654,-25.875671
1426798931.669,-19.946808
1426798931.685,-13.467812
1426798931.701,-7.12772
1426798931.716,-1.4705048
1426798931.732,3.5405655
1426798931.748,8.218559
1426798931.763,13.0355835
1426798931.779,18.098404
1426798931.794,23.174297
1426798931.81,27.688362
1426798931.826,31.217625
1426798931.841,33.803505
1426798931.857,36.095196
1426798931.873,38.958374
1426798931.888,43.097218
1426798931.904,48.515564
1426798931.919,54.34117
1426798931.935,59.182
1426798931.951,61.517727
1426798931.966,60.47389
1426798931.982,56.062336
1426798931.998,49.117245
1426798932.013,40.81055
1426798932.029,32.03399
1426798932.044,23.145288
1426798932.06,13.910149
1426798932.076,3.8894215
1426798932.091,-7.1033134
1426798932.107,-18.55619
1426798932.123,-29.413322
1426798932.138,-38.395473
1426798932.154,-44.585453
1426798932.169,-47.857452
1426798932.185,-48.80239
1426798932.201,-48.424667
1426798932.216,-47.6063
1426798932.232,-46.72917
1426798932.248,-45.626503
1426798932.263,-43.828613
1426798932.279,-41.120377
1426798932.294,-37.663967
1426798932.31,-34.140747
1426798932.326,-31.28948
1426798932.341,-29.629494
1426798932.357,-29.038904
1426798932.373,-28.878155
1426798932.388,-28.209995
1426798932.404,-26.262354
1426798932.42,-22.769056
1426798932.435,-18.030987
1426798932.451,-12.735708
1426798932.466,-7.514715
1426798932.482,-2.6917906
1426798932.498,1.9369698
1426798932.513,6.930627
1426798932.529,12.745787
1426798932.545,19.383745
1426798932.56,26.301224
1426798932.576,32.76683
1426798932.591,38.182354
1426798932.607,42.65811
1426798932.623,46.83986
1426798932.638,51.536293
1426798932.654,57.088615
1426798932.67,62.83732
1426798932.685,67.39314
1426798932.701,69.095726
1426798932.716,67.02649
1426798932.732,61.261627
1426798932.748,52.851067
1426798932.763,43.31489
1426798932.779,33.897575
1426798932.795,25.009865
1426798932.81,16.287369
1426798932.826,7.0821953
1426798932.841,-3.1068115
1426798932.857,-14.008255
1426798932.873,-24.704659
1426798932.888,-33.936653
1426798932.904,-40.64081
1426798932.92,-44.376198
1426798932.935,-45.658466
1426798932.951,-45.5446
1426798932.966,-45.09354
1426798932.982,-45.001884
1426798932.998,-45.270115
1426798933.013,-45.384308
1426798933.029,-44.719837
1426798933.045,-43.052494
1426798933.06,-40.74875
1426798933.076,-38.480484
1426798933.091,-36.87055
1426798933.107,-35.997902
1426798933.123,-35.345352
1426798933.138,-33.984085
1426798933.154,-31.021767
1426798933.17,-26.162086
1426798933.185,-19.803223
1426798933.201,-12.917137
1426798933.216,-6.4018707
1426798933.232,-0.6616821
1426798933.248,4.5113907
1426798933.263,9.764778
1426798933.279,15.74588
1426798933.295,22.612793
1426798933.31,29.922379
1426798933.326,37.005127
1426798933.341,43.278572
1426798933.357,48.72222
1426798933.373,53.81372
1426798933.388,59.11133
1426798933.404,64.71553
1426798933.42,70.050285
1426798933.435,73.86343
1426798933.451,74.79191
1426798933.466,71.99611
1426798933.482,65.51083
1426798933.498,56.194504
1426798933.513,45.370422
1426798933.529,34.26969
1426798933.545,23.556786
1426798933.56,13.222565
1426798933.576,2.903122
1426798933.591,-7.829773
1426798933.607,-18.994972
1426798933.623,-30.037361
1426798933.638,-39.990463
1426798933.654,-47.863937
1426798933.67,-53.08
1426798933.685,-55.728516
1426798933.701,-56.548965
1426798933.716,-56.500328
1426798933.732,-56.282036
1426798933.748,-56.05786
1426798933.763,-55.479828
1426798933.779,-54.082535
1426798933.795,-51.61969
1426798933.81,-48.468857
1426798933.826,-45.35295
1426798933.841,-43.080963
1426798933.857,-42.01187
1426798933.873,-41.809967
1426798933.888,-41.562225
1426798933.904,-40.233276
1426798933.92,-37.070007
1426798933.935,-32.0903
1426798933.951,-25.94484
1426798933.966,-19.584732
1426798933.982,-13.752655
1426798933.998,-8.6707
1426798934.013,-3.91687
1426798934.029,1.2945251
1426798934.045,7.6882324
1426798934.06,15.459991
1426798934.076,24.294296
1426798934.091,33.51021
1426798934.107,42.535355
1426798934.123,51.14583
1426798934.138,59.48291
1426798934.154,67.743256
1426798934.17,75.70276
1426798934.185,82.48613
1426798934.201,86.74234
1426798934.216,87.12938
1426798934.232,82.8999
1426798934.248,74.29016
1426798934.263,62.481262
1426798934.279,49.040665
1426798934.295,35.336807
1426798934.31,22.018326
1426798934.326,9.006851
1426798934.341,-4.0811768
1426798934.357,-17.417389
1426798934.373,-30.59439
1426798934.388,-42.57672
1426798934.404,-52.18579
1426798934.42,-58.53723
1426798934.435,-61.5345
1426798934.451,-61.897415
1426798934.466,-60.7937
1426798934.482,-59.30081
1426798934.498,-57.928436
1426798934.513,-56.479782
1426798934.529,-54.458878
1426798934.545,-51.415207
1426798934.56,-47.36429
1426798934.576,-42.87793
1426798934.591,-38.737564
1426798934.607,-35.514435
1426798934.623,-33.19229
1426798934.638,-31.15651
1426798934.654,-28.496613
1426798934.67,-24.439438
1426798934.685,-18.84378
1426798934.701,-12.119675
1426798934.716,-5.10672
1426798934.732,1.4022217
1426798934.748,7.0802917
1426798934.763,12.15213
1426798934.779,17.229904
1426798934.795,22.948914
1426798934.81,29.584213
1426798934.826,36.886566
1426798934.841,44.25963
1426798934.857,51.029663
1426798934.873,56.876495
1426798934.888,61.916428
1426798934.904,66.50685
1426798934.92,70.82666
1426798934.935,74.575226
1426798934.951,76.80444
1426798934.966,76.324814
1426798934.982,72.23753
1426798934.998,64.30972
1426798935.013,53.35617
1426798935.029,40.75415
1426798935.045,27.944199
1426798935.06,15.804901
1426798935.076,4.444336
1426798935.092,-6.634186
1426798935.107,-17.962357
1426798935.123,-29.616882
1426798935.138,-40.994247
1426798935.154,-50.898544
1426798935.17,-58.16835
1426798935.185,-62.22226
1426798935.201,-63.268692
1426798935.216,-62.213608
1426798935.232,-60.147873
1426798935.248,-57.771637
1426798935.263,-55.13849
1426798935.279,-51.88376
1426798935.295,-47.44896
1426798935.31,-41.704834
1426798935.326,-35.05684
1426798935.342,-28.287704
1426798935.357,-22.17987
1426798935.373,-17.12503
1426798935.388,-12.863892
1426798935.404,-8.654755
1426798935.42,-3.63443
1426798935.435,2.7753296
1426798935.451,10.543915
1426798935.467,19.118439
1426798935.482,27.759674
1426798935.498,35.935333
1426798935.513,43.64792
1426798935.529,51.408783
1426798935.545,60.05542
1426798935.56,70.09515
1426798935.576,81.54819
1426798935.592,93.77521
1426798935.607,105.96521
1426798935.623,117.41858
1426798935.638,127.82553
1426798935.654,137.22983
1426798935.67,145.56207
1426798935.685,152.31921
1426798935.701,156.43198
1426798935.717,156.60757
1426798935.732,151.73807
1426798935.748,141.5203
1426798935.763,126.58249
1426798935.779,108.201904
1426798935.795,87.8501
1426798935.81,66.53595
1426798935.826,44.60605
1426798935.842,21.746826
1426798935.857,-2.4349365
1426798935.873,-28.03366
1426798935.888,-54.406464
1426798935.904,-80.18326
1426798935.92,-103.67609
1426798935.935,-123.410736
1426798935.951,-138.68445
1426798935.967,-149.72424
1426798935.982,-157.58249
1426798935.998,-163.48029
1426798936.013,-168.26035
1426798936.029,-172.10117
1426798936.045,-174.5224
1426798936.06,-174.95105
1426798936.076,-173.29626
1426798936.092,-170.23077
1426798936.107,-166.86063
1426798936.123,-164.29056
1426798936.138,-162.80423
1426798936.154,-161.80606
1426798936.17,-159.97101
1426798936.185,-155.95816
1426798936.201,-149.11227
1426798936.217,-139.64676
1426798936.232,-128.36423
1426798936.248,-116.03235
1426798936.263,-102.96979
1426798936.279,-88.81946
1426798936.295,-72.897095
1426798936.31,-54.676636
1426798936.326,-34.18387
1426798936.342,-12.070038
1426798936.357,10.641937
1426798936.373,32.93631
1426798936.388,54.14731
1426798936.404,73.858
1426798936.42,91.87952
1426798936.435,107.85971
1426798936.451,121.20822
1426798936.467,131.15863
1426798936.482,137.01727
1426798936.498,138.39557
1426798936.513,135.4638
1426798936.529,128.86969
1426798936.545,119.55344
1426798936.56,108.615234
1426798936.576,96.88818
1426798936.592,84.982544
1426798936.607,73.37277
1426798936.623,62.45761
1426798936.638,52.86566
1426798936.654,45.32553
1426798936.67,40.611755
1426798936.685,39.190918
1426798936.701,40.930023
1426798936.717,44.875366
1426798936.732,49.52484
1426798936.748,53.38971
1426798936.763,55.66272
1426798936.779,56.735962
1426798936.795,57.925476
1426798936.81,60.68979
1426798936.826,65.347565
1426798936.842,70.34219
1426798936.857,72.35419
1426798936.873,67.577515
1426798936.888,53.643066
1426798936.904,30.862
1426798936.92,2.4024353
1426798936.935,-27.15387
1426798936.951,-53.74893
1426798936.967,-75.42081
1426798936.982,-92.381226
1426798936.998,-105.92847
1426798937.013,-116.860596
1426798937.029,-124.62161
1426798937.045,-127.72977
1426798937.06,-125.04343
1426798937.076,-116.97949
1426798937.092,-105.72778
1426798937.107,-94.23633
1426798937.123,-84.8674
1426798937.138,-78.182526
1426798937.154,-73.048584
1426798937.17,-67.53552
1426798937.185,-60.15518
1426798937.201,-50.717285
1426798937.217,-40.50717
1426798937.232,-31.613708
1426798937.248,-26.24759
1426798937.263,-25.92633
1426798937.279,-31.018616
1426798937.295,-40.626526
1426798937.31,-52.76364
1426798937.326,-64.82895
1426798937.342,-74.25662
1426798937.357,-79.251495
1426798937.373,-79.20752
1426798937.388,-74.79715
1426798937.404,-67.586914
1426798937.42,-59.532257
1426798937.435,-52.48581
1426798937.451,-47.953888
1426798937.467,-46.73105
1426798937.482,-48.699585
1426798937.498,-52.812744
1426798937.513,-57.23535
1426798937.529,-59.984894
1426798937.545,-59.625732
1426798937.56,-55.85721
1426798937.576,-49.53076
1426798937.592,-42.22815
1426798937.607,-35.359344
1426798937.623,-29.57785
1426798937.638,-24.52185
1426798937.654,-19.014069
1426798937.67,-11.680115
1426798937.685,-1.3868713
1426798937.701,12.43808
1426798937.717,29.673523
1426798937.732,49.683502
1426798937.748,71.298615
1426798937.763,92.991455
1426798937.779,112.96921
1426798937.795,129.54758
1426798937.81,141.33377
1426798937.826,147.57262
1426798937.842,148.32199
1426798937.857,144.28171
1426798937.873,136.6267
1426798937.888,126.60614
1426798937.904,115.20671
1426798937.92,102.951416
1426798937.935,89.954865
1426798937.951,76.1624
1426798937.967,61.489273
1426798937.982,46.22159
1426798937.998,30.981628
1426798938.014,16.718903
1426798938.029,4.4419403
1426798938.045,-5.020584
1426798938.06,-11.217834
1426798938.076,-14.177811
1426798938.092,-14.41275
1426798938.107,-12.788574
1426798938.123,-10.331512
1426798938.139,-8.093323
1426798938.154,-6.924011
1426798938.17,-7.389679
1426798938.185,-9.737747
1426798938.201,-13.856934
1426798938.217,-19.481262
1426798938.232,-26.266296
1426798938.248,-33.884872
1426798938.264,-42.064804
1426798938.279,-50.49089
1426798938.295,-58.631683
1426798938.31,-65.72612
1426798938.326,-70.741806
1426798938.342,-72.60104
1426798938.357,-70.519684
1426798938.373,-64.248764
1426798938.389,-54.13826
1426798938.404,-41.02417
1426798938.42,-25.814308
1426798938.435,-9.348145
1426798938.451,7.803093
1426798938.467,25.126923
1426798938.482,42.01174
1426798938.498,57.66771
1426798938.514,71.28304
1426798938.529,82.359184
1426798938.545,90.87155
1426798938.56,97.25842
1426798938.576,102.15599
1426798938.592,105.92866
1426798938.607,108.37964
1426798938.623,108.914635
1426798938.639,106.67462
1426798938.654,101.06497
1426798938.67,92.0685
1426798938.685,80.2567
1426798938.701,66.57246
1426798938.717,51.9841
1426798938.732,37.16185
1426798938.748,22.315056
1426798938.764,7.2918625
1426798938.779,-8.179344
1426798938.795,-24.127113
1426798938.81,-40.180786
1426798938.826,-55.495956
1426798938.842,-69.01844
1426798938.857,-79.66673
1426798938.873,-86.7335
1426798938.889,-89.910255
1426798938.904,-89.30081
1426798938.92,-85.26133
1426798938.935,-78.34624
1426798938.951,-69.12915
1426798938.967,-58.35154
1426798938.982,-46.85595
1426798938.998,-35.503258
1426798939.014,-25.050781
1426798939.029,-15.879814
1426798939.045,-7.8954926
1426798939.06,-0.6422043
1426798939.076,6.3956375
1426798939.092,13.590149
1426798939.107,20.774292
1426798939.123,27.343147
1426798939.139,32.61828
1426798939.154,36.168755
1426798939.17,38.143112
1426798939.185,39.227554
1426798939.201,40.405624
1426798939.217,42.462326
1426798939.232,45.704857
1426798939.248,49.968628
1426798939.264,54.848526
1426798939.279,59.988747
1426798939.295,65.3347
1426798939.31,70.93765
1426798939.326,76.65925
1426798939.342,81.89126
1426798939.357,85.53344
1426798939.373,86.285736
1426798939.389,83.128174
1426798939.404,75.78603
1426798939.42,64.91246
1426798939.435,51.837868
1426798939.451,38.04904
1426798939.467,24.71257
1426798939.482,12.325249
1426798939.498,0.6903534
1426798939.514,-10.729141
1426798939.529,-22.338318
1426798939.545,-34.10086
1426798939.56,-45.3655
1426798939.576,-55.120903
1426798939.592,-62.459526
1426798939.607,-66.939545
1426798939.623,-68.85339
1426798939.639,-69.05113
1426798939.654,-68.549965
1426798939.67,-67.96713
1426798939.685,-67.378654
1426798939.701,-66.34656
1426798939.717,-64.28052
1426798939.732,-60.94789
1426798939.748,-56.71025
1426798939.764,-52.344116
1426798939.779,-48.73581
1426798939.795,-46.209503
1426798939.81,-44.371338
1426798939.826,-42.211533
1426798939.842,-38.62471
1426798939.857,-33.06302
1426798939.873,-25.790024
1426798939.889,-17.792389
1426798939.904,-10.261108
1426798939.92,-3.9623413
1426798939.935,1.1746826
1426798939.951,5.902817
1426798939.967,11.209076
1426798939.982,17.760956
1426798939.998,25.567337
1426798940.014,34.128784
1426798940.029,42.701874
1426798940.045,50.72908
1426798940.06,57.94699
1426798940.076,64.32817
1426798940.092,69.64865
1426798940.107,73.342285
1426798940.123,74.47635
1426798940.139,72.15506
1426798940.154,65.92114
1426798940.17,55.99768
1426798940.185,43.419647
1426798940.201,29.680756
1426798940.217,16.147491
1426798940.232,3.6372528
1426798940.248,-7.7324677
1426798940.264,-18.368164
1426798940.279,-28.79918
1426798940.295,-39.035706
1426798940.31,-48.531998
1426798940.326,-56.241425
1426798940.342,-61.12599
1426798940.357,-62.827805
1426798940.373,-61.939117
1426798940.389,-59.66327
1426798940.404,-57.41304
1426798940.42,-56.04785
1426798940.435,-55.463135
1426798940.451,-54.859512
1426798940.467,-53.237762
1426798940.482,-49.96736
1426798940.498,-45.325363
1426798940.514,-40.159805
1426798940.529,-35.449417
1426798940.545,-31.775818
1426798940.56,-28.922913
1426798940.576,-26.047256
1426798940.592,-22.178772
1426798940.607,-16.733017
1426798940.623,-9.854416
1426798940.639,-2.3907166
1426798940.654,4.6237946
1426798940.67,10.513397
1426798940.686,15.179001
1426798940.701,19.216469
1426798940.717,23.576767
1426798940.732,29.050728
1426798940.748,35.908234
1426798940.764,43.810715
1426798940.779,51.9768
1426798940.795,59.575676
1426798940.811,66.00868
1426798940.826,70.994576
1426798940.842,74.4339
1426798940.857,76.25483
1426798940.873,76.08614
1426798940.889,73.39414
1426798940.904,67.68317
1426798940.92,58.76545
1426798940.936,47.11364
1426798940.951,33.755814
1426798940.967,19.960968
1426798940.982,6.8312454
1426798940.998,-5.107956
1426798941.014,-15.890961
1426798941.029,-25.833122
1426798941.045,-35.203636
1426798941.061,-43.833763
1426798941.076,-51.10739
1426798941.092,-56.324493
1426798941.107,-59.04458
1426798941.123,-59.33895
1426798941.139,-57.847572
1426798941.154,-55.490715
1426798941.17,-52.992393
1426798941.186,-50.675545
1426798941.201,-48.342705
1426798941.217,-45.60565
1426798941.232,-42.11683
1426798941.248,-37.830208
1426798941.264,-33.04541
1426798941.279,-28.165802
1426798941.295,-23.511986
1426798941.311,-19.04644
1426798941.326,-14.383972
1426798941.342,-9.029556
1426798941.357,-2.664032
1426798941.373,4.6156616
1426798941.389,12.196823
1426798941.404,19.262985
1426798941.42,25.119255
1426798941.436,29.70472
1426798941.451,33.63949
1426798941.467,37.95864
1426798941.482,43.639145
1426798941.498,50.941185
1426798941.514,59.286438
1426798941.529,67.39218
1426798941.545,73.76801
1426798941.561,77.20272
1426798941.576,77.27487
1426798941.592,74.24619
1426798941.607,68.76946
1426798941.623,61.55613
1426798941.639,53.000816
1426798941.654,43.193672
1426798941.67,32.117706
1426798941.686,19.832184
1426798941.701,6.6965866
1426798941.717,-6.579796
1426798941.732,-19.166336
1426798941.748,-30.432213
1426798941.764,-40.059525
1426798941.779,-48.12673
1426798941.795,-54.870712
1426798941.811,-60.384758
1426798941.826,-64.43001
1426798941.842,-66.60612
1426798941.857,-66.559555
1426798941.873,-64.39203
1426798941.889,-60.763107
1426798941.904,-56.60508
1426798941.92,-52.809067
1426798941.936,-49.78923
1426798941.951,-47.339752
1426798941.967,-44.81349
1426798941.982,-41.498215
1426798941.998,-37.044052
1426798942.014,-31.538643
1426798942.029,-25.481544
1426798942.045,-19.36229
1426798942.061,-13.520424
1426798942.076,-7.97937
1426798942.092,-2.48674
1426798942.107,3.2136765
1426798942.123,9.267868
1426798942.139,15.540665
1426798942.154,21.708595
1426798942.17,27.449799
1426798942.186,32.71881
1426798942.201,37.796463
1426798942.217,43.239212
1426798942.232,49.717514
1426798942.248,57.42724
1426798942.264,65.873
1426798942.279,73.84644
1426798942.295,79.75055
1426798942.311,82.15717
1426798942.326,80.43138
1426798942.342,74.79427
1426798942.357,66.28336
1426798942.373,56.14628
1426798942.389,45.25689
1426798942.404,33.86438
1426798942.42,21.747559
1426798942.436,8.637581
1426798942.451,-5.3012466
1426798942.467,-19.277626
1426798942.482,-32.07914
1426798942.498,-42.603966
1426798942.514,-50.363922
1426798942.529,-55.567436
1426798942.545,-58.958252
1426798942.561,-61.273598
1426798942.576,-62.840332
1426798942.592,-63.4768
1426798942.607,-62.69468
1426798942.623,-60.18888
1426798942.639,-56.1735
1426798942.654,-51.46673
1426798942.67,-47.08538
1426798942.686,-43.79857
1426798942.701,-41.671127
1426798942.717,-40.147987
1426798942.732,-38.272324
1426798942.748,-35.211708
1426798942.764,-30.682377
1426798942.779,-25.099674
1426798942.795,-19.247105
1426798942.811,-13.82748
1426798942.826,-9.052628
1426798942.842,-4.611084
1426798942.857,0.14764404
1426798942.873,5.7391167
1426798942.889,12.309708
1426798942.904,19.556114
1426798942.92,26.993374
1426798942.936,34.20686
1426798942.951,41.199284
1426798942.967,48.348385
1426798942.982,56.188835
1426798942.998,65.0439
1426798943.014,74.48477
1426798943.029,83.34813
1426798943.045,89.99338
1426798943.061,92.85281
1426798943.076,91.035194
1426798943.092,84.69672
1426798943.107,74.84726
1426798943.123,62.87262
1426798943.139,49.918575
1426798943.154,36.49487
1426798943.17,22.699997
1426798943.186,8.46748
1426798943.201,-5.894146
1426798943.217,-19.67958
1426798943.232,-31.899586
1426798943.248,-41.84069
1426798943.264,-49.204624
1426798943.279,-54.30334
1426798943.295,-57.69894
1426798943.311,-59.820347
1426798943.326,-60.781784
1426798943.342,-60.3386
1426798943.358,-58.13512
1426798943.373,-54.034786
1426798943.389,-48.351254
1426798943.404,-41.799118
1426798943.42,-35.22784
1426798943.436,-29.374027
1426798943.451,-24.453716
1426798943.467,-20.230484
1426798943.483,-16.101986
1426798943.498,-11.436363
1426798943.514,-5.896248
1426798943.529,0.37900162
1426798943.545,6.9275284
1426798943.561,13.25642
1426798943.576,19.064266
1426798943.592,24.474201
1426798943.608,29.88478
1426798943.623,35.7262
1426798943.639,42.133877
1426798943.654,48.733006
1426798943.67,54.815807
1426798943.686,59.648735
1426798943.701,62.9443
1426798943.717,65.06641
1426798943.733,66.96065
1426798943.748,69.68768
1426798943.764,73.884026
1426798943.779,79.27347
1426798943.795,84.60851
1426798943.811,88.11648
1426798943.826,88.13706
1426798943.842,83.69978
1426798943.858,74.92473
1426798943.873,62.76812
1426798943.889,48.62519
1426798943.904,33.800507
1426798943.92,19.163506
1426798943.936,5.070671
1426798943.951,-8.362953
1426798943.967,-21.029915
1426798943.983,-32.584373
1426798943.998,-42.5466
1426798944.014,-50.455437
1426798944.029,-56.140053
1426798944.045,-59.816147
1426798944.061,-62.018005
1426798944.076,-63.35505
1426798944.092,-64.28118
1426798944.108,-64.87086
1426798944.123,-64.940956
1426798944.139,-64.29954
1426798944.154,-62.97088
1426798944.17,-61.335068
1426798944.186,-59.981094
1426798944.201,-59.48256
1426798944.217,-60.00711
1426798944.233,-61.217255
1426798944.248,-62.278725
1426798944.264,-62.191383
1426798944.279,-60.281517
1426798944.295,-56.460274
1426798944.311,-51.145943
1426798944.326,-44.949745
1426798944.342,-38.364876
1426798944.358,-31.353653
1426798944.373,-23.625046
1426798944.389,-14.826088
1426798944.404,-5.148918
1426798944.42,4.57283
1426798944.436,13.058319
1426798944.451,19.168327
1426798944.467,22.642387
1426798944.483,24.382439
1426798944.498,26.215714
1426798944.514,29.910782
1426798944.529,36.402542
1426798944.545,45.174515
1426798944.561,54.447327
1426798944.576,62.04312
1426798944.592,66.26813
1426798944.608,66.65142
1426798944.623,63.909515
1426798944.639,59.32055
1426798944.654,53.723953
1426798944.67,47.116196
1426798944.686,38.786972
1426798944.701,27.923233
1426798944.717,14.389114
1426798944.733,-0.9097824
1426798944.748,-16.295555
1426798944.764,-29.888474
1426798944.779,-40.546677
1426798944.795,-48.269264
1426798944.811,-53.993446
1426798944.826,-58.894073
1426798944.842,-63.654938
1426798944.858,-67.84044
1426798944.873,-70.249306
1426798944.889,-69.435265
1426798944.904,-64.70823
1426798944.92,-56.6448
1426798944.936,-47.014633
1426798944.951,-38.00466
1426798944.967,-31.240372
1426798944.983,-27.100105
1426798944.998,-24.607498
1426798945.014,-22.158676
1426798945.029,-18.444649
1426798945.045,-13.051697
1426798945.061,-6.6335144
1426798945.076,-0.2907257
1426798945.092,5.1290283
1426798945.108,9.589447
1426798945.123,13.740265
1426798945.139,18.477173
1426798945.154,24.186714
1426798945.17,30.522423
1426798945.186,36.643326
1426798945.201,41.78531
1426798945.217,45.86972
1426798945.233,49.65886
1426798945.248,54.388283
1426798945.264,61.042618
1426798945.279,69.57389
1426798945.295,78.667114
1426798945.311,86.10379
1426798945.326,89.735146
1426798945.342,88.22906
1426798945.358,81.72837
1426798945.373,71.58984
1426798945.389,59.7325
1426798945.404,47.738922
1426798945.42,36.291756
1426798945.436,25.103264
1426798945.451,13.389214
1426798945.467,0.6059265
1426798945.483,-13.056
1426798945.498,-26.543663
1426798945.514,-38.407883
1426798945.529,-47.454033
1426798945.545,-53.414154
1426798945.561,-56.925888
1426798945.576,-59.1614
1426798945.592,-61.208252
1426798945.608,-63.212547
1426798945.623,-64.52854
1426798945.639,-63.955864
1426798945.654,-60.738487
1426798945.67,-55.039238
1426798945.686,-48.107025
1426798945.701,-41.648415
1426798945.717,-36.97814
1426798945.733,-34.397713
1426798945.748,-33.030205
1426798945.764,-31.302933
1426798945.779,-27.843643
1426798945.795,-22.180222
1426798945.811,-14.881058
1426798945.826,-7.16584
1426798945.842,-0.2644577
1426798945.858,5.385933
1426798945.873,10.031837
1426798945.889,14.547226
1426798945.904,19.810623
1426798945.92,26.224228
1426798945.936,33.573433
1426798945.951,41.256966
1426798945.967,48.710022
1426798945.983,55.78942
1426798945.998,62.796844
1426798946.014,69.97323
1426798946.03,77.22218
1426798946.045,83.67447
1426798946.061,87.84895
1426798946.076,88.30151
1426798946.092,84.11238
1426798946.108,75.50627
1426798946.123,63.666
1426798946.139,50.327454
1426798946.154,36.98584
1426798946.17,24.3629
1426798946.186,12.284409
1426798946.201,0.0021820068
1426798946.217,-13.119247
1426798946.233,-26.999542
1426798946.248,-40.738785
1426798946.264,-52.847412
1426798946.28,-61.93019
1426798946.295,-67.34961
1426798946.311,-69.457016
1426798946.326,-69.3557
1426798946.342,-68.43327
1426798946.358,-67.47995
1426798946.373,-66.488525
1426798946.389,-64.768234
1426798946.405,-61.50705
1426798946.42,-56.4588
1426798946.436,-50.236694
1426798946.451,-44.094025
1426798946.467,-39.295868
1426798946.483,-36.471573
1426798946.498,-35.13176
1426798946.514,-33.991333
1426798946.53,-31.613419
1426798946.545,-27.083511
1426798946.561,-20.556564
1426798946.576,-12.956268
1426798946.592,-5.5055084
1426798946.608,1.0949707
1426798946.623,6.909836
1426798946.639,12.729248
1426798946.655,19.549225
1426798946.67,27.88916
1426798946.686,37.515427
1426798946.701,47.5168
1426798946.717,56.831543
1426798946.733,64.75906
1426798946.748,71.24284
1426798946.764,76.643234
1426798946.78,81.27817
1426798946.795,84.897354
1426798946.811,86.52492
1426798946.826,84.90303
1426798946.842,79.00839
1426798946.858,68.80907
1426798946.873,55.314743
1426798946.889,40.343613
1426798946.905,25.710922
1426798946.92,12.56929
1426798946.936,0.99697876
1426798946.951,-9.700958
1426798946.967,-20.44806
1426798946.983,-31.722778
1426798946.998,-43.104996
1426798947.014,-53.488434
1426798947.03,-61.572937
1426798947.045,-66.55768
1426798947.061,-68.58925
1426798947.076,-68.603195
1426798947.092,-67.87071
1426798947.108,-67.27104
1426798947.123,-66.90517
1426798947.139,-66.14142
1426798947.155,-64.098145
1426798947.17,-60.266037
1426798947.186,-54.92195
1426798947.201,-48.939346
1426798947.217,-43.396423
1426798947.233,-38.932907
1426798947.248,-35.41893
1426798947.264,-31.971802
1426798947.28,-27.48877
1426798947.295,-21.198776
1426798947.311,-13.197891
1426798947.326,-4.3702393
1426798947.342,4.021591
1426798947.358,11.004608
1426798947.373,16.311386
1426798947.389,20.569168
1426798947.405,24.926865
1426798947.42,30.43837
1426798947.436,37.434998
1426798947.451,45.44551
1426798947.467,53.439575
1426798947.483,60.442917
1426798947.498,66.00839
1426798947.514,70.31491
1426798947.53,73.79205
1426798947.545,76.65488
1426798947.561,78.35242
1426798947.576,77.74226
1426798947.592,73.57033
1426798947.608,65.217224
1426798947.623,53.13498
1426798947.639,38.762344
1426798947.655,23.984375
1426798947.67,10.366211
1426798947.686,-1.5341492
1426798947.701,-12.162674
1426798947.717,-22.49495
1426798947.733,-33.263184
1426798947.748,-44.348557
1426798947.764,-54.76111
1426798947.78,-63.05571
1426798947.795,-67.94827
1426798947.811,-69.070816
1426798947.826,-67.19505
1426798947.842,-63.81981
1426798947.858,-60.481735
1426798947.873,-57.972427
1426798947.889,-56.087555
1426798947.905,-53.92865
1426798947.92,-50.49115
1426798947.936,-45.408844
1426798947.951,-39.158005
1426798947.967,-32.898743
1426798947.983,-27.743652
1426798947.998,-24.09645
1426798948.014,-21.374435
1426798948.03,-18.383118
1426798948.045,-13.903381
1426798948.061,-7.471878
1426798948.076,0.38694763
1426798948.092,8.41214
1426798948.108,15.290955
1426798948.123,20.412476
1426798948.139,24.186935
1426798948.155,27.81157
1426798948.17,32.661774
1426798948.186,39.475372
1426798948.201,48.031708
1426798948.217,57.250107
1426798948.233,65.763
1426798948.248,72.52881
1426798948.264,77.21051
1426798948.28,79.921814
1426798948.295,80.934204
1426798948.311,80.1302
1426798948.326,76.92862
1426798948.342,70.61243
1426798948.358,60.81888
1426798948.373,47.96701
1426798948.389,33.291473
1426798948.405,18.421036
1426798948.42,4.792694
1426798948.436,-7.02005
1426798948.451,-17.27983
1426798948.467,-26.883377
1426798948.483,-36.62216
1426798948.498,-46.676865
1426798948.514,-56.3416
1426798948.53,-64.38254
1426798948.545,-69.55609
1426798948.561,-71.31746
1426798948.576,-70.1055
1426798948.592,-67.14317
1426798948.608,-63.82988
1426798948.623,-61.126434
1426798948.639,-59.095627
1426798948.655,-57.08322
1426798948.67,-54.153473
1426798948.686,-49.76866
1426798948.701,-44.152435
1426798948.717,-38.1808
1426798948.733,-32.80075
1426798948.748,-28.479355
1426798948.764,-24.897308
1426798948.78,-21.157806
1426798948.795,-16.30223
1426798948.811,-9.922562
1426798948.826,-2.4359283
1426798948.842,5.0654297
1426798948.858,11.415085
1426798948.873,16.010452
1426798948.889,19.135452
1426798948.905,21.711197
1426798948.92,24.988297
1426798948.936,29.808548
1426798948.952,36.334595
1426798948.967,44.029846
1426798948.983,51.9543
1426798948.998,59.133133
1426798949.014,65.02721
1426798949.03,69.38458
1426798949.045,72.23567
1426798949.061,73.44368
1426798949.077,72.571365
1426798949.092,68.88289
1426798949.108,61.732773
1426798949.123,50.95845
1426798949.139,37.223465
1426798949.155,21.966156
1426798949.17,6.9616547
1426798949.186,-6.3084106
1426798949.202,-17.229843
1426798949.217,-26.155975
1426798949.233,-34.056854
1426798949.248,-41.793884
1426798949.264,-49.56906
1426798949.28,-56.674347
1426798949.295,-61.892685
1426798949.311,-64.269684
1426798949.327,-63.67891
1426798949.342,-60.995758
1426798949.358,-57.646896
1426798949.373,-54.921432
1426798949.389,-53.142715
1426798949.405,-51.72986
1426798949.42,-49.553696
1426798949.436,-45.63997
1426798949.452,-39.95529
1426798949.467,-33.38719
1426798949.483,-27.264313
1426798949.498,-22.650269
1426798949.514,-19.678558
1426798949.53,-17.528748
1426798949.545,-14.8871765
1426798949.561,-10.6884
1426798949.577,-4.7132416
1426798949.592,2.291748
1426798949.608,9.080215
1426798949.623,14.592102
1426798949.639,18.519745
1426798949.655,21.47847
1426798949.67,24.741241
1426798949.686,29.54863
1426798949.702,36.52153
1426798949.717,45.343414
1426798949.733,54.925903
1426798949.748,63.91754
1426798949.764,71.21611
1426798949.78,76.35472
1426798949.795,79.33124
1426798949.811,80.34207
1426798949.827,79.32727
1426798949.842,75.807785
1426798949.858,69.18288
1426798949.873,59.034546
1426798949.889,45.68103
1426798949.905,30.262924
1426798949.92,14.499374
1426798949.936,0.065979004
1426798949.952,-12.120422
1426798949.967,-22.099335
1426798949.983,-30.696701
1426798949.998,-38.881653
1426798950.014,-47.11241
1426798950.03,-54.88687
1426798950.045,-61.101578
1426798950.061,-64.565155
1426798950.077,-64.80191
1426798950.092,-62.41089
1426798950.108,-58.773056
1426798950.123,-55.339134
1426798950.139,-52.887146
1426798950.155,-51.277916
1426798950.17,-49.556488
1426798950.186,-46.8208
1426798950.202,-42.707985
1426798950.217,-37.72902
1426798950.233,-32.86341
1426798950.248,-28.998322
1426798950.264,-26.377106
1426798950.28,-24.33786
1426798950.295,-21.744476
1426798950.311,-17.533997
1426798950.327,-11.421623
1426798950.342,-4.0148697
1426798950.358,3.5206146
1426798950.373,10.074654
1426798950.389,15.291199
1426798950.405,19.696945
1426798950.42,24.574745
1426798950.436,31.186844
1426798950.452,40.070396
1426798950.467,50.69683
1426798950.483,61.631042
1426798950.498,71.13216
1426798950.514,77.757965
1426798950.53,80.88416
1426798950.545,80.703606
1426798950.561,77.8701
1426798950.577,72.99668
1426798950.592,66.28481
1426798950.608,57.553337
1426798950.623,46.51406
1426798950.639,33.29895
1426798950.655,18.62239
1426798950.67,3.7983093
1426798950.686,-9.704895
1426798950.702,-20.894875
1426798950.717,-29.598114
1426798950.733,-36.384605
1426798950.748,-42.19731
1426798950.764,-47.658257
1426798950.78,-52.648598
1426798950.795,-56.433044
1426798950.811,-58.040337
1426798950.827,-56.996704
1426798950.842,-53.765465
1426798950.858,-49.551407
1426798950.873,-45.72676
1426798950.889,-43.19185
1426798950.905,-41.931633
1426798950.92,-41.060837
1426798950.936,-39.44674
1426798950.952,-36.356125
1426798950.967,-31.864586
1426798950.983,-26.722778
1426798950.998,-21.887177
1426798951.014,-17.854141
1426798951.03,-14.442253
1426798951.045,-10.84523
1426798951.061,-6.1687393
1426798951.077,0.13479614
1426798951.092,7.7662506
1426798951.108,15.831108
1426798951.123,23.255875
1426798951.139,29.333557
1426798951.155,34.12464
1426798951.17,38.39489
1426798951.186,43.27823
1426798951.202,49.540527
1426798951.217,57.18921
1426798951.233,65.361824
1426798951.248,72.64377
1426798951.264,77.61383
1426798951.28,79.46869
1426798951.295,78.20787
1426798951.311,74.42522
1426798951.327,68.89748
1426798951.342,62.002953
1426798951.358,53.620995
1426798951.373,43.331924
1426798951.389,30.928024
1426798951.405,16.744026
1426798951.42,1.8268585
1426798951.436,-12.475052
1426798951.452,-24.975456
1426798951.467,-35.243515
1426798951.483,-43.551693
1426798951.498,-50.61008
1426798951.514,-56.994373
1426798951.53,-62.719044
1426798951.545,-67.149315
1426798951.561,-69.36068
1426798951.577,-68.629456
1426798951.592,-65.041214
1426798951.608,-59.57933
1426798951.624,-53.701332
1426798951.639,-48.73615
1426798951.655,-45.338577
1426798951.67,-43.188644
1426798951.686,-41.303688
1426798951.702,-38.653675
1426798951.717,-34.81342
1426798951.733,-30.1344
1426798951.749,-25.426975
1426798951.764,-21.40997
1426798951.78,-18.233997
1426798951.795,-15.274334
1426798951.811,-11.500336
1426798951.827,-6.0712013
1426798951.842,1.1526642
1426798951.858,9.495544
1426798951.874,17.769127
1426798951.889,24.8978
1426798951.905,30.513351
1426798951.92,35.10702
1426798951.936,39.777798
1426798951.952,45.729774
1426798951.967,53.44662
1426798951.983,62.569534
1426798951.999,71.819595
1426798952.014,79.65698
1426798952.03,84.86903
1426798952.045,86.98711
1426798952.061,86.29103
1426798952.077,83.41725
1426798952.092,78.78062
1426798952.108,72.229904
1426798952.124,63.20732
1426798952.139,51.26291
1426798952.155,36.495564
1426798952.17,19.895554
1426798952.186,3.0636444
1426798952.202,-12.302128
1426798952.217,-25.201542
1426798952.233,-35.61387
1426798952.249,-44.31253
1426798952.264,-52.22536
1426798952.28,-59.79533
1426798952.295,-66.56865
1426798952.311,-71.467026
1426798952.327,-73.3566
1426798952.342,-71.81907
1426798952.358,-67.48742
1426798952.374,-61.82425
1426798952.389,-56.540634
1426798952.405,-52.75785
1426798952.42,-50.586624
1426798952.436,-49.180664
1426798952.452,-47.269825
1426798952.467,-43.96673
1426798952.483,-39.14093
1426798952.499,-33.488056
1426798952.514,-28.047972
1426798952.53,-23.531069
1426798952.545,-19.905703
1426798952.561,-16.414415
1426798952.577,-11.947889
1426798952.592,-5.850754
1426798952.608,1.62924
1426798952.624,9.373316
1426798952.639,16.022972
1426798952.655,20.695745
1426798952.67,23.54208
1426798952.686,25.737675
1426798952.702,28.892979
1426798952.717,34.24172
1426798952.733,41.916496
1426798952.749,51.00817
1426798952.764,60.00631
1426798952.78,67.490944
1426798952.795,72.809494
1426798952.811,75.976395
1426798952.827,77.38149
1426798952.842,77.15617
1426798952.858,74.951225
1426798952.874,69.92514
1426798952.889,61.338005
1426798952.905,49.13419
1426798952.92,34.164116
1426798952.936,18.061314
1426798952.952,2.6395712
1426798952.967,-10.840314
1426798952.983,-22.056938
1426798952.999,-31.548656
1426798953.014,-40.16322
1426798953.03,-48.396534
1426798953.045,-55.916546
1426798953.061,-61.756893
1426798953.077,-64.7905
1426798953.092,-64.42185
1426798953.108,-61.101795
1426798953.124,-56.13328
1426798953.139,-51.07071
1426798953.155,-47.03537
1426798953.17,-44.24937
1426798953.186,-42.04753
1426798953.202,-39.43179
1426798953.217,-35.718983
1426798953.233,-30.982582
1426798953.249,-26.003311
1426798953.264,-21.691141
1426798953.28,-18.620764
1426798953.295,-16.52547
1426798953.311,-14.500188
1426798953.327,-11.338858
1426798953.342,-6.3944798
1426798953.358,0.21185493
1426798953.374,7.542673
1426798953.389,14.338866
1426798953.405,19.655685
1426798953.42,23.429344
1426798953.436,26.41849
1426798953.452,29.818073
1426798953.467,34.66774
1426798953.483,41.29807
1426798953.499,49.177544
1426798953.514,57.181812
1426798953.53,64.05095
1426798953.545,68.89076
1426798953.561,71.42674
1426798953.577,71.86739
1426798953.592,70.53262
1426798953.608,67.49167
1426798953.624,62.409
1426798953.639,54.799294
1426798953.655,44.45498
1426798953.67,31.792696
1426798953.686,17.888346
1426798953.702,4.235817
1426798953.717,-7.877939
1426798953.733,-17.882832
1426798953.749,-26.053804
1426798953.764,-33.16011
1426798953.78,-39.935158
1426798953.795,-46.453735
1426798953.811,-52.062813
1426798953.827,-55.69812
1426798953.842,-56.52841
1426798953.858,-54.560207
1426798953.874,-50.721523
1426798953.889,-46.51657
1426798953.905,-43.33027
1426798953.92,-41.772423
1426798953.936,-41.433407
1426798953.952,-41.158184
1426798953.967,-39.743725
1426798953.983,-36.558372
1426798953.999,-31.887058
1426798954.014,-26.60114
1426798954.03,-21.759258
1426798954.045,-17.802876
1426798954.061,-14.361488
1426798954.077,-10.485626
1426798954.092,-5.2085342
1426798954.108,1.7841034
1426798954.124,9.89254
1426798954.139,17.846172
1426798954.155,24.326126
1426798954.17,28.681576
1426798954.186,31.261963
1426798954.202,33.305626
1426798954.217,36.21461
1426798954.233,40.959538
1426798954.249,47.55028
1426798954.264,55.159874
1426798954.28,62.539474
1426798954.296,68.502945
1426798954.311,72.4648
1426798954.327,74.37918
1426798954.342,74.5453
1426798954.358,73.0671
1426798954.374,69.67574
1426798954.389,63.748074
1426798954.405,54.646626
1426798954.421,42.33964
1426798954.436,27.685242
1426798954.452,12.244122
1426798954.467,-2.2343903
1426798954.483,-14.540173
1426798954.499,-24.529861
1426798954.514,-32.83692
1426798954.53,-40.463478
1426798954.546,-47.996258
1426798954.561,-55.13131
1426798954.577,-60.81128
1426798954.592,-63.830166
1426798954.608,-63.58983
1426798954.624,-60.56482
1426798954.639,-56.05683
1426798954.655,-51.61305
1426798954.671,-48.26825
1426798954.686,-46.1357
1426798954.702,-44.348415
1426798954.717,-41.779823
1426798954.733,-37.653206
1426798954.749,-32.058746
1426798954.764,-25.906113
1426798954.78,-20.380135
1426798954.796,-16.202274
1426798954.811,-13.168213
1426798954.827,-10.328754
1426798954.842,-6.397442
1426798954.858,-0.60240936
1426798954.874,6.812813
1426798954.889,14.796173
1426798954.905,21.984795
1426798954.921,27.442745
1426798954.936,31.248428
1426798954.952,34.44879
1426798954.967,38.50918
1426798954.983,44.59761
1426798954.999,52.87203
1426798955.014,62.332375
1426798955.03,71.283104
1426798955.046,78.012
1426798955.061,81.349594
1426798955.077,81.150795
1426798955.092,77.98061
1426798955.108,72.67905
1426798955.124,65.79686
1426798955.139,57.319817
1426798955.155,46.831177
1426798955.171,34.058872
1426798955.186,19.35414
1426798955.202,3.8450603
1426798955.217,-10.918512
1426798955.233,-23.594555
1426798955.249,-33.66913
1426798955.264,-41.43672
1426798955.28,-47.82476
1426798955.296,-53.6535
1426798955.311,-59.036423
1426798955.327,-63.368732
1426798955.342,-65.68763
1426798955.358,-65.21307
1426798955.374,-62.03431
1426798955.389,-57.09783
1426798955.405,-51.78293
1426798955.421,-47.314766
1426798955.436,-44.19574
1426798955.452,-42.056274
1426798955.467,-39.94246
1426798955.483,-36.861195
1426798955.499,-32.3383
1426798955.514,-26.64611
1426798955.53,-20.59799
1426798955.546,-15.048682
1426798955.561,-10.463271
1426798955.577,-6.5857134
1426798955.592,-2.6815844
1426798955.608,2.030819
1426798955.624,7.8197584
1426798955.639,14.312509
1426798955.655,20.606678
1426798955.671,25.834488
1426798955.686,29.760452
1426798955.702,32.98015
1426798955.717,36.714363
1426798955.733,42.183235
1426798955.749,49.798912
1426798955.764,58.889988
1426798955.78,67.84972
1426798955.796,74.69712
1426798955.811,77.95131
1426798955.827,77.21291
1426798955.842,73.01702
1426798955.858,66.522705
1426798955.874,58.646893
1426798955.889,49.668564
1426798955.905,39.306583
1426798955.921,27.171286
1426798955.936,13.247733
1426798955.952,-1.728471
1426798955.967,-16.435566
1426798955.983,-29.481726
1426798955.999,-39.99389
1426798956.014,-47.979862
1426798956.03,-54.024162
1426798956.046,-58.881447
1426798956.061,-62.87617
1426798956.077,-65.71901
1426798956.092,-66.778305
1426798956.108,-65.4205
1426798956.124,-61.600098
1426798956.139,-55.989674
1426798956.155,-49.807438
1426798956.171,-44.301773
1426798956.186,-40.240017
1426798956.202,-37.526775
1426798956.217,-35.42324
1426798956.233,-32.917267
1426798956.249,-29.30138
1426798956.264,-24.536985
1426798956.28,-19.2487
1426798956.296,-14.282418
1426798956.311,-10.236632
1426798956.327,-6.9379807
1426798956.342,-3.6665077
1426798956.358,0.5846386
1426798956.374,6.373913
1426798956.389,13.451284
1426798956.405,20.948
1426798956.421,27.785057
1426798956.436,33.354095
1426798956.452,37.919533
1426798956.467,42.534973
1426798956.483,48.46763
1426798956.499,56.45579
1426798956.514,66.034615
1426798956.53,75.607086
1426798956.546,83.10326
1426798956.561,86.705444
1426798956.577,85.69369
1426798956.592,80.543304
1426798956.608,72.543396
1426798956.624,63.092773
1426798956.639,52.997894
1426798956.655,42.23635
1426798956.671,30.304289
1426798956.686,16.795094
1426798956.702,1.9943199
1426798956.717,-13.061707
1426798956.733,-26.870598
1426798956.749,-38.23849
1426798956.764,-46.67697
1426798956.78,-52.585484
1426798956.796,-56.827267
1426798956.811,-60.277813
1426798956.827,-63.160088
1426798956.842,-65.15306
1426798956.858,-65.545654
1426798956.874,-63.820362
1426798956.889,-60.184093
1426798956.905,-55.622753
1426798956.921,-51.424427
1426798956.936,-48.55531
1426798956.952,-47.191162
1426798956.968,-46.56532
1426798956.983,-45.4522
1426798956.999,-42.755592
1426798957.014,-38.150272
1426798957.03,-32.27941
1426798957.046,-26.237793
1426798957.061,-21.014023
1426798957.077,-16.793602
1426798957.092,-12.952953
1426798957.108,-8.364708
1426798957.124,-2.1206093
1426798957.139,5.8834724
1426798957.155,14.860802
1426798957.171,23.526123
1426798957.186,30.785423
1426798957.202,36.369316
1426798957.218,40.935623
1426798957.233,45.737675
1426798957.249,51.927273
1426798957.264,59.773697
1426798957.28,68.42984
1426798957.296,76.165825
1426798957.311,81.08156
1426798957.327,81.89566
1426798957.343,78.50168
1426798957.358,71.79074
1426798957.374,63.09957
1426798957.389,53.640205
1426798957.405,43.851593
1426798957.421,33.49472
1426798957.436,22.07071
1426798957.452,9.39489
1426798957.468,-4.055298
1426798957.483,-17.184143
1426798957.499,-28.744556
1426798957.514,-37.97089
1426798957.53,-44.845436
1426798957.546,-49.99144
1426798957.561,-54.289085
1426798957.577,-58.197968
1426798957.593,-61.59665
1426798957.608,-63.831833
1426798957.624,-64.11917
1426798957.639,-62.153038
1426798957.655,-58.386063
1426798957.671,-53.784958
1426798957.686,-49.455177
1426798957.702,-46.045486
1426798957.718,-43.467278
1426798957.733,-41.00316
1426798957.749,-37.71103
1426798957.764,-33.052017
1426798957.78,-27.111778
1426798957.796,-20.596634
1426798957.811,-14.412056
1426798957.827,-9.2000885
1426798957.843,-4.884407
1426798957.858,-0.81539154
1426798957.874,3.8503418
1426798957.889,9.628868
1426798957.905,16.285576
1426798957.921,23.072884
1426798957.936,29.137787
1426798957.952,34.176796
1426798957.968,38.694008
1426798957.983,43.814056
1426798957.999,50.661873
1426798958.014,59.568085
1426798958.03,69.61415
1426798958.046,78.83107
1426798958.061,84.95547
1426798958.077,86.46215
1426798958.093,83.111786
1426798958.108,75.920135
1426798958.124,66.545296
1426798958.139,56.386642
1426798958.155,45.962227
1426798958.171,34.983078
1426798958.186,22.810371
1426798958.202,9.142822
1426798958.218,-5.4892044
1426798958.233,-19.968384
1426798958.249,-32.951706
1426798958.264,-43.53122
1426798958.28,-51.55658
1426798958.296,-57.533607
1426798958.311,-62.151474
1426798958.327,-65.8826
1426798958.343,-68.63199
1426798958.358,-69.91362
1426798958.374,-69.20861
1426798958.389,-66.29974
1426798958.405,-61.64849
1426798958.421,-56.187134
1426798958.436,-51.06077
1426798958.452,-47.018356
1426798958.468,-44.152237
1426798958.483,-41.859467
1426798958.499,-39.242554
1426798958.514,-35.55355
1426798958.53,-30.606812
1426798958.546,-24.810005
1426798958.561,-18.925804
1426798958.577,-13.6304245
1426798958.593,-9.065498
1426798958.608,-4.8204117
1426798958.624,-0.16352081
1426798958.639,5.57296
1426798958.655,12.513649
1426798958.671,20.213417
1426798958.686,27.869247
1426798958.702,34.771072
1426798958.718,40.768196
1426798958.733,46.38861
1426798958.749,52.53428
1426798958.764,59.947456
1426798958.78,68.56003
1426798958.796,77.3037
1426798958.811,84.308205
1426798958.827,87.72252
1426798958.843,86.44653
1426798958.858,80.64013
1426798958.874,71.48823
1426798958.889,60.622833
1426798958.905,49.229973
1426798958.921,37.69046
1426798958.936,25.66278
1426798958.952,12.571373
1426798958.968,-1.6315002
1426798958.983,-16.147842
1426798958.999,-29.663902
1426798959.014,-40.83692
1426798959.03,-49.030045
1426798959.046,-54.46627
1426798959.061,-58.071716
1426798959.077,-60.84323
1426798959.093,-63.322556
1426798959.108,-65.30618
1426798959.124,-66.11148
1426798959.139,-65.03298
1426798959.155,-61.883224
1426798959.171,-57.203407
1426798959.186,-52.058
1426798959.202,-47.52854
1426798959.218,-44.23078
1426798959.233,-41.98661
1426798959.249,-39.99939
1426798959.264,-37.30806
1426798959.28,-33.321465
1426798959.296,-28.061668
1426798959.311,-22.14782
1426798959.327,-16.410942
1426798959.343,-11.390427
1426798959.358,-6.9679184
1426798959.374,-2.5152054
1426798959.389,2.7759094
1426798959.405,9.307678
1426798959.421,16.774437
1426798959.436,24.340714
1426798959.452,31.023598
1426798959.468,36.359398
1426798959.483,40.74122
1426798959.499,45.271942
1426798959.514,51.228104
1426798959.53,59.21057
1426798959.546,68.734436
1426798959.561,78.22151
1426798959.577,85.64905
1426798959.593,89.284004
1426798959.608,88.431915
1426798959.624,83.52856
1426798959.64,75.65834
1426798959.655,65.94913
1426798959.671,54.92695
1426798959.686,42.51468
1426798959.702,28.483208
1426798959.718,12.951202
1426798959.733,-3.2856216
1426798959.749,-18.879425
1426798959.764,-32.415405
1426798959.78,-43.168663
1426798959.796,-51.236008
1426798959.811,-57.449287
1426798959.827,-62.733536
1426798959.843,-67.569756
1426798959.858,-71.59769
1426798959.874,-73.90434
1426798959.89,-73.555
1426798959.905,-70.23716
1426798959.921,-64.73378
1426798959.936,-58.61151
1426798959.952,-53.695236
1426798959.968,-51.166687
1426798959.983,-51.034126
1426798959.999,-52.162354
1426798960.015,-52.81833
1426798960.03,-51.594505
1426798960.046,-48.08226
1426798960.061,-43.05773
1426798960.077,-37.89406
1426798960.093,-33.810257
1426798960.108,-31.189728
1426798960.124,-29.486221
1426798960.14,-27.561302
1426798960.155,-24.317505
1426798960.171,-19.245438
1426798960.186,-12.528481
1426798960.202,-4.8087845
1426798960.218,3.2383423
1426798960.233,11.237564
1426798960.249,18.95095
1426798960.265,26.26867
1426798960.28,32.833008
1426798960.296,38.010315
1426798960.311,41.16044
1426798960.327,41.958836
1426798960.343,40.42771
1426798960.358,36.86897
1426798960.374,31.271065
1426798960.39,22.834927
1426798960.405,10.004929
1426798960.421,-9.0839615
1426798960.436,-35.663292
1426798960.452,-69.384865
1426798960.468,-108.00629
1426798960.483,-147.72989
1426798960.499,-184.27599
1426798960.515,-214.0429
1426798960.53,-235.1328
1426798960.546,-247.53256
1426798960.561,-252.76572
1426798960.577,-253.07803
1426798960.593,-250.5168
1426798960.608,-246.19006
1426798960.624,-240.22903
1426798960.64,-232.02705
1426798960.655,-220.82974
1426798960.671,-206.46017
1426798960.686,-189.34108
1426798960.702,-170.37578
1426798960.718,-150.37549
1426798960.733,-129.42824
1426798960.749,-107.028656
1426798960.765,-82.52574
1426798960.78,-55.809143
1426798960.796,-27.84024
1426798960.811,-0.6648407
1426798960.827,23.511688
1426798960.843,43.029022
1426798960.858,57.62027
1426798960.874,68.412994
1426798960.89,77.421295
1426798960.905,86.49014
1426798960.921,96.6077
1426798960.936,107.52432
1426798960.952,118.12274
1426798960.968,127.21704
1426798960.983,134.17279
1426798960.999,139.33432
1426798961.015,143.72849
1426798961.03,148.5336
1426798961.046,154.3721
1426798961.061,161.05768
1426798961.077,167.70868
1426798961.093,173.17682
1426798961.108,176.69067
1426798961.124,178.06836
1426798961.14,177.7276
1426798961.155,176.26843
1426798961.171,173.99847
1426798961.186,170.66974
1426798961.202,165.68048
1426798961.218,158.35272
1426798961.233,148.4776
1426798961.249,136.60876
1426798961.265,123.72742
1426798961.28,110.99231
1426798961.296,99.00452
1426798961.311,87.57684
1426798961.327,76.0047
1426798961.343,63.653442
1426798961.358,50.635498
1426798961.374,37.996155
1426798961.39,27.573242
1426798961.405,21.002136
1426798961.421,19.028381
1426798961.436,21.015442
1426798961.452,25.218079
1426798961.468,29.552612
1426798961.483,32.52997
1426798961.499,33.724182
1426798961.515,33.666138
1426798961.53,33.268616
1426798961.546,33.16461
1426798961.561,33.310913
1426798961.577,33.174683
1426798961.593,32.057556
1426798961.608,29.754333
1426798961.624,26.691284
1426798961.64,23.784912
1426798961.655,21.930603
1426798961.671,21.44159
1426798961.686,21.820374
1426798961.702,22.070862
1426798961.718,21.207642
1426798961.733,18.950867
1426798961.749,15.898254
1426798961.765,13.2838745
1426798961.78,12.409851
1426798961.796,13.97113
1426798961.811,17.804565
1426798961.827,23.087646
1426798961.843,28.733765
1426798961.858,34.114563
1426798961.874,39.042114
1426798961.89,43.701233
1426798961.905,48.142883
1426798961.921,51.94348
1426798961.936,54.037964
1426798961.952,53.100647
1426798961.968,48.105103
1426798961.983,38.735046
1426798961.999,25.89148
1426798962.015,11.281128
1426798962.03,-3.0701294
1426798962.046,-15.656189
1426798962.061,-25.988708
1426798962.077,-34.587402
1426798962.093,-42.479492
1426798962.108,-50.343018
1426798962.124,-58.119568
1426798962.14,-64.82947
1426798962.155,-69.20807
1426798962.171,-70.357056
1426798962.186,-68.421326
1426798962.202,-64.53381
1426798962.218,-60.311584
1426798962.233,-56.99536
1426798962.249,-54.88684
1426798962.265,-53.368896
1426798962.28,-51.258606
1426798962.296,-47.676697
1426798962.311,-42.52185
1426798962.327,-36.50122
1426798962.343,-30.823792
1426798962.358,-26.359924
1426798962.374,-23.235352
1426798962.39,-20.708374
1426798962.405,-17.635986
1426798962.421,-12.981506
1426798962.436,-6.533325
1426798962.452,1.1644287
1426798962.468,9.048035
1426798962.483,16.15094
1426798962.499,22.122925
1426798962.515,27.386414
1426798962.53,32.90973
1426798962.546,39.694397
1426798962.562,48.291565
1426798962.577,58.516846
1426798962.593,69.63837
1426798962.608,80.854004
1426798962.624,91.559875
1426798962.64,101.677734
1426798962.655,111.33728
1426798962.671,120.51318
1426798962.687,128.62872
1426798962.702,134.56506
1426798962.718,137.0589
1426798962.733,135.40668
1426798962.749,130.11084
1426798962.765,122.84546
1426798962.78,115.96564
1426798962.796,111.43738
1426798962.812,109.919556
1426798962.827,110.3996
1426798962.843,110.684326
1426798962.858,108.40332
1426798962.874,102.14899
1426798962.89,92.04645
1426798962.905,79.57654
1426798962.921,66.74982
1426798962.937,55.084106
1426798962.952,45.106415
1426798962.968,36.21875
1426798962.983,27.354584
1426798962.999,17.562408
1426798963.015,6.4516907
1426798963.03,-5.782898
1426798963.046,-18.618164
1426798963.062,-31.702759
1426798963.077,-44.932343
1426798963.093,-58.32251
1426798963.108,-71.75961
1426798963.124,-84.62927
1426798963.14,-95.83005
1426798963.155,-104.10019
1426798963.171,-108.528046
1426798963.187,-109.05191
1426798963.202,-106.69302
1426798963.218,-103.00012
1426798963.233,-99.50665
1426798963.249,-96.97339
1426798963.265,-95.072266
1426798963.28,-92.723114
1426798963.296,-88.69797
1426798963.312,-82.29022
1426798963.327,-73.66904
1426798963.343,-63.62973
1426798963.358,-52.984924
1426798963.374,-42.029327
1426798963.39,-30.397247
1426798963.405,-17.297333
1426798963.421,-2.2681732
1426798963.437,14.229065
1426798963.452,30.734192
1426798963.468,45.13115
1426798963.483,55.38884
1426798963.499,60.44136
1426798963.515,60.47351
1426798963.53,56.740997
1426798963.546,50.922104
1426798963.562,44.37735
1426798963.577,37.506958
1426798963.593,30.011063
1426798963.608,21.24208
1426798963.624,10.902832
1426798963.64,-0.49020386
1426798963.655,-11.787918
1426798963.671,-21.63005
1426798963.687,-29.139969
1426798963.702,-34.33864
1426798963.718,-38.149536
1426798963.733,-41.781937
1426798963.749,-46.21588
1426798963.765,-51.596382
1426798963.78,-57.17083
1426798963.796,-61.79975
1426798963.812,-64.47277
1426798963.827,-64.96665
1426798963.843,-63.885887
1426798963.858,-62.35176
1426798963.874,-61.238586
1426798963.89,-60.809746
1426798963.905,-60.457497
1426798963.921,-59.113983
1426798963.937,-55.929855
1426798963.952,-50.763878
1426798963.968,-44.35666
1426798963.983,-37.880814
1426798963.999,-32.40871
1426798964.015,-28.250069
1426798964.03,-24.93077
1426798964.046,-21.483006
1426798964.062,-16.969215
1426798964.077,-11.136452
1426798964.093,-4.453396
1426798964.108,2.1789627
1426798964.124,8.067657
1426798964.14,13.21866
1426798964.155,18.481167
1426798964.171,25.178226
1426798964.187,34.281723
1426798964.202,45.704872
1426798964.218,58.070744
1426798964.233,69.115555
1426798964.249,76.47161
1426798964.265,78.69472
1426798964.28,75.78708
1426798964.296,68.97948
1426798964.312,60.106125
1426798964.327,50.62621
1426798964.343,41.161556
1426798964.358,31.386236
1426798964.374,20.740364
1426798964.39,9.009914
1426798964.405,-3.2372284
1426798964.421,-14.7602005
1426798964.437,-24.176254
1426798964.452,-30.668331
1426798964.468,-34.354553
1426798964.483,-36.120922
1426798964.499,-37.15138
1426798964.515,-38.263927
1426798964.53,-39.534737
1426798964.546,-40.45232
1426798964.562,-40.342365
1426798964.577,-38.98057
1426798964.593,-36.786163
1426798964.608,-34.763092
1426798964.624,-33.885445
1426798964.64,-34.49193
1426798964.655,-36.022797
1426798964.671,-37.161118
1426798964.687,-36.421867
1426798964.702,-33.03086
1426798964.718,-27.218842
1426798964.733,-20.112404
1426798964.749,-13.130074
1426798964.765,-7.3161697
1426798964.78,-2.7814178
1426798964.796,1.1555939
1426798964.812,5.563156
1426798964.827,11.160103
1426798964.843,17.914902
1426798964.858,25.118874
1426798964.874,31.910202
1426798964.89,37.890625
1426798964.905,43.39882
1426798964.921,49.163574
1426798964.937,55.854965
1426798964.952,63.302505
1426798964.968,70.3176
1426798964.983,75.10359
1426798964.999,76.03958
1426798965.015,72.34305
1426798965.03,64.59387
1426798965.046,54.314453
1426798965.062,43.214172
1426798965.077,32.42755
1426798965.093,22.078537
1426798965.108,11.507233
1426798965.124,-0.13179016
1426798965.14,-13.124786
1426798965.155,-26.890015
1426798965.171,-40.076233
1426798965.187,-51.07605
1426798965.202,-58.75966
1426798965.218,-62.92737
1426798965.234,-64.280716
1426798965.249,-63.983612
1426798965.265,-63.042465
1426798965.28,-61.81842
1426798965.296,-60.12851
1426798965.312,-57.42737
1426798965.327,-53.45511
1426798965.343,-48.580307
1426798965.359,-43.736313
1426798965.374,-39.929993
1426798965.39,-37.714386
1426798965.405,-36.751984
1426798965.421,-35.9274
1426798965.437,-33.901947
1426798965.452,-29.674194
1426798965.468,-23.16632
1426798965.484,-15.23642
1426798965.499,-7.155365
1426798965.515,-0.05621338
1426798965.53,5.622986
1426798965.546,10.318665
1426798965.562,15.009674
1426798965.577,20.736115
1426798965.593,27.966888
1426798965.609,36.54428
1426798965.624,45.734833
1426798965.64,54.76471
1426798965.655,63.088135
1426798965.671,70.504974
1426798965.687,76.85266
1426798965.702,81.73242
1426798965.718,84.328156
1426798965.734,83.53
1426798965.749,78.52045
1426798965.765,69.10004
1426798965.78,56.024597
1426798965.796,40.67871
1426798965.812,24.683594
1426798965.827,9.343445
1426798965.843,-4.851532
1426798965.859,-18.019867
1426798965.874,-30.676605
1426798965.89,-43.13797
1426798965.905,-55.131104
1426798965.921,-65.76657
1426798965.937,-73.949554
1426798965.952,-78.83182
1426798965.968,-80.30017
1426798965.984,-79.10989
1426798965.999,-76.44983
1426798966.015,-73.447845
1426798966.03,-70.54187
1426798966.046,-67.471436
1426798966.062,-63.577667
1426798966.077,-58.374573
1426798966.093,-52.125732
1426798966.109,-45.706146
1426798966.124,-40.282135
1426798966.14,-36.66858
1426798966.155,-34.81967
1426798966.171,-33.74167
1426798966.187,-31.939209
1426798966.202,-28.15738
1426798966.218,-21.910614
1426798966.234,-13.804626
1426798966.249,-5.0821533
1426798966.265,3.046112
1426798966.28,10.044037
1426798966.296,16.330841
1426798966.312,22.9906
1426798966.327,31.248718
1426798966.343,41.616608
1426798966.359,53.65396
1426798966.374,66.04285
1426798966.39,77.08725
1426798966.405,85.36304
1426798966.421,90.11102
1426798966.437,91.18707
1426798966.452,88.83185
1426798966.468,83.28363
1426798966.484,74.53812
1426798966.499,62.594086
1426798966.515,47.5979
1426798966.53,30.241821
1426798966.546,11.721741
1426798966.562,-6.448517
1426798966.577,-22.91858
1426798966.593,-36.953674
1426798966.609,-48.541718
1426798966.624,-58.27899
1426798966.64,-66.815216
1426798966.655,-74.506836
1426798966.671,-81.06607
1426798966.687,-85.770294
1426798966.702,-87.85007
1426798966.718,-87.003845
1426798966.734,-83.61676
1426798966.749,-78.62866
1426798966.765,-73.21442
1426798966.78,-68.16284
1426798966.796,-63.674164
1426798966.812,-59.33087
1426798966.827,-54.466187
1426798966.843,-48.665985
1426798966.859,-42.00705
1426798966.874,-35.04831
1426798966.89,-28.487244
1426798966.905,-22.793701
1426798966.921,-17.82309
1426798966.937,-12.986969
1426798966.952,-7.4916687
1426798966.968,-0.8522949
1426798966.984,6.755493
1426798966.999,14.705994
1426798967.015,22.154541
1426798967.03,28.712402
1426798967.046,34.660065
1426798967.062,40.99179
1426798967.077,48.84961
1426798967.093,58.782166
1426798967.109,70.30792
1426798967.124,81.76343
1426798967.14,90.95624
1426798967.155,95.89325
1426798967.171,95.652954
1426798967.187,90.51233
1426798967.202,81.78784
1426798967.218,70.93573
1426798967.234,58.90796
1426798967.249,45.921387
1426798967.265,31.659546
1426798967.28,15.901794
1426798967.296,-1.03479
1426798967.312,-18.028564
1426798967.327,-33.626038
1426798967.343,-46.641113
1426798967.359,-56.681763
1426798967.374,-64.155945
1426798967.39,-69.916504
1426798967.405,-74.71808
1426798967.421,-78.68909
1426798967.437,-81.336975
1426798967.452,-81.88794
1426798967.468,-79.81952
1426798967.484,-75.38934
1426798967.499,-69.555725
1426798967.515,-63.683655
1426798967.53,-58.84308
1426798967.546,-55.388794
1426798967.562,-52.764526
1426798967.577,-49.89038
1426798967.593,-45.764526
1426798967.609,-39.978027
1426798967.624,-32.862732
1426798967.64,-25.247864
1426798967.655,-18.036804
1426798967.671,-11.534058
1426798967.687,-5.524292
1426798967.702,0.6513672
1426798967.718,7.6671753
1426798967.734,15.662781
1426798967.749,24.232666
1426798967.765,32.683655
1426798967.78,40.47406
1426798967.796,47.593323
1426798967.812,54.671265
1426798967.827,62.57086
1426798967.843,71.74774
1426798967.859,81.57904
1426798967.874,90.347595
1426798967.89,95.79883
1426798967.906,96.04486
1426798967.921,90.42212
1426798967.937,79.82733
1426798967.952,66.295166
1426798967.968,52.032837
1426798967.984,38.436096
1426798967.999,25.633118
1426798968.015,12.793762
1426798968.03,-1.1795654
1426798968.046,-16.75708
1426798968.062,-33.34607
1426798968.077,-49.55078
1426798968.093,-63.664124
1426798968.109,-74.561646
1426798968.124,-81.970825
1426798968.14,-86.406494
1426798968.156,-88.756836
1426798968.171,-89.67023
1426798968.187,-89.28046
1426798968.202,-87.26178
1426798968.218,-83.200714
1426798968.234,-77.100555
1426798968.249,-69.6918
1426798968.265,-62.178314
1426798968.281,-55.701508
1426798968.296,-50.86377
1426798968.312,-47.40866
1426798968.327,-44.38379
1426798968.343,-40.627197
1426798968.359,-35.37982
1426798968.374,-28.614288
1426798968.39,-20.973267
1426798968.406,-13.349365
1426798968.421,-6.358032
1426798968.437,0.014160156
1426798968.452,6.3434143
1426798968.468,13.397888
1426798968.484,21.704376
1426798968.499,31.148834
1426798968.515,41.12726
1426798968.531,50.81781
1426798968.546,59.664307
1426798968.562,67.63995
1426798968.577,75.06726
1426798968.593,82.22034
1426798968.609,88.74182
1426798968.624,93.567474
1426798968.64,95.12778
1426798968.656,92.06213
1426798968.671,83.91177
1426798968.687,71.40225
1426798968.702,56.298462
1426798968.718,40.600372
1426798968.734,25.84784
1426798968.749,12.538696
1426798968.765,0.22454834
1426798968.781,-12.0354
1426798968.796,-24.855835
1426798968.812,-38.03238
1426798968.827,-50.483673
1426798968.843,-60.688477
1426798968.859,-67.44748
1426798968.874,-70.489044
1426798968.89,-70.53635
1426798968.906,-68.943634
1426798968.921,-67.03299
1426798968.937,-65.34128
1426798968.952,-63.536926
1426798968.968,-60.772156
1426798968.984,-56.34445
1426798968.999,-50.207245
1426798969.015,-43.20865
1426798969.031,-36.599792
1426798969.046,-31.418182
1426798969.062,-27.866516
1426798969.077,-25.196655
1426798969.093,-22.071625
1426798969.109,-17.365265
1426798969.124,-10.813232
1426798969.14,-3.061676
1426798969.156,4.610779
1426798969.171,11.023407
1426798969.187,15.789978
1426798969.202,19.45642
1426798969.218,23.21463
1426798969.234,28.276855
1426798969.249,35.16165
1426798969.265,43.563934
1426798969.281,52.56848
1426798969.296,61.15164
1426798969.312,68.67618
1426798969.327,74.99902
1426798969.343,80.14871
1426798969.359,84.00137
1426798969.374,85.925964
1426798969.39,84.94388
1426798969.406,80.18652
1426798969.421,71.30643
1426798969.437,58.824158
1426798969.452,43.96231
1426798969.468,28.310822
1426798969.484,13.2057495
1426798969.499,-0.67755127
1426798969.515,-13.40863
1426798969.531,-25.51886
1426798969.546,-37.46112
1426798969.562,-49.11371
1426798969.577,-59.641144
1426798969.593,-67.76257
1426798969.609,-72.31287
1426798969.624,-73.035645
1426798969.64,-70.72159
1426798969.656,-66.920074
1426798969.671,-63.23822
1426798969.687,-60.474426
1426798969.702,-58.296387
1426798969.718,-55.648468
1426798969.734,-51.45517
1426798969.749,-45.479065
1426798969.765,-38.502014
1426798969.781,-31.884644
1426798969.796,-26.795563
1426798969.812,-23.56485
1426798969.827,-21.42688
1426798969.843,-18.950073
1426798969.859,-14.819214
1426798969.874,-8.47876
1426798969.89,-0.46316528
1426798969.906,8.022247
1426798969.921,15.684113
1426798969.937,21.92804
1426798969.952,27.002014
1426798969.968,31.917206
1426798969.984,37.922302
1426798969.999,45.788055
1426798970.015,55.561462
1426798970.031,66.40375
1426798970.046,76.99939
1426798970.062,86.028625
1426798970.077,92.57294
1426798970.093,96.212036
1426798970.109,96.94772
1426798970.124,94.813965
1426798970.14,89.65805
1426798970.156,81.26288
1426798970.171,69.506714
1426798970.187,54.70053
1426798970.202,37.79956
1426798970.218,20.185394
1426798970.234,3.2771912
1426798970.249,-11.919159
1426798970.265,-25.218384
1426798970.281,-37.071686
1426798970.296,-48.05777
1426798970.312,-58.421112
1426798970.327,-67.74478
1426798970.343,-75.043274
1426798970.359,-79.26413
1426798970.374,-79.839325
1426798970.39,-77.062164
1426798970.406,-72.058655
1426798970.421,-66.26996
1426798970.437,-60.90741
1426798970.452,-56.537323
1426798970.468,-52.955536
1426798970.484,-49.448517
1426798970.499,-45.372528
1426798970.515,-40.503174
1426798970.531,-35.063385
1426798970.546,-29.571136
1426798970.562,-24.334045
1426798970.578,-19.31845
1426798970.593,-14.069397
1426798970.609,-8.011047
1426798970.624,-0.7868347
1426798970.64,7.3266296
1426798970.656,15.530914
1426798970.671,22.870514
1426798970.687,28.713638
1426798970.702,33.17267
1426798970.718,37.141373
1426798970.734,41.867554
1426798970.749,48.474915
1426798970.765,57.251328
1426798970.781,67.41217
1426798970.796,77.35678
1426798970.812,85.22841
1426798970.828,89.533844
1426798970.843,89.6974
1426798970.859,86.05231
1426798970.874,79.503815
1426798970.89,70.98877
1426798970.906,60.999588
1426798970.921,49.562607
1426798970.937,36.515167
1426798970.953,21.99797
1426798970.968,6.645218
1426798970.984,-8.484009
1426798970.999,-22.222122
1426798971.015,-33.927338
1426798971.031,-43.563934
1426798971.046,-51.667313
1426798971.062,-58.796722
1426798971.078,-65.09209
1426798971.093,-70.082504
1426798971.109,-72.95267
1426798971.124,-73.048325
1426798971.14,-70.34775
1426798971.156,-65.70058
1426798971.171,-60.412857
1426798971.187,-55.72296
1426798971.203,-52.3011
1426798971.218,-49.94713
1426798971.234,-47.872772
1426798971.249,-45.09369
1426798971.265,-41.047592
1426798971.281,-35.797134
1426798971.296,-30.032928
1426798971.312,-24.569336
1426798971.328,-19.925293
1426798971.343,-16.013138
1426798971.359,-12.181641
1426798971.374,-7.616791
1426798971.39,-1.8139496
1426798971.406,5.1610565
1426798971.421,12.733582
1426798971.437,20.142593
1426798971.453,26.928345
1426798971.468,33.349167
1426798971.484,40.18788
1426798971.499,48.410477
1426798971.515,58.37152
1426798971.531,69.401215
1426798971.546,79.86923
1426798971.562,87.71153
1426798971.578,91.209595
1426798971.593,89.67062
1426798971.609,83.62135
1426798971.624,74.39719
1426798971.64,63.49385
1426798971.656,51.794724
1426798971.671,39.42212
1426798971.687,26.05104
1426798971.703,11.405228
1426798971.718,-4.1467896
1426798971.734,-19.526962
1426798971.749,-33.2527
1426798971.765,-44.107803
1426798971.781,-51.508545
1426798971.796,-55.815506
1426798971.812,-57.989517
1426798971.828,-59.02478
1426798971.843,-59.45117
1426798971.859,-59.1752
1426798971.874,-57.62027
1426798971.89,-54.34706
1426798971.906,-49.49788
1426798971.921,-43.870155
1426798971.937,-38.60698
1426798971.953,-34.675026
1426798971.968,-32.281044
1426798971.984,-30.80523
1426798971.999,-29.098602
1426798972.015,-26.087326
1426798972.031,-21.326294
1426798972.046,-15.250023
1426798972.062,-8.763634
1426798972.078,-2.833229
1426798972.093,2.1455612
1426798972.109,6.495796
1426798972.124,11.041817
1426798972.14,16.57531
1426798972.156,23.385094
1426798972.171,31.085663
1426798972.187,38.872566
1426798972.203,46.002678
1426798972.218,52.26555
1426798972.234,58.099907
1426798972.249,64.26927
1426798972.265,71.16689
1426798972.281,78.30844
1426798972.296,84.32745
1426798972.312,87.42092
1426798972.328,86.11049
1426798972.343,79.9855
1426798972.359,69.82031
1426798972.374,57.25889
1426798972.39,44.071884
1426798972.406,31.377121
1426798972.421,19.32071
1426798972.437,7.390663
1426798972.453,-5.1129074
1426798972.468,-18.340027
1426798972.484,-31.581772
1426798972.499,-43.508713
1426798972.515,-52.69181
1426798972.531,-58.29014
1426798972.546,-60.468307
1426798972.562,-60.13394
1426798972.578,-58.51351
1426798972.593,-56.52398
1426798972.609,-54.34108
1426798972.624,-51.54136
1426798972.64,-47.533173
1426798972.656,-42.20937
1426798972.671,-36.182716
1426798972.687,-30.595898
1426798972.703,-26.566483
1426798972.718,-24.47749
1426798972.734,-23.743916
1426798972.749,-22.96648
1426798972.765,-20.634113
1426798972.781,-15.9296875
1426798972.796,-9.137684
1426798972.812,-1.4359398
1426798972.828,5.734722
1426798972.843,11.505257
1426798972.859,16.026001
1426798972.874,20.253998
1426798972.89,25.396576
1426798972.906,32.246502
1426798972.921,40.665386
1426798972.937,49.883812
1426798972.953,58.87358
1426798972.968,66.88115
1426798972.984,73.721855
1426798972.999,79.4382
1426798973.015,84.083046
1426798973.031,87.34202
1426798973.046,88.415405
1426798973.062,86.39087
1426798973.078,80.64659
1426798973.093,71.17204
1426798973.109,58.704746
1426798973.124,44.509857
1426798973.14,29.973797
1426798973.156,16.201008
1426798973.171,3.717167
1426798973.187,-7.5694046
1426798973.203,-18.13089
1426798973.218,-28.408176
1426798973.234,-38.53371
1426798973.249,-48.139812
1426798973.265,-56.66518
1426798973.281,-63.83437
1426798973.296,-70.05646
1426798973.312,-76.318375
1426798973.328,-83.70785
1426798973.343,-92.61084
1426798973.359,-102.08915
1426798973.374,-110.00502
1426798973.39,-113.789734
1426798973.406,-111.60074
1426798973.421,-103.20364
1426798973.437,-90.03099
1426798973.453,-74.40999
1426798973.468,-58.618153
1426798973.484,-43.82467
1426798973.5,-30.056808
1426798973.515,-16.701523
1426798973.531,-3.1720543
1426798973.546,10.288059
1426798973.562,22.701458
1426798973.578,32.82279
1426798973.593,39.868057
1426798973.609,44.03142
1426798973.625,46.53089
1426798973.64,49.133133
1426798973.656,53.360023
1426798973.671,59.922226
1426798973.687,68.36361
1426798973.703,77.50755
1426798973.718,85.7975
1426798973.734,92.00217
1426798973.75,95.44348
1426798973.765,95.99145
1426798973.781,93.79845
1426798973.796,88.92506
1426798973.812,81.37606
1426798973.828,71.12435
1426798973.843,58.37985
1426798973.859,43.755306
1426798973.875,28.208618
1426798973.89,12.83537
1426798973.906,-1.4401436
1426798973.921,-14.225039
1426798973.937,-25.680792
1426798973.953,-36.153267
1426798973.968,-45.954494
1426798973.984,-54.884865
1426798974,-62.29237
1426798974.015,-67.37525
1426798974.031,-69.475845
1426798974.046,-68.62488
1426798974.062,-65.65791
1426798974.078,-61.969116
1426798974.093,-59.01514
1426798974.109,-57.775795
1426798974.125,-58.332123
1426798974.14,-59.940403
1426798974.156,-61.426094
1426798974.171,-61.61617
1426798974.187,-59.98957
1426798974.203,-56.7296
1426798974.218,-52.643524
1426798974.234,-48.763813
1426798974.25,-45.796947
1426798974.265,-43.779003
1426798974.281,-42.161255
1426798974.296,-40.110355
1426798974.312,-37.00695
1426798974.328,-32.70584
1426798974.343,-27.52189
1426798974.359,-21.829153
1426798974.375,-15.639614
1426798974.39,-8.439781
1426798974.406,0.6960144
1426798974.421,12.431236
1426798974.437,26.430931
1426798974.453,41.220978
1426798974.468,54.36699
1426798974.484,63.414513
1426798974.5,66.90651
1426798974.515,64.81253
1426798974.531,58.493526
1426798974.546,49.93849
1426798974.562,40.806465
1426798974.578,31.692284
1426798974.593,22.289955
1426798974.609,11.788132
1426798974.625,-0.18977356
1426798974.64,-13.163567
1426798974.656,-25.973068
1426798974.671,-37.307297
1426798974.687,-46.30784
1426798974.703,-52.88394
1426798974.718,-57.482315
1426798974.734,-60.60505
1426798974.75,-62.36139
1426798974.765,-62.337868
1426798974.781,-59.99875
1426798974.796,-55.147217
1426798974.812,-48.362167
1426798974.828,-40.844833
1426798974.843,-34.018265
1426798974.859,-28.825134
1426798974.875,-25.236908
1426798974.89,-22.350677
1426798974.906,-18.745392
1426798974.921,-13.196167
1426798974.937,-5.3310394
1426798974.953,4.249878
1426798974.968,14.323242
1426798974.984,23.641144
1426798975,31.691849
1426798975.015,38.873993
1426798975.031,46.181946
1426798975.046,54.68747
1426798975.062,64.81802
1426798975.078,76.117004
1426798975.093,87.59372
1426798975.109,98.21512
1426798975.125,107.490814
1426798975.14,115.70914
1426798975.156,123.57184
1426798975.171,131.5284
1426798975.187,139.27518
1426798975.203,145.59639
1426798975.218,148.79054
1426798975.234,147.42178
1426798975.25,140.96756
1426798975.265,129.94046
1426798975.281,115.59108
1426798975.296,99.30626
1426798975.312,81.98689
1426798975.328,63.88469
1426798975.343,44.76828
1426798975.359,24.429184
1426798975.375,3.214981
1426798975.39,-17.76715
1426798975.406,-36.930878
1426798975.421,-52.776077
1426798975.437,-64.47797
1426798975.453,-72.193695
1426798975.468,-76.859726
1426798975.484,-79.68799
1426798975.5,-81.383606
1426798975.515,-81.702866
1426798975.531,-79.70682
1426798975.546,-74.333725
1426798975.562,-65.27431
1426798975.578,-53.448975
1426798975.593,-40.76764
1426798975.609,-29.282593
1426798975.625,-20.307434
1426798975.64,-13.781555
1426798975.656,-8.41777
1426798975.671,-2.5967865
1426798975.687,4.7480927
1426798975.703,13.561035
1426798975.718,22.771378
1426798975.734,30.946426
1426798975.75,37.153595
1426798975.765,41.40764
1426798975.781,44.549927
1426798975.796,47.749847
1426798975.812,51.73427
1426798975.828,56.48941
1426798975.843,61.50392
1426798975.859,66.16135
1426798975.875,70.186905
1426798975.89,73.829315
1426798975.906,77.53481
1426798975.921,81.36124
1426798975.937,84.720505
1426798975.953,86.27267
1426798975.968,84.56177
1426798975.984,78.53811
1426798976,68.16056
1426798976.015,54.393463
1426798976.031,38.910347
1426798976.046,23.40371
1426798976.062,9.014885
1426798976.078,-3.9513092
1426798976.093,-15.935982
1426798976.109,-27.57383
1426798976.125,-39.212135
1426798976.14,-50.495102
1426798976.156,-60.45565
1426798976.172,-67.8515
1426798976.187,-71.82388
1426798976.203,-72.44071
1426798976.218,-70.71504
1426798976.234,-68.168594
1426798976.25,-66.124214
1426798976.265,-65.03703
1426798976.281,-64.429245
1426798976.297,-63.19715
1426798976.312,-60.35105
1426798976.328,-55.68268
1426798976.343,-49.810516
1426798976.359,-43.828728
1426798976.375,-38.676163
1426798976.39,-34.53667
1426798976.406,-30.71138
1426798976.422,-26.121908
1426798976.437,-19.849316
1426798976.453,-11.835865
1426798976.468,-2.9376822
1426798976.484,5.422495
1426798976.5,12.066034
1426798976.515,16.635838
1426798976.531,19.932245
1426798976.547,23.48449
1426798976.562,28.876217
1426798976.578,36.860043
1426798976.593,46.921192
1426798976.609,57.4789
1426798976.625,66.5111
1426798976.64,72.482056
1426798976.656,74.78955
1426798976.672,73.79668
1426798976.687,70.29106
1426798976.703,64.87855
1426798976.718,57.583412
1426798976.734,47.976685
1426798976.75,35.666397
1426798976.765,20.901474
1426798976.781,4.727707
1426798976.797,-11.233078
1426798976.812,-25.436813
1426798976.828,-37.172455
1426798976.843,-46.710693
1426798976.859,-54.961296
1426798976.875,-62.820297
1426798976.89,-70.43769
1426798976.906,-77.06033
1426798976.922,-81.4033
1426798976.937,-82.38101
1426798976.953,-79.85869
1426798976.968,-74.8607
1426798976.984,-69.07508
1426798977,-64.13614
1426798977.015,-60.829605
1426798977.031,-58.832855
1426798977.047,-57.099594
1426798977.062,-54.488373
1426798977.078,-50.45469
1426798977.093,-45.225708
1426798977.109,-39.575546
1426798977.125,-34.20302
1426798977.14,-29.308464
1426798977.156,-24.402466
1426798977.172,-18.574692
1426798977.187,-11.090454
1426798977.203,-1.8913116
1426798977.218,8.199783
1426798977.234,17.868225
1426798977.25,25.897583
1426798977.265,31.879974
1426798977.281,36.443024
1426798977.297,40.984207
1426798977.312,46.97873
1426798977.328,55.077972
1426798977.343,64.71413
1426798977.359,74.15532
1426798977.375,81.182175
1426798977.39,84.04047
1426798977.406,82.095566
1426798977.422,75.91603
1426798977.437,66.92668
1426798977.453,56.511246
1426798977.468,45.34491
1426798977.484,33.331482
1426798977.5,19.88063
1426798977.515,4.6378326
1426798977.531,-11.997223
1426798977.547,-28.72844
1426798977.562,-43.87407
1426798977.578,-56.09326
1426798977.593,-64.92146
1426798977.609,-70.91313
1426798977.625,-75.08414
1426798977.64,-78.290955
1426798977.656,-80.66672
1426798977.672,-81.763245
1426798977.687,-80.84183
1426798977.703,-77.5565
1426798977.718,-72.24219
1426798977.734,-65.86125
1426798977.75,-59.603226
1426798977.765,-54.310043
1426798977.781,-50.170074
1426798977.797,-46.695496
1426798977.812,-43.109024
1426798977.828,-38.767395
1426798977.843,-33.590927
1426798977.859,-28.015732
1426798977.875,-22.675049
1426798977.89,-18.078766
1426798977.906,-14.181625
1426798977.922,-10.439926
1426798977.937,-6.0575714
1426798977.953,-0.44758606
1426798977.968,6.4402924
1426798977.984,14.026138
1426798978,21.484528
1426798978.015,28.133728
1426798978.031,33.92311
1426798978.047,39.46489
1426798978.062,45.670334
1426798978.078,53.05774
1426798978.093,61.187363
1426798978.109,68.62718
1426798978.125,73.34799
1426798978.14,73.55681
1426798978.156,68.61932
1426798978.172,59.23973
1426798978.187,47.25435
1426798978.203,34.643005
1426798978.218,22.738968
1426798978.234,11.770706
1426798978.25,1.1500092
1426798978.265,-9.910217
1426798978.281,-21.593124
1426798978.297,-33.13614
1426798978.312,-43.176712
1426798978.328,-50.319916
1426798978.343,-53.993546
1426798978.359,-54.731094
1426798978.375,-53.853455
1426798978.39,-52.819122
1426798978.406,-52.45941
1426798978.422,-52.632813
1426798978.437,-52.34935
1426798978.453,-50.469513
1426798978.468,-46.46695
1426798978.484,-40.79152
1426798978.5,-34.658356
1426798978.515,-29.432205
1426798978.531,-25.783386
1426798978.547,-23.32756
1426798978.562,-20.85025
1426798978.578,-16.937973
1426798978.593,-10.903122
1426798978.609,-3.191391
1426798978.625,4.9740143
1426798978.64,12.1249695
1426798978.656,17.423485
1426798978.672,20.99826
1426798978.687,23.888763
1426798978.703,27.307297
1426798978.718,32.09324
1426798978.734,38.211967
1426798978.75,44.996773
1426798978.765,51.553574
1426798978.781,57.34127
1426798978.797,62.323624
1426798978.812,66.77226
1426798978.828,70.85398
1426798978.844,74.137085
1426798978.859,75.55998
1426798978.875,73.823296
1426798978.89,67.91877
1426798978.906,57.734863
1426798978.922,44.23307
1426798978.937,29.123268
1426798978.953,14.327866
1426798978.969,1.1040955
1426798978.984,-10.281715
1426798979,-20.422264
1426798979.015,-30.22068
1426798979.031,-40.12822
1426798979.047,-49.780533
1426798979.062,-58.103127
1426798979.078,-63.81391
1426798979.094,-66.10932
1426798979.109,-65.24547
1426798979.125,-62.311073
1426798979.14,-58.784073
1426798979.156,-55.77404
1426798979.172,-53.547234
1426798979.187,-51.550156
1426798979.203,-48.892685
1426798979.219,-44.965363
1426798979.234,-39.826508
1426798979.25,-34.196815
1426798979.265,-29.011345
1426798979.281,-24.787788
1426798979.297,-21.274109
1426798979.312,-17.525826
1426798979.328,-12.379715
1426798979.344,-5.19368
1426798979.359,3.6542969
1426798979.375,12.9337845
1426798979.39,21.130905
1426798979.406,27.196602
1426798979.422,31.194786
1426798979.437,34.21608
1426798979.453,37.900604
1426798979.469,43.57287
1426798979.484,51.54209
1426798979.5,60.89415
1426798979.515,69.87277
1426798979.531,76.63669
1426798979.547,79.95362
1426798979.562,79.55811
1426798979.578,76.076706
1426798979.594,70.47468
1426798979.609,63.425537
1426798979.625,54.99903
1426798979.64,44.77484
1426798979.656,32.301994
1426798979.672,17.69426
1426798979.687,1.9108429
1426798979.703,-13.500267
1426798979.719,-27.002594
1426798979.734,-37.769127
1426798979.75,-45.8985
1426798979.765,-52.181717
1426798979.781,-57.49958
1426798979.797,-62.18473
1426798979.812,-65.82028
1426798979.828,-67.46388
1426798979.844,-66.28193
1426798979.859,-62.2036
1426798979.875,-56.09817
1426798979.89,-49.414146
1426798979.906,-43.6358
1426798979.922,-39.55883
1426798979.937,-37.004295
1426798979.953,-35.066597
1426798979.969,-32.596264
1426798979.984,-28.96983
1426798980,-24.430183
1426798980.015,-19.819553
1426798980.031,-16.012196
1426798980.047,-13.287743
1426798980.062,-11.066872
1426798980.078,-8.168255
1426798980.094,-3.4602013
1426798980.109,3.43779
1426798980.125,11.867611
1426798980.14,20.517483
1426798980.156,28.17796
1426798980.172,34.37749
1426798980.187,39.748714
1426798980.203,45.510677
1426798980.219,52.704277
1426798980.234,61.264725
1426798980.25,69.759735
1426798980.265,75.85715
1426798980.281,77.38048
1426798980.297,73.28538
1426798980.312,64.12056
1426798980.328,51.7397
1426798980.344,38.409237
1426798980.359,25.728619
1426798980.375,14.049295
1426798980.39,2.7346935
1426798980.406,-9.235203
1426798980.422,-22.396797
1426798980.437,-36.232254
1426798980.453,-49.540993
1426798980.469,-60.851044
1426798980.484,-69.26196
1426798980.5,-74.741905
1426798980.515,-77.94682
1426798980.531,-79.628174
1426798980.547,-80.08186
1426798980.562,-78.87769
1426798980.578,-75.176865
1426798980.594,-68.369804
