1425518503.15,0.0
1425518503.166,0.0
1425518503.182,0.0
1425518503.197,0.0
1425518503.213,0.0
1425518503.229,0.0
1425518503.244,0.0
1425518503.26,0.0
1425518503.275,0.0
1425518503.291,0.0018185029
1425518503.307,-0.00555734
1425518503.322,-0.012894456
1425518503.338,-0.012907115
1425518503.354,0.0012315464
1425518503.369,0.028977739
1425518503.385,0.056525752
1425518503.4,0.056833517
1425518503.416,-0.002195227
1425518503.432,-0.14240146
1425518503.447,-0.37825218
1425518503.463,-0.6808136
1425518503.479,-1.0082651
1425518503.494,-1.3198353
1425518503.51,-1.5967976
1425518503.525,-1.8535895
1425518503.541,-2.1321528
1425518503.557,-2.4816172
1425518503.572,-2.929293
1425518503.588,-3.5004473
1425518503.604,-4.1379156
1425518503.619,-4.7719088
1425518503.635,-5.337782
1425518503.65,-5.8087916
1425518503.666,-6.213868
1425518503.682,-6.6292067
1425518503.697,-7.1450067
1425518503.713,-7.8094664
1425518503.729,-8.696674
1425518503.744,-9.681546
1425518503.76,-10.617202
1425518503.775,-11.368116
1425518503.791,-11.89237
1425518503.807,-12.29045
1425518503.822,-12.787916
1425518503.838,-13.648578
1425518503.854,-15.031034
1425518503.869,-17.103264
1425518503.885,-19.575357
1425518503.9,-22.080254
1425518503.916,-24.271286
1425518503.932,-26.01659
1425518503.947,-27.509659
1425518503.963,-29.223953
1425518503.979,-31.714748
1425518503.994,-35.318348
1425518504.01,-40.28839
1425518504.025,-46.053963
1425518504.041,-51.872498
1425518504.057,-57.04946
1425518504.072,-61.295986
1425518504.088,-64.91419
1425518504.104,-68.69908
1425518504.119,-73.581314
1425518504.135,-80.12594
1425518504.15,-88.6476
1425518504.166,-98.25732
1425518504.182,-107.782005
1425518504.197,-116.14087
1425518504.213,-122.87442
1425518504.229,-128.39085
1425518504.244,-133.80017
1425518504.26,-140.72076
1425518504.275,-147.95393
1425518504.291,-157.4982
1425518504.307,-169.53006
1425518504.322,-183.76248
1425518504.338,-198.71844
1425518504.354,-211.3219
1425518504.369,-217.1743
1425518504.385,-211.80457
1425518504.4,-192.46567
1425518504.416,-159.46559
1425518504.432,-116.670364
1425518504.447,-69.08966
1425518504.463,-21.200134
1425518504.479,24.99472
1425518504.494,70.22516
1425518504.51,116.69144
1425518504.525,166.13376
1425518504.541,218.49225
1425518504.557,271.91425
1425518504.572,323.45978
1425518504.588,371.08453
1425518504.604,413.76608
1425518504.619,451.24487
1425518504.635,483.0862
1425518504.65,508.0023
1425518504.666,523.8922
1425518504.682,528.46124
1425518504.697,520.2728
1425518504.713,499.1433
1425518504.729,466.61145
1425518504.744,425.1657
1425518504.76,377.686
1425518504.775,326.6636
1425518504.791,273.94995
1425518504.807,220.76181
1425518504.822,167.95407
1425518504.838,116.38962
1425518504.854,67.04007
1425518504.869,21.195343
1425518504.885,-19.887726
1425518504.9,-55.247833
1425518504.916,-84.470795
1425518504.932,-107.74237
1425518504.947,-125.73819
1425518504.963,-139.38556
1425518504.979,-149.5776
1425518504.994,-157.00848
1425518505.01,-162.03058
1425518505.025,-164.7373
1425518505.041,-165.0968
1425518505.057,-163.11731
1425518505.072,-158.95695
1425518505.088,-152.98999
1425518505.104,-145.7722
1425518505.119,-137.94151
1425518505.135,-130.03552
1425518505.15,-122.3994
1425518505.166,-115.117714
1425518505.182,-108.0516
1425518505.197,-100.96152
1425518505.213,-93.603836
1425518505.229,-85.77995
1425518505.244,-77.34841
1425518505.26,-68.29332
1425518505.275,-58.855995
1425518505.291,-49.702816
1425518505.307,-41.933643
1425518505.322,-36.830856
1425518505.338,-35.35108
1425518505.354,-37.61393
1425518505.369,-42.697533
1425518505.385,-48.869576
1425518505.4,-54.2411
1425518505.416,-57.4976
1425518505.432,-58.196144
1425518505.447,-56.697174
1425518505.463,-53.810287
1425518505.479,-50.325726
1425518505.494,-46.727882
1425518505.51,-43.159843
1425518505.526,-39.58075
1425518505.541,-35.926872
1425518505.557,-32.217346
1425518505.572,-28.540655
1425518505.588,-25.044483
1425518505.604,-21.88489
1425518505.619,-19.150272
1425518505.635,-16.794777
1425518505.651,-14.652412
1425518505.666,-12.545383
1425518505.682,-10.376633
1425518505.697,-8.234421
1425518505.713,-6.3412666
1425518505.729,-4.9054527
1425518505.744,-3.9969597
1425518505.76,-3.461399
1425518505.776,-3.0474968
1425518505.791,-2.561554
1425518505.807,-2.0586433
1425518505.822,-1.7880478
1425518505.838,-2.0835419
1425518505.854,-3.1389084
1425518505.869,-4.85569
1425518505.885,-6.833973
1425518505.901,-8.519295
1425518505.916,-9.4122925
1425518505.932,-9.245403
1425518505.947,-8.039482
1425518505.963,-6.0474854
1425518505.979,-3.6708221
1425518505.994,-1.3267288
1425518506.01,0.6730919
1425518506.026,2.1364784
1425518506.041,3.0376549
1425518506.057,3.4454308
1425518506.072,3.4658432
1425518506.088,3.182785
1425518506.104,2.6307602
1425518506.119,1.8751793
1425518506.135,0.9882431
1425518506.151,0.16012192
1425518506.166,-0.4160347
1425518506.182,-0.56175995
1425518506.197,-0.25220108
1425518506.213,0.37822342
1425518506.229,1.0648308
1425518506.244,1.5271912
1425518506.26,1.6345406
1425518506.276,1.4331017
1425518506.291,1.1546726
1425518506.307,1.0358925
1425518506.322,1.2460098
1425518506.338,1.7925224
1425518506.354,2.5553532
1425518506.369,3.3498535
1425518506.385,3.9787846
1425518506.401,4.342741
1425518506.416,4.370756
1425518506.432,4.061674
1425518506.447,3.4348125
1425518506.463,2.5861511
1425518506.479,1.6249485
1425518506.494,0.7163067
1425518506.51,0.045476913
1425518506.526,-0.28466797
1425518506.541,-0.2666855
1425518506.557,-0.008235931
1425518506.572,0.33602715
1425518506.588,0.6772728
1425518506.604,1.0410156
1425518506.619,1.5685596
1425518506.635,2.3664246
1425518506.651,3.4053612
1425518506.666,4.386883
1425518506.682,4.879318
1425518506.697,4.462826
1425518506.713,3.0061455
1425518506.729,0.7355881
1425518506.744,-1.7896385
1425518506.76,-3.9523754
1425518506.776,-5.328985
1425518506.791,-5.8269196
1425518506.807,-5.6746826
1425518506.822,-5.2151566
1425518506.838,-4.6795616
1425518506.854,-4.090088
1425518506.869,-3.3101425
1425518506.885,-2.2361202
1425518506.901,-0.8647156
1425518506.916,0.56448174
1425518506.932,1.7592411
1425518506.947,2.4218712
1425518506.963,2.4753246
1425518506.979,2.0126343
1425518506.994,1.2862301
1425518507.01,0.5608597
1425518507.026,0.026794434
1425518507.041,-0.2596035
1425518507.057,-0.33496475
1425518507.072,-0.28206444
1425518507.088,-0.16026306
1425518507.104,0.0073108673
1425518507.119,0.23921585
1425518507.135,0.56217957
1425518507.151,0.9937496
1425518507.166,1.4856377
1425518507.182,2.0148811
1425518507.197,2.5050488
1425518507.213,2.9140205
1425518507.229,3.2549343
1425518507.244,3.5838127
1425518507.26,3.942522
1425518507.276,4.3425846
1425518507.291,4.778473
1425518507.307,5.2046757
1425518507.322,5.591156
1425518507.338,5.941698
1425518507.354,6.249176
1425518507.369,6.496502
1425518507.385,6.624691
1425518507.401,6.590435
1425518507.416,6.3898525
1425518507.432,6.1237984
1425518507.447,5.9372597
1425518507.463,5.9732685
1425518507.479,6.215885
1425518507.494,6.560646
1425518507.51,6.7717285
1425518507.526,6.72209
1425518507.541,6.3850765
1425518507.557,5.9156647
1425518507.572,5.5165443
1425518507.588,5.3005733
1425518507.604,5.1708755
1425518507.619,4.8500614
1425518507.635,3.9513779
1425518507.651,2.1942043
1425518507.666,-0.5335007
1425518507.682,-4.0079517
1425518507.697,-7.852354
1425518507.713,-11.576687
1425518507.729,-14.759985
1425518507.744,-17.142597
1425518507.76,-18.71165
1425518507.776,-19.596548
1425518507.791,-19.974108
1425518507.807,-20.001226
1425518507.822,-19.74188
1425518507.838,-19.220957
1425518507.854,-18.502638
1425518507.869,-17.697596
1425518507.885,-16.991112
1425518507.901,-16.516476
1425518507.916,-16.311007
1425518507.932,-16.218647
1425518507.947,-15.97398
1425518507.963,-15.243866
1425518507.979,-13.847973
1425518507.994,-11.784628
1425518508.01,-9.328482
1425518508.026,-6.7387276
1425518508.041,-4.3156414
1425518508.057,-2.1820354
1425518508.072,-0.29521942
1425518508.088,1.492836
1425518508.104,3.3310194
1425518508.119,5.277626
1425518508.135,7.233551
1425518508.151,9.003079
1425518508.166,10.352576
1425518508.182,11.172391
1425518508.198,11.460838
1425518508.213,11.37821
1425518508.229,11.104743
1425518508.244,10.790346
1425518508.26,10.473443
1425518508.276,10.126185
1425518508.291,9.673663
1425518508.307,9.109646
1425518508.322,8.481422
1425518508.338,7.880824
1425518508.354,7.39532
1425518508.369,7.0517936
1425518508.385,6.757765
1425518508.401,6.441713
1425518508.416,6.031584
1425518508.432,5.574039
1425518508.448,5.184565
1425518508.463,4.9698553
1425518508.479,4.9635134
1425518508.494,5.100565
1425518508.51,5.270833
1425518508.526,5.3583856
1425518508.541,5.2900696
1425518508.557,5.0998597
1425518508.573,4.838282
1425518508.588,4.5981584
1425518508.604,4.4006157
1425518508.619,4.266378
1425518508.635,4.2247543
1425518508.651,4.33102
1425518508.666,4.6131544
1425518508.682,5.020251
1425518508.698,5.3265653
1425518508.713,5.180851
1425518508.729,4.179957
1425518508.744,2.1139054
1425518508.76,-0.9343741
1425518508.776,-4.532005
1425518508.791,-8.033202
1425518508.807,-10.787281
1425518508.823,-12.4094305
1425518508.838,-12.813398
1425518508.854,-12.272907
1425518508.869,-11.195347
1425518508.885,-10.007584
1425518508.901,-8.968573
1425518508.916,-8.168889
1425518508.932,-7.5703173
1425518508.948,-7.039502
1425518508.963,-6.478526
1425518508.979,-5.844624
1425518508.994,-5.182215
1425518509.01,-4.601096
1425518509.026,-4.3042064
1425518509.041,-4.475425
1425518509.057,-5.181015
1425518509.073,-6.327717
1425518509.088,-7.6872883
1425518509.104,-9.03396
1425518509.119,-10.221453
1425518509.135,-11.243237
1425518509.151,-12.126518
1425518509.166,-12.8762045
1425518509.182,-13.341208
1425518509.198,-13.31894
1425518509.213,-12.649054
1425518509.229,-11.353291
1425518509.244,-9.650366
1425518509.26,-7.8647556
1425518509.276,-6.245325
1425518509.291,-4.889017
1425518509.307,-3.7099152
1425518509.323,-2.573782
1425518509.338,-1.371851
1425518509.354,-0.13487816
1425518509.369,1.0200329
1425518509.385,1.9260769
1425518509.401,2.498932
1425518509.416,2.7503471
1425518509.432,2.8075752
1425518509.448,2.8415146
1425518509.463,3.0408573
1425518509.479,3.5209236
1425518509.494,4.3295593
1425518509.51,5.400196
1425518509.526,6.5997963
1425518509.541,7.768196
1425518509.557,8.785053
1425518509.573,9.611473
1425518509.588,10.331024
1425518509.604,11.140289
1425518509.619,12.3228
1425518509.635,14.15427
1425518509.651,16.796116
1425518509.666,20.14909
1425518509.682,23.822319
1425518509.698,27.14735
1425518509.713,29.365711
1425518509.729,29.845589
1425518509.744,28.313484
1425518509.76,24.88649
1425518509.776,20.085228
1425518509.791,14.5873375
1425518509.807,9.093517
1425518509.823,4.1067924
1425518509.838,-0.061935425
1425518509.854,-3.3144379
1425518509.869,-5.6644173
1425518509.885,-7.186905
1425518509.901,-7.9680176
1425518509.916,-8.113068
1425518509.932,-7.728611
1425518509.948,-6.962715
1425518509.963,-5.960659
1425518509.979,-4.8794746
1425518509.994,-3.843628
1425518510.01,-2.944641
1425518510.026,-2.2313156
1425518510.041,-1.7749748
1425518510.057,-1.6110649
1425518510.073,-1.8305702
1425518510.088,-2.4416084
1425518510.104,-3.4049225
1425518510.119,-4.572895
1425518510.135,-5.7541428
1425518510.151,-6.755619
1425518510.166,-7.4086
1425518510.182,-7.6053047
1425518510.198,-7.297127
1425518510.213,-6.5358696
1425518510.229,-5.4757423
1425518510.244,-4.3447876
1425518510.26,-3.3887367
1425518510.276,-2.743042
1425518510.291,-2.398182
1425518510.307,-2.1630554
1425518510.323,-1.8291321
1425518510.338,-1.244976
1425518510.354,-0.4545784
1425518510.369,0.37540054
1425518510.385,1.0414505
1425518510.401,1.4817963
1425518510.416,1.7703972
1425518510.432,2.1087532
1425518510.448,2.7048416
1425518510.463,3.634739
1425518510.479,4.8380203
1425518510.494,6.155735
1425518510.51,7.426506
1425518510.526,8.587326
1425518510.541,9.675949
1425518510.557,10.896317
1425518510.573,12.481125
1425518510.588,14.660484
1425518510.604,17.501892
1425518510.619,20.871227
1425518510.635,24.390423
1425518510.651,27.514397
1425518510.666,29.617924
1425518510.682,30.154377
1425518510.698,28.756882
1425518510.713,25.325245
1425518510.729,20.051884
1425518510.744,13.404766
1425518510.76,6.065426
1425518510.776,-1.1858139
1425518510.791,-7.627983
1425518510.807,-12.702106
1425518510.823,-16.148434
1425518510.838,-17.990673
1425518510.854,-18.525791
1425518510.87,-18.186092
1425518510.885,-17.4314
1425518510.901,-16.646362
1425518510.916,-16.093174
1425518510.932,-15.885284
1425518510.948,-15.969894
1425518510.963,-16.130283
1425518510.979,-16.038712
1425518510.994,-15.325222
1425518511.01,-13.781754
1425518511.026,-11.502384
1425518511.041,-9.065224
1425518511.057,-7.4361076
1425518511.073,-7.718609
1425518511.088,-10.677338
1425518511.104,-16.373356
1425518511.12,-24.030056
1425518511.135,-32.241714
1425518511.151,-39.472107
1425518511.166,-44.548473
1425518511.182,-46.928627
1425518511.198,-46.66519
1425518511.213,-44.092144
1425518511.229,-39.543068
1425518511.245,-33.212154
1425518511.26,-25.263878
1425518511.276,-15.998112
1425518511.291,-6.0227165
1425518511.307,3.8790092
1425518511.323,12.942562
1425518511.338,20.705238
1425518511.354,27.079777
1425518511.37,32.317356
1425518511.385,36.811657
1425518511.401,40.892067
1425518511.416,44.6904
1425518511.432,48.129017
1425518511.448,50.977222
1425518511.463,52.99141
1425518511.479,54.005028
1425518511.495,54.025406
1425518511.51,53.19976
1425518511.526,51.848373
1425518511.541,50.34421
1425518511.557,49.085026
1425518511.573,48.369995
1425518511.588,48.37334
1425518511.604,49.01395
1425518511.62,49.973457
1425518511.635,50.676605
1425518511.651,50.409164
1425518511.666,48.495712
1425518511.682,44.502293
1425518511.698,38.35934
1425518511.713,30.462284
1425518511.729,21.52644
1425518511.745,12.432409
1425518511.76,3.9503002
1425518511.776,-3.3530674
1425518511.791,-9.259291
1425518511.807,-13.786951
1425518511.823,-17.098022
1425518511.838,-19.34339
1425518511.854,-20.617315
1425518511.87,-20.937584
1425518511.885,-20.357334
1425518511.901,-19.023508
1425518511.916,-17.241217
1425518511.932,-15.414824
1425518511.948,-13.911036
1425518511.963,-12.942586
1425518511.979,-12.558486
1425518511.995,-12.68667
1425518512.01,-13.277732
1425518512.026,-14.384016
1425518512.041,-16.179663
1425518512.057,-18.769728
1425518512.073,-22.114952
1425518512.088,-25.890114
1425518512.104,-29.601782
1425518512.12,-32.728462
1425518512.135,-34.964832
1425518512.151,-36.26715
1425518512.166,-36.800255
1425518512.182,-36.7741
1425518512.198,-36.311752
1425518512.213,-35.394363
1425518512.229,-33.958702
1425518512.245,-31.997084
1425518512.26,-29.665691
1425518512.276,-27.212921
1425518512.291,-24.911957
1425518512.307,-22.936554
1425518512.323,-21.325962
1425518512.338,-19.98951
1425518512.354,-18.80632
1425518512.37,-17.658325
1425518512.385,-16.49133
1425518512.401,-15.266155
1425518512.416,-13.959347
1425518512.432,-12.552177
1425518512.448,-11.031792
1425518512.463,-9.379589
1425518512.479,-7.6115494
1425518512.495,-5.7380066
1425518512.51,-3.8071098
1425518512.526,-1.8736534
1425518512.541,0.018356323
1425518512.557,1.9294777
1425518512.573,4.0314674
1425518512.588,6.60067
1425518512.604,9.896774
1425518512.62,13.972523
1425518512.635,18.519466
1425518512.651,22.88459
1425518512.666,26.230888
1425518512.682,27.867588
1425518512.698,27.490032
1425518512.713,25.327282
1425518512.729,21.96632
1425518512.745,18.124985
1425518512.76,14.365391
1425518512.776,10.970379
1425518512.791,7.9611626
1425518512.807,5.2549477
1425518512.823,2.7697487
1425518512.838,0.50053024
1425518512.854,-1.5064087
1425518512.87,-3.1699905
1425518512.885,-4.425728
1425518512.901,-5.238041
1425518512.916,-5.621769
1425518512.932,-5.6591606
1425518512.948,-5.487362
1425518512.963,-5.2541046
1425518512.979,-5.0989075
1425518512.995,-5.021431
1425518513.01,-4.9448547
1425518513.026,-4.744381
1425518513.041,-4.337021
1425518513.057,-3.7465057
1425518513.073,-3.1313858
1425518513.088,-2.662716
1425518513.104,-2.439705
1425518513.12,-2.4194832
1425518513.135,-2.4451485
1425518513.151,-2.2996788
1425518513.166,-1.8047752
1425518513.182,-0.8956375
1425518513.198,0.36413574
1425518513.213,1.8167229
1425518513.229,3.27454
1425518513.245,4.5876694
1425518513.26,5.661396
1425518513.276,6.49728
1425518513.291,7.1211433
1425518513.307,7.5957794
1425518513.323,7.9925537
1425518513.338,8.423019
1425518513.354,8.987907
1425518513.37,9.765907
1425518513.385,10.747688
1425518513.401,11.822811
1425518513.416,12.79689
1425518513.432,13.5047035
1425518513.448,13.879196
1425518513.463,14.022736
1425518513.479,14.151138
1425518513.495,14.53701
1425518513.51,15.392254
1425518513.526,16.834648
1425518513.541,18.860561
1425518513.557,21.378265
1425518513.573,24.146423
1425518513.588,26.777054
1425518513.604,28.735779
1425518513.62,29.44339
1425518513.635,28.436626
1425518513.651,25.53928
1425518513.666,20.946613
1425518513.682,15.153538
1425518513.698,8.79958
1425518513.713,2.4962463
1425518513.729,-3.3303642
1425518513.745,-8.455212
1425518513.76,-12.816124
1425518513.776,-16.421852
1425518513.792,-19.291237
1425518513.807,-21.451454
1425518513.823,-22.920258
1425518513.838,-23.732224
1425518513.854,-23.981483
1425518513.87,-23.785667
1425518513.885,-23.328934
1425518513.901,-22.816704
1425518513.917,-22.436745
1425518513.932,-22.308876
1425518513.948,-22.435715
1425518513.963,-22.70588
1425518513.979,-22.953766
1425518513.995,-23.02932
1425518514.01,-22.877747
1425518514.026,-22.518242
1425518514.042,-22.02578
1425518514.057,-21.417213
1425518514.073,-20.670357
1425518514.088,-19.705437
1425518514.104,-18.464394
1425518514.12,-16.968964
1425518514.135,-15.349075
1425518514.151,-13.739914
1425518514.167,-12.210091
1425518514.182,-10.699631
1425518514.198,-9.063919
1425518514.213,-7.1454086
1425518514.229,-4.8708496
1425518514.245,-2.3109283
1425518514.26,0.3732605
1425518514.276,3.0033112
1425518514.292,5.4722595
1425518514.307,7.7676315
1425518514.323,9.954033
1425518514.338,12.11972
1425518514.354,14.298744
1425518514.37,16.455833
1425518514.385,18.46688
1425518514.401,20.207787
1425518514.417,21.597107
1425518514.432,22.665451
1425518514.448,23.58397
1425518514.463,24.629608
1425518514.479,26.103302
1425518514.495,28.230011
1425518514.51,31.000427
1425518514.526,34.143166
1425518514.542,37.11138
1425518514.557,39.198418
1425518514.573,39.6968
1425518514.588,38.098503
1425518514.604,34.27059
1425518514.62,28.52993
1425518514.635,21.532478
1425518514.651,14.131874
1425518514.667,7.076561
1425518514.682,0.8721695
1425518514.698,-4.3180847
1425518514.713,-8.580078
1425518514.729,-12.072121
1425518514.745,-14.889755
1425518514.76,-17.014801
1425518514.776,-18.38134
1425518514.792,-18.976387
1425518514.807,-18.935326
1425518514.823,-18.527184
1425518514.838,-18.03804
1425518514.854,-17.675346
1425518514.87,-17.513885
1425518514.885,-17.507256
1425518514.901,-17.572067
1425518514.917,-17.716255
1425518514.932,-17.982811
1425518514.948,-18.49231
1425518514.963,-19.313553
1425518514.979,-20.407478
1425518514.995,-21.561111
1425518515.01,-22.46997
1425518515.026,-22.806755
1425518515.042,-22.344513
1425518515.057,-21.051842
1425518515.073,-19.104614
1425518515.088,-16.83918
1425518515.104,-14.638336
1425518515.12,-12.781387
1425518515.135,-11.365341
1425518515.151,-10.289322
1425518515.167,-9.344955
1425518515.182,-8.328339
1425518515.198,-7.1336823
1425518515.213,-5.7536316
1425518515.229,-4.2745056
1425518515.245,-2.7420044
1425518515.26,-1.1948547
1425518515.276,0.38964844
1425518515.292,2.0297241
1425518515.307,3.7254639
1425518515.323,5.436432
1425518515.338,7.111267
1425518515.354,8.684296
1425518515.37,10.110901
1425518515.385,11.406357
1425518515.401,12.660217
1425518515.417,13.986908
1425518515.432,15.551956
1425518515.448,17.463852
1425518515.463,19.75035
1425518515.479,22.320251
1425518515.495,24.98059
1425518515.51,27.462036
1425518515.526,29.488235
1425518515.542,30.796158
1425518515.557,31.118698
1425518515.573,30.19722
1425518515.588,27.838394
1425518515.604,23.991394
1425518515.62,18.851898
1425518515.635,12.856842
1425518515.651,6.581253
1425518515.667,0.5641632
1425518515.682,-4.8398743
1425518515.698,-9.545029
1425518515.713,-13.579803
1425518515.729,-17.013977
1425518515.745,-19.804794
1425518515.76,-21.835266
1425518515.776,-22.998093
1425518515.792,-23.34018
1425518515.807,-23.07927
1425518515.823,-22.53009
1425518515.838,-21.949203
1425518515.854,-21.452377
1425518515.87,-21.006378
1425518515.885,-20.57843
1425518515.901,-20.234085
1425518515.917,-20.1922
1425518515.932,-20.698257
1425518515.948,-21.87857
1425518515.963,-23.591522
1425518515.979,-25.459885
1425518515.995,-27.017624
1425518516.01,-27.93573
1425518516.026,-28.15091
1425518516.042,-27.862167
1425518516.057,-27.359528
1425518516.073,-26.884323
1425518516.088,-26.498611
1425518516.104,-26.11647
1425518516.12,-25.583145
1425518516.135,-24.811646
1425518516.151,-23.772522
1425518516.167,-22.508804
1425518516.182,-21.036484
1425518516.198,-19.34813
1425518516.213,-17.393097
1425518516.229,-15.190628
1425518516.245,-12.862381
1425518516.26,-10.623596
1425518516.276,-8.665268
1425518516.292,-7.0675354
1425518516.307,-5.7139893
1425518516.323,-4.3762207
1425518516.338,-2.798523
1425518516.354,-0.8836212
1425518516.37,1.2730026
1425518516.385,3.4467163
1425518516.401,5.468567
1425518516.417,7.3476944
1425518516.432,9.367546
1425518516.448,11.9724045
1425518516.464,15.614731
1425518516.479,20.566803
1425518516.495,26.820961
1425518516.51,34.054276
1425518516.526,41.68271
1425518516.542,48.925064
1425518516.557,54.942406
1425518516.573,58.958733
1425518516.589,60.476234
1425518516.604,59.397804
1425518516.62,56.102753
1425518516.635,51.321922
1425518516.651,45.978867
1425518516.667,40.924988
1425518516.682,36.731018
1425518516.698,33.591766
1425518516.714,31.357674
1425518516.729,29.648613
1425518516.745,28.027779
1425518516.76,26.128342
1425518516.776,23.741692
1425518516.792,20.804253
1425518516.807,17.35749
1425518516.823,13.472137
1425518516.839,9.279991
1425518516.854,4.970764
1425518516.87,0.8138199
1425518516.885,-2.9050598
1425518516.901,-5.9612274
1425518516.917,-8.364998
1425518516.932,-10.323189
1425518516.948,-12.275948
1425518516.964,-14.724274
1425518516.979,-18.093178
1425518516.995,-22.607002
1425518517.01,-28.213676
1425518517.026,-34.541092
1425518517.042,-40.93844
1425518517.057,-46.623978
1425518517.073,-50.94052
1425518517.089,-53.572556
1425518517.104,-54.695007
1425518517.12,-54.850914
1425518517.135,-54.716026
1425518517.151,-54.71955
1425518517.167,-54.88404
1425518517.182,-54.810577
1425518517.198,-53.949974
1425518517.214,-51.869194
1425518517.229,-48.47574
1425518517.245,-44.017876
1425518517.26,-38.97155
1425518517.276,-33.854042
1425518517.292,-29.0812
1425518517.307,-24.892387
1425518517.323,-21.386848
1425518517.339,-18.539276
1425518517.354,-16.299072
1425518517.37,-14.566238
1425518517.385,-13.202919
1425518517.401,-11.956062
1425518517.417,-10.481285
1425518517.432,-8.282639
1425518517.448,-4.8636856
1425518517.464,0.14237213
1425518517.479,6.821205
1425518517.495,14.866737
1425518517.51,23.536156
1425518517.526,31.766342
1425518517.542,38.36702
1425518517.557,42.32125
1425518517.573,43.07615
1425518517.589,40.756477
1425518517.604,36.125336
1425518517.62,30.39148
1425518517.635,24.776573
1425518517.651,20.175377
1425518517.667,16.931828
1425518517.682,14.926861
1425518517.698,13.7903595
1425518517.714,13.196598
1425518517.729,12.964588
1425518517.745,13.05603
1425518517.76,13.447758
1425518517.776,14.011574
1425518517.792,14.473644
1425518517.807,14.530521
1425518517.823,13.945343
1425518517.839,12.64629
1425518517.854,10.704025
1425518517.87,8.313744
1425518517.885,5.6542377
1425518517.901,2.8561573
1425518517.917,-0.054483414
1425518517.932,-3.1281414
1425518517.948,-6.4702682
1425518517.964,-10.163656
1425518517.979,-14.214254
1425518517.995,-18.494503
1425518518.01,-22.74665
1425518518.026,-26.63229
1425518518.042,-29.843258
1425518518.057,-32.16757
1425518518.073,-33.59682
1425518518.089,-34.225674
1425518518.104,-34.239635
1425518518.12,-33.739086
1425518518.135,-32.72662
1425518518.151,-31.080315
1425518518.167,-28.684122
1425518518.182,-25.535612
1425518518.198,-21.805298
1425518518.214,-17.808886
1425518518.229,-13.91217
1425518518.245,-10.38148
1425518518.26,-7.2871304
1425518518.276,-4.4878693
1425518518.292,-1.7296867
1425518518.307,1.2646503
1425518518.323,4.6761017
1425518518.339,8.538191
1425518518.354,12.686649
1425518518.37,16.797752
1425518518.385,20.399944
1425518518.401,22.983028
1425518518.417,24.093777
1425518518.432,23.467888
1425518518.448,21.091755
1425518518.464,17.237003
1425518518.479,12.3819275
1425518518.495,7.120571
1425518518.51,2.0436897
1425518518.526,-2.3464317
1425518518.542,-5.6925964
1425518518.557,-7.7751617
1425518518.573,-8.573143
1425518518.589,-8.183228
1425518518.604,-6.8197937
1425518518.62,-4.682129
1425518518.635,-1.9205322
1425518518.651,1.4553375
1425518518.667,5.479759
1425518518.682,10.128075
1425518518.698,15.230179
1425518518.714,20.419052
1425518518.729,25.200127
1425518518.745,29.099686
1425518518.76,31.821167
1425518518.776,33.324303
1425518518.792,33.80468
1425518518.807,33.62729
1425518518.823,33.133728
1425518518.839,32.585876
1425518518.854,32.077927
1425518518.87,31.59404
1425518518.885,31.03476
1425518518.901,30.319786
1425518518.917,29.393944
1425518518.932,28.281662
1425518518.948,27.041077
1425518518.964,25.759323
1425518518.979,24.529663
1425518518.995,23.41819
1425518519.01,22.492432
1425518519.026,21.80526
1425518519.042,21.39064
1425518519.057,21.253494
1425518519.073,21.347023
1425518519.089,21.649689
1425518519.104,22.185188
1425518519.12,23.08226
1425518519.136,24.498741
1425518519.151,26.526535
1425518519.167,29.020058
1425518519.182,31.521568
1425518519.198,33.311058
1425518519.214,33.630264
1425518519.229,31.933212
1425518519.245,28.127846
1425518519.261,22.581963
1425518519.276,15.986153
1425518519.292,9.127136
1425518519.307,2.6620178
1425518519.323,-2.9885788
1425518519.339,-7.6171646
1425518519.354,-11.193275
1425518519.37,-13.753151
1425518519.386,-15.415604
1425518519.401,-16.35292
1425518519.417,-16.804367
1425518519.432,-17.018394
1425518519.448,-17.219452
1425518519.464,-17.526047
1425518519.479,-17.92186
1425518519.495,-18.28762
1425518519.511,-18.485352
1425518519.526,-18.43663
1425518519.542,-18.21907
1425518519.557,-18.04821
1425518519.573,-18.217049
1425518519.589,-18.954758
1425518519.604,-20.293198
1425518519.62,-22.014046
1425518519.636,-23.71344
1425518519.651,-24.944695
1425518519.667,-25.371826
1425518519.682,-24.862389
1425518519.698,-23.491745
1425518519.714,-21.453384
1425518519.729,-18.97181
1425518519.745,-16.216415
1425518519.761,-13.28849
1425518519.776,-10.229546
1425518519.792,-7.0979156
1425518519.807,-3.9733887
1425518519.823,-0.9831314
1425518519.839,1.7630463
1425518519.854,4.1872826
1425518519.87,6.353016
1425518519.886,8.386948
1425518519.901,10.491535
1425518519.917,12.865246
1425518519.932,15.674881
1425518519.948,18.999493
1425518519.964,22.81179
1425518519.979,26.890663
1425518519.995,30.807621
1425518520.011,33.928623
1425518520.026,35.530025
1425518520.042,34.99526
1425518520.057,32.060123
1425518520.073,26.942837
1425518520.089,20.345642
1425518520.104,13.232712
1425518520.12,6.5408173
1425518520.136,0.8979416
1425518520.151,-3.4481277
1425518520.167,-6.608967
1425518520.182,-8.841007
1425518520.198,-10.390133
1425518520.214,-11.395126
1425518520.229,-11.895809
1425518520.245,-11.895905
1425518520.261,-11.452862
1425518520.276,-10.689896
1425518520.292,-9.785252
1425518520.307,-8.886417
1425518520.323,-8.063801
1425518520.339,-7.313244
1425518520.354,-6.636631
1425518520.37,-6.125435
1425518520.386,-5.976528
1425518520.401,-6.387329
1425518520.417,-7.453964
1425518520.432,-9.036716
1425518520.448,-10.797455
1425518520.464,-12.271053
1425518520.479,-13.082245
1425518520.495,-13.077415
1425518520.511,-12.3557625
1425518520.526,-11.158855
1425518520.542,-9.739565
1425518520.557,-8.234009
1425518520.573,-6.6819897
1425518520.589,-5.057354
1425518520.604,-3.363926
1425518520.62,-1.6477566
1425518520.636,0.047857285
1425518520.651,1.7457256
1425518520.667,3.5084763
1425518520.682,5.404917
1425518520.698,7.4324627
1425518520.714,9.510132
1425518520.729,11.509909
1425518520.745,13.414232
1425518520.761,15.3518715
1425518520.776,17.601685
1425518520.792,20.421791
1425518520.807,23.871956
1425518520.823,27.648518
1425518520.839,31.117455
1425518520.854,33.495403
1425518520.87,34.07124
1425518520.886,32.450573
1425518520.901,28.646347
1425518520.917,23.040789
1425518520.932,16.271023
1425518520.948,9.038007
1425518520.964,2.0053077
1425518520.979,-4.299406
1425518520.995,-9.498016
1425518521.011,-13.416843
1425518521.026,-16.04232
1425518521.042,-17.556217
1425518521.057,-18.223042
1425518521.073,-18.368969
1425518521.089,-18.274446
1425518521.104,-18.165354
1425518521.12,-18.179342
1425518521.136,-18.34507
1425518521.151,-18.608427
1425518521.167,-18.886908
1425518521.182,-19.125826
1425518521.198,-19.36253
1425518521.214,-19.729214
1425518521.229,-20.366138
1425518521.245,-21.352264
1425518521.261,-22.635632
1425518521.276,-24.023436
1425518521.292,-25.275124
1425518521.307,-26.155827
1425518521.323,-26.546757
1425518521.339,-26.42429
1425518521.354,-25.854858
1425518521.37,-24.922413
1425518521.386,-23.726355
1425518521.401,-22.36846
1425518521.417,-20.95285
1425518521.432,-19.589504
1425518521.448,-18.34257
1425518521.464,-17.199049
1425518521.479,-16.068558
1425518521.495,-14.782427
1425518521.511,-13.175974
1425518521.526,-11.108278
1425518521.542,-8.535534
1425518521.557,-5.5305767
1425518521.573,-2.3268518
1425518521.589,0.73868084
1425518521.604,3.2979965
1425518521.62,5.138076
1425518521.636,6.2896986
1425518521.651,7.0925922
1425518521.667,8.079713
1425518521.682,9.784267
1425518521.698,12.497363
1425518521.714,16.084528
1425518521.729,19.976482
1425518521.745,23.291912
1425518521.761,25.132345
1425518521.776,24.868694
1425518521.792,22.310438
1425518521.808,17.801054
1425518521.823,12.003972
1425518521.839,5.7289934
1425518521.854,-0.35258174
1425518521.87,-5.803459
1425518521.886,-10.486344
1425518521.901,-14.413908
1425518521.917,-17.617731
1425518521.932,-20.029896
1425518521.948,-21.49685
1425518521.964,-21.880215
1425518521.979,-21.206919
1425518521.995,-19.721992
1425518522.011,-17.84033
1425518522.026,-16.008705
1425518522.042,-14.525731
1425518522.058,-13.458395
1425518522.073,-12.697031
1425518522.089,-12.088055
1425518522.104,-11.618246
1425518522.12,-11.404125
1425518522.136,-11.624647
1425518522.151,-12.324116
1425518522.167,-13.355095
1425518522.183,-14.3696995
1425518522.198,-14.967529
1425518522.214,-14.86857
1425518522.229,-14.027918
1425518522.245,-12.581783
1425518522.261,-10.814949
1425518522.276,-8.984699
1425518522.292,-7.2974815
1425518522.308,-5.7915
1425518522.323,-4.4356384
1425518522.339,-3.0757027
1425518522.354,-1.5101433
1425518522.37,0.48433304
1425518522.386,3.0016441
1425518522.401,5.990551
1425518522.417,9.186386
1425518522.433,12.212189
1425518522.448,14.707275
1425518522.464,16.521465
1425518522.479,17.77911
1425518522.495,18.858105
1425518522.511,20.228188
1425518522.526,22.27438
1425518522.542,25.101643
1425518522.558,28.496227
1425518522.573,31.919094
1425518522.589,34.706966
1425518522.604,36.18534
1425518522.62,35.850845
1425518522.636,33.47612
1425518522.651,29.15799
1425518522.667,23.270538
1425518522.683,16.425934
1425518522.698,9.356453
1425518522.714,2.7788315
1425518522.729,-2.7742615
1425518522.745,-6.942528
1425518522.761,-9.675613
1425518522.776,-11.114479
1425518522.792,-11.562668
1425518522.808,-11.33596
1425518522.823,-10.724968
1425518522.839,-9.888702
1425518522.854,-8.910316
1425518522.87,-7.794754
1425518522.886,-6.567375
1425518522.901,-5.2933273
1425518522.917,-4.0832825
1425518522.933,-3.070938
1425518522.948,-2.3817673
1425518522.964,-2.0815964
1425518522.979,-2.168106
1425518522.995,-2.5656662
1425518523.011,-3.1586075
1425518523.026,-3.773346
1425518523.042,-4.247551
1425518523.058,-4.405426
1425518523.073,-4.1554947
1425518523.089,-3.4538574
1425518523.104,-2.3650284
1425518523.12,-1.0178146
1425518523.136,0.4513092
1425518523.151,1.9573898
1425518523.167,3.4793167
1425518523.183,5.093811
1425518523.198,6.881859
1425518523.214,8.916664
1425518523.229,11.174461
1425518523.245,13.591667
1425518523.261,16.047112
1425518523.276,18.457886
1425518523.292,20.775108
1425518523.308,23.017418
1425518523.323,25.242142
1425518523.339,27.560677
1425518523.354,30.06466
1425518523.37,32.800552
1425518523.386,35.615982
1425518523.401,38.118156
1425518523.417,39.660866
1425518523.433,39.53917
1425518523.448,37.21087
1425518523.464,32.59848
1425518523.479,26.14479
1425518523.495,18.720352
1425518523.511,11.293861
1425518523.526,4.607895
1425518523.542,-1.0347061
1425518523.558,-5.7211304
1425518523.573,-9.654602
1425518523.589,-12.922279
1425518523.604,-15.376312
1425518523.62,-16.748161
1425518523.636,-16.908417
1425518523.651,-16.006813
1425518523.667,-14.509224
1425518523.683,-12.981903
1425518523.698,-11.869957
1425518523.714,-11.288368
1425518523.729,-11.074715
1425518523.745,-10.920876
1425518523.761,-10.634781
1425518523.776,-10.2252655
1425518523.792,-9.902527
1425518523.808,-9.921509
1425518523.823,-10.418999
1425518523.839,-11.330429
1425518523.854,-12.4049225
1425518523.87,-13.326408
1425518523.886,-13.85775
1425518523.901,-13.903786
1425518523.917,-13.519951
1425518523.933,-12.825317
1425518523.948,-11.914299
1425518523.964,-10.722595
1425518523.979,-9.122383
1425518523.995,-6.978615
1425518524.011,-4.309433
1425518524.026,-1.3148575
1425518524.042,1.6744614
1425518524.058,4.372261
1425518524.073,6.629135
1425518524.089,8.496643
1425518524.104,10.131828
1425518524.12,11.69323
1425518524.136,13.261543
1425518524.151,14.859505
1425518524.167,16.527138
1425518524.183,18.4021
1425518524.198,20.701908
1425518524.214,23.626072
1425518524.229,27.155506
1425518524.245,31.022469
1425518524.261,34.602306
1425518524.276,37.11227
1425518524.292,37.819576
1425518524.308,36.291054
1425518524.323,32.506813
1425518524.339,26.873898
1425518524.354,20.075077
1425518524.37,12.876461
1425518524.386,5.932228
1425518524.401,-0.3259735
1425518524.417,-5.6938477
1425518524.433,-10.128826
1425518524.448,-13.669907
1425518524.464,-16.351723
1425518524.479,-18.199493
1425518524.495,-19.23492
1425518524.511,-19.532635
1425518524.526,-19.220081
1425518524.542,-18.507671
1425518524.558,-17.623142
1425518524.573,-16.784538
1425518524.589,-16.123783
1425518524.604,-15.674095
1425518524.62,-15.374521
1425518524.636,-15.1496315
1425518524.651,-14.956324
1425518524.667,-14.817772
1425518524.683,-14.810345
1425518524.698,-14.976448
1425518524.714,-15.298929
1425518524.73,-15.729181
1425518524.745,-16.107428
1425518524.761,-16.306799
1425518524.776,-16.205046
1425518524.792,-15.726114
1425518524.808,-14.818684
1425518524.823,-13.524519
1425518524.839,-11.93788
1425518524.855,-10.222113
1425518524.87,-8.532296
1425518524.886,-6.972871
1425518524.901,-5.5258656
1425518524.917,-4.0655956
1425518524.933,-2.397169
1425518524.948,-0.35727787
1425518524.964,2.0947533
1425518524.98,4.8233433
1425518524.995,7.6167345
1425518525.011,10.203454
1425518525.026,12.425276
1425518525.042,14.234085
1425518525.058,15.732481
1425518525.073,17.075943
1425518525.089,18.51836
1425518525.105,20.354036
1425518525.12,22.903257
1425518525.136,26.327988
1425518525.151,30.417736
1425518525.167,34.50104
1425518525.183,37.513462
1425518525.198,38.350567
1425518525.214,36.311806
1425518525.23,31.404665
1425518525.245,24.371523
1425518525.261,16.360395
1425518525.276,8.476868
1425518525.292,1.4150286
1425518525.308,-4.5728035
1425518525.323,-9.520106
1425518525.339,-13.478098
1425518525.355,-16.40319
1425518525.37,-18.149517
1425518525.386,-18.70798
1425518525.401,-18.267883
1425518525.417,-17.241467
1425518525.433,-16.095226
1425518525.448,-15.178455
1425518525.464,-14.5909195
1425518525.48,-14.269798
1425518525.495,-14.005695
1425518525.511,-13.650446
1425518525.526,-13.203808
1425518525.542,-12.862688
1425518525.558,-12.882294
1425518525.573,-13.513767
1425518525.589,-14.821852
1425518525.605,-16.652033
1425518525.62,-18.676384
1425518525.636,-20.555393
1425518525.651,-22.034573
1425518525.667,-23.001068
1425518525.683,-23.412397
1425518525.698,-23.25887
1425518525.714,-22.51981
1425518525.73,-21.284416
1425518525.745,-19.711288
1425518525.761,-18.121569
1425518525.776,-16.844357
1425518525.792,-16.102436
1425518525.808,-15.926327
1425518525.823,-16.198267
1425518525.839,-16.72404
1425518525.855,-17.371185
1425518525.87,-18.095274
1425518525.886,-19.014448
1425518525.901,-20.363165
1425518525.917,-22.457901
1425518525.933,-25.634106
1425518525.948,-30.123104
1425518525.964,-35.90957
1425518525.98,-42.670906
1425518525.995,-49.80607
1425518526.011,-56.588463
1425518526.026,-62.36005
1425518526.042,-66.75027
1425518526.058,-69.6469
1425518526.073,-71.256256
1425518526.089,-71.97143
1425518526.105,-72.297
1425518526.12,-72.67069
1425518526.136,-73.38979
1425518526.151,-74.400375
1425518526.167,-75.2664
1425518526.183,-75.22564
1425518526.198,-73.42141
1425518526.214,-69.13492
1425518526.23,-62.009895
1425518526.245,-52.012608
1425518526.261,-39.4639
1425518526.276,-24.937958
1425518526.292,-9.209045
1425518526.308,6.8213425
1425518526.323,22.178879
1425518526.339,36.00576
1425518526.355,47.642097
1425518526.37,56.768044
1425518526.386,63.347153
1425518526.401,67.575806
1425518526.417,69.76688
1425518526.433,70.278275
1425518526.448,69.42205
1425518526.464,67.45384
1425518526.48,64.57942
1425518526.495,60.973495
1425518526.511,56.79593
1425518526.526,52.241364
1425518526.542,47.548325
1425518526.558,42.986298
1425518526.573,38.78618
1425518526.589,35.111496
1425518526.605,32.008224
1425518526.62,29.508286
1425518526.636,27.57611
1425518526.651,26.160538
1425518526.667,25.096695
1425518526.683,24.158997
1425518526.698,23.06334
1425518526.714,21.645508
1425518526.73,19.932602
1425518526.745,18.189774
1425518526.761,16.771133
1425518526.776,15.967728
1425518526.792,15.826935
1425518526.808,16.165695
1425518526.823,16.633362
1425518526.839,16.947113
1425518526.855,17.044617
1425518526.87,17.131607
1425518526.886,17.580856
1425518526.901,18.78917
1425518526.917,20.966446
1425518526.933,24.10408
1425518526.948,27.935776
1425518526.964,32.007446
1425518526.98,35.705902
1425518526.995,38.381012
1425518527.011,39.404312
1425518527.026,38.31955
1425518527.042,34.983826
1425518527.058,29.628647
1425518527.073,22.822357
1425518527.089,15.35881
1425518527.105,8.025772
1425518527.12,1.4832306
1425518527.136,-3.880539
1425518527.151,-7.8985596
1425518527.167,-10.589188
1425518527.183,-12.040726
1425518527.198,-12.406357
1425518527.214,-11.8806
1425518527.23,-10.685318
1425518527.245,-9.056793
1425518527.261,-7.219116
1425518527.276,-5.3491364
1425518527.292,-3.6210938
1425518527.308,-2.1854553
1425518527.323,-1.1967163
1425518527.339,-0.77963257
1425518527.355,-1.0159302
1425518527.37,-1.8886871
1425518527.386,-3.2841034
1425518527.402,-5.00177
1425518527.417,-6.8022766
1425518527.433,-8.390717
1425518527.448,-9.534958
1425518527.464,-10.060013
1425518527.48,-9.890427
1425518527.495,-9.057617
1425518527.511,-7.6990814
1425518527.527,-5.9816437
1425518527.542,-4.041504
1425518527.558,-1.944519
1425518527.573,0.28967285
1425518527.589,2.6659546
1425518527.605,5.125656
1425518527.62,7.5979156
1425518527.636,9.948715
1425518527.652,12.097351
1425518527.667,14.009338
1425518527.683,15.683334
1425518527.698,17.113708
1425518527.714,18.358719
1425518527.73,19.551422
1425518527.745,20.992065
1425518527.761,23.090286
1425518527.777,26.208755
1425518527.792,30.387497
1425518527.808,35.20662
1425518527.823,39.73755
1425518527.839,42.85045
1425518527.855,43.5354
1425518527.87,41.27005
1425518527.886,36.16127
1425518527.902,28.865662
1425518527.917,20.313248
1425518527.933,11.542908
1425518527.948,3.4119568
1425518527.964,-3.468689
1425518527.98,-8.787003
1425518527.995,-12.533463
1425518528.011,-14.941238
1425518528.027,-16.376709
1425518528.042,-17.182022
1425518528.058,-17.543747
1425518528.073,-17.493195
1425518528.089,-16.939484
1425518528.105,-15.885422
1425518528.12,-14.402222
1425518528.136,-12.744003
1425518528.152,-11.199631
1425518528.167,-9.983276
1425518528.183,-9.174133
1425518528.198,-8.758347
1425518528.214,-8.64386
1425518528.23,-8.777603
1425518528.245,-9.128616
1425518528.261,-9.67009
1425518528.277,-10.326401
1425518528.292,-10.965591
1425518528.308,-11.381912
1425518528.323,-11.370163
1425518528.339,-10.797379
1425518528.355,-9.667801
1425518528.37,-8.124817
1425518528.386,-6.4342957
1425518528.402,-4.8609467
1425518528.417,-3.5962524
1425518528.433,-2.6198273
1425518528.448,-1.7432404
1425518528.464,-0.63960266
1425518528.48,1.0148468
1425518528.495,3.3953857
1425518528.511,6.4303894
1425518528.527,9.8112335
1425518528.542,13.083527
1425518528.558,15.834183
1425518528.573,17.818237
1425518528.589,19.09314
1425518528.605,19.938278
1425518528.62,20.785553
1425518528.636,22.029755
1425518528.652,23.952698
1425518528.667,26.631973
1425518528.683,29.914429
1425518528.698,33.40518
1425518528.714,36.485718
1425518528.73,38.375412
1425518528.745,38.342712
1425518528.761,35.88176
1425518528.777,30.970474
1425518528.792,24.095154
1425518528.808,16.141068
1425518528.823,8.096115
1425518528.839,0.7756195
1425518528.855,-5.358185
1425518528.87,-10.15332
1425518528.886,-13.675842
1425518528.902,-16.058441
1425518528.917,-17.479706
1425518528.933,-18.108826
1425518528.948,-18.168076
1425518528.964,-17.86827
1425518528.98,-17.404846
1425518528.995,-16.883118
1425518529.011,-16.35228
1425518529.027,-15.835861
1425518529.042,-15.403687
1425518529.058,-15.134476
1425518529.073,-15.125839
1425518529.089,-15.404633
1425518529.105,-15.947121
1425518529.12,-16.637146
1425518529.136,-17.346176
1425518529.152,-17.93303
1425518529.167,-18.286903
1425518529.183,-18.31224
1425518529.198,-17.967216
1425518529.214,-17.25563
1425518529.23,-16.251526
1425518529.245,-15.032249
1425518529.261,-13.699776
1425518529.277,-12.319008
1425518529.292,-10.942947
1425518529.308,-9.581093
1425518529.323,-8.254097
1425518529.339,-6.9537888
1425518529.355,-5.6924133
1425518529.37,-4.451645
1425518529.386,-3.2097778
1425518529.402,-1.9206848
1425518529.417,-0.5319443
1425518529.433,1.0063553
1425518529.448,2.701355
1425518529.464,4.5161285
1425518529.48,6.345749
1425518529.495,8.087791
1425518529.511,9.698708
1425518529.527,11.268021
1425518529.542,13.00238
1425518529.558,15.176506
1425518529.573,18.033134
1425518529.589,21.67994
1425518529.605,25.961014
1425518529.62,30.473625
1425518529.636,34.532623
1425518529.652,37.32437
1425518529.667,38.06629
1425518529.683,36.261482
1425518529.698,31.848358
1425518529.714,25.281906
1425518529.73,17.425133
1425518529.745,9.29261
1425518529.761,1.7741089
1425518529.777,-4.544285
1425518529.792,-9.419739
1425518529.808,-12.8493
1425518529.823,-14.967087
1425518529.839,-15.943813
1425518529.855,-16.022587
1425518529.87,-15.483273
1425518529.886,-14.682503
1425518529.902,-13.984051
1425518529.917,-13.657352
1425518529.933,-13.835915
1425518529.948,-14.520588
1425518529.964,-15.570553
1425518529.98,-16.792927
1425518529.995,-17.919933
1425518530.011,-18.73536
1425518530.027,-19.15371
1425518530.042,-19.261814
1425518530.058,-19.307415
1425518530.074,-19.56691
1425518530.089,-20.179512
1425518530.105,-21.035936
1425518530.12,-21.803658
1425518530.136,-22.098894
1425518530.152,-21.656816
1425518530.167,-20.498028
1425518530.183,-18.82748
1425518530.199,-16.944876
1425518530.214,-15.057837
1425518530.23,-13.212446
1425518530.245,-11.325819
1425518530.261,-9.334965
1425518530.277,-7.285921
1425518530.292,-5.356415
1425518530.308,-3.7374535
1425518530.324,-2.5425014
1425518530.339,-1.693325
1425518530.355,-0.99985313
1425518530.37,-0.1688919
1425518530.386,0.9998083
1425518530.402,2.5381212
1425518530.417,4.2693033
1425518530.433,5.9293623
1425518530.449,7.292775
1425518530.464,8.348757
1425518530.48,9.29469
1425518530.495,10.507928
1425518530.511,12.37687
1425518530.527,15.152303
1425518530.542,18.802414
1425518530.558,22.985394
1425518530.574,27.04387
1425518530.589,30.137142
1425518530.605,31.41615
1425518530.62,30.285357
1425518530.636,26.576876
1425518530.652,20.643295
1425518530.667,13.264065
1425518530.683,5.414424
1425518530.699,-2.0213902
1425518530.714,-8.441341
1425518530.73,-13.585572
1425518530.745,-17.403334
1425518530.761,-19.967714
1425518530.777,-21.365938
1425518530.792,-21.741135
1425518530.808,-21.275827
1425518530.824,-20.272083
1425518530.839,-19.016258
1425518530.855,-17.76802
1425518530.87,-16.687506
1425518530.886,-15.848129
1425518530.902,-15.294428
1425518530.917,-15.0666275
1425518530.933,-15.220811
1425518530.949,-15.7808075
1425518530.964,-16.714046
1425518530.98,-17.891516
1425518530.995,-19.12141
1425518531.011,-20.185131
1425518531.027,-20.918278
1425518531.042,-21.259497
1425518531.058,-21.237978
1425518531.074,-20.969603
1425518531.089,-20.5509
1425518531.105,-20.024506
1425518531.12,-19.30255
1425518531.136,-18.269186
1425518531.152,-16.850088
1425518531.167,-15.132719
1425518531.183,-13.295766
1425518531.199,-11.59058
1425518531.214,-10.146885
1425518531.23,-8.927719
1425518531.245,-7.741454
1425518531.261,-6.3405957
1425518531.277,-4.5701027
1425518531.292,-2.4136267
1425518531.308,0.054665923
1425518531.324,2.6958938
1425518531.339,5.367937
1425518531.355,7.916691
1425518531.37,10.20899
1425518531.386,12.144254
1425518531.402,13.766052
1425518531.417,15.293441
1425518531.433,17.102833
1425518531.449,19.584423
1425518531.464,22.915245
1425518531.48,26.87704
1425518531.495,30.83322
1425518531.511,33.881016
1425518531.527,35.147156
1425518531.542,34.080757
1425518531.558,30.670467
1425518531.574,25.36058
1425518531.589,18.876732
1425518531.605,11.962776
1425518531.62,5.1732187
1425518531.636,-1.1486635
1425518531.652,-6.7870064
1425518531.667,-11.579171
1425518531.683,-15.257173
1425518531.699,-17.555708
1425518531.714,-18.317709
1425518531.73,-17.636002
1425518531.745,-15.874149
1425518531.761,-13.599779
1425518531.777,-11.381376
1425518531.792,-9.653561
1425518531.808,-8.628706
1425518531.824,-8.324493
1425518531.839,-8.626474
1425518531.855,-9.347477
1425518531.87,-10.238115
1425518531.886,-11.061651
1425518531.902,-11.65118
1425518531.917,-11.997793
1425518531.933,-12.187447
1425518531.949,-12.382452
1425518531.964,-12.641388
1425518531.98,-12.871321
1425518531.995,-12.839359
1425518532.011,-12.311607
1425518532.027,-11.1822815
1425518532.042,-9.529039
1425518532.058,-7.471136
1425518532.074,-5.1221027
1425518532.089,-2.493002
1425518532.105,0.43762589
1425518532.12,3.6381035
1425518532.136,6.912611
1425518532.152,9.983711
1425518532.167,12.584728
1425518532.183,14.622763
1425518532.199,16.189932
1425518532.214,17.537453
1425518532.23,18.914362
1425518532.245,20.550934
1425518532.261,22.571575
1425518532.277,25.059101
1425518532.292,28.055061
1425518532.308,31.53833
1425518532.324,35.28796
1425518532.339,38.840454
1425518532.355,41.482254
1425518532.37,42.416176
1425518532.386,41.006695
1425518532.402,37.02031
1425518532.417,30.749048
1425518532.433,23.011942
1425518532.449,14.840628
1425518532.464,7.171385
1425518532.48,0.57201004
1425518532.495,-4.810604
1425518532.511,-9.125355
1425518532.527,-12.542385
1425518532.542,-15.088194
1425518532.558,-16.639679
1425518532.574,-17.056442
1425518532.589,-16.37857
1425518532.605,-14.917767
1425518532.62,-13.167595
1425518532.636,-11.639315
1425518532.652,-10.636797
1425518532.667,-10.225752
1425518532.683,-10.245283
1425518532.699,-10.475822
1425518532.714,-10.742554
1425518532.73,-10.995176
1425518532.746,-11.256067
1425518532.761,-11.571522
1425518532.777,-11.945705
1425518532.792,-12.346727
1425518532.808,-12.676426
1425518532.824,-12.852514
1425518532.839,-12.791365
1425518532.855,-12.460948
1425518532.87,-11.818189
1425518532.886,-10.851388
1425518532.902,-9.559239
1425518532.917,-7.9991016
1425518532.933,-6.2849855
1425518532.949,-4.5791006
1425518532.964,-3.0415611
1425518532.98,-1.7143345
1425518532.996,-0.46117592
1425518533.011,0.9788904
1425518533.027,2.8901606
1425518533.042,5.384734
1425518533.058,8.326554
1425518533.074,11.340051
1425518533.089,14.002586
1425518533.105,16.026802
1425518533.121,17.410593
1425518533.136,18.405449
1425518533.152,19.40677
1425518533.167,20.759628
1425518533.183,22.693798
1425518533.199,25.293945
1425518533.214,28.5452
1425518533.23,32.322662
1425518533.246,36.33074
1425518533.261,40.043064
1425518533.277,42.71313
1425518533.292,43.493965
1425518533.308,41.725426
1425518533.324,37.171726
1425518533.339,30.202808
1425518533.355,21.678225
1425518533.371,12.734381
1425518533.386,4.3940535
1425518533.402,-2.659501
1425518533.417,-8.206194
1425518533.433,-12.329229
1425518533.449,-15.284753
1425518533.464,-17.293736
1425518533.48,-18.508438
1425518533.496,-19.052252
1425518533.511,-19.108713
1425518533.527,-18.93072
1425518533.542,-18.793158
1425518533.558,-18.83404
1425518533.574,-19.060577
1425518533.589,-19.310143
1425518533.605,-19.470947
1425518533.621,-19.508629
1425518533.636,-19.604847
1425518533.652,-20.007004
1425518533.667,-20.919823
1425518533.683,-22.379124
1425518533.699,-24.228458
1425518533.714,-26.135326
1425518533.73,-27.676926
1425518533.746,-28.435051
1425518533.761,-28.117313
1425518533.777,-26.64058
1425518533.792,-24.217598
1425518533.808,-21.277264
1425518533.824,-18.388489
1425518533.839,-16.022884
1425518533.855,-14.4291115
1425518533.871,-13.573982
1425518533.886,-13.177982
1425518533.902,-12.854328
1425518533.917,-12.266113
1425518533.933,-11.104752
1425518533.949,-9.222855
1425518533.964,-6.653103
1425518533.98,-3.655346
1425518533.996,-0.6534195
1425518534.011,1.8676872
1425518534.027,3.584484
1425518534.042,4.4795647
1425518534.058,4.8579445
1425518534.074,5.160839
1425518534.089,5.769512
1425518534.105,6.8079567
1425518534.121,8.247345
1425518534.136,9.944241
1425518534.152,11.766697
1425518534.167,13.638828
1425518534.183,15.482819
1425518534.199,17.194855
1425518534.214,18.730572
1425518534.23,20.228176
1425518534.246,22.071918
1425518534.261,24.764622
1425518534.277,28.65429
1425518534.292,33.573257
1425518534.308,38.770054
1425518534.324,43.013165
1425518534.339,45.051678
1425518534.355,44.044594
1425518534.371,39.862953
1425518534.386,33.061096
1425518534.402,24.652447
1425518534.417,15.747253
1425518534.433,7.287739
1425518534.449,-0.0983963
1425518534.464,-6.09153
1425518534.48,-10.614777
1425518534.496,-13.70208
1425518534.511,-15.490395
1425518534.527,-16.17831
1425518534.542,-16.013565
1425518534.558,-15.297993
1425518534.574,-14.372864
1425518534.589,-13.536003
1425518534.605,-13.042717
1425518534.621,-12.990547
1425518534.636,-13.360886
1425518534.652,-14.015587
1425518534.667,-14.80677
1425518534.683,-15.647522
1425518534.699,-16.558838
1425518534.714,-17.619415
1425518534.73,-18.893494
1425518534.746,-20.328522
1425518534.761,-21.783081
1425518534.777,-23.053932
1425518534.792,-23.999588
1425518534.808,-24.578186
1425518534.824,-24.87204
1425518534.839,-24.97866
1425518534.855,-24.964615
1425518534.871,-24.734581
1425518534.886,-24.119682
1425518534.902,-22.939156
1425518534.917,-21.16629
1425518534.933,-18.965195
1425518534.949,-16.644447
1425518534.964,-14.510788
1425518534.98,-12.7421875
1425518534.996,-11.32029
1425518535.011,-10.085831
1425518535.027,-8.867043
1425518535.042,-7.5631714
1425518535.058,-6.1830826
1425518535.074,-4.8112183
1425518535.089,-3.5089798
1425518535.105,-2.3160324
1425518535.121,-1.1892624
1425518535.136,-0.06717682
1425518535.152,1.1474609
1425518535.167,2.5432281
1425518535.183,4.2029877
1425518535.199,6.1503983
1425518535.214,8.328712
1425518535.23,10.596733
1425518535.246,12.82505
1425518535.261,14.942551
1425518535.277,17.053856
1425518535.292,19.41011
1425518535.308,22.333282
1425518535.324,26.043068
1425518535.339,30.545418
1425518535.355,35.484993
1425518535.371,40.21322
1425518535.386,43.84559
1425518535.402,45.52485
1425518535.418,44.602074
1425518535.433,40.89164
1425518535.449,34.70404
1425518535.464,26.810165
1425518535.48,18.208878
1425518535.496,9.872604
1425518535.511,2.5113068
1425518535.527,-3.548668
1425518535.542,-8.275978
1425518535.558,-11.838493
1425518535.574,-14.417686
1425518535.589,-16.13034
1425518535.605,-17.05864
1425518535.621,-17.305641
1425518535.636,-17.051811
1425518535.652,-16.551102
1425518535.668,-16.100464
1425518535.683,-15.882507
1425518535.699,-15.987175
1425518535.714,-16.355675
1425518535.73,-16.923859
1425518535.746,-17.659576
1425518535.761,-18.634506
1425518535.777,-19.940788
1425518535.793,-21.563011
1425518535.808,-23.308167
1425518535.824,-24.822647
1425518535.839,-25.722778
1425518535.855,-25.828484
1425518535.871,-25.176353
1425518535.886,-24.094803
1425518535.902,-22.976768
1425518535.918,-22.159805
1425518535.933,-21.758457
1425518535.949,-21.665707
1425518535.964,-21.553612
1425518535.98,-21.034214
1425518535.996,-19.728714
1425518536.011,-17.442547
1425518536.027,-14.246593
1425518536.043,-10.535812
1425518536.058,-6.8625107
1425518536.074,-3.8139381
1425518536.089,-1.7609673
1425518536.105,-0.7374649
1425518536.121,-0.48015594
1425518536.136,-0.59020996
1425518536.152,-0.68174744
1425518536.168,-0.5022888
1425518536.183,0.12112808
1425518536.199,1.2740936
1425518536.214,2.9920921
1425518536.23,5.166767
1425518536.246,7.5496025
1425518536.261,9.78373
1425518536.277,11.548225
1425518536.293,12.779198
1425518536.308,13.770435
1425518536.324,15.073349
1425518536.339,17.300339
1425518536.355,20.729012
1425518536.371,25.199478
1425518536.386,29.984848
1425518536.402,34.0434
1425518536.418,36.286644
1425518536.433,35.99313
1425518536.449,32.96832
1425518536.464,27.627329
1425518536.48,20.797714
1425518536.496,13.42375
1425518536.511,6.2900295
1425518536.527,-0.09837341
1425518536.543,-5.5670414
1425518536.558,-10.04055
1425518536.574,-13.507647
1425518536.589,-15.943605
1425518536.605,-17.382553
1425518536.621,-17.94272
1425518536.636,-17.854975
1425518536.652,-17.395384
1425518536.668,-16.818422
1425518536.683,-16.289055
1425518536.699,-15.86805
1425518536.714,-15.535405
1425518536.73,-15.261635
1425518536.746,-15.024582
1425518536.761,-14.83103
1425518536.777,-14.730506
1425518536.793,-14.798133
1425518536.808,-15.030033
1425518536.824,-15.366869
1425518536.839,-15.635252
1425518536.855,-15.657089
1425518536.871,-15.294096
1425518536.886,-14.549485
1425518536.902,-13.4963665
1425518536.918,-12.233963
1425518536.933,-10.745458
1425518536.949,-8.934582
1425518536.964,-6.694271
1425518536.98,-4.02805
1425518536.996,-1.1189365
1425518537.011,1.68787
1425518537.027,4.06618
1425518537.043,5.8290167
1425518537.058,7.0495434
1425518537.074,8.005398
1425518537.089,9.044867
1425518537.105,10.385782
1425518537.121,12.05323
1425518537.136,13.883091
1425518537.152,15.645504
1425518537.168,17.181374
1425518537.183,18.513105
1425518537.199,19.807058
1425518537.214,21.320051
1425518537.23,23.29731
1425518537.246,25.874475
1425518537.261,29.028694
1425518537.277,32.55957
1425518537.293,36.068443
1425518537.308,39.04293
1425518537.324,40.8826
1425518537.339,41.016823
1425518537.355,39.04987
1425518537.371,34.914497
1425518537.386,28.885067
1425518537.402,21.567318
1425518537.418,13.712889
1425518537.433,6.0991497
1425518537.449,-0.6573734
1425518537.464,-6.144661
1425518537.48,-10.170452
1425518537.496,-12.705727
1425518537.511,-13.853855
1425518537.527,-13.81052
1425518537.543,-12.87574
1425518537.558,-11.364189
1425518537.574,-9.633381
1425518537.589,-7.9719925
1425518537.605,-6.6153145
1425518537.621,-5.724083
1425518537.636,-5.410721
1425518537.652,-5.7252083
1425518537.668,-6.6337585
1425518537.683,-7.909546
1425518537.699,-9.242596
1425518537.714,-10.334232
1425518537.73,-11.074982
1425518537.746,-11.538406
1425518537.761,-11.974094
1425518537.777,-12.572201
1425518537.793,-13.302742
1425518537.808,-13.900536
1425518537.824,-14.016796
1425518537.839,-13.398781
1425518537.855,-12.015423
1425518537.871,-9.987843
1425518537.886,-7.471943
1425518537.902,-4.5569687
1425518537.918,-1.3522682
1425518537.933,2.0000534
1425518537.949,5.208538
1425518537.964,7.982933
1425518537.98,10.162083
1425518537.996,11.825764
1425518538.011,13.232513
1425518538.027,14.683842
1425518538.043,16.320562
1425518538.058,18.18905
1425518538.074,20.22873
1425518538.089,22.410995
1425518538.105,24.745375
1425518538.121,27.287502
1425518538.136,30.05112
1425518538.152,33.002457
1425518538.168,36.0186
1425518538.183,38.876953
1425518538.199,41.17365
1425518538.214,42.353683
1425518538.23,41.7722
1425518538.246,39.01554
1425518538.261,34.079582
1425518538.277,27.472002
1425518538.293,20.038406
1425518538.308,12.6271
1425518538.324,5.8021393
1425518538.34,-0.22587013
1425518538.355,-5.4901943
1425518538.371,-10.026943
1425518538.386,-13.726209
1425518538.402,-16.370481
1425518538.418,-17.821478
1425518538.433,-18.103905
1425518538.449,-17.479286
1425518538.465,-16.333057
1425518538.48,-15.045319
1425518538.496,-13.873316
1425518538.511,-12.999679
1425518538.527,-12.521946
1425518538.543,-12.513964
1425518538.558,-13.00615
1425518538.574,-14.00428
1425518538.59,-15.407787
1425518538.605,-17.053843
1425518538.621,-18.675556
1425518538.636,-20.000126
1425518538.652,-20.826519
1425518538.668,-21.105713
1425518538.683,-20.929193
1425518538.699,-20.485765
1425518538.715,-19.894207
1425518538.73,-19.142586
1425518538.746,-18.08982
1425518538.761,-16.577873
1425518538.777,-14.5395355
1425518538.793,-12.089738
1425518538.808,-9.463632
1425518538.824,-6.914853
1425518538.84,-4.59146
1425518538.855,-2.4961042
1425518538.871,-0.48215103
1425518538.886,1.5792923
1425518538.902,3.7719498
1425518538.918,6.0461216
1425518538.933,8.251364
1425518538.949,10.217699
1425518538.965,11.805735
1425518538.98,13.0048065
1425518538.996,14.012875
1425518539.011,15.146894
1425518539.027,16.758205
1425518539.043,19.089912
1425518539.058,22.215296
1425518539.074,25.988695
1425518539.09,30.085587
1425518539.105,34.03936
1425518539.121,37.2541
1425518539.136,39.0566
1425518539.152,38.82567
1425518539.168,36.162323
1425518539.183,31.10688
1425518539.199,24.177345
1425518539.215,16.24929
1425518539.23,8.301109
1425518539.246,1.142086
1425518539.261,-4.771759
1425518539.277,-9.322933
1425518539.293,-12.608189
1425518539.308,-14.791386
1425518539.324,-16.00904
1425518539.34,-16.389812
1425518539.355,-16.123363
1425518539.371,-15.452465
1425518539.386,-14.696545
1425518539.402,-14.134068
1425518539.418,-13.979969
1425518539.433,-14.294697
1425518539.449,-15.025276
1425518539.465,-16.014362
1425518539.48,-17.098663
1425518539.496,-18.153416
1425518539.511,-19.127422
1425518539.527,-20.03516
1425518539.543,-20.90245
1425518539.558,-21.699303
1425518539.574,-22.326614
1425518539.59,-22.641579
1425518539.605,-22.517296
1425518539.621,-21.901356
1425518539.636,-20.865814
1425518539.652,-19.548012
1425518539.668,-18.137901
1425518539.683,-16.774933
1425518539.699,-15.511147
1425518539.715,-14.280792
1425518539.73,-13.003189
1425518539.746,-11.566711
1425518539.761,-9.955841
1425518539.777,-8.186996
1425518539.793,-6.315033
1425518539.808,-4.343643
1425518539.824,-2.2127533
1425518539.84,0.1533966
1425518539.855,2.7816544
1425518539.871,5.528427
1425518539.886,8.102234
1425518539.902,10.198051
1425518539.918,11.654289
1425518539.933,12.617271
1425518539.949,13.526337
1425518539.965,14.950516
1425518539.98,17.335358
1425518539.996,20.897804
1425518540.011,25.483917
1425518540.027,30.695198
1425518540.043,35.929344
1425518540.058,40.48649
1425518540.074,43.593124
1425518540.09,44.548088
1425518540.105,42.92247
1425518540.121,38.741364
1425518540.136,32.538635
1425518540.152,25.171959
1425518540.168,17.540283
1425518540.183,10.294106
1425518540.199,3.708496
1425518540.215,-2.1545563
1425518540.23,-7.280899
1425518540.246,-11.500603
1425518540.261,-14.578346
1425518540.277,-16.324875
1425518540.293,-16.809128
1425518540.308,-16.314049
1425518540.324,-15.254005
1425518540.34,-14.018356
1425518540.355,-12.892509
1425518540.371,-12.08593
1425518540.386,-11.786018
1425518540.402,-12.156639
1425518540.418,-13.281425
1425518540.433,-15.100151
1425518540.449,-17.367165
1425518540.465,-19.74797
1425518540.48,-21.96833
1425518540.496,-23.796135
1425518540.511,-25.16883
1425518540.527,-26.075752
1425518540.543,-26.562256
1425518540.558,-26.669601
1425518540.574,-26.473099
1425518540.59,-26.078857
1425518540.605,-25.5802
1425518540.621,-25.04306
1425518540.636,-24.45861
1425518540.652,-23.74894
1425518540.668,-22.786865
1425518540.683,-21.406326
1425518540.699,-19.488457
1425518540.715,-17.011215
1425518540.73,-14.113525
1425518540.746,-11.075348
1425518540.761,-8.235214
1425518540.777,-5.829422
1425518540.793,-3.9081955
1425518540.808,-2.2863083
1425518540.824,-0.6684036
1425518540.84,1.2173386
1425518540.855,3.439209
1425518540.871,5.849884
1425518540.886,8.170883
1425518540.902,10.152557
1425518540.918,11.703751
1425518540.933,12.966293
1425518540.949,14.267921
1425518540.965,16.026756
1425518540.98,18.61071
1425518540.996,22.17797
1425518541.012,26.534035
1425518541.027,31.089104
1425518541.043,34.915535
1425518541.058,37.04119
1425518541.074,36.74106
1425518541.09,33.77053
1425518541.105,28.404465
1425518541.121,21.329613
1425518541.137,13.359016
1425518541.152,5.275032
1425518541.168,-2.3157578
1425518541.183,-8.952805
1425518541.199,-14.31678
1425518541.215,-18.198364
1425518541.23,-20.566696
1425518541.246,-21.570274
1425518541.262,-21.52105
1425518541.277,-20.800217
1425518541.293,-19.759575
1425518541.308,-18.675522
1425518541.324,-17.730461
1425518541.34,-17.049004
1425518541.355,-16.711304
1425518541.371,-16.735275
1425518541.387,-17.069847
1425518541.402,-17.620483
1425518541.418,-18.332497
1425518541.433,-19.142967
1425518541.449,-20.068993
1425518541.465,-21.105324
1425518541.48,-22.167252
1425518541.496,-23.059746
1425518541.512,-23.55587
1425518541.527,-23.434372
1425518541.543,-22.600975
1425518541.558,-21.158775
1425518541.574,-19.333725
1425518541.59,-17.383278
1425518541.605,-15.5175705
1425518541.621,-13.806992
1425518541.637,-12.2246475
1425518541.652,-10.66201
1425518541.668,-9.029266
1425518541.683,-7.2348633
1425518541.699,-5.235878
1425518541.715,-2.9743195
1425518541.73,-0.42045593
1425518541.746,2.379959
1425518541.762,5.281784
1425518541.777,8.056808
1425518541.793,10.498543
1425518541.808,12.553848
1425518541.824,14.379616
1425518541.84,16.264938
1425518541.855,18.458076
1425518541.871,21.061722
1425518541.887,23.982174
1425518541.902,27.044773
1425518541.918,30.044296
1425518541.933,32.779255
1425518541.949,34.95592
1425518541.965,36.1271
1425518541.98,35.744045
1425518541.996,33.39842
1425518542.012,29.02399
1425518542.027,23.013432
1425518542.043,16.098568
1425518542.058,9.0989
1425518542.074,2.5944672
1425518542.09,-3.1196098
1425518542.105,-7.9870453
1425518542.121,-12.0263405
1425518542.137,-15.218071
1425518542.152,-17.452797
1425518542.168,-18.636093
1425518542.183,-18.6362
1425518542.199,-17.434593
1425518542.215,-15.164295
1425518542.23,-12.197262
1425518542.246,-9.08511
1425518542.262,-6.515465
1425518542.277,-5.0341682
1425518542.293,-4.8645515
1425518542.308,-5.8261147
1425518542.324,-7.453516
1425518542.34,-9.216064
1425518542.355,-10.746525
1425518542.371,-11.82168
1425518542.387,-12.369471
1425518542.402,-12.34123
1425518542.418,-11.717117
1425518542.433,-10.567442
1425518542.449,-9.0732765
1425518542.465,-7.481596
1425518542.48,-5.9785995
1425518542.496,-4.570244
1425518542.512,-3.0939598
1425518542.527,-1.331007
1425518542.543,0.8305111
1425518542.558,3.4105873
1425518542.574,6.271309
1425518542.59,9.249338
1425518542.605,12.185503
1425518542.621,14.948444
1425518542.637,17.386303
1425518542.652,19.384022
1425518542.668,20.886003
1425518542.683,21.9929
1425518542.699,22.982119
1425518542.715,24.266247
1425518542.73,26.261757
1425518542.746,29.29592
1425518542.762,33.361824
1425518542.777,38.02129
1425518542.793,42.41383
1425518542.808,45.42837
1425518542.824,46.012856
1425518542.84,43.585773
1425518542.855,38.222412
1425518542.871,30.656414
1425518542.887,22.013283
1425518542.902,13.424983
1425518542.918,5.6852894
1425518542.933,-0.8357725
1425518542.949,-6.1088324
1425518542.965,-10.232882
1425518542.98,-13.292334
1425518542.996,-15.288116
1425518543.012,-16.233456
1425518543.027,-16.191116
1425518543.043,-15.329183
1425518543.058,-13.92009
1425518543.074,-12.297569
1425518543.09,-10.787739
1425518543.105,-9.669046
1425518543.121,-9.057745
1425518543.137,-8.955986
1425518543.152,-9.268694
1425518543.168,-9.888298
1425518543.183,-10.787254
1425518543.199,-11.977987
1425518543.215,-13.448236
1425518543.23,-15.062689
1425518543.246,-16.536396
1425518543.262,-17.485043
1425518543.277,-17.621832
1425518543.293,-16.871492
1425518543.308,-15.404018
1425518543.324,-13.558409
1425518543.34,-11.645596
1425518543.355,-9.82855
1425518543.371,-8.113184
1425518543.387,-6.4358406
1425518543.402,-4.727522
1425518543.418,-2.9805202
1425518543.433,-1.2036839
1425518543.449,0.6267624
1425518543.465,2.6006012
1425518543.48,4.7842712
1425518543.496,7.218813
1425518543.512,9.817333
1425518543.527,12.431925
1425518543.543,14.885984
1425518543.558,17.082071
1425518543.574,19.022816
1425518543.59,20.827465
1425518543.605,22.692684
1425518543.621,24.883516
1425518543.637,27.645897
1425518543.652,31.10506
1425518543.668,35.12808
1425518543.684,39.201984
1425518543.699,42.45773
1425518543.715,43.87624
1425518543.73,42.63688
1425518543.746,38.445335
1425518543.762,31.686592
1425518543.777,23.31963
1425518543.793,14.52103
1425518543.808,6.3186073
1425518543.824,-0.6931915
1425518543.84,-6.3610344
1425518543.855,-10.822536
1425518543.871,-14.262806
1425518543.887,-16.822807
1425518543.902,-18.575172
1425518543.918,-19.602589
1425518543.934,-20.020115
1425518543.949,-19.979538
1425518543.965,-19.587688
1425518543.98,-18.916752
1425518543.996,-18.01831
1425518544.012,-17.030167
1425518544.027,-16.176228
1425518544.043,-15.696812
1425518544.059,-15.720921
1425518544.074,-16.207726
1425518544.09,-16.968407
1425518544.105,-17.84245
1425518544.121,-18.748909
1425518544.137,-19.742352
1425518544.152,-20.86834
1425518544.168,-22.05291
1425518544.184,-23.035557
1425518544.199,-23.485851
1425518544.215,-23.149841
1425518544.23,-21.990364
1425518544.246,-20.146511
1425518544.262,-17.851181
1425518544.277,-15.305771
1425518544.293,-12.638374
1425518544.309,-9.92115
1425518544.324,-7.2890625
1425518544.34,-4.9229126
1425518544.355,-3.0007477
1425518544.371,-1.5948639
1425518544.387,-0.61790466
1425518544.402,0.19983673
1425518544.418,1.1780624
1425518544.434,2.6317444
1425518544.449,4.71019
1425518544.465,7.3883514
1425518544.48,10.427895
1425518544.496,13.471794
1425518544.512,16.177635
1425518544.527,18.31881
1425518544.543,19.919472
1425518544.559,21.267784
1425518544.574,22.857475
1425518544.59,25.232628
1425518544.605,28.681496
1425518544.621,33.130516
1425518544.637,37.971725
1425518544.652,42.208267
1425518544.668,44.664658
1425518544.684,44.42491
1425518544.699,41.087227
1425518544.715,34.945625
1425518544.73,26.858253
1425518544.746,17.94661
1425518544.762,9.240974
1425518544.777,1.4236755
1425518544.793,-5.174263
1425518544.809,-10.428871
1425518544.824,-14.336884
1425518544.84,-16.902885
1425518544.855,-18.226456
1425518544.871,-18.511383
1425518544.887,-18.10801
1425518544.902,-17.411682
1425518544.918,-16.760216
1425518544.934,-16.369293
1425518544.949,-16.324898
1425518544.965,-16.612602
1425518544.98,-17.197678
1425518544.996,-18.036377
1425518545.012,-19.060623
1425518545.027,-20.189857
1425518545.043,-21.347809
1425518545.059,-22.449646
1425518545.074,-23.471611
1425518545.09,-24.375175
1425518545.105,-25.152618
1425518545.121,-25.723053
1425518545.137,-26.0299
1425518545.152,-25.976303
1425518545.168,-25.540962
1425518545.184,-24.668907
1425518545.199,-23.343163
1425518545.215,-21.570732
1425518545.23,-19.448387
1425518545.246,-17.153053
1425518545.262,-14.918961
1425518545.277,-12.961594
1425518545.293,-11.374435
1425518545.309,-10.110443
1425518545.324,-9.031189
1425518545.34,-7.989746
1425518545.355,-6.891182
1425518545.371,-5.665634
1425518545.387,-4.2978745
1425518545.402,-2.7260056
1425518545.418,-0.88809204
1425518545.434,1.2720261
1425518545.449,3.7315903
1425518545.465,6.410858
1425518545.48,9.178329
1425518545.496,11.909424
1425518545.512,14.51767
1425518545.527,16.983139
1425518545.543,19.312584
1425518545.559,21.611801
1425518545.574,24.02324
1425518545.59,26.776863
1425518545.605,30.070091
1425518545.621,33.9535
1425518545.637,38.149467
1425518545.652,42.031006
1425518545.668,44.68753
1425518545.684,45.210716
1425518545.699,42.98974
1425518545.715,37.96826
1425518545.73,30.662903
1425518545.746,22.009384
1425518545.762,13.0492935
1425518545.777,4.636696
1425518545.793,-2.7357101
1425518545.809,-8.87854
1425518545.824,-13.791969
1425518545.84,-17.505928
1425518545.855,-20.062866
1425518545.871,-21.496124
1425518545.887,-21.953339
1425518545.902,-21.69851
1425518545.918,-21.072159
1425518545.934,-20.374214
1425518545.949,-19.809608
1425518545.965,-19.454277
1425518545.98,-19.288582
1425518545.996,-19.250938
1425518546.012,-19.335373
1425518546.027,-19.589859
1425518546.043,-20.106796
1425518546.059,-20.964638
1425518546.074,-22.211952
1425518546.09,-23.767677
1425518546.105,-25.437378
1425518546.121,-26.901443
1425518546.137,-27.815804
1425518546.152,-27.909142
1425518546.168,-27.14907
1425518546.184,-25.71791
1425518546.199,-24.023178
1425518546.215,-22.440536
1425518546.23,-21.20005
1425518546.246,-20.257896
1425518546.262,-19.348885
1425518546.277,-18.132912
1425518546.293,-16.379387
1425518546.309,-14.049095
1425518546.324,-11.31591
1425518546.34,-8.467812
1425518546.356,-5.8117447
1425518546.371,-3.5242844
1425518546.387,-1.6492081
1425518546.402,-0.07585907
1425518546.418,1.3691788
1425518546.434,2.8646927
1425518546.449,4.4906006
1425518546.465,6.244652
1425518546.48,8.061203
1425518546.496,9.929985
1425518546.512,11.899887
1425518546.527,14.070465
1425518546.543,16.52893
1425518546.559,19.314346
1425518546.574,22.463646
1425518546.59,26.00455
1425518546.606,29.853733
1425518546.621,33.75907
1425518546.637,37.196247
1425518546.652,39.479923
1425518546.668,39.837856
1425518546.684,37.73601
1425518546.699,33.06595
1425518546.715,26.33345
1425518546.731,18.425926
1425518546.746,10.325233
1425518546.762,2.789402
1425518546.777,-3.7635384
1425518546.793,-9.176258
1425518546.809,-13.454277
1425518546.824,-16.691105
1425518546.84,-18.96846
1425518546.856,-20.29409
1425518546.871,-20.627895
1425518546.887,-20.071857
1425518546.902,-18.851559
1425518546.918,-17.361126
1425518546.934,-15.9303055
1425518546.949,-14.941143
1425518546.965,-14.722015
1425518546.981,-15.399639
1425518546.996,-16.609413
1425518547.012,-17.834988
1425518547.027,-18.776432
1425518547.043,-19.492718
1425518547.059,-20.37258
1425518547.074,-21.508944
1425518547.09,-22.935303
1425518547.106,-24.6374
1425518547.121,-26.421421
1425518547.137,-27.546339
1425518547.152,-27.322908
1425518547.168,-25.734219
1425518547.184,-23.409367
1425518547.199,-21.444561
1425518547.215,-20.042877
1425518547.231,-19.227716
1425518547.246,-18.896227
1425518547.262,-18.773165
1425518547.277,-17.776936
1425518547.293,-15.017303
1425518547.309,-10.671731
1425518547.324,-5.92483
1425518547.34,-2.5312355
1425518547.356,-0.7051225
1425518547.371,-0.11552906
1425518547.387,-0.24402618
1425518547.402,-0.2699089
1425518547.418,1.5813065
1425518547.434,6.8834667
1425518547.449,15.907589
1425518547.465,27.800375
1425518547.481,40.97126
1425518547.496,55.617218
1425518547.512,71.99518
1425518547.527,89.80878
1425518547.543,100.986206
1425518547.559,98.66052
1425518547.574,83.40408
1425518547.59,62.033646
1425518547.606,45.545174
1425518547.621,33.13598
1425518547.637,23.918552
1425518547.652,17.652327
1425518547.668,12.217846
1425518547.684,7.121601
1425518547.699,3.064392
1425518547.715,0.87646866
1425518547.731,0.44854736
1425518547.746,0.7794304
1425518547.762,0.22122192
1425518547.777,-1.0983963
1425518547.793,-2.8333435
1425518547.809,-4.8255424
1425518547.824,-6.7943687
1425518547.84,-7.8580666
1425518547.856,-7.381901
1425518547.871,-5.664055
1425518547.887,-3.8853836
1425518547.902,-3.6910553
1425518547.918,-5.173004
1425518547.934,-7.9546356
1425518547.949,-11.567783
1425518547.965,-15.276112
1425518547.981,-18.013584
1425518547.996,-18.884277
1425518548.012,-17.773499
1425518548.027,-15.311504
1425518548.043,-12.746853
1425518548.059,-10.537937
1425518548.074,-8.997055
1425518548.09,-8.274834
1425518548.106,-8.167454
1425518548.121,-8.103851
1425518548.137,-7.5127487
1425518548.152,-6.1506042
1425518548.168,-4.177391
1425518548.184,-1.898941
1425518548.199,0.78009415
1425518548.215,4.0106506
1425518548.231,7.7499046
1425518548.246,11.754299
1425518548.262,15.564938
1425518548.277,18.731762
1425518548.293,20.978622
1425518548.309,22.395844
1425518548.324,23.406471
1425518548.34,24.758575
1425518548.356,27.043797
1425518548.371,30.49892
1425518548.387,34.899235
1425518548.402,39.586803
1425518548.418,43.598354
1425518548.434,45.899418
1425518548.449,45.57891
1425518548.465,42.180565
1425518548.481,35.83931
1425518548.496,27.27592
1425518548.512,17.585499
1425518548.527,7.9007874
1425518548.543,-0.9118786
1425518548.559,-8.309757
1425518548.574,-14.100782
1425518548.59,-18.319033
1425518548.606,-21.14525
1425518548.621,-22.835587
1425518548.637,-23.725824
1425518548.652,-24.12756
1425518548.668,-24.294277
1425518548.684,-24.331896
1425518548.699,-24.2279
1425518548.715,-23.924212
1425518548.731,-23.423223
1425518548.746,-22.762983
1425518548.762,-22.038372
1425518548.777,-21.3424
1425518548.793,-20.76583
1425518548.809,-20.373734
1425518548.824,-20.290802
1425518548.84,-20.60532
1425518548.856,-21.329842
1425518548.871,-22.325493
1425518548.887,-23.301819
1425518548.902,-23.886623
1425518548.918,-23.796593
1425518548.934,-22.839172
1425518548.949,-21.040783
1425518548.965,-18.591892
1425518548.981,-15.774442
1425518548.996,-12.876566
1425518549.012,-10.105022
1425518549.027,-7.53852
1425518549.043,-5.130068
1425518549.059,-2.769184
1425518549.074,-0.35578156
1425518549.09,2.1341057
1425518549.106,4.6016607
1425518549.121,6.925606
1425518549.137,8.994623
1425518549.152,10.827656
1425518549.168,12.5440645
1425518549.184,14.3235035
1425518549.199,16.296738
1425518549.215,18.492954
1425518549.231,20.795143
1425518549.246,23.047028
1425518549.262,25.131289
1425518549.278,27.036161
1425518549.293,28.879337
1425518549.309,30.941824
1425518549.324,33.548683
1425518549.34,36.95291
1425518549.356,41.10872
1425518549.371,45.58429
1425518549.387,49.489532
1425518549.403,51.72393
1425518549.418,51.268486
1425518549.434,47.604702
1425518549.449,40.89577
1425518549.465,31.995605
1425518549.481,22.13199
1425518549.496,12.5504
1425518549.512,4.147032
1425518549.528,-2.6964922
1425518549.543,-8.003231
1425518549.559,-12.02284
1425518549.574,-15.008119
1425518549.59,-17.099075
1425518549.606,-18.383652
1425518549.621,-18.937447
1425518549.637,-18.961193
1425518549.653,-18.716732
1425518549.668,-18.531221
1425518549.684,-18.634384
1425518549.699,-19.158682
1425518549.715,-20.071915
1425518549.731,-21.285275
1425518549.746,-22.67035
1425518549.762,-24.139482
1425518549.778,-25.631842
1425518549.793,-27.10058
1425518549.809,-28.455439
1425518549.824,-29.566816
1425518549.84,-30.25307
1425518549.856,-30.396507
1425518549.871,-29.928202
1425518549.887,-28.893578
1425518549.903,-27.447664
1425518549.918,-25.802662
1425518549.934,-24.117447
1425518549.949,-22.460377
1425518549.965,-20.730469
1425518549.981,-18.768372
1425518549.996,-16.415619
1425518550.012,-13.641178
1425518550.028,-10.563065
1425518550.043,-7.4081345
1425518550.059,-4.400612
1425518550.074,-1.669529
1425518550.09,0.8073349
1425518550.106,3.1311607
1425518550.121,5.414383
1425518550.137,7.7016716
1425518550.153,9.941769
1425518550.168,12.003521
1425518550.184,13.775597
1425518550.199,15.188404
1425518550.215,16.329048
1425518550.231,17.374004
1425518550.246,18.618412
1425518550.262,20.360416
1425518550.278,22.87127
1425518550.293,26.27275
1425518550.309,30.528801
1425518550.324,35.315678
1425518550.34,40.05687
1425518550.356,43.933517
1425518550.371,46.02547
1425518550.387,45.567047
1425518550.403,42.21339
1425518550.418,36.19585
1425518550.434,28.317108
1425518550.449,19.68172
1425518550.465,11.344986
1425518550.481,3.9542274
1425518550.496,-2.299408
1425518550.512,-7.5867195
1425518550.528,-12.129044
1425518550.543,-15.989349
1425518550.559,-19.033295
1425518550.574,-21.082878
1425518550.59,-22.058903
1425518550.606,-22.106869
1425518550.621,-21.491837
1425518550.637,-20.522099
1425518550.653,-19.458374
1425518550.668,-18.512646
1425518550.684,-17.868809
1425518550.699,-17.723179
1425518550.715,-18.206512
1425518550.731,-19.35439
1425518550.746,-21.036503
1425518550.762,-22.995926
1425518550.778,-24.92897
1425518550.793,-26.5822
1425518550.809,-27.740028
1425518550.824,-28.293259
1425518550.84,-28.18406
1425518550.856,-27.452515
1425518550.871,-26.22171
1425518550.887,-24.694534
1425518550.903,-23.050163
1425518550.918,-21.40393
1425518550.934,-19.774582
1425518550.949,-18.093872
1425518550.965,-16.291412
1425518550.981,-14.361069
1425518550.996,-12.295616
1425518551.012,-10.105667
1425518551.028,-7.7883453
1425518551.043,-5.361122
1425518551.059,-2.875618
1425518551.074,-0.4260254
1425518551.09,1.901123
1425518551.106,4.046707
1425518551.121,6.016762
1425518551.137,7.8503036
1425518551.153,9.580391
1425518551.168,11.208969
1425518551.184,12.760456
1425518551.199,14.299385
1425518551.215,16.04475
1425518551.231,18.312832
1425518551.246,21.455444
1425518551.262,25.621922
1425518551.278,30.580448
1425518551.293,35.592323
1425518551.309,39.554806
1425518551.324,41.28019
1425518551.34,39.959087
1425518551.356,35.449047
1425518551.371,28.397263
1425518551.387,19.924942
1425518551.403,11.233749
1425518551.418,3.176754
1425518551.434,-3.899662
1425518551.449,-10.005047
1425518551.465,-15.215656
1425518551.481,-19.452831
1425518551.496,-22.461681
1425518551.512,-24.001812
1425518551.528,-24.05223
1425518551.543,-22.92461
1425518551.559,-21.140842
1425518551.574,-19.263412
1425518551.59,-17.644722
1425518551.606,-16.438923
1425518551.621,-15.615719
1425518551.637,-15.111912
1425518551.653,-14.915901
1425518551.668,-15.097843
1425518551.684,-15.7337
1425518551.699,-16.82473
1425518551.715,-18.234638
1425518551.731,-19.723354
1425518551.746,-20.96724
1425518551.762,-21.70399
1425518551.778,-21.77478
1425518551.793,-21.181992
1425518551.809,-20.021683
1425518551.824,-18.451283
1425518551.84,-16.591824
1425518551.856,-14.530247
1425518551.871,-12.318325
1425518551.887,-10.021893
1425518551.903,-7.7250595
1425518551.918,-5.5157776
1425518551.934,-3.4129333
1425518551.95,-1.3214836
1425518551.965,0.94937897
1425518551.981,3.5832138
1425518551.996,6.662224
1425518552.012,10.054718
1425518552.028,13.465645
1425518552.043,16.545753
1425518552.059,19.04586
1425518552.075,20.951103
1425518552.09,22.50399
1425518552.106,24.094831
1425518552.121,26.141933
1425518552.137,28.918959
1425518552.153,32.443188
1425518552.168,36.406242
1425518552.184,40.22177
1425518552.2,43.10929
1425518552.215,44.289986
1425518552.231,43.156487
1425518552.246,39.45298
1425518552.262,33.346188
1425518552.278,25.41151
1425518552.293,16.489475
1425518552.309,7.5612583
1425518552.325,-0.4895363
1425518552.34,-7.0227413
1425518552.356,-11.766649
1425518552.371,-14.79719
1425518552.387,-16.47363
1425518552.403,-17.213291
1425518552.418,-17.351803
1425518552.434,-17.053265
1425518552.45,-16.366533
1425518552.465,-15.344286
1425518552.481,-14.133636
1425518552.496,-12.964609
1425518552.512,-12.042379
1425518552.528,-11.452496
1425518552.543,-11.148685
1425518552.559,-11.032942
1425518552.575,-11.08246
1425518552.59,-11.367176
1425518552.606,-12.017479
1425518552.621,-13.078058
1425518552.637,-14.426098
1425518552.653,-15.737637
1425518552.668,-16.611439
1425518552.684,-16.641333
1425518552.7,-15.606787
1425518552.715,-13.513975
1425518552.731,-10.627069
1425518552.746,-7.3912354
1425518552.762,-4.293432
1425518552.778,-1.6713924
1425518552.793,0.3745098
1425518552.809,2.0486526
1425518552.825,3.7225513
1425518552.84,5.7788677
1425518552.856,8.380249
1425518552.871,11.461483
1425518552.887,14.707352
1425518552.903,17.742918
1425518552.918,20.239481
1425518552.934,22.102995
1425518552.95,23.436266
1425518552.965,24.593903
1425518552.981,26.074003
1425518552.996,28.35926
1425518553.012,31.74901
1425518553.028,36.168785
1425518553.043,41.095894
1425518553.059,45.63944
1425518553.075,48.72188
1425518553.09,49.3828
1425518553.106,47.036865
1425518553.121,41.647423
1425518553.137,33.71085
1425518553.153,24.158283
1425518553.168,14.069683
1425518553.184,4.455126
1425518553.2,-3.9618855
1425518553.215,-10.796007
1425518553.231,-15.981617
1425518553.246,-19.631006
1425518553.262,-21.949558
1425518553.278,-23.147892
1425518553.293,-23.45502
1425518553.309,-23.078102
1425518553.325,-22.263977
1425518553.34,-21.22408
1425518553.356,-20.145256
1425518553.371,-19.166058
1425518553.387,-18.44376
1425518553.403,-18.131458
1425518553.418,-18.404213
1425518553.434,-19.277828
1425518553.45,-20.638882
1425518553.465,-22.215015
1425518553.481,-23.663689
1425518553.496,-24.712856
1425518553.512,-25.254383
1425518553.528,-25.32394
1425518553.543,-25.034657
1425518553.559,-24.481766
1425518553.575,-23.682484
1425518553.59,-22.562145
1425518553.606,-21.04557
1425518553.621,-19.058891
1425518553.637,-16.636265
1425518553.653,-13.880081
1425518553.668,-10.971882
1425518553.684,-8.078499
1425518553.7,-5.333828
1425518553.715,-2.7919388
1425518553.731,-0.43144226
1425518553.746,1.7874374
1425518553.762,3.908329
1425518553.778,5.947651
1425518553.793,7.920784
1425518553.809,9.902645
1425518553.825,11.992008
1425518553.84,14.270184
1425518553.856,16.69838
1425518553.871,19.141796
1425518553.887,21.4063
1425518553.903,23.430458
1425518553.918,25.344013
1425518553.934,27.545567
1425518553.95,30.498821
1425518553.965,34.504284
1425518553.981,39.438488
1425518553.996,44.63471
1425518554.012,48.96382
1425518554.028,51.165005
1425518554.043,50.23665
1425518554.059,45.807243
1425518554.075,38.29516
1425518554.09,28.776356
1425518554.106,18.596214
1425518554.121,8.947403
1425518554.137,0.5597267
1425518554.153,-6.335018
1425518554.168,-11.883892
1425518554.184,-16.268341
1425518554.2,-19.572224
1425518554.215,-21.71735
1425518554.231,-22.6403
1425518554.246,-22.409386
1425518554.262,-21.361717
1425518554.278,-19.991028
1425518554.293,-18.789082
1425518554.309,-18.093292
1425518554.325,-18.011341
1425518554.34,-18.437687
1425518554.356,-19.164265
1425518554.371,-19.971916
1425518554.387,-20.738213
1425518554.403,-21.439499
1425518554.418,-22.202232
1425518554.434,-23.16072
1425518554.45,-24.43061
1425518554.465,-25.975365
1425518554.481,-27.606682
1425518554.496,-29.046143
1425518554.512,-30.041252
1425518554.528,-30.435173
1425518554.543,-30.17823
1425518554.559,-29.284859
1425518554.575,-27.755356
1425518554.59,-25.601257
1425518554.606,-22.907272
1425518554.622,-19.888107
1425518554.637,-16.919296
1425518554.653,-14.378258
1425518554.668,-12.470413
1425518554.684,-11.100395
1425518554.7,-9.9698105
1425518554.715,-8.696465
1425518554.731,-7.074772
1425518554.746,-5.0734253
1425518554.762,-2.8764
1425518554.778,-0.67479324
1425518554.793,1.4048538
1425518554.809,3.3702164
1425518554.825,5.2585335
1425518554.84,7.1175194
1425518554.856,8.950775
1425518554.872,10.756027
1425518554.887,12.550186
1425518554.903,14.3862
1425518554.918,16.310318
1425518554.934,18.391525
1425518554.95,20.654316
1425518554.965,23.127396
1425518554.981,25.878338
1425518554.997,29.06588
1425518555.012,32.858517
1425518555.028,37.384262
1425518555.043,42.5257
1425518555.059,47.786537
1425518555.075,52.261253
1425518555.09,54.82437
1425518555.106,54.444855
1425518555.122,50.642548
1425518555.137,43.646282
1425518555.153,34.354736
1425518555.168,23.988312
1425518555.184,13.706333
1425518555.2,4.283169
1425518555.215,-3.8975525
1425518555.231,-10.753918
1425518555.247,-16.251572
1425518555.262,-20.323856
1425518555.278,-22.879017
1425518555.293,-23.972603
1425518555.309,-23.821838
1425518555.325,-22.842182
1425518555.34,-21.484364
1425518555.356,-20.15559
1425518555.372,-19.07859
1425518555.387,-18.365944
1425518555.403,-18.032063
1425518555.418,-18.073467
1425518555.434,-18.495895
1425518555.45,-19.33865
1425518555.465,-20.61253
1425518555.481,-22.277447
1425518555.497,-24.12679
1425518555.512,-25.867832
1425518555.528,-27.15823
1425518555.543,-27.756634
1425518555.559,-27.61005
1425518555.575,-26.895153
1425518555.59,-25.923523
1425518555.606,-25.015831
1425518555.622,-24.33065
1425518555.637,-23.815727
1425518555.653,-23.237411
1425518555.668,-22.341255
1425518555.684,-20.970509
1425518555.7,-19.180965
1425518555.715,-17.200832
1425518555.731,-15.317863
1425518555.747,-13.738052
1425518555.762,-12.512337
1425518555.778,-11.501411
1425518555.793,-10.469688
1425518555.809,-9.233269
1425518555.825,-7.7411003
1425518555.84,-6.09309
1425518555.856,-4.5266075
1425518555.872,-3.1923676
1425518555.887,-2.1306114
1425518555.903,-1.203762
1425518555.918,-0.16035461
1425518555.934,1.2691727
1425518555.95,3.2751179
1425518555.965,5.9321213
1425518555.981,9.175632
1425518555.997,12.809824
1425518556.012,16.554417
1425518556.028,20.08437
1425518556.043,23.137682
1425518556.059,25.643637
1425518556.075,27.796047
1425518556.09,30.018219
1425518556.106,32.7958
1425518556.122,36.450607
1425518556.137,40.796577
1425518556.153,45.136322
1425518556.168,48.32251
1425518556.184,49.15235
1425518556.2,46.776215
1425518556.215,41.044067
1425518556.231,32.577393
1425518556.247,22.586021
1425518556.262,12.446857
1425518556.278,3.2751598
1425518556.293,-4.3259478
1425518556.309,-10.263768
1425518556.325,-14.763065
1425518556.34,-18.051422
1425518556.356,-20.252148
1425518556.372,-21.376743
1425518556.387,-21.481125
1425518556.403,-20.761517
1425518556.418,-19.542816
1425518556.434,-18.131622
1425518556.45,-16.724491
1425518556.465,-15.400722
1425518556.481,-14.226956
1425518556.497,-13.3438225
1425518556.512,-13.025524
1425518556.528,-13.527701
1425518556.543,-14.950953
1425518556.559,-17.14451
1425518556.575,-19.733221
1425518556.59,-22.27221
1425518556.606,-24.397087
1425518556.622,-25.80326
1425518556.637,-26.298233
1425518556.653,-25.783325
1425518556.668,-24.315025
1425518556.684,-22.124653
1425518556.7,-19.673496
1425518556.715,-17.431877
1425518556.731,-15.725919
1425518556.747,-14.564884
1425518556.762,-13.655869
1425518556.778,-12.561764
1425518556.793,-10.939316
1425518556.809,-8.60614
1425518556.825,-5.6532097
1425518556.84,-2.3267937
1425518556.856,1.0281677
1425518556.872,4.03434
1425518556.887,6.3895664
1425518556.903,7.9251404
1425518556.918,8.690609
1425518556.934,8.985012
1425518556.95,9.277264
1425518556.965,10.039333
1425518556.981,11.521774
1425518556.997,13.73592
1425518557.012,16.405495
1425518557.028,19.15897
1425518557.043,21.666622
1425518557.059,23.797062
1425518557.075,25.630562
1425518557.09,27.444523
1425518557.106,29.596058
1425518557.122,32.41133
1425518557.137,36.04443
1425518557.153,40.348103
1425518557.168,44.79281
1425518557.184,48.591183
1425518557.2,50.7905
1425518557.215,50.536842
1425518557.231,47.31683
1425518557.247,41.111145
1425518557.262,32.4163
1425518557.278,22.166473
1425518557.294,11.479233
1425518557.309,1.4266281
1425518557.325,-7.168804
1425518557.34,-13.853073
1425518557.356,-18.54029
1425518557.372,-21.38639
1425518557.387,-22.705135
1425518557.403,-22.831413
1425518557.418,-22.090023
1425518557.434,-20.711193
1425518557.45,-18.917068
1425518557.465,-16.905598
1425518557.481,-14.8978195
1425518557.497,-13.155945
1425518557.512,-11.937477
1425518557.528,-11.407314
1425518557.544,-11.625107
1425518557.559,-12.437294
1425518557.575,-13.581047
1425518557.59,-14.757576
1425518557.606,-15.753548
1425518557.622,-16.508835
1425518557.637,-17.082264
1425518557.653,-17.534824
1425518557.669,-17.873352
1425518557.684,-17.965527
1425518557.7,-17.628803
1425518557.715,-16.750183
1425518557.731,-15.391136
1425518557.747,-13.760307
1425518557.762,-12.148972
1425518557.778,-10.753288
1425518557.794,-9.547623
1425518557.809,-8.307785
1425518557.825,-6.731888
1425518557.84,-4.649582
1425518557.856,-2.175354
1425518557.872,0.32286835
1425518557.887,2.4070358
1425518557.903,3.81884
1425518557.919,4.603821
1425518557.934,5.1937103
1425518557.95,6.129959
1425518557.965,7.8332977
1425518557.981,10.430901
1425518557.997,13.699539
1425518558.012,17.211746
1425518558.028,20.568542
1425518558.044,23.565529
1425518558.059,26.282173
1425518558.075,29.041695
1425518558.09,32.305496
1425518558.106,36.524017
1425518558.122,42.003227
1425518558.137,48.742683
1425518558.153,56.31784
1425518558.169,63.815857
1425518558.184,70.0275
1425518558.2,73.71832
1425518558.215,74.03614
1425518558.231,70.75646
1425518558.247,64.34729
1425518558.262,55.74843
1425518558.278,46.058422
1425518558.294,36.198586
1425518558.309,26.77457
1425518558.325,18.068798
1425518558.34,10.164211
1425518558.356,3.0337906
1425518558.372,-3.3532562
1425518558.387,-9.061295
1425518558.403,-14.126503
1425518558.419,-18.580643
1425518558.434,-22.412987
1425518558.45,-25.619686
1425518558.465,-28.258488
1425518558.481,-30.482079
1425518558.497,-32.486546
1425518558.512,-34.4746
1425518558.528,-36.586178
1425518558.544,-38.923862
1425518558.559,-41.523438
1425518558.575,-44.409946
1425518558.59,-47.515667
1425518558.606,-50.651215
1425518558.622,-53.497944
1425518558.637,-55.68538
1425518558.653,-56.89861
1425518558.669,-56.979168
1425518558.684,-55.898968
1425518558.7,-53.753254
1425518558.715,-50.673843
1425518558.731,-46.8341
1425518558.747,-42.39653
1425518558.762,-37.56938
1425518558.778,-32.475746
1425518558.794,-27.135986
1425518558.809,-21.45533
1425518558.825,-15.321983
1425518558.84,-8.731428
1425518558.856,-1.8920746
1425518558.872,4.9194527
1425518558.887,11.433729
1425518558.903,17.551786
1425518558.919,23.33132
1425518558.934,28.873547
1425518558.95,34.163536
1425518558.965,39.01983
1425518558.981,43.183125
1425518558.997,46.476048
1425518559.012,48.963486
1425518559.028,50.9369
1425518559.044,52.789375
1425518559.059,54.91564
1425518559.075,57.570526
1425518559.09,60.87899
1425518559.106,64.79016
1425518559.122,69.07371
1425518559.137,73.18389
1425518559.153,76.24414
1425518559.169,77.175476
1425518559.184,74.99576
1425518559.2,69.194626
1425518559.215,60.023323
1425518559.231,48.465836
1425518559.247,36.022522
1425518559.262,24.151134
1425518559.278,13.874126
1425518559.294,5.5521917
1425518559.309,-0.9951649
1425518559.325,-6.205168
1425518559.34,-10.443899
1425518559.356,-13.867783
1425518559.372,-16.471943
1425518559.387,-18.26192
1425518559.403,-19.380713
1425518559.419,-20.133274
1425518559.434,-20.874268
1425518559.45,-21.883652
1425518559.465,-23.281271
1425518559.481,-25.048632
1425518559.497,-27.089336
1425518559.512,-29.356396
1425518559.528,-31.875118
1425518559.544,-34.705894
1425518559.559,-37.865173
1425518559.575,-41.27655
1425518559.59,-44.692226
1425518559.606,-47.778202
1425518559.622,-50.124798
1425518559.637,-51.44352
1425518559.653,-51.658688
1425518559.669,-50.96345
1425518559.684,-49.741184
1425518559.7,-48.400864
1425518559.715,-47.17993
1425518559.731,-46.05492
1425518559.747,-44.77311
1425518559.762,-43.004948
1425518559.778,-40.503277
1425518559.794,-37.21289
1425518559.809,-33.251945
1425518559.825,-28.863335
1425518559.84,-24.301651
1425518559.856,-19.803734
1425518559.872,-15.511467
1425518559.887,-11.5010605
1425518559.903,-7.7854004
1425518559.919,-4.3419876
1425518559.934,-1.1324081
1425518559.95,1.9020691
1425518559.965,4.845749
1425518559.981,7.7903976
1425518559.997,10.8706665
1425518560.012,14.184265
1425518560.028,17.780945
1425518560.044,21.615234
1425518560.059,25.542198
1425518560.075,29.238373
1425518560.09,32.22858
1425518560.106,33.853657
1425518560.122,33.38243
1425518560.137,30.187271
1425518560.153,23.985771
1425518560.169,15.0144615
1425518560.184,4.088539
1425518560.2,-7.614277
1425518560.216,-18.863289
1425518560.231,-28.706715
1425518560.247,-36.61205
1425518560.262,-42.440613
1425518560.278,-46.266747
1425518560.294,-48.228947
1425518560.309,-48.47749
1425518560.325,-47.184925
1425518560.341,-44.57503
1425518560.356,-41.001846
1425518560.372,-36.86655
1425518560.387,-32.57011
1425518560.403,-28.43568
1425518560.419,-24.685879
1425518560.434,-21.384804
1425518560.45,-18.509989
1425518560.466,-15.958517
1425518560.481,-13.632256
1425518560.497,-11.506006
1425518560.512,-9.601511
1425518560.528,-7.941763
1425518560.544,-6.470089
1425518560.559,-4.9445305
1425518560.575,-3.0474892
1425518560.591,-0.50843716
1425518560.606,2.7012606
1425518560.622,6.3306828
1425518560.637,9.910087
1425518560.653,12.998177
1425518560.669,15.370236
1425518560.684,17.13035
1425518560.7,18.595903
1425518560.716,20.192162
1425518560.731,22.204393
1425518560.747,24.743464
1425518560.762,27.676613
1425518560.778,30.710876
1425518560.794,33.43938
1425518560.809,35.491535
1425518560.825,36.615448
1425518560.841,36.850876
1425518560.856,36.557343
1425518560.872,36.345818
1425518560.887,36.864414
1425518560.903,38.521553
1425518560.919,41.246098
1425518560.934,44.504227
1425518560.95,47.37781
1425518560.966,48.824997
1425518560.981,47.97991
1425518560.997,44.356697
1425518561.012,37.958076
1425518561.028,29.316671
1425518561.044,19.31066
1425518561.059,9.025217
1425518561.075,-0.51748085
1425518561.091,-8.530706
1425518561.106,-14.616711
1425518561.122,-18.68793
1425518561.137,-20.914406
1425518561.153,-21.590086
1425518561.169,-21.043962
1425518561.184,-19.59155
1425518561.2,-17.56968
1425518561.216,-15.296265
1425518561.231,-13.098953
1425518561.247,-11.251936
1425518561.262,-9.934929
1425518561.278,-9.207199
1425518561.294,-9.020508
1425518561.309,-9.202259
1425518561.325,-9.584364
1425518561.341,-10.063181
1425518561.356,-10.650291
1425518561.372,-11.413286
1425518561.387,-12.388533
1425518561.403,-13.448338
1425518561.419,-14.295294
1425518561.434,-14.539721
1425518561.45,-13.866003
1425518561.466,-12.204481
1425518561.481,-9.775431
1425518561.497,-6.997221
1425518561.512,-4.309578
1425518561.528,-1.9267216
1425518561.544,0.21183205
1425518561.559,2.4349327
1425518561.575,5.0881786
1425518561.591,8.377966
1425518561.606,12.178022
1425518561.622,16.094305
1425518561.637,19.605255
1425518561.653,22.33217
1425518561.669,24.200771
1425518561.684,25.540178
1425518561.7,26.91759
1425518561.716,28.946898
1425518561.731,32.028126
1425518561.747,36.196007
1425518561.762,41.069046
1425518561.778,45.906372
1425518561.794,49.756493
1425518561.809,51.64668
1425518561.825,50.801094
1425518561.841,46.874718
1425518561.856,40.060642
1425518561.872,31.099966
1425518561.887,21.068949
1425518561.903,11.121717
1425518561.919,2.1975937
1425518561.934,-5.140586
1425518561.95,-10.705714
1425518561.966,-14.575494
1425518561.981,-16.946209
1425518561.997,-18.025414
1425518562.012,-18.050125
1425518562.028,-17.26207
1425518562.044,-15.966045
1425518562.059,-14.4549675
1425518562.075,-13.011324
1425518562.091,-11.82978
1425518562.106,-11.035848
1425518562.122,-10.628412
1425518562.137,-10.553422
1425518562.153,-10.70701
1425518562.169,-11.043365
1425518562.184,-11.556332
1425518562.2,-12.295809
1425518562.216,-13.284221
1425518562.231,-14.450411
1425518562.247,-15.5799055
1425518562.262,-16.378817
1425518562.278,-16.56898
1425518562.294,-16.034178
1425518562.309,-14.806099
1425518562.325,-13.093672
1425518562.341,-11.116877
1425518562.356,-9.054281
1425518562.372,-7.0053177
1425518562.387,-5.039316
1425518562.403,-3.1924706
1425518562.419,-1.4739952
1425518562.434,0.21483803
1425518562.45,2.089445
1425518562.466,4.390278
1425518562.481,7.2250977
1425518562.497,10.5065155
1425518562.512,13.885899
1425518562.528,16.924992
1425518562.544,19.285454
1425518562.559,20.869957
1425518562.575,21.816837
1425518562.591,22.472054
1425518562.606,23.218159
1425518562.622,24.438381
1425518562.637,26.389194
1425518562.653,29.094105
1425518562.669,32.17879
1425518562.684,34.826454
1425518562.7,35.860836
1425518562.716,34.07832
1425518562.731,28.695042
1425518562.747,19.686245
1425518562.762,7.851837
1425518562.778,-5.4189186
1425518562.794,-18.624
1425518562.809,-30.50676
1425518562.825,-40.32805
1425518562.841,-47.839027
1425518562.856,-53.136406
1425518562.872,-56.42093
1425518562.888,-57.90235
1425518562.903,-57.70263
1425518562.919,-55.96318
1425518562.934,-52.89238
1425518562.95,-48.820877
1425518562.966,-44.18833
1425518562.981,-39.461296
1425518562.997,-34.970352
1425518563.013,-30.846718
1425518563.028,-27.058678
1425518563.044,-23.500595
1425518563.059,-20.142166
1425518563.075,-17.125252
1425518563.091,-14.673332
1425518563.106,-12.9726715
1425518563.122,-11.977547
1425518563.138,-11.377075
1425518563.153,-10.699158
1425518563.169,-9.555344
1425518563.184,-7.7607574
1425518563.2,-5.459244
1425518563.216,-2.9993362
1425518563.231,-0.7937317
1425518563.247,0.8711548
1425518563.263,1.8990631
1425518563.278,2.4021683
1425518563.294,2.5876083
1425518563.309,2.6519241
1425518563.325,2.6634521
1425518563.341,2.5408134
1425518563.356,2.104229
1425518563.372,1.2388306
1425518563.388,-0.066329956
1425518563.403,-1.6028366
1425518563.419,-3.079342
1425518563.434,-4.184078
1425518563.45,-4.7569733
1425518563.466,-4.772766
1425518563.481,-4.3470497
1425518563.497,-3.604
1425518563.513,-2.584324
1425518563.528,-1.223877
1425518563.544,0.5833473
1425518563.559,2.96249
1425518563.575,6.0208282
1425518563.591,9.905273
1425518563.606,14.778313
1425518563.622,20.721039
1425518563.638,27.528877
1425518563.653,34.518963
1425518563.669,40.512993
1425518563.684,44.094025
1425518563.7,44.075222
1425518563.716,39.982872
1425518563.731,32.302177
1425518563.747,22.404552
1425518563.763,12.015331
1425518563.778,2.6438065
1425518563.794,-4.8749313
1425518563.809,-10.443737
1425518563.825,-14.457596
1425518563.841,-17.37767
1425518563.856,-19.418854
1425518563.872,-20.527428
1425518563.888,-20.57526
1425518563.903,-19.595493
1425518563.919,-17.913593
1425518563.934,-16.000572
1425518563.95,-14.277893
1425518563.966,-12.921881
1425518563.981,-11.853386
1425518563.997,-10.8975315
1425518564.013,-9.978075
1425518564.028,-9.216635
1425518564.044,-8.883722
1425518564.059,-9.227589
1425518564.075,-10.319954
1425518564.091,-11.974705
1425518564.106,-13.847004
1425518564.122,-15.533855
1425518564.138,-16.737673
1425518564.153,-17.297745
1425518564.169,-17.198391
1425518564.184,-16.517012
1425518564.2,-15.390965
1425518564.216,-13.993265
1425518564.231,-12.52824
1425518564.247,-11.175649
1425518564.263,-10.06527
1425518564.278,-9.227901
1425518564.294,-8.57291
1425518564.309,-7.8743844
1425518564.325,-6.861676
1425518564.341,-5.3395805
1425518564.356,-3.294576
1425518564.372,-0.92745966
1425518564.388,1.389396
1425518564.403,3.2687962
1425518564.419,4.4885936
1425518564.434,5.0574017
1425518564.45,5.219748
1425518564.466,5.3536882
1425518564.481,5.82755
1425518564.497,6.8954964
1425518564.513,8.61688
1425518564.528,10.857117
1425518564.544,13.3405075
1425518564.559,15.765852
1425518564.575,17.90948
1425518564.591,19.738323
1425518564.606,21.430328
1425518564.622,23.318897
1425518564.638,25.765291
1425518564.653,29.02
1425518564.669,33.064484
1425518564.684,37.567116
1425518564.7,41.87337
1425518564.716,45.08706
1425518564.731,46.232967
1425518564.747,44.530853
1425518564.763,39.611546
1425518564.778,31.73257
1425518564.794,21.753788
1425518564.809,10.946407
1425518564.825,0.610651
1425518564.841,-8.226227
1425518564.856,-15.017218
1425518564.872,-19.662567
1425518564.888,-22.35328
1425518564.903,-23.421444
1425518564.919,-23.238739
1425518564.934,-22.174465
1425518564.95,-20.60601
1425518564.966,-18.871704
1425518564.981,-17.249695
1425518564.997,-15.893574
1425518565.013,-14.873985
1425518565.028,-14.183826
1425518565.044,-13.82444
1425518565.059,-13.771801
1425518565.075,-14.011181
1425518565.091,-14.532616
1425518565.106,-15.343388
1425518565.122,-16.441212
1425518565.138,-17.80299
1425518565.153,-19.309052
1425518565.169,-20.724129
1425518565.184,-21.729477
1425518565.2,-22.035484
1425518565.216,-21.489628
1425518565.231,-20.18346
1425518565.247,-18.368073
1425518565.263,-16.364895
1425518565.278,-14.391876
1425518565.294,-12.5085945
1425518565.309,-10.613338
1425518565.325,-8.605274
1425518565.341,-6.4293213
1425518565.356,-4.1989555
1425518565.372,-2.1078224
1425518565.388,-0.36114883
1425518565.403,0.95807266
1425518565.419,1.9207535
1425518565.434,2.7829056
1425518565.45,3.8696823
1425518565.466,5.425232
1425518565.481,7.4943542
1425518565.497,9.902489
1425518565.513,12.315971
1425518565.528,14.433304
1425518565.544,16.131271
1425518565.56,17.521637
1425518565.575,18.892563
1425518565.591,20.596825
1425518565.606,22.881416
1425518565.622,25.863808
1425518565.638,29.444359
1425518565.653,33.310417
1425518565.669,36.89689
1425518565.685,39.44201
1425518565.7,40.073303
1425518565.716,38.062035
1425518565.731,33.06173
1425518565.747,25.303116
1425518565.763,15.578003
1425518565.778,5.0487823
1425518565.794,-5.115158
1425518565.81,-14.002846
1425518565.825,-21.114151
1425518565.841,-26.317322
1425518565.856,-29.711441
1425518565.872,-31.449738
1425518565.888,-31.727173
1425518565.903,-30.715591
1425518565.919,-28.67279
1425518565.935,-25.932007
1425518565.95,-22.896034
1425518565.966,-19.956482
1425518565.981,-17.43576
1425518565.997,-15.503876
1425518566.013,-14.193054
1425518566.028,-13.436386
1425518566.044,-13.114075
1425518566.06,-13.07486
1425518566.075,-13.178513
1425518566.091,-13.280823
1425518566.106,-13.31179
1425518566.122,-13.228203
1425518566.138,-13.006378
1425518566.153,-12.575867
1425518566.169,-11.811478
1425518566.185,-10.508232
1425518566.2,-8.498947
1425518566.216,-5.7109985
1425518566.231,-2.2418823
1425518566.247,1.6701355
1425518566.263,5.707138
1425518566.278,9.632568
1425518566.294,13.33783
1425518566.31,16.882538
1425518566.325,20.415665
1425518566.341,24.100616
1425518566.356,28.005981
1425518566.372,32.096283
1425518566.388,36.21971
1425518566.403,40.178574
1425518566.419,43.77391
1425518566.435,46.868317
1425518566.45,49.410614
1425518566.466,51.444534
1425518566.481,53.05168
1425518566.497,54.366745
1425518566.513,55.59117
1425518566.528,56.985046
1425518566.544,58.75714
1425518566.56,60.926636
1425518566.575,63.10721
1425518566.591,64.50493
1425518566.606,64.05794
1425518566.622,60.835083
1425518566.638,54.42009
1425518566.653,45.134445
1425518566.669,33.925873
1425518566.685,22.05188
1425518566.7,10.672142
1425518566.716,0.5891342
1425518566.731,-7.797371
1425518566.747,-14.373421
1425518566.763,-19.176994
1425518566.778,-22.322708
1425518566.794,-23.995125
1425518566.81,-24.468544
1425518566.825,-24.107315
1425518566.841,-23.263397
1425518566.856,-22.239258
1425518566.872,-21.239212
1425518566.888,-20.418556
1425518566.903,-19.901855
1425518566.919,-19.805717
1425518566.935,-20.167961
1425518566.95,-20.937805
1425518566.966,-21.97998
1425518566.981,-23.133423
1425518566.997,-24.299507
1425518567.013,-25.478508
1425518567.028,-26.70877
1425518567.044,-28.04512
1425518567.06,-29.45008
1425518567.075,-30.80558
1425518567.091,-31.922997
1425518567.106,-32.63819
1425518567.122,-32.84523
1425518567.138,-32.534233
1425518567.153,-31.784882
1425518567.169,-30.741013
1425518567.185,-29.551086
1425518567.2,-28.330444
1425518567.216,-27.082108
1425518567.231,-25.67218
1425518567.247,-23.85067
1425518567.263,-21.316467
1425518567.278,-17.880844
1425518567.294,-13.567574
1425518567.31,-8.627853
1425518567.325,-3.4496841
1425518567.341,1.5886154
1425518567.356,6.252487
1425518567.372,10.511627
1425518567.388,14.507462
1425518567.403,18.481178
1425518567.419,22.706726
1425518567.435,27.426857
1425518567.45,32.807228
1425518567.466,38.827003
1425518567.481,45.17443
1425518567.497,51.226997
1425518567.513,56.046272
1425518567.528,58.611336
1425518567.544,58.081787
1425518567.56,54.09841
1425518567.575,46.928673
1425518567.591,37.43526
1425518567.606,26.85535
1425518567.622,16.44405
1425518567.638,7.1792603
1425518567.653,-0.40610123
1425518567.669,-6.198971
1425518567.685,-10.369736
1425518567.7,-13.197243
1425518567.716,-14.917637
1425518567.731,-15.710281
1425518567.747,-15.734558
1425518567.763,-15.1742325
1425518567.778,-14.265434
1425518567.794,-13.239777
1425518567.81,-12.305214
1425518567.825,-11.613792
1425518567.841,-11.270435
1425518567.856,-11.357689
1425518567.872,-11.917419
1425518567.888,-12.936134
1425518567.903,-14.340672
1425518567.919,-15.982437
1425518567.935,-17.674618
1425518567.95,-19.19231
1425518567.966,-20.299366
1425518567.981,-20.776066
1425518567.997,-20.504112
1425518568.013,-19.501991
1425518568.028,-17.986141
1425518568.044,-16.271027
1425518568.06,-14.667683
1425518568.075,-13.314388
1425518568.091,-12.143789
1425518568.106,-10.929752
1425518568.122,-9.443096
1425518568.138,-7.6069603
1425518568.153,-5.5691433
1425518568.169,-3.5932426
1425518568.185,-1.9532471
1425518568.2,-0.7835884
1425518568.216,-0.03499031
1425518568.232,0.50717354
1425518568.247,1.1159096
1425518568.263,2.0394459
1425518568.278,3.3826008
1425518568.294,5.1223526
1425518568.31,7.119051
1425518568.325,9.197771
1425518568.341,11.246532
1425518568.356,13.293684
1425518568.372,15.498217
1425518568.388,18.131264
1425518568.403,21.447527
1425518568.419,25.577599
1425518568.435,30.35827
1425518568.45,35.26195
1425518568.466,39.40418
1425518568.482,41.74881
1425518568.497,41.400005
1425518568.513,37.945564
1425518568.528,31.611181
1425518568.544,23.257467
1425518568.56,14.044845
1425518568.575,5.0855465
1425518568.591,-2.8446817
1425518568.607,-9.382784
1425518568.622,-14.448731
1425518568.638,-18.082436
1425518568.653,-20.33252
1425518568.669,-21.266567
1425518568.685,-21.021227
1425518568.7,-19.856636
1425518568.716,-18.119507
1425518568.732,-16.146421
1425518568.747,-14.26601
1425518568.763,-12.732626
1425518568.778,-11.744577
1425518568.794,-11.427849
1425518568.81,-11.824144
1425518568.825,-12.872075
1425518568.841,-14.45978
1425518568.857,-16.470232
1425518568.872,-18.829657
1425518568.888,-21.48226
1425518568.903,-24.350222
1425518568.919,-27.217703
1425518568.935,-29.782589
1425518568.95,-31.712185
1425518568.966,-32.803764
1425518568.982,-33.038548
1425518568.997,-32.582916
1425518569.013,-31.660807
1425518569.028,-30.483679
1425518569.044,-29.140778
1425518569.06,-27.641533
1425518569.075,-25.93855
1425518569.091,-24.010242
1425518569.107,-21.879827
1425518569.122,-19.626543
1425518569.138,-17.376204
1425518569.153,-15.278992
1425518569.169,-13.420408
1425518569.185,-11.752573
1425518569.2,-10.066601
1425518569.216,-8.069753
1425518569.232,-5.5052614
1425518569.247,-2.3365173
1425518569.263,1.1917858
1425518569.278,4.6533537
1425518569.294,7.6506996
1425518569.31,10.027179
1425518569.325,11.943212
1425518569.341,13.787661
1425518569.357,16.00005
1425518569.372,18.92419
1425518569.388,22.73303
1425518569.403,27.380087
1425518569.419,32.58886
1425518569.435,37.78058
1425518569.45,42.079796
1425518569.466,44.42769
1425518569.482,43.890667
1425518569.497,39.96772
1425518569.513,32.87365
1425518569.528,23.504889
1425518569.544,13.1733055
1425518569.56,3.1892283
1425518569.575,-5.503818
1425518569.591,-12.475008
1425518569.607,-17.714857
1425518569.622,-21.435202
1425518569.638,-23.846092
1425518569.653,-25.092836
1425518569.669,-25.258547
1425518569.685,-24.47673
1425518569.7,-22.964333
1425518569.716,-21.04207
1425518569.732,-19.058434
1425518569.747,-17.303604
1425518569.763,-15.949818
1425518569.778,-15.057907
1425518569.794,-14.6214485
1425518569.81,-14.626382
1425518569.825,-15.077133
1425518569.841,-15.984049
1425518569.857,-17.293789
1425518569.872,-18.869997
1425518569.888,-20.472084
1425518569.903,-21.814377
1425518569.919,-22.633572
1425518569.935,-22.745401
1425518569.95,-22.081438
1425518569.966,-20.708366
1425518569.982,-18.741686
1425518569.997,-16.356728
1425518570.013,-13.715054
1425518570.028,-10.959311
1425518570.044,-8.195999
1425518570.06,-5.510063
1425518570.075,-2.9516335
1425518570.091,-0.5462799
1425518570.107,1.7457619
1425518570.122,3.9970665
1425518570.138,6.32605
1425518570.153,8.782597
1425518570.169,11.373096
1425518570.185,13.996098
1425518570.2,16.536102
1425518570.216,18.893436
1425518570.232,21.045612
1425518570.247,22.997124
1425518570.263,24.803043
1425518570.278,26.527084
1425518570.294,28.295742
1425518570.31,30.353943
1425518570.325,33.025047
1425518570.341,36.50663
1425518570.357,40.655224
1425518570.372,44.800655
1425518570.388,47.845856
1425518570.403,48.58036
1425518570.419,46.163868
1425518570.435,40.455246
1425518570.45,32.119392
1425518570.466,22.32531
1425518570.482,12.36972
1425518570.497,3.2817078
1425518570.513,-4.357582
1425518570.528,-10.387619
1425518570.544,-14.865143
1425518570.56,-17.90615
1425518570.575,-19.586533
1425518570.591,-19.968002
1425518570.607,-19.176666
1425518570.622,-17.502083
1425518570.638,-15.341728
1425518570.653,-13.17569
1425518570.669,-11.426071
1425518570.685,-10.360168
1425518570.7,-10.019394
1425518570.716,-10.285851
1425518570.732,-10.940872
1425518570.747,-11.7845
1425518570.763,-12.716919
1425518570.778,-13.713013
1425518570.794,-14.783432
1425518570.81,-15.899437
1425518570.825,-16.949745
1425518570.841,-17.74878
1425518570.857,-18.060806
1425518570.872,-17.685661
1425518570.888,-16.500633
1425518570.903,-14.5444565
1425518570.919,-12.005859
1425518570.935,-9.189186
1425518570.95,-6.390274
1425518570.966,-3.799202
1425518570.982,-1.4094238
1425518570.997,0.9445343
1425518571.013,3.4923325
1425518571.028,6.403328
1425518571.044,9.731857
1425518571.06,13.379288
1425518571.075,17.143044
1425518571.091,20.7696
1425518571.107,24.027664
1425518571.122,26.735558
1425518571.138,28.85215
1425518571.154,30.476143
1425518571.169,31.902657
1425518571.185,33.527023
1425518571.2,35.79074
1425518571.216,38.92946
1425518571.232,42.825226
1425518571.247,46.9262
1425518571.263,50.29212
1425518571.279,51.81649
1425518571.294,50.5588
1425518571.31,46.044983
1425518571.325,38.484352
1425518571.341,28.74022
1425518571.357,18.096703
1425518571.372,7.855774
1425518571.388,-1.0098038
1425518571.404,-8.06337
1425518571.419,-13.364006
1425518571.435,-17.219482
1425518571.45,-19.917
1425518571.466,-21.603027
1425518571.482,-22.256302
1425518571.497,-21.857933
1425518571.513,-20.545341
1425518571.529,-18.656265
1425518571.544,-16.640472
1425518571.56,-14.927414
1425518571.575,-13.767479
1425518571.591,-13.222778
1425518571.607,-13.23735
1425518571.622,-13.726139
1425518571.638,-14.671478
1425518571.654,-16.086357
1425518571.669,-17.944256
1425518571.685,-20.090424
1425518571.7,-22.219929
1425518571.716,-23.909893
1425518571.732,-24.79404
1425518571.747,-24.694912
1425518571.763,-23.687126
1425518571.779,-22.075832
1425518571.794,-20.228004
1425518571.81,-18.426033
1425518571.825,-16.738712
1425518571.841,-15.057533
1425518571.857,-13.18359
1425518571.872,-10.993736
1425518571.888,-8.504139
1425518571.904,-5.8879433
1425518571.919,-3.3742485
1425518571.935,-1.1322479
1425518571.95,0.84153366
1425518571.966,2.6986122
1425518571.982,4.7027435
1425518571.997,7.1098785
1425518572.013,10.0177765
1425518572.029,13.32225
1425518572.044,16.7346
1425518572.06,19.861149
1425518572.075,22.403034
1425518572.091,24.279976
1425518572.107,25.683968
1425518572.122,27.018044
1425518572.138,28.77938
1425518572.154,31.382267
1425518572.169,35.017704
1425518572.185,39.5886
1425518572.2,44.618332
1425518572.216,49.27404
1425518572.232,52.494007
1425518572.247,53.216526
1425518572.263,50.711483
1425518572.279,44.811417
1425518572.294,36.064484
1425518572.31,25.554169
1425518572.325,14.599304
1425518572.341,4.3499336
1425518572.357,-4.4340897
1425518572.372,-11.464296
1425518572.388,-16.788769
1425518572.404,-20.607864
1425518572.419,-23.11532
1425518572.435,-24.478306
1425518572.45,-24.844007
1425518572.466,-24.400532
1425518572.482,-23.38332
1425518572.497,-22.072853
1425518572.513,-20.76544
1425518572.529,-19.736765
1425518572.544,-19.161358
1425518572.56,-19.1184
1425518572.575,-19.549269
1425518572.591,-20.360287
1425518572.607,-21.421082
1425518572.622,-22.681389
1425518572.638,-24.114822
1425518572.654,-25.699425
1425518572.669,-27.336529
1425518572.685,-28.85279
1425518572.7,-29.975975
1425518572.716,-30.457726
1425518572.732,-30.15484
1425518572.747,-29.084362
1425518572.763,-27.408762
1425518572.779,-25.396044
1425518572.794,-23.29587
1425518572.81,-21.258022
1425518572.825,-19.30341
1425518572.841,-17.340042
1425518572.857,-15.221289
1425518572.872,-12.84095
1425518572.888,-10.201546
1425518572.904,-7.452961
1425518572.919,-4.8257008
1425518572.935,-2.5645905
1425518572.95,-0.7837889
1425518572.966,0.54489255
1425518572.982,1.6369469
1425518572.997,2.7881248
1425518573.013,4.2870126
1425518573.029,6.2827787
1425518573.044,8.746864
1425518573.06,11.475468
1425518573.075,14.1793995
1425518573.091,16.599808
1425518573.107,18.637968
1425518573.122,20.377876
1425518573.138,22.080326
1425518573.154,24.080133
1425518573.169,26.718046
1425518573.185,30.225294
1425518573.2,34.691196
1425518573.216,39.919975
1425518573.232,45.39047
1425518573.247,50.205067
1425518573.263,53.231537
1425518573.279,53.389706
1425518573.294,50.021843
1425518573.31,43.189636
1425518573.325,33.695557
1425518573.341,22.848831
1425518573.357,12.052887
1425518573.372,2.3756027
1425518573.388,-5.6079283
1425518573.404,-11.774828
1425518573.419,-16.267843
1425518573.435,-19.312475
1425518573.45,-21.076721
1425518573.466,-21.716312
1425518573.482,-21.424267
1425518573.497,-20.486343
1425518573.513,-19.238644
1425518573.529,-18.00867
1425518573.544,-17.04747
1425518573.56,-16.464407
1425518573.575,-16.270008
1425518573.591,-16.398771
1425518573.607,-16.777048
1425518573.622,-17.398531
1425518573.638,-18.27733
1425518573.654,-19.448118
1425518573.669,-20.885942
1425518573.685,-22.451147
1425518573.7,-23.91233
1425518573.716,-25.021341
1425518573.732,-25.574032
1425518573.747,-25.493801
1425518573.763,-24.80804
1425518573.779,-23.628124
1425518573.794,-22.097303
1425518573.81,-20.375004
1425518573.826,-18.616358
1425518573.841,-16.952005
1425518573.857,-15.426531
1425518573.872,-14.011011
1425518573.888,-12.598413
1425518573.904,-11.062374
1425518573.919,-9.322277
1425518573.935,-7.4024544
1425518573.951,-5.4086227
1425518573.966,-3.4859467
1425518573.982,-1.7602825
1425518573.997,-0.28338432
1425518574.013,0.96368027
1425518574.029,2.0602798
1425518574.044,3.1360493
1425518574.06,4.3258343
1425518574.076,5.781515
1425518574.091,7.568611
1425518574.107,9.677847
1425518574.122,11.968075
1425518574.138,14.253479
1425518574.154,16.351147
1425518574.169,18.193262
1425518574.185,19.863123
1425518574.201,21.60911
1425518574.216,23.819065
1425518574.232,26.90055
1425518574.247,31.067595
1425518574.263,36.114426
1425518574.279,41.29155
1425518574.294,45.39987
1425518574.31,47.11676
1425518574.326,45.4933
1425518574.341,40.29887
1425518574.357,32.17085
1425518574.372,22.32367
1425518574.388,12.149811
1425518574.404,2.7271652
1425518574.419,-5.37891
1425518574.435,-12.046238
1425518574.451,-17.359877
1425518574.466,-21.382944
1425518574.482,-24.087631
1425518574.497,-25.415369
1425518574.513,-25.420372
1425518574.529,-24.351503
1425518574.544,-22.604063
1425518574.56,-20.646807
1425518574.576,-18.870682
1425518574.591,-17.556688
1425518574.607,-16.842825
1425518574.622,-16.740982
1425518574.638,-17.159565
1425518574.654,-18.001324
1425518574.669,-19.137133
1425518574.685,-20.483047
1425518574.701,-21.964289
1425518574.716,-23.500078
1425518574.732,-24.958347
1425518574.747,-26.16768
1425518574.763,-26.935005
1425518574.779,-27.087822
1425518574.794,-26.544373
1425518574.81,-25.385387
1425518574.826,-23.812271
1425518574.841,-22.068563
1425518574.857,-20.371613
1425518574.872,-18.809309
1425518574.888,-17.342701
1425518574.904,-15.879227
1425518574.919,-14.267929
1425518574.935,-12.417664
1425518574.951,-10.362104
1425518574.966,-8.260532
1425518574.982,-6.317915
1425518574.997,-4.672331
1425518575.013,-3.2732267
1425518575.029,-1.9232483
1425518575.044,-0.39173317
1425518575.06,1.5143862
1425518575.076,3.8351889
1425518575.091,6.345934
1425518575.107,8.690365
1425518575.122,10.581323
1425518575.138,11.886534
1425518575.154,12.741537
1425518575.169,13.396149
1425518575.185,14.132851
1425518575.201,15.406759
1425518575.216,17.681477
1425518575.232,21.143934
1425518575.247,25.570515
1425518575.263,30.375597
1425518575.279,34.540363
1425518575.294,37.02276
1425518575.31,36.798515
1425518575.326,33.206337
1425518575.341,26.602058
1425518575.357,18.124046
1425518575.372,8.972283
1425518575.388,0.05356121
1425518575.404,-8.05813
1425518575.419,-15.331936
1425518575.435,-21.705904
1425518575.451,-27.33433
1425518575.466,-32.41729
1425518575.482,-36.453236
1425518575.497,-38.598022
1425518575.513,-38.63176
1425518575.529,-37.076653
1425518575.544,-34.663536
1425518575.56,-32.414764
1425518575.576,-30.546316
1425518575.591,-29.149256
1425518575.607,-28.206383
1425518575.622,-26.782219
1425518575.638,-23.466034
1425518575.654,-17.62743
1425518575.669,-9.448715
1425518575.685,0.75322723
1425518575.701,12.360325
1425518575.716,25.601196
1425518575.732,40.59843
1425518575.747,52.114117
1425518575.763,55.244667
1425518575.779,50.157215
1425518575.794,41.058372
1425518575.81,31.591747
1425518575.826,26.527393
1425518575.841,23.877113
1425518575.857,22.389679
1425518575.872,21.572552
1425518575.888,21.676697
1425518575.904,21.520847
1425518575.919,21.740383
1425518575.935,22.5335
1425518575.951,23.464714
1425518575.966,24.11433
1425518575.982,23.864532
1425518575.997,23.02639
1425518576.013,21.840061
1425518576.029,20.235943
1425518576.044,18.559155
1425518576.06,17.513527
1425518576.076,17.199112
1425518576.091,17.268562
1425518576.107,17.603184
1425518576.122,18.1123
1425518576.138,19.409061
1425518576.154,21.77092
1425518576.169,24.822205
1425518576.185,27.905235
1425518576.201,30.351254
1425518576.216,31.10456
1425518576.232,29.186115
1425518576.247,24.30637
1425518576.263,16.749344
1425518576.279,7.659939
1425518576.294,-1.7583313
1425518576.31,-10.6504135
1425518576.326,-18.34821
1425518576.341,-24.309551
1425518576.357,-28.404308
1425518576.372,-30.818653
1425518576.388,-31.806408
1425518576.404,-31.774416
1425518576.419,-30.953096
1425518576.435,-29.604853
1425518576.451,-27.94817
1425518576.466,-26.088741
1425518576.482,-23.997082
1425518576.498,-21.758108
1425518576.513,-19.589792
1425518576.529,-17.778084
1425518576.544,-16.600344
1425518576.56,-16.178587
1425518576.576,-16.466524
1425518576.591,-17.3069
1425518576.607,-18.460869
1425518576.623,-19.648197
1425518576.638,-20.618689
1425518576.654,-21.208305
1425518576.669,-21.29814
1425518576.685,-20.83514
1425518576.701,-19.78986
1425518576.716,-18.184187
1425518576.732,-16.067047
1425518576.748,-13.5439205
1425518576.763,-10.735134
1425518576.779,-7.7867813
1425518576.794,-4.827713
1425518576.81,-1.955019
1425518576.826,0.78972244
1425518576.841,3.4375725
1425518576.857,6.070463
1425518576.873,8.769968
1425518576.888,11.570093
1425518576.904,14.403517
1425518576.919,17.116835
1425518576.935,19.546083
1425518576.951,21.591915
1425518576.966,23.316406
1425518576.982,24.892641
1425518576.998,26.570227
1425518577.013,28.565834
1425518577.029,31.049831
1425518577.044,34.12211
1425518577.06,37.74307
1425518577.076,41.669533
1425518577.091,45.34138
1425518577.107,47.872368
1425518577.123,48.263184
1425518577.138,45.73637
1425518577.154,40.073654
1425518577.169,31.781067
1425518577.185,21.941765
1425518577.201,11.853214
1425518577.216,2.6001635
1425518577.232,-5.2054563
1425518577.248,-11.4048
1425518577.263,-16.115429
1425518577.279,-19.485847
1425518577.294,-21.622309
1425518577.31,-22.585825
1425518577.326,-22.521952
1425518577.341,-21.689713
1425518577.357,-20.43855
1425518577.373,-19.105938
1425518577.388,-17.931976
1425518577.404,-17.036537
1425518577.419,-16.454731
1425518577.435,-16.189342
1425518577.451,-16.296627
1425518577.466,-16.81303
1425518577.482,-17.753262
1425518577.498,-19.025919
1425518577.513,-20.457268
1425518577.529,-21.80682
