1425410687.442,0.0
1425410687.457,0.0
1425410687.473,0.0
1425410687.489,0.0
1425410687.504,0.0
1425410687.52,0.0
1425410687.536,0.0
1425410687.551,0.0
1425410687.567,0.0
1425410687.582,0.0022315353
1425410687.598,-0.0045169927
1425410687.614,-0.011265522
1425410687.629,-0.011383951
1425410687.645,0.0011864507
1425410687.661,0.025910312
1425410687.676,0.050634187
1425410687.692,0.051362894
1425410687.707,-0.0014929791
1425410687.723,-0.1302426
1425410687.739,-0.35562757
1425410687.754,-0.6591247
1425410687.77,-1.0095103
1425410687.786,-1.3709826
1425410687.801,-1.7197359
1425410687.817,-2.0551105
1425410687.832,-2.39945
1425410687.848,-2.7866635
1425410687.864,-3.2399073
1425410687.879,-3.796012
1425410687.895,-4.418684
1425410687.911,-5.0592937
1425410687.926,-5.6644096
1425410687.942,-6.2021537
1425410687.957,-6.6808796
1425410687.973,-7.149598
1425410687.989,-7.6782336
1425410688.004,-8.310739
1425410688.02,-9.143657
1425410688.036,-10.089731
1425410688.051,-11.041313
1425410688.067,-11.8842125
1425410688.082,-12.564316
1425410688.098,-13.13563
1425410688.114,-13.760044
1425410688.129,-14.65232
1425410688.145,-15.962056
1425410688.161,-17.914442
1425410688.176,-20.317299
1425410688.192,-22.903854
1425410688.207,-25.37947
1425410688.223,-27.578028
1425410688.239,-29.57246
1425410688.254,-31.675173
1425410688.27,-34.3178
1425410688.286,-37.813618
1425410688.301,-42.541233
1425410688.317,-48.1463
1425410688.332,-54.104755
1425410688.348,-59.83309
1425410688.364,-64.972374
1425410688.379,-69.58293
1425410688.395,-74.14353
1425410688.411,-79.344986
1425410688.426,-85.70726
1425410688.442,-93.76193
1425410688.457,-102.99779
1425410688.473,-112.61757
1425410688.489,-121.73034
1425410688.504,-129.76602
1425410688.52,-136.75102
1425410688.536,-143.30344
1425410688.551,-150.74623
1425410688.567,-157.77356
1425410688.582,-166.64323
1425410688.598,-177.94798
1425410688.614,-191.79102
1425410688.629,-206.96808
1425410688.645,-220.56592
1425410688.661,-228.24644
1425410688.676,-225.36154
1425410688.692,-208.53198
1425410688.707,-176.87024
1425410688.723,-132.76222
1425410688.739,-80.04997
1425410688.754,-23.069275
1425410688.77,34.94339
1425410688.786,92.43695
1425410688.801,149.15695
1425410688.817,205.22772
1425410688.832,260.36963
1425410688.848,313.74133
1425410688.864,363.87396
1425410688.879,409.83353
1425410688.895,450.90775
1425410688.911,486.50244
1425410688.926,515.73865
1425410688.942,537.2274
1425410688.957,549.22
1425410688.973,549.9613
1425410688.989,538.367
1425410689.004,514.2055
1425410689.02,478.674
1425410689.036,433.87952
1425410689.051,382.45126
1425410689.067,327.02106
1425410689.082,269.84186
1425410689.098,212.63379
1425410689.114,156.6594
1425410689.129,102.95233
1425410689.145,52.373596
1425410689.161,5.9046936
1425410689.176,-35.580414
1425410689.192,-71.42584
1425410689.207,-101.35184
1425410689.223,-125.50113
1425410689.239,-144.3797
1425410689.254,-158.69403
1425410689.27,-169.15071
1425410689.286,-176.3711
1425410689.301,-180.75139
1425410689.317,-182.57419
1425410689.332,-182.06863
1425410689.348,-179.5066
1425410689.364,-175.23325
1425410689.379,-169.65286
1425410689.395,-163.17691
1425410689.411,-156.14568
1425410689.426,-148.80681
1425410689.442,-141.29686
1425410689.457,-133.68983
1425410689.473,-126.01962
1425410689.489,-118.33268
1425410689.504,-110.68864
1425410689.52,-103.15572
1425410689.536,-95.80455
1425410689.551,-88.684166
1425410689.567,-81.82744
1425410689.582,-75.24594
1425410689.598,-68.9526
1425410689.614,-62.949085
1425410689.629,-57.247494
1425410689.645,-51.857185
1425410689.661,-46.78282
1425410689.676,-42.02776
1425410689.692,-37.58521
1425410689.708,-33.451748
1425410689.723,-29.613855
1425410689.739,-26.07092
1425410689.754,-22.808546
1425410689.77,-19.824377
1425410689.786,-17.11218
1425410689.801,-14.664545
1425410689.817,-12.476612
1425410689.833,-10.535316
1425410689.848,-8.830944
1425410689.864,-7.347227
1425410689.879,-6.071905
1425410689.895,-4.9864416
1425410689.911,-4.073384
1425410689.926,-3.31524
1425410689.942,-2.6975188
1425410689.958,-2.201922
1425410689.973,-1.8109472
1425410689.989,-1.5141836
1425410690.004,-1.2969604
1425410690.02,-1.1480492
1425410690.036,-1.0529888
1425410690.051,-1.0045284
1425410690.067,-0.9934747
1425410690.083,-1.0101981
1425410690.098,-1.050745
1425410690.114,-1.1062145
1425410690.129,-1.1757886
1425410690.145,-1.2567142
1425410690.161,-1.3505073
1425410690.176,-1.4572816
1425410690.192,-1.573001
1425410690.208,-1.7022111
1425410690.223,-1.8472393
1425410690.239,-2.0057206
1425410690.254,-2.1820126
1425410690.27,-2.3754315
1425410690.286,-2.5924704
1425410690.301,-2.8298323
1425410690.317,-3.0988054
1425410690.333,-3.3923893
1425410690.348,-3.719283
1425410690.364,-4.0795217
1425410690.379,-4.4699206
1425410690.395,-4.891692
1425410690.411,-5.3506055
1425410690.426,-5.8484387
1425410690.442,-6.3922157
1425410690.458,-6.9850616
1425410690.473,-7.635123
1425410690.489,-8.347435
1425410690.504,-9.135914
1425410690.52,-9.976756
1425410690.536,-10.890733
1425410690.551,-11.886409
1425410690.567,-12.964901
1425410690.583,-14.133911
1425410690.598,-15.394894
1425410690.614,-16.749086
1425410690.629,-18.200558
1425410690.645,-19.75808
1425410690.661,-21.37303
1425410690.676,-23.061419
1425410690.692,-24.830517
1425410690.708,-26.678825
1425410690.723,-28.636517
1425410690.739,-30.695963
1425410690.754,-32.864532
1425410690.77,-35.12777
1425410690.786,-37.486084
1425410690.801,-39.775185
1425410690.817,-41.934372
1425410690.833,-43.81894
1425410690.848,-45.217426
1425410690.864,-45.88311
1425410690.879,-45.56579
1425410690.895,-44.007656
1425410690.911,-41.017063
1425410690.926,-36.49461
1425410690.942,-30.212284
1425410690.958,-22.304775
1425410690.973,-12.963226
1425410690.989,-2.4336472
1425410691.004,8.900787
1425410691.02,20.671684
1425410691.036,32.485657
1425410691.051,43.973305
1425410691.067,54.132782
1425410691.083,63.108604
1425410691.098,70.73695
1425410691.114,76.943634
1425410691.129,81.77808
1425410691.145,85.3542
1425410691.161,87.92658
1425410691.176,89.78963
1425410691.192,91.63565
1425410691.208,93.441734
1425410691.223,95.44738
1425410691.239,97.5081
1425410691.254,99.50601
1425410691.27,101.251495
1425410691.286,102.48615
1425410691.301,102.93783
1425410691.317,102.37585
1425410691.333,100.55726
1425410691.348,97.140205
1425410691.364,92.34933
1425410691.379,85.42464
1425410691.395,75.907486
1425410691.411,63.648544
1425410691.426,48.83329
1425410691.442,32.084534
1425410691.458,14.397644
1425410691.473,-3.0812073
1425410691.489,-19.630917
1425410691.504,-34.004936
1425410691.52,-45.91533
1425410691.536,-55.533
1425410691.551,-63.239197
1425410691.567,-69.40063
1425410691.583,-74.0506
1425410691.598,-76.8912
1425410691.614,-77.56207
1425410691.629,-75.83897
1425410691.645,-71.92037
1425410691.661,-66.82854
1425410691.676,-61.934093
1425410691.692,-58.48487
1425410691.708,-57.13968
1425410691.723,-57.565323
1425410691.739,-58.564903
1425410691.754,-58.57168
1425410691.77,-56.346443
1425410691.786,-51.58845
1425410691.801,-45.31915
1425410691.817,-39.42921
1425410691.833,-35.57076
1425410691.848,-34.636692
1425410691.864,-36.016987
1425410691.879,-37.849236
1425410691.895,-37.73577
1425410691.911,-33.5273
1425410691.926,-23.807669
1425410691.942,-8.295908
1425410691.958,11.86363
1425410691.973,34.154636
1425410691.989,54.51097
1425410692.004,68.32774
1425410692.02,72.003235
1425410692.036,64.668594
1425410692.051,48.932537
1425410692.067,30.02002
1425410692.083,14.382491
1425410692.098,6.0343037
1425410692.114,5.1778393
1425410692.129,8.435571
1425410692.145,10.692375
1425410692.161,7.5367413
1425410692.176,-2.6963816
1425410692.192,-18.152832
1425410692.208,-34.29379
1425410692.223,-45.683407
1425410692.239,-48.28595
1425410692.254,-41.00991
1425410692.27,-26.32996
1425410692.286,-9.353166
1425410692.301,4.2769365
1425410692.317,10.323803
1425410692.333,8.432272
1425410692.348,1.4102488
1425410692.364,-6.6784134
1425410692.38,-13.003586
1425410692.395,-17.185858
1425410692.411,-20.791761
1425410692.426,-25.661943
1425410692.442,-32.24141
1425410692.458,-39.206528
1425410692.473,-44.125793
1425410692.489,-45.144577
1425410692.504,-42.007095
1425410692.52,-36.359966
1425410692.536,-30.71239
1425410692.551,-27.404175
1425410692.567,-27.279337
1425410692.583,-29.256664
1425410692.598,-31.056923
1425410692.614,-29.918102
1425410692.63,-23.990137
1425410692.645,-12.951958
1425410692.661,1.9911757
1425410692.676,19.110739
1425410692.692,37.232616
1425410692.708,55.978077
1425410692.723,75.053154
1425410692.739,93.035515
1425410692.755,106.908295
1425410692.77,112.072914
1425410692.786,105.94434
1425410692.801,88.6883
1425410692.817,63.982124
1425410692.833,37.95579
1425410692.848,16.666092
1425410692.864,3.8248806
1425410692.88,-0.31374168
1425410692.895,1.9636383
1425410692.911,7.4101353
1425410692.926,13.416477
1425410692.942,18.47293
1425410692.958,21.80341
1425410692.973,22.59382
1425410692.989,19.548172
1425410693.005,11.3915415
1425410693.02,-1.9813576
1425410693.036,-18.378841
1425410693.051,-33.48356
1425410693.067,-42.24956
1425410693.083,-40.87027
1425410693.098,-29.097431
1425410693.114,-10.606683
1425410693.13,8.234995
1425410693.145,21.065382
1425410693.161,24.090181
1425410693.176,17.723423
1425410693.192,5.6584005
1425410693.208,-7.5583353
1425410693.223,-18.844845
1425410693.239,-27.483692
1425410693.255,-34.275066
1425410693.27,-40.15538
1425410693.286,-44.899265
1425410693.301,-47.35816
1425410693.317,-46.564922
1425410693.333,-42.74013
1425410693.348,-37.65857
1425410693.364,-33.532104
1425410693.38,-32.172512
1425410693.395,-33.744316
1425410693.411,-36.630085
1425410693.426,-38.225845
1425410693.442,-35.974525
1425410693.458,-28.075853
1425410693.473,-13.999151
1425410693.489,5.0928698
1425410693.505,26.499733
1425410693.52,46.113064
1425410693.536,59.397034
1425410693.551,62.945744
1425410693.567,56.042656
1425410693.583,41.349903
1425410693.598,23.788643
1425410693.614,9.448105
1425410693.63,2.074564
1425410693.645,1.9765654
1425410693.661,6.544994
1425410693.676,12.330645
1425410693.692,17.061283
1425410693.708,20.531376
1425410693.723,24.012342
1425410693.739,28.529222
1425410693.755,33.808758
1425410693.77,37.94227
1425410693.786,38.440037
1425410693.801,33.278004
1425410693.817,21.667212
1425410693.833,4.3381023
1425410693.848,-16.241741
1425410693.864,-36.000248
1425410693.88,-50.17959
1425410693.895,-54.679497
1425410693.911,-47.968468
1425410693.926,-32.21498
1425410693.942,-12.838604
1425410693.958,3.5535316
1425410693.973,11.4878025
1425410693.989,9.512963
1425410694.005,0.15383339
1425410694.02,-11.915501
1425410694.036,-22.377983
1425410694.051,-29.147142
1425410694.067,-32.607224
1425410694.083,-34.330925
1425410694.098,-35.677197
1425410694.114,-37.21296
1425410694.13,-38.383785
1425410694.145,-38.52031
1425410694.161,-37.26739
1425410694.176,-34.59722
1425410694.192,-30.671288
1425410694.208,-25.464436
1425410694.223,-18.139774
1425410694.239,-7.346025
1425410694.255,7.8640075
1425410694.27,26.939276
1425410694.286,46.925587
1425410694.301,62.98965
1425410694.317,70.1694
1425410694.333,65.870056
1425410694.348,51.47355
1425410694.364,31.816116
1425410694.38,14.057685
1425410694.395,3.4499803
1425410694.411,1.5020517
1425410694.426,5.9184294
1425410694.442,12.548578
1425410694.458,17.98864
1425410694.473,21.213102
1425410694.489,23.29749
1425410694.505,25.972622
1425410694.52,29.945335
1425410694.536,34.12883
1425410694.551,36.454594
1425410694.567,34.951294
1425410694.583,28.442902
1425410694.598,16.675034
1425410694.614,0.30523586
1425410694.63,-18.557858
1425410694.645,-36.68818
1425410694.661,-49.83357
1425410694.676,-54.155197
1425410694.692,-47.991566
1425410694.708,-33.191723
1425410694.723,-14.952792
1425410694.739,0.26062918
1425410694.755,7.121437
1425410694.77,4.32189
1425410694.786,-5.470085
1425410694.801,-17.348625
1425410694.817,-27.029137
1425410694.833,-32.66075
1425410694.848,-35.049583
1425410694.864,-36.38622
1425410694.88,-38.42144
1425410694.895,-41.35773
1425410694.911,-44.037987
1425410694.926,-44.775944
1425410694.942,-42.37838
1425410694.958,-36.643143
1425410694.973,-27.961075
1425410694.989,-16.84104
1425410695.005,-3.3530054
1425410695.02,12.749202
1425410695.036,30.954496
1425410695.052,49.210228
1425410695.067,63.819675
1425410695.083,70.77799
1425410695.098,67.75011
1425410695.114,55.21652
1425410695.13,37.77716
1425410695.145,21.2007
1425410695.161,10.031129
1425410695.176,5.8039975
1425410695.192,6.987385
1425410695.208,10.629495
1425410695.223,14.465959
1425410695.239,17.951513
1425410695.255,21.95859
1425410695.27,27.380089
1425410695.286,33.69413
1425410695.302,38.90185
1425410695.317,40.382786
1425410695.333,36.13687
1425410695.348,25.604359
1425410695.364,9.838585
1425410695.38,-8.647879
1425410695.395,-25.949192
1425410695.411,-38.025414
1425410695.427,-41.655632
1425410695.442,-35.83423
1425410695.458,-22.673326
1425410695.473,-7.037287
1425410695.489,5.362896
1425410695.505,10.361144
1425410695.52,7.1405373
1425410695.536,-1.4570999
1425410695.552,-10.945699
1425410695.567,-17.90013
1425410695.583,-21.744629
1425410695.598,-24.446064
1425410695.614,-28.680195
1425410695.63,-35.592922
1425410695.645,-43.77295
1425410695.661,-50.0388
1425410695.677,-51.14026
1425410695.692,-45.56162
1425410695.708,-33.84952
1425410695.723,-17.9332
1425410695.739,-0.28416348
1425410695.755,16.529106
1425410695.77,30.180126
1425410695.786,38.438038
1425410695.802,39.745068
1425410695.817,34.082535
1425410695.833,23.471653
1425410695.848,11.512333
1425410695.864,1.9742379
1425410695.88,-2.4191437
1425410695.895,-1.621458
1425410695.911,2.4790769
1425410695.927,7.629029
1425410695.942,12.701217
1425410695.958,18.044685
1425410695.973,24.776737
1425410695.989,32.989365
1425410696.005,40.908875
1425410696.02,45.551674
1425410696.036,43.836014
1425410696.052,34.124645
1425410696.067,16.828314
1425410696.083,-5.6346045
1425410696.098,-29.446815
1425410696.114,-49.846966
1425410696.13,-62.471863
1425410696.145,-64.6796
1425410696.161,-56.703743
1425410696.177,-42.041492
1425410696.192,-26.313938
1425410696.208,-14.83471
1425410696.223,-10.937652
1425410696.239,-13.956278
1425410696.255,-20.238066
1425410696.27,-25.733564
1425410696.286,-28.453876
1425410696.302,-29.232325
1425410696.317,-30.4578
1425410696.333,-34.02711
1425410696.348,-39.36308
1425410696.364,-43.54659
1425410696.38,-42.80745
1425410696.395,-34.520405
1425410696.411,-18.368336
1425410696.427,3.7724352
1425410696.442,28.66049
1425410696.458,52.33314
1425410696.473,71.0002
1425410696.489,81.61319
1425410696.505,82.51022
1425410696.52,74.28493
1425410696.536,59.37564
1425410696.552,42.78378
1425410696.567,28.942404
1425410696.583,20.269333
1425410696.598,16.508852
1425410696.614,15.553724
1425410696.63,15.274119
1425410696.645,15.032995
1425410696.661,15.843624
1425410696.677,19.3491
1425410696.692,26.007109
1425410696.708,34.061558
1425410696.723,40.15261
1425410696.739,40.81631
1425410696.755,33.96325
1425410696.77,19.65807
1425410696.786,0.0693512
1425410696.802,-21.025684
1425410696.817,-39.015884
1425410696.833,-49.579517
1425410696.848,-50.146927
1425410696.864,-41.104786
1425410696.88,-26.04187
1425410696.895,-10.6955805
1425410696.911,-0.603158
1425410696.927,1.2283573
1425410696.942,-4.508232
1425410696.958,-13.946064
1425410696.973,-22.694912
1425410696.989,-28.373089
1425410697.005,-31.692339
1425410697.02,-35.07185
1425410697.036,-40.576
1425410697.052,-48.089344
1425410697.067,-54.81711
1425410697.083,-57.14003
1425410697.098,-52.414406
1425410697.114,-40.23438
1425410697.13,-22.183445
1425410697.145,-1.1251402
1425410697.161,19.712793
1425410697.177,37.3001
1425410697.192,49.020496
1425410697.208,53.171337
1425410697.223,49.581596
1425410697.239,40.06465
1425410697.255,27.683098
1425410697.27,16.659405
1425410697.286,9.767187
1425410697.302,7.6009555
1425410697.317,8.894757
1425410697.333,11.844229
1425410697.348,15.423698
1425410697.364,19.864126
1425410697.38,25.952396
1425410697.395,33.620895
1425410697.411,41.353733
1425410697.427,46.304855
1425410697.442,45.68942
1425410697.458,37.98836
1425410697.473,23.462603
1425410697.489,4.090967
1425410697.505,-16.799225
1425410697.52,-35.1659
1425410697.536,-47.17622
1425410697.552,-50.187206
1425410697.567,-44.0158
1425410697.583,-31.284237
1425410697.598,-16.796005
1425410697.614,-5.5516205
1425410697.63,-1.1477423
1425410697.645,-3.817236
1425410697.661,-11.003877
1425410697.677,-19.411385
1425410697.692,-26.707188
1425410697.708,-32.461143
1425410697.723,-37.53192
1425410697.739,-42.280724
1425410697.755,-45.802925
1425410697.77,-46.12519
1425410697.786,-40.953224
1425410697.802,-28.89061
1425410697.817,-10.3903055
1425410697.833,12.544657
1425410697.848,36.403202
1425410697.864,56.772373
1425410697.88,69.62713
1425410697.895,72.42196
1425410697.911,65.26949
1425410697.927,50.87433
1425410697.942,34.70921
1425410697.958,21.944473
1425410697.974,15.75149
1425410697.989,16.25674
1425410698.005,21.377794
1425410698.02,28.065977
1425410698.036,34.13106
1425410698.052,38.450756
1425410698.067,40.871094
1425410698.083,41.314705
1425410698.099,38.846527
1425410698.114,31.824493
1425410698.13,18.523533
1425410698.145,-1.5644503
1425410698.161,-26.627192
1425410698.177,-52.37202
1425410698.192,-72.977646
1425410698.208,-82.99677
1425410698.224,-79.81738
1425410698.239,-65.14706
1425410698.255,-44.06172
1425410698.27,-24.288292
1425410698.286,-11.710951
1425410698.302,-8.382201
1425410698.317,-12.509592
1425410698.333,-20.10783
1425410698.349,-27.397263
1425410698.364,-32.4716
1425410698.38,-35.439266
1425410698.395,-37.055157
1425410698.411,-37.691338
1425410698.427,-36.404697
1425410698.442,-31.442648
1425410698.458,-21.281279
1425410698.474,-5.822426
1425410698.489,12.750668
1425410698.505,30.451452
1425410698.52,42.340057
1425410698.536,44.774765
1425410698.552,36.956596
1425410698.567,21.825937
1425410698.583,4.9511194
1425410698.599,-7.7767653
1425410698.614,-12.339753
1425410698.63,-8.347673
1425410698.645,1.6465816
1425410698.661,13.74115
1425410698.677,24.852335
1425410698.692,33.407833
1425410698.708,39.35132
1425410698.724,42.847942
1425410698.739,43.52758
1425410698.755,40.191513
1425410698.77,31.247509
1425410698.786,16.032707
1425410698.802,-3.9301023
1425410698.817,-24.926453
1425410698.833,-41.720642
1425410698.849,-49.37332
1425410698.864,-45.711655
1425410698.88,-32.581303
1425410698.895,-15.339954
1425410698.911,-0.6509423
1425410698.927,6.140601
1425410698.942,3.7219296
1425410698.958,-5.49498
1425410698.974,-17.17556
1425410698.989,-27.406635
1425410699.005,-34.397655
1425410699.02,-38.321175
1425410699.036,-39.93644
1425410699.052,-39.497784
1425410699.067,-36.141445
1425410699.083,-28.12716
1425410699.099,-14.122276
1425410699.114,6.0241194
1425410699.13,30.396868
1425410699.145,55.11074
1425410699.161,74.84208
1425410699.177,84.86937
1425410699.192,82.72273
1425410699.208,69.24062
1425410699.224,49.73435
1425410699.239,30.850489
1425410699.255,18.121002
1425410699.27,13.857301
1425410699.286,16.879438
1425410699.302,23.572794
1425410699.317,30.37335
1425410699.333,35.053284
1425410699.349,37.227318
1425410699.364,37.65058
1425410699.38,36.53285
1425410699.395,32.826546
1425410699.411,24.360819
1425410699.427,9.491565
1425410699.442,-11.577281
1425410699.458,-35.511284
1425410699.474,-56.605003
1425410699.489,-68.567505
1425410699.505,-67.4968
1425410699.52,-54.09804
1425410699.536,-33.325294
1425410699.552,-13.356518
1425410699.567,-1.0415716
1425410699.583,0.64767903
1425410699.599,-6.570134
1425410699.614,-17.932728
1425410699.63,-28.485964
1425410699.645,-35.298836
1425410699.661,-38.16627
1425410699.677,-38.468773
1425410699.692,-37.428513
1425410699.708,-34.635143
1425410699.724,-28.320623
1425410699.739,-16.825974
1425410699.755,-0.5135031
1425410699.77,17.338024
1425410699.786,31.540838
1425410699.802,36.73856
1425410699.817,30.54467
1425410699.833,14.921252
1425410699.849,-4.171095
1425410699.864,-19.402798
1425410699.88,-25.07705
1425410699.895,-19.569208
1425410699.911,-5.821108
1425410699.927,10.924642
1425410699.942,25.495697
1425410699.958,34.876846
1425410699.974,38.611073
1425410699.989,37.79411
1425410700.005,33.150955
1425410700.02,24.264076
1425410700.036,10.339574
1425410700.052,-8.73426
1425410700.067,-30.620682
1425410700.083,-50.61024
1425410700.099,-63.05216
1425410700.114,-63.949932
1425410700.13,-53.221363
1425410700.145,-34.905567
1425410700.161,-16.400492
1425410700.177,-4.2424955
1425410700.192,-1.6845934
1425410700.208,-7.6467104
1425410700.224,-17.951231
1425410700.239,-27.757051
1425410700.255,-33.85173
1425410700.27,-35.194496
1425410700.286,-32.410988
1425410700.302,-26.46221
1425410700.317,-17.28033
1425410700.333,-3.9491677
1425410700.349,14.462179
1425410700.364,37.36372
1425410700.38,61.941658
1425410700.395,83.27669
1425410700.411,95.80872
1425410700.427,95.83906
1425410700.442,82.92578
1425410700.458,61.889114
1425410700.474,39.77349
1425410700.489,23.144169
1425410700.505,15.579742
1425410700.52,16.761293
1425410700.536,23.21481
1425410700.552,30.702982
1425410700.567,36.18876
1425410700.583,38.476315
1425410700.599,38.071667
1425410700.614,35.491386
1425410700.63,30.316906
1425410700.646,21.038445
1425410700.661,6.319124
1425410700.677,-13.759525
1425410700.692,-36.35772
1425410700.708,-56.3443
1425410700.724,-67.9428
1425410700.739,-67.36752
1425410700.755,-55.061073
1425410700.771,-35.532825
1425410700.786,-16.43561
1425410700.802,-4.3000345
1425410700.817,-2.1129563
1425410700.833,-8.532111
1425410700.849,-19.281277
1425410700.864,-29.818668
1425410700.88,-37.279716
1425410700.896,-41.130154
1425410700.911,-42.304413
1425410700.927,-41.770206
1425410700.942,-39.202538
1425410700.958,-33.164738
1425410700.974,-22.066957
1425410700.989,-5.8865633
1425410701.005,12.891819
1425410701.021,29.790108
1425410701.036,39.49579
1425410701.052,38.558144
1425410701.067,27.23568
1425410701.083,9.870765
1425410701.099,-6.9036846
1425410701.114,-16.877117
1425410701.13,-16.836624
1425410701.146,-7.7722416
1425410701.161,6.309222
1425410701.177,20.664303
1425410701.192,31.918695
1425410701.208,38.823444
1425410701.224,41.956085
1425410701.239,42.047752
1425410701.255,38.943336
1425410701.271,31.391544
1425410701.286,18.052334
1425410701.302,-0.7160311
1425410701.317,-22.177607
1425410701.333,-41.28449
1425410701.349,-52.32915
1425410701.364,-51.70303
1425410701.38,-39.898937
1425410701.396,-21.621077
1425410701.411,-3.8919868
1425410701.427,6.65169
1425410701.442,7.1816263
1425410701.458,-0.8887973
1425410701.474,-13.132325
1425410701.489,-24.768408
1425410701.505,-32.716442
1425410701.521,-36.3184
1425410701.536,-36.3797
1425410701.552,-33.788097
1425410701.567,-28.397467
1425410701.583,-18.818827
1425410701.599,-3.8289566
1425410701.614,16.362646
1425410701.63,39.08308
1425410701.646,59.456085
1425410701.661,71.87815
1425410701.677,72.668236
1425410701.692,61.88678
1425410701.708,43.391598
1425410701.724,24.350296
1425410701.739,11.1871605
1425410701.755,7.198363
1425410701.771,11.74072
1425410701.786,21.071678
1425410701.802,30.680153
1425410701.817,37.363583
1425410701.833,39.905434
1425410701.849,38.720055
1425410701.864,34.596916
1425410701.88,27.315115
1425410701.896,15.646681
1425410701.911,-1.6177933
1425410701.927,-24.036093
1425410701.942,-48.58677
1425410701.958,-69.97706
1425410701.974,-82.31642
1425410701.989,-81.90254
1425410702.005,-69.1966
1425410702.021,-48.660683
1425410702.036,-28.118471
1425410702.052,-14.212455
1425410702.067,-9.936257
1425410702.083,-14.1005125
1425410702.099,-22.520483
1425410702.114,-30.740082
1425410702.13,-35.989
1425410702.146,-37.795677
1425410702.161,-37.059612
1425410702.177,-34.64443
1425410702.192,-30.039968
1425410702.208,-21.529861
1425410702.224,-7.575927
1425410702.239,11.801963
1425410702.255,33.88633
1425410702.271,53.644672
1425410702.286,65.31878
1425410702.302,65.21449
1425410702.317,53.517864
1425410702.333,34.47753
1425410702.349,15.530272
1425410702.364,3.1539373
1425410702.38,0.5262376
1425410702.396,6.445355
1425410702.411,16.784071
1425410702.427,26.906605
1425410702.442,33.938965
1425410702.458,37.25893
1425410702.474,37.85722
1425410702.489,36.590412
1425410702.505,32.748497
1425410702.521,24.44956
1425410702.536,10.165435
1425410702.552,-9.384913
1425410702.567,-30.353552
1425410702.583,-46.69992
1425410702.599,-52.795506
1425410702.614,-46.310196
1425410702.63,-29.778368
1425410702.646,-9.883267
1425410702.661,5.651131
1425410702.677,11.101744
1425410702.692,5.8020234
1425410702.708,-6.6120014
1425410702.724,-20.403328
1425410702.739,-30.76693
1425410702.755,-35.638447
1425410702.771,-35.34611
1425410702.786,-31.020926
1425410702.802,-22.704998
1425410702.817,-9.644873
1425410702.833,8.609121
1425410702.849,30.05954
1425410702.864,49.93837
1425410702.88,62.242855
1425410702.896,62.562775
1425410702.911,50.721848
1425410702.927,31.100414
1425410702.942,11.70181
1425410702.958,-0.24950457
1425410702.974,-1.3841819
1425410702.989,6.7778645
1425410703.005,19.25304
1425410703.021,30.352869
1425410703.036,36.36486
1425410703.052,36.240383
1425410703.067,30.653229
1425410703.083,20.433249
1425410703.099,5.7485685
1425410703.114,-13.39888
1425410703.13,-35.590443
1425410703.146,-57.09906
1425410703.161,-72.5881
1425410703.177,-77.3824
1425410703.192,-69.777695
1425410703.208,-52.134487
1425410703.224,-31.224754
1425410703.239,-14.3225155
1425410703.255,-6.2546844
1425410703.271,-7.7163706
1425410703.286,-15.619764
1425410703.302,-25.334732
1425410703.318,-33.032833
1425410703.333,-36.90424
1425410703.349,-37.128983
1425410703.364,-34.460934
1425410703.38,-28.811647
1425410703.396,-19.073069
1425410703.411,-4.323654
1425410703.427,14.753413
1425410703.442,34.841133
1425410703.458,50.66099
1425410703.474,56.977753
1425410703.489,51.32418
1425410703.505,35.59336
1425410703.521,15.458758
1425410703.536,-1.3877959
1425410703.552,-9.227911
1425410703.568,-6.5599966
1425410703.583,3.87426
1425410703.599,17.009037
1425410703.614,28.062662
1425410703.63,34.576633
1425410703.646,36.422813
1425410703.661,34.702244
1425410703.677,30.081665
1425410703.693,21.989544
1425410703.708,9.484968
1425410703.724,-6.968357
1425410703.739,-24.631775
1425410703.755,-38.711014
1425410703.771,-44.40971
1425410703.786,-39.396805
1425410703.802,-25.4874
1425410703.818,-8.232607
1425410703.833,5.4969416
1425410703.849,10.339521
1425410703.864,5.094186
1425410703.88,-7.344653
1425410703.896,-21.979023
1425410703.911,-34.15894
1425410703.927,-41.420937
1425410703.943,-43.6631
1425410703.958,-41.755978
1425410703.974,-36.119423
1425410703.989,-26.270065
1425410704.005,-11.032947
1425410704.021,9.571343
1425410704.036,33.117134
1425410704.052,54.694725
1425410704.068,68.3926
1425410704.083,69.872215
1425410704.099,58.373222
1425410704.114,38.50265
1425410704.13,17.556942
1425410704.146,2.5206194
1425410704.161,-2.7746553
1425410704.177,1.0065842
1425410704.193,10.094754
1425410704.208,19.816046
1425410704.224,26.982187
1425410704.239,30.782475
1425410704.255,31.964285
1425410704.271,30.98067
1425410704.286,26.936699
1425410704.302,18.072805
1425410704.318,3.6568575
1425410704.333,-14.258368
1425410704.349,-30.853584
1425410704.364,-40.14186
1425410704.38,-37.826797
1425410704.396,-24.098398
1425410704.411,-4.0616493
1425410704.427,14.299194
1425410704.443,23.70053
1425410704.458,21.186592
1425410704.474,8.915049
1425410704.489,-7.3782024
1425410704.505,-21.697258
1425410704.521,-30.22115
1425410704.536,-31.99123
1425410704.552,-27.6686
1425410704.568,-17.819317
1425410704.583,-2.257177
1425410704.599,18.772867
1425410704.614,42.99548
1425410704.63,65.50532
1425410704.646,80.09763
1425410704.661,82.23652
1425410704.677,70.87055
1425410704.693,50.605515
1425410704.708,28.762264
1425410704.724,12.23761
1425410704.739,4.402792
1425410704.755,4.2339554
1425410704.771,7.3763084
1425410704.786,8.790609
1425410704.802,5.128107
1425410704.818,-4.6700044
1425410704.833,-20.116642
1425410704.849,-40.626564
1425410704.864,-65.6574
1425410704.88,-93.740715
1425410704.896,-121.26907
1425410704.911,-141.7796
1425410704.927,-149.32019
1425410704.943,-140.49307
1425410704.958,-116.60218
1425410704.974,-83.96428
1425410704.989,-51.367783
1425410705.005,-26.164886
1425410705.021,-11.59528
1425410705.036,-5.956723
1425410705.052,-4.423131
1425410705.068,-1.9690819
1425410705.083,4.7183447
1425410705.099,16.796032
1425410705.114,34.242832
1425410705.13,56.447918
1425410705.146,82.00368
1425410705.161,107.859085
1425410705.177,129.05699
1425410705.193,139.26854
1425410705.208,135.00172
1425410705.224,116.88183
1425410705.239,89.898735
1425410705.255,61.753246
1425410705.271,39.2547
1425410705.286,25.58125
1425410705.302,19.355242
1425410705.318,16.289099
1425410705.333,11.634306
1425410705.349,2.6413846
1425410705.364,-11.342749
1425410705.38,-29.77463
1425410705.396,-51.912178
1425410705.411,-76.90733
1425410705.427,-102.78666
1425410705.443,-125.66676
1425410705.458,-139.28775
1425410705.474,-139.16034
1425410705.489,-123.81762
1425410705.505,-96.18259
1425410705.521,-63.052326
1425410705.536,-32.04893
1425410705.552,-8.534225
1425410705.568,6.422078
1425410705.583,15.217818
1425410705.599,22.189844
1425410705.614,30.725594
1425410705.63,42.415077
1425410705.646,57.129612
1425410705.661,74.22186
1425410705.677,93.65895
1425410705.693,115.55143
1425410705.708,138.83273
1425410705.724,159.75122
1425410705.739,172.55185
1425410705.755,170.95926
1425410705.771,151.4212
1425410705.786,115.34268
1425410705.802,69.2174
1425410705.818,22.43985
1425410705.833,-16.556
1425410705.849,-43.535835
1425410705.864,-59.533882
1425410705.88,-68.805084
1425410705.896,-76.44912
1425410705.911,-85.55929
1425410705.927,-96.709366
1425410705.943,-109.240036
1425410705.958,-122.58199
1425410705.974,-136.96957
1425410705.99,-151.2318
1425410706.005,-164.15427
1425410706.021,-171.35977
1425410706.036,-167.64038
1425410706.052,-149.58488
1425410706.068,-117.86442
1425410706.083,-78.12788
1425410706.099,-38.3696
1425410706.114,-5.76548
1425410706.13,16.420237
1425410706.146,29.094076
1425410706.161,36.97605
1425410706.177,44.676903
1425410706.193,55.130898
1425410706.208,69.09147
1425410706.224,85.95268
1425410706.24,105.5385
1425410706.255,127.86659
1425410706.271,152.1313
1425410706.286,173.89252
1425410706.302,188.05373
1425410706.318,188.43636
1425410706.333,171.17029
1425410706.349,138.21564
1425410706.365,94.52243
1425410706.38,48.866318
1425410706.396,9.673534
1425410706.411,-18.449173
1425410706.427,-36.07756
1425410706.443,-46.994293
1425410706.458,-56.208626
1425410706.474,-67.05925
1425410706.49,-80.5027
1425410706.505,-96.21845
1425410706.521,-113.59882
1425410706.536,-132.61589
1425410706.552,-151.47693
1425410706.568,-168.41833
1425410706.583,-178.73561
1425410706.599,-177.05696
1425410706.615,-160.00223
1425410706.63,-128.44757
1425410706.646,-88.38891
1425410706.661,-48.211487
1425410706.677,-15.412633
1425410706.693,6.5872135
1425410706.708,18.815094
1425410706.724,26.124697
1425410706.74,33.31967
1425410706.755,43.457397
1425410706.771,57.368893
1425410706.786,74.61345
1425410706.802,95.02361
1425410706.818,118.74591
1425410706.833,144.11453
1425410706.849,168.12578
1425410706.865,185.49976
1425410706.88,189.87265
1425410706.896,177.12376
1425410706.911,147.84149
1425410706.927,107.851425
1425410706.943,66.15348
1425410706.958,31.02827
1425410706.974,6.8744
1425410706.99,-7.740658
1425410707.005,-17.146631
1425410707.021,-26.421137
1425410707.036,-38.774307
1425410707.052,-54.92948
1425410707.068,-74.12071
1425410707.083,-95.53994
1425410707.099,-118.90439
1425410707.115,-142.43341
1425410707.13,-163.68893
1425410707.146,-177.79903
1425410707.161,-179.26543
1425410707.177,-164.72588
1425410707.193,-135.17673
1425410707.208,-96.60129
1425410707.224,-57.585697
1425410707.24,-25.74494
1425410707.255,-4.531207
1425410707.271,7.2565823
1425410707.286,14.2229395
1425410707.302,21.122221
1425410707.318,30.995123
1425410707.333,44.668774
1425410707.349,61.779636
1425410707.365,82.10035
1425410707.38,105.74223
1425410707.396,131.12552
1425410707.411,155.50687
1425410707.427,173.47327
1425410707.443,178.80544
1425410707.458,167.54971
1425410707.474,140.39296
1425410707.49,103.190475
1425410707.505,64.78756
1425410707.521,33.215286
1425410707.536,12.388994
1425410707.552,1.3256633
1425410707.568,-4.8012705
1425410707.583,-11.43259
1425410707.599,-21.876774
1425410707.615,-36.879128
1425410707.63,-55.667328
1425410707.646,-77.40061
1425410707.661,-101.69774
1425410707.677,-127.70036
1425410707.693,-151.4646
1425410707.708,-168.17998
1425410707.724,-172.23973
1425410707.74,-160.19144
1425410707.755,-132.96591
1425410707.771,-96.49435
1425410707.786,-59.271248
1425410707.802,-28.821753
1425410707.818,-8.559478
1425410707.833,2.8702238
1425410707.849,9.721847
1425410707.865,16.675133
1425410707.88,26.699816
1425410707.896,40.53504
1425410707.911,57.754448
1425410707.927,78.11752
1425410707.943,101.71034
1425410707.958,127.04856
1425410707.974,151.47992
1425410707.99,169.38947
1425410708.005,174.60184
1425410708.021,163.20418
1425410708.036,135.91231
1425410708.052,98.56049
1425410708.068,59.919144
1425410708.083,27.936977
1425410708.099,6.4874516
1425410708.115,-5.2426567
1425410708.13,-12.29805
1425410708.146,-19.753656
1425410708.161,-30.731323
1425410708.177,-45.853237
1425410708.193,-64.29699
1425410708.208,-85.22585
1425410708.224,-108.30444
1425410708.24,-132.76979
1425410708.255,-154.76782
1425410708.271,-169.75343
1425410708.286,-172.24248
1425410708.302,-158.94345
1425410708.318,-130.88937
1425410708.333,-94.009415
1425410708.349,-56.75323
1425410708.365,-26.527943
1425410708.38,-6.6164856
1425410708.396,4.42791
1425410708.411,10.901969
1425410708.427,17.53963
1425410708.443,27.290043
1425410708.458,40.887714
1425410708.474,57.892284
1425410708.49,78.0644
1425410708.505,101.49086
1425410708.521,126.72007
1425410708.536,151.06284
1425410708.552,168.92773
1425410708.568,174.1967
1425410708.583,162.98964
1425410708.599,136.01666
1425410708.615,99.133705
1425410708.63,61.038254
1425410708.646,29.59965
1425410708.661,8.621004
1425410708.677,-2.7994022
1425410708.693,-9.655611
1425410708.708,-16.999014
1425410708.724,-27.928951
1425410708.74,-43.03416
1425410708.755,-61.463753
1425410708.771,-82.374435
1425410708.786,-105.41783
1425410708.802,-129.81503
1425410708.818,-151.82439
1425410708.833,-166.82373
1425410708.849,-169.36203
1425410708.865,-156.20622
1425410708.88,-128.40503
1425410708.896,-91.88844
1425410708.912,-55.060383
1425410708.927,-25.268776
1425410708.943,-5.742197
1425410708.958,4.911092
1425410708.974,11.123004
1425410708.99,17.58987
1425410709.005,27.230654
1425410709.021,40.745724
1425410709.037,57.70124
1425410709.052,77.83793
1425410709.068,101.217476
1425410709.083,126.4402
1425410709.099,150.62018
1425410709.115,168.3359
1425410709.13,173.42287
1425410709.146,161.97948
1425410709.162,134.75864
1425410709.177,97.572136
1425410709.193,59.101223
1425410709.208,27.198805
1425410709.224,5.816758
1425410709.24,-6.4928765
1425410709.255,-14.183107
1425410709.271,-22.19782
1425410709.287,-33.564816
1425410709.302,-48.83009
1425410709.318,-67.11444
1425410709.333,-87.57757
1425410709.349,-109.916794
1425410709.365,-132.65245
1425410709.38,-153.31592
1425410709.396,-167.05557
1425410709.412,-168.5008
1425410709.427,-154.5155
1425410709.443,-126.21085
1425410709.458,-89.518684
1425410709.474,-52.783268
1425410709.49,-23.25928
1425410709.505,-4.064445
1425410709.521,6.121415
1425410709.537,11.958066
1425410709.552,18.101707
1425410709.568,27.43662
1425410709.583,40.657703
1425410709.599,57.322327
1425410709.615,77.18951
1425410709.63,100.31832
1425410709.646,125.30989
1425410709.662,149.20833
1425410709.677,166.72261
1425410709.693,171.73015
1425410709.708,160.36557
1425410709.724,133.3908
1425410709.74,96.64101
1425410709.755,58.75106
1425410709.771,27.481472
1425410709.787,6.6974883
1425410709.802,-5.130648
1425410709.818,-12.411318
1425410709.833,-20.081295
1425410709.849,-31.162416
1425410709.865,-46.179802
1425410709.88,-64.249794
1425410709.896,-84.55127
1425410709.912,-106.77291
1425410709.927,-129.49188
1425410709.943,-150.215
1425410709.958,-164.10258
1425410709.974,-165.78848
1425410709.99,-152.16008
1425410710.005,-124.34339
1425410710.021,-88.25589
1425410710.037,-52.187714
1425410710.052,-23.318752
1425410710.068,-4.709703
1425410710.083,5.0593567
1425410710.099,10.53006
1425410710.115,16.376156
1425410710.13,25.449442
1425410710.146,38.422073
1425410710.162,54.848873
1425410710.177,74.46486
1425410710.193,97.331566
1425410710.208,122.10926
1425410710.224,145.92357
1425410710.24,163.34903
1425410710.255,168.31425
1425410710.271,157.05011
1425410710.287,130.3599
1425410710.302,94.08742
1425410710.318,56.818504
1425410710.333,26.274008
1425410710.349,6.1030364
1425410710.365,-4.7598634
1425410710.38,-11.123318
1425410710.396,-17.93141
1425410710.412,-28.169476
1425410710.427,-42.37511
1425410710.443,-59.701534
1425410710.458,-79.37448
1425410710.474,-101.12601
1425410710.49,-124.25891
1425410710.505,-145.28316
1425410710.521,-159.6481
1425410710.537,-162.0082
1425410710.552,-149.22394
1425410710.568,-122.395096
1425410710.583,-87.38189
1425410710.599,-52.387924
1425410710.615,-24.509394
1425410710.63,-6.732656
1425410710.646,2.514923
1425410710.662,7.577955
1425410710.677,13.117047
1425410710.693,21.962805
1425410710.708,34.75039
1425410710.724,51.004833
1425410710.74,70.48306
1425410710.755,93.22628
1425410710.771,117.951584
1425410710.787,141.88698
1425410710.802,159.5399
1425410710.818,164.9481
1425410710.833,154.3915
1425410710.849,128.74538
1425410710.865,93.80498
1425410710.88,58.115234
1425410710.896,29.266068
1425410710.912,10.760181
1425410710.927,1.4769948
1425410710.943,-3.5915732
1425410710.958,-9.477112
1425410710.974,-19.245682
1425410710.99,-33.46245
1425410711.005,-51.28248
1425410711.021,-71.88291
1425410711.037,-94.89656
1425410711.052,-119.48631
1425410711.068,-142.05765
1425410711.083,-157.921
1425410711.099,-161.60164
1425410711.115,-149.91895
1425410711.13,-123.955
1425410711.146,-89.57676
1425410711.162,-55.00875
1425410711.177,-27.366625
1425410711.193,-9.670422
1425410711.208,-0.38891578
1425410711.224,4.773327
1425410711.24,10.43884
1425410711.255,19.412275
1425410711.271,32.32038
1425410711.287,48.67926
1425410711.302,68.229996
1425410711.318,91.0492
1425410711.333,115.85305
1425410711.349,139.90181
1425410711.365,157.6858
1425410711.38,163.24197
1425410711.396,152.85036
1425410711.412,127.366196
1425410711.427,92.60703
1425410711.443,57.07594
1425410711.458,28.340137
1425410711.474,9.894463
1425410711.49,0.62888527
1425410711.505,-4.4215107
1425410711.521,-10.244565
1425410711.537,-19.876232
1425410711.552,-33.850426
1425410711.568,-51.333313
1425410711.584,-71.51753
1425410711.599,-94.06779
1425410711.615,-118.214264
1425410711.63,-140.42752
1425410711.646,-156.06754
1425410711.662,-159.6795
1425410711.677,-148.07594
1425410711.693,-122.31418
1425410711.709,-88.22974
1425410711.724,-54.00226
1425410711.74,-26.709412
1425410711.755,-9.347611
1425410711.771,-0.37101603
1425410711.787,4.5386567
1425410711.802,10.025407
1425410711.818,18.878164
1425410711.834,31.740236
1425410711.849,48.106064
1425410711.865,67.70381
1425410711.88,90.584785
1425410711.896,115.49856
1425410711.912,139.6312
1425410711.927,157.49347
1425410711.943,163.11958
1425410711.959,152.8195
1425410711.974,127.43144
1425410711.99,92.762146
1425410712.005,57.309353
1425410712.021,28.577051
1425410712.037,10.043943
1425410712.052,0.5532994
1425410712.068,-4.797986
1425410712.084,-10.952887
1425410712.099,-20.895786
1425410712.115,-35.10702
1425410712.13,-52.72076
1425410712.146,-72.89207
1425410712.162,-95.281006
1425410712.177,-119.06889
1425410712.193,-140.80424
1425410712.209,-155.81958
1425410712.224,-158.77444
1425410712.24,-146.6265
1425410712.255,-120.5187
1425410712.271,-86.34616
1425410712.287,-52.23646
1425410712.302,-25.173338
1425410712.318,-8.036718
1425410712.334,0.71431565
1425410712.349,5.512783
1425410712.365,10.95256
1425410712.38,19.787752
1425410712.396,32.629745
1425410712.412,48.984238
1425410712.427,68.59736
1425410712.443,91.51102
1425410712.459,116.477325
1425410712.474,140.54538
1425410712.49,158.32306
1425410712.505,163.7777
1425410712.521,153.20992
1425410712.537,127.493416
1425410712.552,92.400085
1425410712.568,56.401966
1425410712.584,27.021168
1425410712.599,7.848069
1425410712.615,-2.650053
1425410712.63,-8.960623
1425410712.646,-15.942396
1425410712.662,-26.489048
1425410712.677,-41.020668
1425410712.693,-58.613808
1425410712.709,-78.432724
1425410712.724,-100.16483
1425410712.74,-122.568016
1425410712.755,-143.08864
1425410712.771,-156.93445
1425410712.787,-158.8505
1425410712.802,-145.85814
1425410712.818,-119.14056
1425410712.834,-84.58728
1425410712.849,-50.30433
1425410712.865,-23.219395
1425410712.88,-6.1922574
1425410712.896,2.3363578
1425410712.912,6.9113126
1425410712.927,12.109103
1425410712.943,20.701628
1425410712.959,33.295197
1425410712.974,49.40796
1425410712.99,68.79127
1425410713.005,91.47195
1425410713.021,116.19167
1425410713.037,140.04883
1425410713.052,157.64505
1425410713.068,162.97432
1425410713.084,152.33792
1425410713.099,126.62814
1425410713.115,91.62024
1425410713.13,55.74874
1425410713.146,26.619734
1425410713.162,7.5027075
1425410713.177,-2.9145043
1425410713.193,-9.1245985
1425410713.209,-15.9607315
1425410713.224,-26.294043
1425410713.24,-40.545536
1425410713.255,-57.816807
1425410713.271,-77.304
1425410713.287,-98.72815
1425410713.302,-121.40533
1425410713.318,-141.97511
1425410713.334,-155.89
1425410713.349,-157.94168
1425410713.365,-145.15549
1425410713.38,-118.70705
1425410713.396,-84.471214
1425410713.412,-50.550438
1425410713.427,-23.870464
1425410713.443,-7.2600536
1425410713.459,0.9368392
1425410713.474,5.1635485
1425410713.49,10.041527
1425410713.505,18.359179
1425410713.521,30.73116
1425410713.537,46.684013
1425410713.552,65.951515
1425410713.568,88.57945
1425410713.584,113.32851
1425410713.599,137.34564
1425410713.615,155.17635
1425410713.63,160.85617
1425410713.646,150.70593
1425410713.662,125.62377
1425410713.677,91.431274
1425410713.693,56.5517
1425410713.709,28.470205
1425410713.724,10.650631
1425410713.74,1.7664821
1425410713.755,-2.950175
1425410713.771,-8.435502
1425410713.787,-17.666553
1425410713.802,-31.15939
1425410713.818,-48.07379
1425410713.834,-67.65069
1425410713.849,-89.59234
1425410713.865,-113.159744
1425410713.88,-134.96231
1425410713.896,-150.3292
1425410713.912,-153.90955
1425410713.927,-142.61838
1425410713.943,-117.547844
1425410713.959,-84.50465
1425410713.974,-51.56354
1425410713.99,-25.629187
1425410714.005,-9.557435
1425410714.021,-1.6918098
1425410714.037,2.3494687
1425410714.052,7.1537
1425410714.068,15.4878235
1425410714.084,27.944181
1425410714.099,44.023724
1425410714.115,63.44978
1425410714.13,86.276184
1425410714.146,111.26279
1425410714.162,135.55408
1425410714.177,153.69833
1425410714.193,159.71379
1425410714.209,149.91888
1425410714.224,125.2094
1425410714.24,91.36647
1425410714.256,56.80124
1425410714.271,29.086575
1425410714.287,11.3559675
1425410714.302,2.423937
1425410714.318,-2.454825
1425410714.334,-8.219747
1425410714.349,-17.839472
1425410714.365,-31.790108
1425410714.381,-49.19998
1425410714.396,-69.2398
1425410714.412,-91.56089
1425410714.427,-115.4042
1425410714.443,-137.31483
1425410714.459,-152.60345
1425410714.474,-155.94783
1425410714.49,-144.29689
1425410714.506,-118.786385
1425410714.521,-85.27763
1425410714.537,-51.88227
1425410714.552,-25.553387
1425410714.568,-9.183837
1425410714.584,-1.1468256
1425410714.599,3.0100694
1425410714.615,7.88624
1425410714.631,16.269266
1425410714.646,28.781622
1425410714.662,44.93888
1425410714.677,64.48536
1425410714.693,87.46137
1425410714.709,112.59713
1425410714.724,136.98077
1425410714.74,155.16782
1425410714.756,161.12761
1425410714.771,151.15283
1425410714.787,126.09155
1425410714.802,91.7025
1425410714.818,56.42299
1425410714.834,27.852045
1425410714.849,9.236637
1425410714.865,-0.77380145
1425410714.881,-6.6746016
1425410714.896,-13.323709
1425410714.912,-23.622223
1425410714.927,-38.001427
1425410714.943,-55.54769
1425410714.959,-75.427025
1425410714.974,-97.31361
1425410714.99,-119.99979
1425410715.006,-140.83752
1425410715.021,-155.06009
1425410715.037,-157.40536
1425410715.052,-144.90099
1425410715.068,-118.74235
1425410715.084,-84.81622
1425410715.099,-51.221798
1425410715.115,-24.863855
1425410715.131,-8.638254
1425410715.146,-0.79518044
1425410715.162,3.1237319
1425410715.177,7.727245
1425410715.193,15.823118
1425410715.209,28.052145
1425410715.224,43.97397
1425410715.24,63.32618
1425410715.256,86.14447
1425410715.271,111.187836
1425410715.287,135.56021
1425410715.302,153.82712
1425410715.318,159.98048
1425410715.334,150.33104
1425410715.349,125.7801
1425410715.365,92.091446
1425410715.381,57.68667
1425410715.396,30.137447
1425410715.412,12.577322
1425410715.427,3.7909086
1425410715.443,-0.93921685
1425410715.459,-6.567415
1425410715.474,-16.06457
1425410715.49,-29.924604
1425410715.506,-47.290756
1425410715.521,-67.34294
1425410715.537,-89.742065
1425410715.552,-113.7243
1425410715.568,-135.84766
1425410715.584,-151.4241
1425410715.599,-155.11621
1425410715.615,-143.86441
1425410715.631,-118.790306
1425410715.646,-85.75153
1425410715.662,-52.8548
1425410715.677,-27.040579
1425410715.693,-11.1920805
1425410715.709,-3.640275
1425410715.724,0.01845944
1425410715.74,4.4143877
1425410715.756,12.370348
1425410715.771,24.533756
1425410715.787,40.440617
1425410715.802,59.86036
1425410715.818,82.841385
1425410715.834,108.10408
1425410715.849,132.77106
1425410715.865,151.32016
1425410715.881,157.74313
1425410715.896,148.36919
1425410715.912,124.10626
1425410715.927,90.76011
1425410715.943,56.79427
1425410715.959,29.80099
1425410715.974,12.890272
1425410715.99,4.7886467
1425410716.006,0.6781651
1425410716.021,-4.4546747
1425410716.037,-13.621504
1425410716.052,-27.297697
1425410716.068,-44.6229
1425410716.084,-64.65208
1425410716.099,-86.97624
1425410716.115,-110.82324
1425410716.131,-132.85918
1425410716.146,-148.35953
1425410716.162,-151.98216
1425410716.177,-140.56494
1425410716.193,-115.02515
1425410716.209,-81.07306
1425410716.224,-46.565556
1425410716.24,-18.403973
1425410716.256,0.23638976
1425410716.271,10.805586
1425410716.287,17.250397
1425410716.302,23.858404
1425410716.318,33.383915
1425410716.334,46.615334
1425410716.349,63.150314
1425410716.365,82.9834
1425410716.381,106.1643
1425410716.396,131.59322
1425410716.412,155.08589
1425410716.427,170.97125
1425410716.443,173.11018
1425410716.459,158.17079
1425410716.474,128.54184
1425410716.49,90.23797
1425410716.506,52.543667
1425410716.521,23.799122
1425410716.537,7.7743416
1425410716.552,2.8745766
1425410716.568,3.8847141
1425410716.584,4.8686104
1425410716.599,2.1320572
1425410716.615,-5.0308113
1425410716.631,-15.535946
1425410716.646,-27.799988
1425410716.662,-40.529613
1425410716.677,-52.545525
1425410716.693,-61.423576
1425410716.709,-63.720173
1425410716.724,-56.480766
1425410716.74,-39.52211
1425410716.756,-16.410671
1425410716.771,6.332775
1425410716.787,22.489357
1425410716.802,29.088345
1425410716.818,27.162144
1425410716.834,20.97657
1425410716.849,15.252541
1425410716.865,12.616783
1425410716.881,12.396629
1425410716.896,11.595978
1425410716.912,6.905449
1425410716.928,-3.216278
1425410716.943,-18.037766
1425410716.959,-35.89643
1425410716.974,-53.76796
1425410716.99,-70.24201
1425410717.006,-84.37767
1425410717.021,-95.487755
1425410717.037,-103.1706
1425410717.052,-107.324524
1425410717.068,-109.80173
1425410717.084,-109.8587
1425410717.099,-107.68441
1425410717.115,-103.97113
1425410717.131,-98.86817
1425410717.146,-92.31633
1425410717.162,-84.333626
1425410717.178,-75.33379
1425410717.193,-66.063705
1425410717.209,-57.412468
1425410717.224,-50.17312
1425410717.24,-45.708183
1425410717.256,-45.89872
1425410717.271,-51.63852
1425410717.287,-62.252308
1425410717.303,-74.92347
1425410717.318,-84.75942
1425410717.334,-86.022964
1425410717.349,-74.62236
1425410717.365,-50.166874
1425410717.381,-14.883575
1425410717.396,20.876842
1425410717.412,47.320297
1425410717.428,59.24939
1425410717.443,57.202225
1425410717.459,45.835445
1425410717.474,31.023928
1425410717.49,16.742817
1425410717.506,4.328292
1425410717.521,-6.875001
1425410717.537,-17.960693
1425410717.553,-28.360292
1425410717.568,-36.489037
1425410717.584,-40.92252
1425410717.599,-41.37413
1425410717.615,-38.578728
1425410717.631,-33.6611
1425410717.646,-27.705387
1425410717.662,-21.026104
1425410717.678,-13.412121
1425410717.693,-3.721035
1425410717.709,9.0159
1425410717.724,24.90715
1425410717.74,41.628555
1425410717.756,57.90764
1425410717.771,72.41123
1425410717.787,84.22241
1425410717.803,93.05596
1425410717.818,98.96926
1425410717.834,102.52857
1425410717.849,104.23937
1425410717.865,104.331696
1425410717.881,102.86872
1425410717.896,100.378815
1425410717.912,97.517456
1425410717.928,95.1095
1425410717.943,93.93019
1425410717.959,94.17033
1425410717.974,95.46143
1425410717.99,96.97277
1425410718.006,97.86444
1425410718.021,97.49719
1425410718.037,96.21131
1425410718.053,94.807686
1425410718.068,94.22548
1425410718.084,95.35833
1425410718.099,98.89167
1425410718.115,105.24988
1425410718.131,114.38237
1425410718.146,124.93672
1425410718.162,133.82126
1425410718.178,136.84778
1425410718.193,130.00822
1425410718.209,111.67647
1425410718.224,84.05411
1425410718.24,52.81897
1425410718.256,24.897205
1425410718.271,5.810375
1425410718.287,-2.6178627
1425410718.303,-2.4540405
1425410718.318,2.2478447
1425410718.334,7.6827507
1425410718.349,11.760647
1425410718.365,14.218359
1425410718.381,15.534109
1425410718.396,14.9072485
1425410718.412,10.76876
1425410718.428,1.3573709
1425410718.443,-14.068767
1425410718.459,-34.354633
1425410718.474,-56.77558
1425410718.49,-78.20477
1425410718.506,-96.03938
1425410718.521,-108.72685
1425410718.537,-117.31256
1425410718.553,-123.61197
1425410718.568,-129.36887
1425410718.584,-135.3707
1425410718.599,-141.08801
1425410718.615,-144.91786
1425410718.631,-145.43837
1425410718.646,-141.75183
1425410718.662,-134.29633
1425410718.678,-124.66282
1425410718.693,-114.799545
1425410718.709,-106.5811
1425410718.724,-101.54361
1425410718.74,-101.03477
1425410718.756,-104.599556
1425410718.771,-110.47326
1425410718.787,-114.80127
1425410718.803,-112.51341
1425410718.818,-99.111534
1425410718.834,-72.86566
1425410718.849,-36.488304
1425410718.865,3.2963562
1425410718.881,38.21202
1425410718.896,62.067947
1425410718.912,72.81861
1425410718.928,73.0741
1425410718.943,67.99595
1425410718.959,62.379135
1425410718.974,58.791275
1425410718.99,57.431343
1425410719.006,57.501755
1425410719.021,58.43396
1425410719.037,59.9681
1425410719.053,60.94204
1425410719.068,58.7352
1425410719.084,49.64312
1425410719.099,30.950005
1425410719.115,3.0810318
1425410719.131,-29.996437
1425410719.146,-61.869507
1425410719.162,-86.826965
1425410719.178,-101.71582
1425410719.193,-107.00047
1425410719.209,-105.30057
1425410719.224,-99.146355
1425410719.24,-89.55042
1425410719.256,-76.2744
1425410719.271,-59.284576
1425410719.287,-40.052036
1425410719.303,-21.58326
1425410719.318,-7.0685883
1425410719.334,1.4090462
1425410719.349,3.6356468
1425410719.365,0.8603306
1425410719.381,-5.034649
1425410719.396,-11.9140625
1425410719.412,-17.42384
1425410719.428,-18.946585
1425410719.443,-14.112849
1425410719.459,-2.0090857
1425410719.474,15.708214
1425410719.49,35.0016
1425410719.506,50.95271
1425410719.521,59.99912
1425410719.537,61.498875
1425410719.553,57.75264
1425410719.568,52.52877
1425410719.584,48.959755
1425410719.599,48.199112
1425410719.615,49.420334
1425410719.631,50.912636
1425410719.646,51.52192
1425410719.662,50.999508
1425410719.678,49.783
1425410719.693,48.434032
1425410719.709,47.297066
1425410719.724,46.718708
1425410719.74,47.185966
1425410719.756,49.255394
1425410719.771,52.84531
1425410719.787,56.73531
1425410719.803,57.465412
1425410719.818,49.768593
1425410719.834,28.90726
1425410719.85,-6.5659637
1425410719.865,-53.094032
1425410719.881,-102.64773
1425410719.896,-145.18298
1425410719.912,-172.17844
1425410719.928,-178.4768
1425410719.943,-164.45941
1425410719.959,-135.59314
1425410719.975,-100.25769
1425410719.99,-67.027855
1425410720.006,-42.845024
1425410720.021,-32.09394
1425410720.037,-35.9721
1425410720.053,-52.29811
1425410720.068,-74.262
1425410720.084,-93.85933
1425410720.1,-104.851906
1425410720.115,-104.66309
1425410720.131,-94.08076
1425410720.146,-75.91127
1425410720.162,-54.828644
1425410720.178,-35.27275
1425410720.193,-20.020203
1425410720.209,-7.2786865
1425410720.225,6.171921
1425410720.24,22.855942
1425410720.256,43.652344
1425410720.271,68.73042
1425410720.287,98.39215
1425410720.303,133.28404
1425410720.318,174.17122
1425410720.334,206.98634
1425410720.35,222.26752
1425410720.365,219.50482
1425410720.381,205.71063
1425410720.396,188.10327
1425410720.412,170.24605
1425410720.428,152.7865
1425410720.443,135.47868
1425410720.459,118.45172
1425410720.475,102.342896
1425410720.49,90.21152
1425410720.506,84.17909
1425410720.521,83.89163
1425410720.537,86.63551
1425410720.553,89.24942
1425410720.568,89.543564
1425410720.584,86.770035
1425410720.6,81.58832
1425410720.615,75.296326
1425410720.631,71.0621
1425410720.646,71.286194
1425410720.662,76.7054
1425410720.678,86.419235
1425410720.693,99.06021
1425410720.709,112.48479
1425410720.725,123.2621
1425410720.74,126.83954
1425410720.756,118.78702
1425410720.771,98.25943
1425410720.787,68.22896
1425410720.803,34.773933
1425410720.818,4.825241
1425410720.834,-15.962898
1425410720.85,-25.96315
1425410720.865,-27.751411
1425410720.881,-26.166542
1425410720.896,-26.41071
1425410720.912,-30.577038
1425410720.928,-38.03662
1425410720.943,-46.934307
1425410720.959,-56.311607
1425410720.975,-65.95185
1425410720.99,-77.06018
1425410721.006,-90.92762
1425410721.021,-107.95297
1425410721.037,-127.242676
1425410721.053,-146.66948
1425410721.068,-163.79167
1425410721.084,-174.83594
1425410721.1,-180.39421
1425410721.115,-181.91637
1425410721.131,-181.85464
1425410721.146,-182.27863
1425410721.162,-184.0833
1425410721.178,-186.91441
1425410721.193,-189.56197
1425410721.209,-190.97775
1425410721.225,-190.43402
1425410721.24,-190.19345
1425410721.256,-188.36343
1425410721.271,-182.68747
1425410721.287,-169.84338
1425410721.303,-146.75562
1425410721.318,-112.458595
1425410721.334,-69.27375
1425410721.35,-22.66896
1425410721.365,21.188133
1425410721.381,56.428753
1425410721.396,80.48609
1425410721.412,93.68873
1425410721.428,98.45951
1425410721.443,98.07281
1425410721.459,95.185814
1425410721.475,91.58284
1425410721.49,88.66602
1425410721.506,88.833496
1425410721.521,93.874344
1425410721.537,105.196785
1425410721.553,122.01487
1425410721.568,140.8781
1425410721.584,156.28856
1425410721.6,162.05328
1425410721.615,154.051
1425410721.631,128.2707
1425410721.646,91.71001
1425410721.662,55.38411
1425410721.678,29.478325
1425410721.693,18.927187
1425410721.709,22.27302
1425410721.725,33.779945
1425410721.74,46.569065
1425410721.756,56.080025
1425410721.771,60.99589
1425410721.787,63.096813
1425410721.803,63.7463
1425410721.818,63.054295
1425410721.834,60.585644
1425410721.85,54.57338
1425410721.865,44.366943
1425410721.881,30.376963
1425410721.896,14.296913
1425410721.912,-1.8701992
1425410721.928,-16.097548
1425410721.943,-28.001326
1425410721.959,-38.47397
1425410721.975,-49.183437
1425410721.99,-61.529675
1425410722.006,-75.600494
1425410722.021,-90.01442
1425410722.037,-101.58491
1425410722.053,-106.91165
1425410722.068,-103.3186
1425410722.084,-90.28368
1425410722.1,-69.05354
1425410722.115,-41.32717
1425410722.131,-8.821465
1425410722.146,29.596046
1425410722.162,72.048004
1425410722.178,114.81076
1425410722.193,152.48615
1425410722.209,179.4743
1425410722.225,191.7218
1425410722.24,188.73709
1425410722.256,174.02538
1425410722.271,153.30971
1425410722.287,132.06007
1425410722.303,113.05769
1425410722.318,96.73343
1425410722.334,82.0181
1425410722.35,68.16554
1425410722.365,55.44525
1425410722.381,44.67166
1425410722.396,36.299683
1425410722.412,29.366135
1425410722.428,22.04332
1425410722.443,12.849503
1425410722.459,2.5692139
1425410722.475,-6.0979767
1425410722.49,-10.235031
1425410722.506,-9.094772
1425410722.522,-4.8150787
1425410722.537,-0.7841644
1425410722.553,0.9470825
1425410722.568,1.2472229
1425410722.584,2.7563782
1425410722.6,7.35968
1425410722.615,13.599152
1425410722.631,16.12674
1425410722.647,8.521118
1425410722.662,-12.553589
1425410722.678,-44.574005
1425410722.693,-79.99213
1425410722.709,-109.92334
1425410722.725,-128.48746
1425410722.74,-134.95886
1425410722.756,-132.95456
1425410722.772,-127.40402
1425410722.787,-122.081085
1425410722.803,-118.339386
1425410722.818,-115.03824
1425410722.834,-109.53433
1425410722.85,-98.75403
1425410722.865,-80.336
1425410722.881,-53.81134
1425410722.897,-21.795502
1425410722.912,10.108093
1425410722.928,34.83847
1425410722.943,46.829193
1425410722.959,44.67343
1425410722.975,31.86728
1425410722.99,14.975922
1425410723.006,0.14935303
1425410723.022,-10.32254
1425410723.037,-19.319183
1425410723.053,-32.960815
1425410723.068,-56.65384
1425410723.084,-91.29935
1425410723.1,-131.43817
1425410723.115,-166.51212
1425410723.131,-184.91522
1425410723.147,-178.31726
1425410723.162,-144.67352
1425410723.178,-89.2984
1425410723.193,-23.10205
1425410723.209,40.644928
1425410723.225,90.17215
1425410723.24,117.97482
1425410723.256,121.941864
1425410723.272,105.301056
1425410723.287,75.20929
1425410723.303,40.8114
1425410723.318,10.95929
1425410723.334,-7.855774
1425410723.35,-13.273621
1425410723.365,-7.086548
1425410723.381,6.552185
1425410723.397,23.129028
1425410723.412,39.952087
1425410723.428,56.34784
1425410723.443,72.969055
1425410723.459,90.35571
1425410723.475,107.901245
1425410723.49,123.49234
1425410723.506,134.42868
1425410723.522,138.83557
1425410723.537,136.74106
1425410723.553,130.01184
1425410723.568,120.99133
1425410723.584,110.76526
1425410723.6,97.97827
1425410723.615,79.5177
1425410723.631,52.31952
1425410723.647,16.04773
1425410723.662,-25.118652
1425410723.678,-63.77002
1425410723.693,-92.02716
1425410723.709,-105.257935
1425410723.725,-104.40625
1425410723.74,-95.32672
1425410723.756,-85.78186
1425410723.772,-81.3761
1425410723.787,-83.226685
1425410723.803,-88.4718
1425410723.818,-93.51813
1425410723.834,-96.92987
1425410723.85,-100.51984
1425410723.865,-107.96405
1425410723.881,-121.85004
1425410723.897,-142.01575
1425410723.912,-165.09302
1425410723.928,-186.09375
1425410723.943,-200.44147
1425410723.959,-205.35974
1425410723.975,-199.95343
1425410723.99,-184.643
1425410724.006,-160.5979
1425410724.022,-129.0711
1425410724.037,-91.946655
1425410724.053,-51.438232
1425410724.068,-10.473877
1425410724.084,27.595337
1425410724.1,59.69507
1425410724.115,84.072266
1425410724.131,100.6413
1425410724.147,110.534485
1425410724.162,115.459656
1425410724.178,115.36713
1425410724.193,109.51904
1425410724.209,97.42975
1425410724.225,79.86548
1425410724.24,59.197998
1425410724.256,38.944824
1425410724.272,22.744324
1425410724.287,12.7907715
1425410724.303,9.072632
1425410724.318,6.9417114
1425410724.334,1.3877563
1425410724.35,-9.802429
1425410724.365,-24.927368
1425410724.381,-40.378418
1425410724.397,-53.532898
1425410724.412,-64.2973
1425410724.428,-74.696045
1425410724.443,-87.203186
1425410724.459,-106.80902
1425410724.475,-135.39844
1425410724.49,-170.39471
1425410724.506,-206.14111
1425410724.522,-237.52405
1425410724.537,-262.08673
1425410724.553,-278.78308
1425410724.568,-286.72675
1425410724.584,-285.3515
1425410724.6,-281.23645
1425410724.615,-283.401
1425410724.631,-299.63605
1425410724.647,-332.4784
1425410724.662,-378.19708
1425410724.678,-427.67108
1425410724.693,-468.85217
1425410724.709,-491.45593
1425410724.725,-461.7396
1425410724.74,-368.24176
1425410724.756,-228.76321
1425410724.772,-81.946686
1425410724.787,39.16452
1425410724.803,123.11185
1425410724.818,175.81049
1425410724.834,208.36328
1425410724.85,228.64407
1425410724.865,239.89459
1425410724.881,238.16534
1425410724.897,221.28235
1425410724.912,192.5615
1425410724.928,160.8281
1425410724.943,134.81093
1425410724.959,118.41322
1425410724.975,111.9592
1425410724.99,112.65958
1425410725.006,116.99724
1425410725.022,118.655235
1425410725.037,113.83062
1425410725.053,103.08951
1425410725.068,91.30603
1425410725.084,83.45068
1425410725.1,81.935005
1425410725.115,86.606415
1425410725.131,95.856895
1425410725.147,108.25562
1425410725.162,121.098236
1425410725.178,133.88528
1425410725.194,144.5553
1425410725.209,154.98236
1425410725.225,167.51428
1425410725.24,183.20576
1425410725.256,201.92839
1425410725.272,222.74965
1425410725.287,244.82191
1425410725.303,266.76758
1425410725.319,288.34076
1425410725.334,310.78644
1425410725.35,336.60736
1425410725.365,366.5623
1425410725.381,398.0777
1425410725.397,425.51898
1425410725.412,441.59467
1425410725.428,440.06708
1425410725.444,417.50006
1425410725.459,374.69543
1425410725.475,316.00317
1425410725.49,247.83057
1425410725.506,176.05786
1425410725.522,105.43724
1425410725.537,40.86238
1425410725.553,-12.284744
1425410725.569,-49.126434
1425410725.584,-67.52861
1425410725.6,-70.17595
1425410725.615,-64.75975
1425410725.631,-61.516327
1425410725.647,-69.90202
1425410725.662,-95.2914
1425410725.678,-136.90659
1425410725.694,-189.5708
1425410725.709,-246.51326
1425410725.725,-301.72723
1425410725.74,-350.14694
1425410725.756,-386.54654
1425410725.772,-405.3857
1425410725.787,-402.34134
1425410725.803,-376.33057
1425410725.819,-329.46155
1425410725.834,-267.39224
1425410725.85,-198.37521
1425410725.865,-131.63805
1425410725.881,-74.75855
1425410725.897,-31.743576
1425410725.912,-3.243351
1425410725.928,12.369499
1425410725.944,18.027527
1425410725.959,19.181313
1425410725.975,22.284653
1425410725.99,32.98294
1425410726.006,54.56422
1425410726.022,88.2962
1425410726.037,134.29166
1425410726.053,191.12692
1425410726.069,254.71097
1425410726.084,307.1759
1425410726.1,328.69083
1425410726.115,309.84448
1425410726.131,259.5265
1425410726.147,197.11775
1425410726.162,139.8582
1425410726.178,96.64803
1425410726.194,68.05291
1425410726.209,49.59203
1425410726.225,35.79792
1425410726.24,25.969486
1425410726.256,21.181377
1425410726.272,22.43243
1425410726.287,27.508324
1425410726.303,31.05634
1425410726.319,27.003838
1425410726.334,11.504078
1425410726.35,-15.192463
1425410726.365,-48.51864
1425410726.381,-79.552734
1425410726.397,-95.76088
1425410726.412,-87.319496
1425410726.428,-51.13154
1425410726.444,8.0334015
1425410726.459,79.01949
1425410726.475,147.3555
1425410726.49,199.21349
1425410726.506,225.1778
1425410726.522,223.52768
1425410726.537,199.64658
1425410726.553,162.81197
1425410726.569,122.19983
1425410726.584,84.333984
1425410726.6,52.477173
1425410726.615,27.058853
1425410726.631,7.102997
1425410726.647,-8.733719
1425410726.662,-21.382874
1425410726.678,-32.05078
1425410726.694,-43.122574
1425410726.709,-57.951324
1425410726.725,-78.94931
1425410726.74,-105.84671
1425410726.756,-134.68893
1425410726.772,-158.95477
1425410726.787,-171.85812
1425410726.803,-168.6063
1425410726.819,-148.19843
1425410726.834,-113.92087
1425410726.85,-72.42758
1425410726.865,-31.782013
1425410726.881,0.46154785
1425410726.897,19.38794
1425410726.912,23.80719
1425410726.928,16.103973
1425410726.944,0.8761902
1425410726.959,-17.166534
1425410726.975,-35.390472
1425410726.99,-54.244232
1425410727.006,-76.22888
1425410727.022,-103.88904
1425410727.037,-137.08377
1425410727.053,-171.99545
1425410727.069,-202.66339
1425410727.084,-224.01953
1425410727.1,-233.98062
1425410727.115,-233.69357
1425410727.131,-225.60724
1425410727.147,-211.17859
1425410727.162,-190.90253
1425410727.178,-164.39117
1425410727.194,-132.04843
1425410727.209,-96.927704
1425410727.225,-64.93619
1425410727.24,-42.5459
1425410727.256,-33.243073
1425410727.272,-35.32779
1425410727.287,-42.00232
1425410727.303,-46.135773
1425410727.319,-41.721375
1425410727.334,-26.006592
1425410727.35,-0.34152222
1425410727.365,30.549805
1425410727.381,60.747772
1425410727.397,85.933044
1425410727.412,104.76083
1425410727.428,118.35443
1425410727.444,125.4581
1425410727.459,124.45563
1425410727.475,114.199524
1425410727.49,94.28952
1425410727.506,65.0553
1425410727.522,27.931519
1425410727.537,-14.408051
1425410727.553,-58.99823
1425410727.569,-104.059906
1425410727.584,-153.54022
1425410727.6,-211.05008
1425410727.615,-275.95377
1425410727.631,-341.754
1425410727.647,-398.48712
1425410727.662,-436.44202
1425410727.678,-449.718
1425410727.694,-438.6831
1425410727.709,-387.444
1425410727.725,-297.80405
1425410727.74,-188.96889
1425410727.756,-87.61574
1425410727.772,-11.1719055
1425410727.787,38.079605
1425410727.803,66.70323
1425410727.819,82.14546
1425410727.834,88.80945
1425410727.85,88.80011
1425410727.866,80.23578
1425410727.881,63.576187
1425410727.897,42.796516
1425410727.912,24.122902
1425410727.928,11.851631
1425410727.944,5.9017677
1425410727.959,4.351774
1425410727.975,4.372446
1425410727.99,4.0559096
1425410728.006,0.46430683
1425410728.022,-6.5548706
1425410728.037,-14.436722
1425410728.053,-18.86335
1425410728.069,-17.498833
1425410728.084,-11.237595
1425410728.1,-3.0094452
1425410728.116,4.099922
1425410728.131,8.919128
1425410728.147,11.371811
1425410728.162,14.834763
1425410728.178,20.539978
1425410728.194,31.619568
1425410728.209,49.17891
1425410728.225,71.24176
1425410728.241,94.015945
1425410728.256,113.71968
1425410728.272,128.53409
1425410728.287,138.39685
1425410728.303,145.7562
1425410728.319,154.31854
1425410728.334,168.33505
1425410728.35,190.22665
1425410728.366,219.82562
1425410728.381,254.22964
1425410728.397,287.80457
1425410728.412,313.20474
1425410728.428,322.91388
1425410728.444,312.4563
1425410728.459,283.06076
1425410728.475,242.59814
1425410728.491,202.2457
1425410728.506,171.85236
1425410728.522,155.57593
1425410728.537,150.20993
1425410728.553,147.36981
1425410728.569,138.20438
1425410728.584,117.74097
1425410728.6,86.601746
1425410728.616,49.893097
1425410728.631,13.80426
1425410728.647,-16.782623
1425410728.662,-39.136444
1425410728.678,-52.722504
1425410728.694,-58.85495
1425410728.709,-60.845245
1425410728.725,-63.51468
1425410728.741,-71.160736
1425410728.756,-84.67746
1425410728.772,-99.96542
1425410728.787,-109.17911
1425410728.803,-104.80658
1425410728.819,-84.82623
1425410728.834,-54.922638
1425410728.85,-26.086426
1425410728.866,-8.681946
1425410728.881,-6.513275
1425410728.897,-14.998505
1425410728.912,-24.525024
1425410728.928,-26.771667
1425410728.944,-19.294708
1425410728.959,-5.698822
1425410728.975,8.258636
1425410728.991,19.250519
1425410729.006,28.48758
1425410729.022,40.25766
1425410729.037,58.135254
1425410729.053,81.71173
1425410729.069,106.1734
1425410729.084,124.65762
1425410729.1,131.69504
1425410729.116,125.94125
1425410729.131,110.504425
1425410729.147,91.24432
1425410729.162,73.86246
1425410729.178,61.30896
1425410729.194,52.949127
1425410729.209,45.740784
1425410729.225,36.501892
1425410729.241,23.934113
1425410729.256,8.911255
1425410729.272,-6.921234
1425410729.287,-22.804749
1425410729.303,-39.477142
1425410729.319,-57.924866
1425410729.334,-77.30859
1425410729.35,-93.55768
1425410729.366,-100.98807
1425410729.381,-95.54489
1425410729.397,-78.083466
1425410729.412,-55.13376
1425410729.428,-36.64438
1425410729.444,-31.446991
1425410729.459,-43.012085
1425410729.475,-67.51196
1425410729.491,-95.15115
1425410729.506,-114.85367
1425410729.522,-119.02612
1425410729.537,-106.36728
1425410729.553,-81.707306
1425410729.569,-53.13208
1425410729.584,-28.203888
1425410729.6,-11.562439
1425410729.616,-3.9017334
1425410729.631,-2.5880127
1425410729.647,-4.191803
1425410729.662,-6.2704773
1425410729.678,-7.654022
1425410729.694,-8.399078
1425410729.709,-9.413818
1425410729.725,-12.588501
1425410729.741,-20.560425
1425410729.756,-36.04956
1425410729.772,-59.365448
1425410729.787,-89.59888
1425410729.803,-125.13962
1425410729.819,-163.5185
1425410729.834,-201.16089
1425410729.85,-233.41232
1425410729.866,-255.08807
1425410729.881,-261.3028
1425410729.897,-248.95172
1425410729.912,-215.17966
1425410729.928,-162.47925
1425410729.944,-99.15585
1425410729.959,-36.299255
1425410729.975,16.636719
1425410729.991,54.439423
1425410730.006,76.26187
1425410730.022,84.93713
1425410730.037,86.02939
1425410730.053,91.12628
1425410730.069,109.08734
1425410730.084,141.93033
1425410730.1,184.8591
1425410730.116,230.33301
1425410730.131,271.58826
1425410730.147,304.7214
1425410730.162,330.05
1425410730.178,351.94574
1425410730.194,382.55893
1425410730.209,429.21307
1425410730.225,489.02225
1425410730.241,550.1775
1425410730.256,598.79987
1425410730.272,624.73706
1425410730.287,624.14343
1425410730.303,600.27997
1425410730.319,523.67004
1425410730.334,393.46707
1425410730.35,238.59302
1425410730.366,98.448
1425410730.381,-5.130432
1425410730.397,-72.27934
1425410730.412,-112.84616
1425410730.428,-136.03522
1425410730.444,-146.95528
1425410730.459,-148.2633
1425410730.475,-136.65863
1425410730.491,-113.047195
1425410730.506,-84.25415
1425410730.522,-59.81926
1425410730.537,-45.61492
1425410730.553,-40.838966
1425410730.569,-42.73001
1425410730.584,-47.569786
1425410730.6,-52.674103
1425410730.616,-52.445786
1425410730.631,-45.26387
1425410730.647,-34.30344
1425410730.662,-25.547733
1425410730.678,-22.722893
1425410730.694,-25.792831
1425410730.709,-32.563087
1425410730.725,-40.305603
1425410730.741,-47.39998
1425410730.756,-51.05474
1425410730.772,-51.87381
1425410730.788,-50.022583
1425410730.803,-49.110733
1425410730.819,-51.934616
1425410730.834,-59.122604
1425410730.85,-69.78978
1425410730.866,-82.24515
1425410730.881,-94.96106
1425410730.897,-105.607574
1425410730.913,-113.33194
1425410730.928,-119.0531
1425410730.944,-125.33679
1425410730.959,-134.13104
1425410730.975,-146.06662
1425410730.991,-160.94077
1425410731.006,-178.26569
1425410731.022,-197.61157
1425410731.038,-217.86865
1425410731.053,-237.27792
1425410731.069,-252.96802
1425410731.084,-261.66882
1425410731.1,-260.09024
1425410731.116,-246.66629
1425410731.131,-222.82468
1425410731.147,-192.72134
1425410731.163,-161.64252
1425410731.178,-133.71765
1425410731.194,-110.64813
1425410731.209,-91.89484
1425410731.225,-76.42868
1425410731.241,-63.91449
1425410731.256,-55.375885
1425410731.272,-52.073242
1425410731.288,-53.815125
1425410731.303,-57.987213
1425410731.319,-60.19507
1425410731.334,-56.49951
1425410731.35,-45.51004
1425410731.366,-29.007782
1425410731.381,-10.560669
1425410731.397,6.617981
1425410731.413,21.006042
1425410731.428,32.813904
1425410731.444,42.756348
1425410731.459,50.98065
1425410731.475,57.101196
1425410731.491,61.10315
1425410731.506,63.699524
1425410731.522,66.09619
1425410731.538,69.11243
1425410731.553,72.22992
1425410731.569,73.88043
1425410731.584,72.49957
1425410731.6,67.52045
1425410731.616,59.560913
1425410731.631,49.595276
1425410731.647,38.10559
1425410731.663,24.881195
1425410731.678,9.95517
1425410731.694,-5.4549866
1425410731.709,-18.917175
1425410731.725,-27.963501
1425410731.741,-31.763428
1425410731.756,-32.275513
1425410731.772,-33.115906
1425410731.788,-37.019897
1425410731.803,-43.904724
1425410731.819,-50.664917
1425410731.834,-53.15216
1425410731.85,-49.231384
1425410731.866,-40.235596
1425410731.881,-30.077026
1425410731.897,-22.866943
1425410731.913,-20.506104
1425410731.928,-21.569763
1425410731.944,-22.477966
1425410731.959,-19.725464
1425410731.975,-11.823853
1425410731.991,-0.014007568
1425410732.006,12.425354
1425410732.022,21.960968
1425410732.038,26.401398
1425410732.053,25.65152
1425410732.069,21.634338
1425410732.084,17.280518
1425410732.1,15.200989
1425410732.116,16.720154
1425410732.131,21.384735
1425410732.147,27.410797
1425410732.163,32.909515
1425410732.178,36.80191
1425410732.194,38.707825
1425410732.209,38.12439
1425410732.225,33.69275
1425410732.241,23.745789
1425410732.256,7.7191467
1425410732.272,-12.724304
1425410732.288,-33.7146
1425410732.303,-50.819244
1425410732.319,-61.392334
1425410732.334,-65.442566
1425410732.35,-64.59708
1425410732.366,-60.403717
1425410732.381,-52.84375
1425410732.397,-40.85562
1425410732.413,-24.415009
1425410732.428,-5.8545837
1425410732.444,10.478638
1425410732.459,20.655151
1425410732.475,23.74228
1425410732.491,22.332642
1425410732.506,20.307892
1425410732.522,19.92035
1425410732.538,20.072418
1425410732.553,17.112518
1425410732.569,8.131378
1425410732.584,-6.4724426
1425410732.6,-22.727325
1425410732.616,-35.166656
1425410732.631,-39.89261
1425410732.647,-36.747406
1425410732.663,-29.027283
1425410732.678,-20.973785
1425410732.694,-15.169647
1425410732.709,-11.190094
1425410732.725,-6.812958
1425410732.741,-0.57611084
1425410732.756,6.4400635
1425410732.772,10.986664
1425410732.788,10.098602
1425410732.803,3.926056
1425410732.819,-3.5700073
1425410732.834,-7.0626526
1425410732.85,-3.463684
1425410732.866,5.3852234
1425410732.881,13.252991
1425410732.897,13.180145
1425410732.913,1.627533
1425410732.928,-19.275238
1425410732.944,-43.01648
1425410732.959,-62.36841
1425410732.975,-73.047485
1425410732.991,-75.053314
1425410733.006,-71.44171
1425410733.022,-65.374115
1425410733.038,-57.96701
1425410733.053,-48.652588
1425410733.069,-36.75537
1425410733.084,-23.292053
1425410733.1,-11.407043
1425410733.116,-4.9491577
1425410733.131,-6.399872
1425410733.147,-15.841949
1425410733.163,-31.122162
1425410733.178,-48.885773
1425410733.194,-65.989624
1425410733.209,-79.992004
1425410733.225,-89.34314
1425410733.241,-93.33185
1425410733.256,-91.98035
1425410733.272,-86.03958
1425410733.288,-76.90701
1425410733.303,-66.54666
1425410733.319,-56.83139
1425410733.334,-48.94928
1425410733.35,-42.7063
1425410733.366,-36.47882
1425410733.381,-27.885345
1425410733.397,-15.298645
1425410733.413,0.50787354
1425410733.428,15.803314
1425410733.444,24.698486
1425410733.46,21.602142
1425410733.475,4.025009
1425410733.491,-25.470581
1425410733.506,-59.645905
1425410733.522,-89.423615
1425410733.538,-107.398605
1425410733.553,-110.518936
1425410733.569,-100.01297
1425410733.585,-79.53621
1425410733.6,-53.194107
1425410733.616,-24.404907
1425410733.631,4.175148
1425410733.647,29.721954
1425410733.663,49.311752
1425410733.678,61.15708
1425410733.694,65.4142
1425410733.71,64.9476
1425410733.725,64.58032
1425410733.741,68.92917
1425410733.756,80.38166
1425410733.772,98.27344
1425410733.788,119.31259
1425410733.803,139.02061
1425410733.819,153.6406
1425410733.835,161.05835
1425410733.85,161.27353
1425410733.866,156.0636
1425410733.881,148.38959
1425410733.897,141.35118
1425410733.913,136.87236
1425410733.928,134.91608
1425410733.944,133.49979
1425410733.96,129.9562
1425410733.975,122.56839
1425410733.991,111.605354
1425410734.006,99.140686
1425410734.022,87.44493
1425410734.038,77.26781
1425410734.053,67.08137
1425410734.069,54.52577
1425410734.085,38.89122
1425410734.1,22.757645
1425410734.116,11.262905
1425410734.131,9.183479
1425410734.147,17.49384
1425410734.163,31.96824
1425410734.178,45.356068
1425410734.194,51.16726
1425410734.21,47.29372
1425410734.225,37.120327
1425410734.241,27.402958
1425410734.256,24.426365
1425410734.272,30.928406
1425410734.288,45.11194
1425410734.303,61.714485
1425410734.319,74.19838
1425410734.335,76.93238
1425410734.35,67.114815
1425410734.366,45.694157
1425410734.381,17.573309
1425410734.397,-9.318312
1425410734.413,-26.853848
1425410734.428,-29.893347
1425410734.444,-18.5089
1425410734.46,1.9183521
1425410734.475,23.458344
1425410734.491,39.609592
1425410734.506,47.729008
1425410734.522,49.28538
1425410734.538,47.952324
1425410734.553,46.579178
1425410734.569,45.881317
1425410734.585,44.82095
1425410734.6,42.142574
1425410734.616,37.984726
1425410734.631,33.99046
1425410734.647,31.765835
1425410734.663,31.158882
1425410734.678,29.589806
1425410734.694,23.082336
1425410734.71,8.939835
1425410734.725,-12.11409
1425410734.741,-35.52675
1425410734.756,-54.56858
1425410734.772,-63.686783
1425410734.788,-61.34362
1425410734.803,-50.534058
1425410734.819,-37.44474
1425410734.835,-28.664093
1425410734.85,-28.180069
1425410734.866,-36.364304
1425410734.881,-50.67798
1425410734.897,-66.984146
1425410734.913,-81.19577
1425410734.928,-89.98686
1425410734.944,-90.53177
1425410734.96,-80.76555
1425410734.975,-60.1019
1425410734.991,-30.257828
1425410735.006,4.0602264
1425410735.022,36.134155
1425410735.038,59.825485
1425410735.053,72.204926
1425410735.069,75.11914
1425410735.085,74.492584
1425410735.1,76.91626
1425410735.116,85.92088
1425410735.131,99.947815
1425410735.147,112.84668
1425410735.163,117.40018
1425410735.178,109.085144
1425410735.194,88.079834
1425410735.21,58.947968
1425410735.225,28.26184
1425410735.241,2.0293274
1425410735.256,-15.473297
1425410735.272,-21.62436
1425410735.288,-15.276733
1425410735.303,3.4067078
1425410735.319,31.989838
1425410735.335,64.90338
1425410735.35,94.14334
1425410735.366,111.43005
1425410735.381,110.98535
1425410735.397,91.766846
1425410735.413,57.408417
1425410735.428,14.0190735
1425410735.444,-31.70346
1425410735.46,-73.96295
1425410735.475,-108.40256
1425410735.491,-132.06842
1425410735.506,-143.67664
1425410735.522,-144.26135
1425410735.538,-137.34775
1425410735.553,-128.56439
1425410735.569,-124.799866
1425410735.585,-130.72266
1425410735.6,-146.43616
1425410735.616,-167.21118
1425410735.631,-185.30316
1425410735.647,-193.13858
1425410735.663,-186.41281
1425410735.678,-165.55411
1425410735.694,-135.56757
1425410735.71,-105.50345
1425410735.725,-83.705536
1425410735.741,-74.386475
1425410735.756,-76.509094
1425410735.772,-85.24991
1425410735.788,-94.83896
1425410735.803,-100.57553
1425410735.819,-99.84018
1425410735.835,-92.506256
1425410735.85,-82.88324
1425410735.866,-76.0271
1425410735.881,-76.109344
1425410735.897,-85.01532
1425410735.913,-102.727234
1425410735.928,-127.54877
1425410735.944,-155.69229
1425410735.96,-181.784
1425410735.975,-200.64081
1425410735.991,-212.74573
1425410736.006,-221.73184
1425410736.022,-232.09537
1425410736.038,-246.04297
1425410736.053,-262.7287
1425410736.069,-278.80197
1425410736.085,-289.59433
1425410736.1,-291.36325
1425410736.116,-264.42322
1425410736.132,-202.18347
1425410736.147,-115.19406
1425410736.163,-26.959808
1425410736.178,42.3705
1425410736.194,86.22067
1425410736.21,109.31287
1425410736.225,119.97682
1425410736.241,124.08211
1425410736.257,123.647385
1425410736.272,115.43536
1425410736.288,97.126175
1425410736.303,70.402725
1425410736.319,41.497177
1425410736.335,17.08619
1425410736.35,0.37856293
1425410736.366,-7.7461605
1425410736.382,-9.473712
1425410736.397,-8.094483
1425410736.413,-8.857362
1425410736.428,-15.095421
1425410736.444,-26.739632
1425410736.46,-40.13051
1425410736.475,-51.182983
1425410736.491,-57.52043
1425410736.507,-58.87564
1425410736.522,-56.669357
1425410736.538,-52.602646
1425410736.553,-49.118103
1425410736.569,-46.65338
1425410736.585,-46.851242
1425410736.6,-47.881104
1425410736.616,-47.386047
1425410736.632,-43.92221
1425410736.647,-37.212982
1425410736.663,-27.991638
1425410736.678,-17.435028
1425410736.694,-7.5182495
1425410736.71,0.24786377
1425410736.725,5.5334167
1425410736.741,9.567078
1425410736.757,13.706299
1425410736.772,18.909912
1425410736.788,25.695465
1425410736.803,34.035767
1425410736.819,43.501038
1425410736.835,53.032776
1425410736.85,61.599915
1425410736.866,69.306274
1425410736.882,76.925964
1425410736.897,85.00922
1425410736.913,93.77649
1425410736.928,103.4787
1425410736.944,114.59656
1425410736.96,127.88672
1425410736.975,143.95038
1425410736.991,162.75165
1425410737.007,184.66327
1425410737.022,207.75836
1425410737.038,227.5816
1425410737.053,239.2428
1425410737.069,240.44781
1425410737.085,232.86548
1425410737.1,221.09222
1425410737.116,210.13953
1425410737.132,203.54077
1425410737.147,205.70203
1425410737.163,216.60516
1425410737.178,231.44061
1425410737.194,243.41553
1425410737.21,247.89777
1425410737.225,244.388
1425410737.241,235.54706
1425410737.257,225.03217
1425410737.272,216.87402
1425410737.288,220.06421
1425410737.303,239.04059
1425410737.319,271.2906
1425410737.335,309.33606
1425410737.35,346.22913
1425410737.366,378.61353
1425410737.382,405.8158
1425410737.397,427.7301
1425410737.413,445.41412
1425410737.428,467.97192
1425410737.444,501.15234
1425410737.46,543.9344
1425410737.475,589.66736
1425410737.491,631.053
1425410737.507,662.75934
1425410737.522,681.1249
1425410737.538,683.5729
1425410737.553,621.00745
1425410737.569,479.92957
1425410737.585,289.7971
1425410737.6,103.37198
1425410737.616,-41.627686
1425410737.632,-136.61838
1425410737.647,-191.3714
1425410737.663,-215.64963
1425410737.678,-225.11786
1425410737.694,-227.42535
1425410737.71,-218.21991
1425410737.725,-195.71286
1425410737.741,-165.3276
1425410737.757,-137.46722
1425410737.772,-120.82397
1425410737.788,-117.528595
1425410737.803,-125.025154
1425410737.819,-139.36957
1425410737.835,-155.72212
1425410737.85,-164.97531
1425410737.866,-163.04431
1425410737.882,-152.92772
1425410737.897,-142.06071
1425410737.913,-136.58003
1425410737.928,-138.29364
1425410737.944,-145.52866
1425410737.96,-155.71326
1425410737.975,-165.66937
1425410737.991,-169.94809
1425410738.007,-166.72107
1425410738.022,-158.80301
1425410738.038,-151.669
1425410738.053,-149.58084
1425410738.069,-153.5351
1425410738.085,-161.85193
1425410738.1,-172.10272
1425410738.116,-181.80145
1425410738.132,-188.0586
1425410738.147,-190.41473
1425410738.163,-190.92834
1425410738.178,-192.79034
1425410738.194,-198.2627
1425410738.21,-207.9372
1425410738.225,-221.66327
1425410738.241,-239.39893
1425410738.257,-260.4698
1425410738.272,-282.13477
1425410738.288,-299.9425
1425410738.303,-308.73926
1425410738.319,-304.5586
1425410738.335,-286.44678
1425410738.35,-257.19006
1425410738.366,-222.14783
1425410738.382,-186.71576
1425410738.397,-153.91168
1425410738.413,-123.97754
1425410738.428,-95.98456
1425410738.444,-70.42078
1425410738.46,-50.471863
1425410738.475,-40.97168
1425410738.491,-45.12848
1425410738.507,-61.561707
1425410738.522,-83.725525
1425410738.538,-102.78943
1425410738.553,-112.14197
1425410738.569,-110.9256
1425410738.585,-103.65509
1425410738.6,-96.78601
1425410738.616,-94.61328
1425410738.632,-96.84332
1425410738.647,-99.32605
1425410738.663,-97.23389
1425410738.678,-88.197266
1425410738.694,-73.3609
1425410738.71,-56.12622
1425410738.725,-39.916748
1425410738.741,-26.585327
1425410738.757,-16.785583
1425410738.772,-11.110291
1425410738.788,-10.44104
1425410738.804,-15.180969
1425410738.819,-23.553833
1425410738.835,-30.751953
1425410738.85,-30.73169
1425410738.866,-19.264038
1425410738.882,3.3719482
1425410738.897,31.773254
1425410738.913,57.642334
1425410738.928,73.40283
1425410738.944,75.12665
1425410738.96,63.733276
1425410738.975,44.239685
1425410738.991,23.780762
1425410739.007,9.132996
1425410739.022,4.7684937
1425410739.038,11.364929
1425410739.054,25.477356
1425410739.069,40.6994
1425410739.085,50.222534
1425410739.1,49.682556
1425410739.116,39.03064
1425410739.132,22.303406
1425410739.147,5.5499268
1425410739.163,-5.8825073
1425410739.179,-9.096436
1425410739.194,-3.5786133
1425410739.21,9.875732
1425410739.225,29.748596
1425410739.241,53.68518
1425410739.257,77.50128
1425410739.272,94.766174
1425410739.288,98.707886
1425410739.304,85.26996
1425410739.319,55.4989
1425410739.335,16.06366
1425410739.35,-23.299622
1425410739.366,-53.80432
1425410739.382,-70.97876
1425410739.397,-75.6933
1425410739.413,-72.830444
1425410739.429,-68.308716
1425410739.444,-66.38751
1425410739.46,-68.302185
1425410739.475,-72.24567
1425410739.491,-74.75757
1425410739.507,-72.675415
1425410739.522,-64.642456
1425410739.538,-51.49524
1425410739.554,-35.84674
1425410739.569,-20.385986
1425410739.585,-6.34375
1425410739.6,7.004944
1425410739.616,21.582336
1425410739.632,38.497864
1425410739.647,56.29663
1425410739.663,70.87573
1425410739.679,77.61737
1425410739.694,74.012024
1425410739.71,61.68744
1425410739.725,45.65747
1425410739.741,31.796204
1425410739.757,23.97638
1425410739.772,22.265076
1425410739.788,23.583374
1425410739.804,23.883057
1425410739.819,19.97644
1425410739.835,10.618835
1425410739.85,-3.7001953
1425410739.866,-21.42157
1425410739.882,-40.410095
1425410739.897,-58.11389
1425410739.913,-71.867004
1425410739.929,-79.17163
1425410739.944,-78.49707
1425410739.96,-69.97363
1425410739.975,-55.56952
1425410739.991,-38.860657
1425410740.007,-24.293701
1425410740.022,-15.950256
1425410740.038,-16.396362
1425410740.054,-25.74414
1425410740.069,-41.11023
1425410740.085,-57.316895
1425410740.1,-68.93707
1425410740.116,-72.43518
1425410740.132,-67.60809
1425410740.147,-57.368713
1425410740.163,-46.0791
1425410740.179,-37.43109
1425410740.194,-33.61731
1425410740.21,-35.05652
1425410740.225,-40.91211
1425410740.241,-49.34326
1425410740.257,-57.319824
1425410740.272,-61.14453
1425410740.288,-57.856873
1425410740.304,-47.386047
1425410740.319,-33.61151
1425410740.335,-23.066223
1425410740.35,-21.563599
1425410740.366,-30.424683
1425410740.382,-45.00818
1425410740.397,-56.584106
1425410740.413,-57.13147
1425410740.429,-43.830383
1425410740.444,-21.130615
1425410740.46,1.5673218
1425410740.475,14.976013
1425410740.491,14.693909
1425410740.507,3.1140137
1425410740.522,-12.24646
1425410740.538,-22.856384
1425410740.554,-23.35321
1425410740.569,-13.50708
1425410740.585,2.4770508
1425410740.6,18.390564
1425410740.616,28.928345
1425410740.632,31.530762
1425410740.647,26.789001
1425410740.663,17.475525
1425410740.679,7.0629883
1425410740.694,-1.8703003
1425410740.71,-8.0998535
1425410740.725,-11.462952
1425410740.741,-12.276398
1425410740.757,-10.306915
1425410740.772,-4.839386
1425410740.788,4.5289
1425410740.804,16.850128
1425410740.819,29.322937
1425410740.835,37.67865
1425410740.85,38.00412
1425410740.866,28.943726
1425410740.882,12.436951
1425410740.897,-6.92395
1425410740.913,-24.163666
1425410740.929,-35.918396
1425410740.944,-41.20923
1425410740.96,-40.51465
1425410740.975,-34.452118
1425410740.991,-23.103241
1425410741.007,-6.378723
1425410741.022,14.990692
1425410741.038,39.06778
1425410741.054,63.210907
1425410741.069,85.17584
1425410741.085,104.08185
1425410741.1,120.574066
1425410741.116,135.76459
1425410741.132,150.08719
1425410741.147,162.64578
1425410741.163,171.29123
1425410741.179,173.48248
1425410741.194,166.9797
1425410741.21,150.74445
1425410741.225,125.39938
1425410741.241,93.223526
1425410741.257,57.727097
1425410741.272,22.698807
1425410741.288,-9.029221
1425410741.304,-35.88173
1425410741.319,-56.85785
1425410741.335,-70.55879
1425410741.35,-74.51648
1425410741.366,-66.0845
1425410741.382,-44.51326
1425410741.397,-12.472076
1425410741.413,24.128128
1425410741.429,58.49733
1425410741.444,85.96414
1425410741.46,105.67386
1425410741.476,119.548325
1425410741.491,129.8538
1425410741.507,136.98338
1425410741.522,139.68008
1425410741.538,137.4671
1425410741.554,132.75694
1425410741.569,130.48653
1425410741.585,134.86096
1425410741.6,145.77528
1425410741.616,157.30563
1425410741.632,160.76372
1425410741.647,149.82166
1425410741.663,124.708755
1425410741.679,92.643326
1425410741.694,63.70645
1425410741.71,45.40558
1425410741.726,38.86743
1425410741.741,39.692993
1425410741.757,41.70642
1425410741.772,41.392975
1425410741.788,39.53427
1425410741.804,39.80316
1425410741.819,45.304382
1425410741.835,55.927124
1425410741.851,68.21512
1425410741.866,77.09808
1425410741.882,78.41821
1425410741.897,70.48486
1425410741.913,54.230347
1425410741.929,32.170715
1425410741.944,7.210022
1425410741.96,-18.293335
1425410741.976,-43.144012
1425410741.991,-67.08884
1425410742.007,-90.43759
1425410742.022,-113.470764
1425410742.038,-135.74307
1425410742.054,-155.63104
1425410742.069,-170.67438
1425410742.085,-178.36282
1425410742.101,-177.05557
1425410742.116,-167.0935
1425410742.132,-150.91483
1425410742.147,-132.65851
1425410742.163,-116.92081
1425410742.179,-107.39633
1425410742.194,-105.809265
1425410742.21,-111.330536
1425410742.226,-121.116425
1425410742.241,-131.32281
1425410742.257,-138.43878
1425410742.272,-140.10892
1425410742.288,-135.28836
1425410742.304,-123.58301
1425410742.319,-105.03241
1425410742.335,-80.2865
1425410742.351,-51.358795
1425410742.366,-21.934631
1425410742.382,3.3778687
1425410742.397,20.696808
1425410742.413,28.368774
1425410742.429,27.20813
1425410742.444,19.44571
1425410742.46,6.9698486
1425410742.476,-9.534363
1425410742.491,-30.188843
1425410742.507,-54.482788
1425410742.522,-80.0535
1425410742.538,-102.67627
1425410742.554,-117.50653
1425410742.569,-121.00375
1425410742.585,-112.05191
1425410742.601,-92.27362
1425410742.616,-65.58746
1425410742.632,-37.33853
1425410742.647,-13.2682495
1425410742.663,2.051361
1425410742.679,7.0136414
1425410742.694,4.1162415
1425410742.71,-0.38885498
1425410742.726,0.8053894
1425410742.741,12.113556
1425410742.757,32.37628
1425410742.772,55.115295
1425410742.788,71.83844
1425410742.804,76.47885
1425410742.819,68.21243
1425410742.835,51.14456
1425410742.851,31.343445
1425410742.866,13.684906
1425410742.882,0.3948059
1425410742.897,-8.089478
1425410742.913,-11.496307
1425410742.929,-8.91806
1425410742.944,0.13415527
1425410742.96,14.068787
1425410742.976,28.911469
1425410742.991,40.147278
1425410743.007,45.447754
1425410743.022,46.33972
1425410743.038,47.57895
1425410743.054,54.08664
1425410743.069,67.628784
1425410743.085,85.76938
1425410743.101,103.66156
1425410743.116,117.112305
1425410743.132,125.114105
1425410743.147,130.1214
1425410743.163,135.80786
1425410743.179,144.45361
1425410743.194,154.88171
1425410743.21,162.68845
1425410743.226,162.08627
1425410743.241,148.51224
1425410743.257,120.87677
1425410743.272,82.43161
1425410743.288,39.709503
1425410743.304,-0.04135132
1425410743.319,-32.02188
1425410743.335,-55.86505
1425410743.351,-75.14813
1425410743.366,-94.789856
1425410743.382,-117.674835
1425410743.397,-142.81235
1425410743.413,-166.17767
1425410743.429,-183.4639
1425410743.444,-192.92972
1425410743.46,-196.23169
1425410743.476,-196.83087
1425410743.491,-197.06943
1425410743.507,-196.36874
1425410743.522,-191.81949
1425410743.538,-180.54861
1425410743.554,-161.99953
1425410743.569,-138.81322
1425410743.585,-115.656555
1425410743.601,-96.97354
1425410743.616,-85.57924
1425410743.632,-82.4068
1425410743.647,-86.6689
1425410743.663,-96.333755
1425410743.679,-108.267166
1425410743.694,-118.68207
1425410743.71,-124.19142
1425410743.726,-123.36273
1425410743.741,-117.29692
1425410743.757,-108.91853
1425410743.772,-101.41124
1425410743.788,-96.55846
1425410743.804,-93.87864
1425410743.819,-91.40677
1425410743.835,-86.729095
1425410743.851,-77.714935
1425410743.866,-62.9238
1425410743.882,-41.79013
1425410743.897,-15.604679
1425410743.913,11.678619
1425410743.929,33.695656
1425410743.944,43.87496
1425410743.96,38.82082
1425410743.976,21.17596
1425410743.991,-0.40826797
1425410744.007,-14.556484
1425410744.022,-12.006008
1425410744.038,10.317207
1425410744.054,48.3917
1425410744.069,93.241135
1425410744.085,134.62515
1425410744.101,164.59442
1425410744.116,179.58797
1425410744.132,180.54445
1425410744.147,171.73692
1425410744.163,158.94547
1425410744.179,147.42722
1425410744.194,140.377
1425410744.21,138.02786
1425410744.226,137.94048
1425410744.241,136.55724
1425410744.257,131.33688
1425410744.272,122.01178
1425410744.288,110.22916
1425410744.304,97.986786
1425410744.319,85.96286
1425410744.335,73.172424
1425410744.351,58.09079
1425410744.366,40.275635
1425410744.382,21.224152
1425410744.398,3.6552734
1425410744.413,-10.179443
1425410744.429,-20.055878
1425410744.444,-28.141632
1425410744.46,-37.711548
1425410744.476,-50.986572
1425410744.491,-67.328
1425410744.507,-82.88937
1425410744.523,-92.40344
1425410744.538,-91.61328
1425410744.554,-79.25348
1425410744.569,-57.264313
1425410744.585,-29.966492
1425410744.601,-2.504364
1425410744.616,20.740143
1425410744.632,36.746582
1425410744.648,44.336395
1425410744.663,44.28305
1425410744.679,39.40164
1425410744.694,34.037292
1425410744.71,32.709747
1425410744.726,38.39084
1425410744.741,51.009247
1425410744.757,67.2056
1425410744.773,81.93402
1425410744.788,91.502594
1425410744.804,95.75479
1425410744.819,98.21619
1425410744.835,103.81909
1425410744.851,115.43378
1425410744.866,131.4971
1425410744.882,146.52188
1425410744.898,154.15048
1425410744.913,151.09937
1425410744.929,139.15189
1425410744.944,123.88452
1425410744.96,111.12659
1425410744.976,103.51492
1425410744.991,99.60657
1425410745.007,96.21945
1425410745.023,91.54889
1425410745.038,86.75018
1425410745.054,84.77222
1425410745.069,87.53995
1425410745.085,93.51065
1425410745.101,97.89258
1425410745.116,95.45328
1425410745.132,83.59512
1425410745.148,64.21823
1425410745.163,42.77185
1425410745.179,25.411194
1425410745.194,15.799194
1425410745.21,13.579041
1425410745.226,15.225861
1425410745.241,16.423279
1425410745.257,14.43103
1425410745.273,9.018555
1425410745.288,2.1122742
1425410745.304,-3.677765
1425410745.319,-6.657501
1425410745.335,-6.6360474
1425410745.351,-4.8703613
1425410745.366,-3.4983215
1425410745.382,-4.564392
1425410745.398,-9.328247
1425410745.413,-17.842651
1425410745.429,-28.570007
1425410745.444,-38.46463
1425410745.46,-43.672638
1425410745.476,-40.54724
1425410745.491,-27.399475
1425410745.507,-5.524658
1425410745.523,21.242676
1425410745.538,47.97467
1425410745.554,70.523285
1425410745.569,86.91705
1425410745.585,97.11386
1425410745.601,102.048706
1425410745.616,103.005554
1425410745.632,101.08116
1425410745.648,97.418976
1425410745.663,93.16933
1425410745.679,88.96811
1425410745.694,84.19641
1425410745.71,77.249954
1425410745.726,66.57846
1425410745.741,52.1678
1425410745.757,35.92961
1425410745.773,20.57814
1425410745.788,8.109558
1425410745.804,-1.1563416
1425410745.819,-8.195618
1425410745.835,-13.949661
1425410745.851,-18.379807
1425410745.866,-21.023628
1425410745.882,-22.50776
1425410745.898,-25.250107
1425410745.913,-32.85886
1425410745.929,-47.786377
1425410745.944,-68.83415
1425410745.96,-90.573135
1425410745.976,-105.02004
1425410745.991,-105.35982
1425410746.007,-89.50794
1425410746.023,-61.344463
1425410746.038,-29.158659
1425410746.054,-2.1758041
1425410746.069,13.076717
1425410746.085,14.455814
1425410746.101,3.88665
1425410746.116,-13.981297
1425410746.132,-33.540703
1425410746.148,-49.41089
1425410746.163,-57.47785
1425410746.179,-55.910576
1425410746.194,-46.29538
1425410746.21,-33.551407
1425410746.226,-24.004837
1425410746.241,-22.211487
1425410746.257,-28.226974
1425410746.273,-37.449875
1425410746.288,-43.67769
1425410746.304,-43.47989
1425410746.319,-38.42302
1425410746.335,-33.885452
1425410746.351,-34.846405
1425410746.366,-41.924118
1425410746.382,-50.67772
1425410746.398,-54.460938
1425410746.413,-48.853104
1425410746.429,-34.164078
1425410746.444,-14.567657
1425410746.46,5.1152954
1425410746.476,22.08252
1425410746.491,35.86029
1425410746.507,46.64499
1425410746.523,53.71341
1425410746.538,55.426666
1425410746.554,50.810272
1425410746.569,41.217438
1425410746.585,30.174469
1425410746.601,21.844818
1425410746.616,19.176483
1425410746.632,23.073425
1425410746.648,32.96402
1425410746.663,47.677307
1425410746.679,66.10654
1425410746.694,86.891266
1425410746.71,107.76962
1425410746.726,125.84485
1425410746.741,138.46951
1425410746.757,144.39435
1425410746.773,144.46771
1425410746.788,140.94064
1425410746.804,135.81903
1425410746.819,129.66122
1425410746.835,121.210205
1425410746.851,108.22046
1425410746.866,88.79382
1425410746.882,62.66858
1425410746.898,31.251709
1425410746.913,-3.1819458
1425410746.929,-38.647583
1425410746.944,-74.53461
1425410746.96,-111.54144
1425410746.976,-150.53247
1425410746.991,-191.02625
1425410747.007,-230.3009
1425410747.023,-264.03876
1425410747.038,-288.56952
1425410747.054,-302.99756
1425410747.07,-309.42627
1425410747.085,-311.20795
1425410747.101,-310.09583
1425410747.116,-304.5506
1425410747.132,-290.633
1425410747.148,-264.8838
1425410747.163,-227.06287
1425410747.179,-180.76086
1425410747.195,-131.2901
1425410747.21,-82.811646
1425410747.226,-37.05493
1425410747.241,5.319031
1425410747.257,42.19287
1425410747.273,68.47705
1425410747.288,78.0719
1425410747.304,68.17413
1425410747.32,42.86725
1425410747.335,12.818054
1425410747.351,-9.490601
1425410747.366,-16.31604
1425410747.382,-8.209045
1425410747.398,7.3096924
1425410747.413,20.951965
1425410747.429,27.35382
1425410747.445,27.183899
1425410747.46,25.042786
1425410747.476,25.06897
1425410747.491,27.590088
1425410747.507,28.83258
1425410747.523,23.766663
1425410747.538,9.795227
1425410747.554,-11.265442
1425410747.57,-33.79016
1425410747.585,-51.388977
1425410747.601,-60.144836
1425410747.616,-60.188904
1425410747.632,-54.99243
1425410747.648,-49.18628
1425410747.663,-46.162537
1425410747.679,-46.89557
1425410747.695,-50.253418
1425410747.71,-53.8761
1425410747.726,-55.272522
1425410747.741,-52.481323
1425410747.757,-44.249268
1425410747.773,-30.542786
1425410747.788,-13.084778
1425410747.804,4.5439453
1425410747.82,17.574219
1425410747.835,22.007141
1425410747.851,16.86737
1425410747.866,5.1799927
1425410747.882,-7.293518
1425410747.898,-15.248352
1425410747.913,-17.019104
1425410747.929,-15.265808
1425410747.945,-14.727051
1425410747.96,-18.401428
1425410747.976,-25.104614
1425410747.991,-30.22461
1425410748.007,-29.003784
1425410748.023,-19.712402
1425410748.038,-4.774048
1425410748.054,10.84137
1425410748.07,22.515625
1425410748.085,27.952942
1425410748.101,27.105103
1425410748.116,21.061035
1425410748.132,10.903992
1425410748.148,-2.3953247
1425410748.163,-17.29602
1425410748.179,-31.263062
1425410748.195,-41.486633
1425410748.21,-46.158386
1425410748.226,-45.520996
1425410748.241,-41.792297
1425410748.257,-38.05371
1425410748.273,-36.71289
1425410748.288,-38.58435
1425410748.304,-42.861084
1425410748.32,-47.80139
1425410748.335,-51.5401
1425410748.351,-52.795837
1425410748.366,-51.22406
1425410748.382,-47.362366
1425410748.398,-42.117462
1425410748.413,-36.16568
1425410748.429,-29.454773
1425410748.445,-21.385193
1425410748.46,-11.606415
1425410748.476,-0.78411865
1425410748.491,9.0159
1425410748.507,15.24292
1425410748.523,16.380737
1425410748.538,13.206512
1425410748.554,8.763519
1425410748.57,6.8006287
1425410748.585,9.790802
1425410748.601,17.787628
1425410748.616,28.736145
1425410748.632,39.98639
1425410748.648,49.849396
1425410748.663,58.09796
1425410748.679,65.45462
1425410748.695,72.426575
1425410748.71,78.33679
1425410748.726,81.486084
1425410748.741,80.32037
1425410748.757,74.72797
1425410748.773,66.67053
1425410748.788,59.572845
1425410748.804,56.581055
1425410748.82,59.01654
1425410748.835,65.87448
1425410748.851,74.7424
1425410748.866,83.42178
1425410748.882,91.095245
1425410748.898,98.323
1425410748.913,105.89166
1425410748.929,113.28775
1425410748.945,118.09778
1425410748.96,116.79498
1425410748.976,106.70172
1425410748.991,88.04947
1425410749.007,64.866974
1425410749.023,43.635834
1425410749.038,30.208252
1425410749.054,27.034363
1425410749.07,32.168213
1425410749.085,40.812744
1425410749.101,48.278503
1425410749.116,52.233734
1425410749.132,53.03778
1425410749.148,52.272766
1425410749.163,50.68863
1425410749.179,47.59085
1425410749.195,41.79901
1425410749.21,33.16339
1425410749.226,23.358978
1425410749.241,14.964508
1425410749.257,9.742371
1425410749.273,7.4234314
1425410749.288,5.8937683
1425410749.304,2.5711365
1425410749.32,-3.958435
1425410749.335,-13.331055
1425410749.351,-23.773102
1425410749.366,-32.84738
1425410749.382,-38.31845
1425410749.398,-38.6398
1425410749.413,-33.257782
1425410749.429,-23.168274
1425410749.445,-11.01181
1425410749.46,-0.45111084
1425410749.476,5.0751343
1425410749.491,3.7073364
1425410749.507,-4.1022034
1425410749.523,-15.945251
1425410749.538,-28.778534
1425410749.554,-39.612915
1425410749.57,-45.70215
1425410749.585,-44.519043
1425410749.601,-34.16574
1425410749.616,-14.582001
1425410749.632,11.453217
1425410749.648,38.370056
1425410749.663,59.32852
1425410749.679,68.68497
1425410749.695,64.34445
1425410749.71,48.700195
1425410749.726,27.63205
1425410749.742,7.8562927
1425410749.757,-6.121826
1425410749.773,-14.002258
1425410749.788,-19.311493
1425410749.804,-26.907837
1425410749.82,-39.85504
1425410749.835,-57.440704
1425410749.851,-75.86435
1425410749.866,-90.9064
1425410749.882,-100.504486
1425410749.898,-105.92697
1425410749.913,-110.50479
1425410749.929,-117.01245
1425410749.945,-125.47357
1425410749.96,-132.89539
1425410749.976,-134.918
1425410749.992,-128.55801
1425410750.007,-114.0965
1425410750.023,-94.85181
1425410750.038,-75.8389
1425410750.054,-61.56662
1425410750.07,-54.404205
1425410750.085,-53.94055
1425410750.101,-57.391388
1425410750.117,-60.929504
1425410750.132,-61.124756
1425410750.148,-56.387115
1425410750.163,-47.337494
1425410750.179,-36.423492
1425410750.195,-26.449646
1425410750.21,-19.208832
1425410750.226,-14.88031
1425410750.242,-12.657227
1425410750.257,-11.950531
1425410750.273,-13.187683
1425410750.288,-17.325867
1425410750.304,-24.423096
1425410750.32,-32.65866
1425410750.335,-38.51117
1425410750.351,-38.422424
1425410750.367,-31.015625
1425410750.382,-18.073029
1425410750.398,-3.9142456
1425410750.413,6.690796
1425410750.429,10.939056
1425410750.445,9.22522
1425410750.46,4.3723755
1425410750.476,-0.14108276
1425410750.492,-2.0844116
1425410750.507,-1.290741
1425410750.523,1.3194885
1425410750.538,5.244446
1425410750.554,11.246185
1425410750.57,20.622284
1425410750.585,33.339844
1425410750.601,46.602386
1425410750.617,55.41678
1425410750.632,54.946564
1425410750.648,43.123413
1425410750.663,22.266846
1425410750.679,-1.7765503
1425410750.695,-22.270294
1425410750.71,-34.44461
1425410750.726,-37.218903
1425410750.742,-33.05316
1425410750.757,-26.056305
1425410750.773,-19.57573
1425410750.788,-14.841507
1425410750.804,-10.590668
1425410750.82,-4.1506042
1425410750.835,6.6424866
1425410750.851,21.8526
1425410750.867,38.866318
1425410750.882,53.130783
1425410750.898,59.961792
1425410750.913,56.814484
1425410750.929,44.48413
1425410750.945,26.711319
1425410750.96,8.323502
1425410750.976,-7.067032
1425410750.992,-18.303345
1425410751.007,-26.091003
1425410751.023,-31.434753
1425410751.038,-34.53807
1425410751.054,-34.91455
1425410751.07,-32.69268
1425410751.085,-29.61686
1425410751.101,-28.660454
1425410751.117,-32.33223
1425410751.132,-40.584885
1425410751.148,-50.297096
1425410751.163,-56.668304
1425410751.179,-55.87667
1425410751.195,-47.42839
1425410751.21,-34.434532
1425410751.226,-21.671211
1425410751.242,-13.041775
1425410751.257,-9.752224
1425410751.273,-10.037014
1425410751.288,-11.059921
1425410751.304,-10.611076
1425410751.32,-7.8709965
1425410751.335,-3.058405
1425410751.351,3.5794048
1425410751.367,12.353066
1425410751.382,23.797287
1425410751.398,37.82514
1425410751.413,53.387074
1425410751.429,68.7298
1425410751.445,82.11362
1425410751.46,92.32045
1425410751.476,98.750626
1425410751.492,101.16878
1425410751.507,99.42882
1425410751.523,93.54739
1425410751.538,83.86939
1425410751.554,71.38932
1425410751.57,57.930077
1425410751.585,46.075073
1425410751.601,38.73767
1425410751.617,38.040253
1425410751.632,44.421806
1425410751.648,56.06286
1425410751.663,69.07061
1425410751.679,78.75144
1425410751.695,81.35992
1425410751.71,75.54197
1425410751.726,63.4459
1425410751.742,50.066246
1425410751.757,41.109077
1425410751.773,40.530983
1425410751.788,48.46396
1425410751.804,61.035744
1425410751.82,72.339096
1425410751.835,77.35629
1425410751.851,74.31456
1425410751.867,65.39221
1425410751.882,55.155365
1425410751.898,47.78087
1425410751.913,44.699356
1425410751.929,43.99711
1425410751.945,41.625107
1425410751.96,33.95102
1425410751.976,20.026932
1425410751.992,2.3214874
1425410752.007,-14.389145
1425410752.023,-26.096329
1425410752.038,-32.299377
1425410752.054,-36.63275
1425410752.07,-44.43686
1425410752.085,-59.355614
1425410752.101,-80.257
1425410752.117,-101.673706
1425410752.132,-116.38606
1425410752.148,-118.143936
1425410752.163,-105.064316
1425410752.179,-80.53366
1425410752.195,-51.111435
1425410752.21,-22.880096
1425410752.226,0.37405396
1425410752.242,17.848999
1425410752.257,28.961899
1425410752.273,32.10354
1425410752.288,27.417389
1425410752.304,18.065598
1425410752.32,10.2565155
1425410752.335,10.830795
1425410752.351,23.779015
1425410752.367,46.508667
1425410752.382,71.58905
1425410752.398,88.821106
1425410752.414,91.3278
1425410752.429,82.30265
1425410752.445,73.2982
1425410752.46,77.62938
1425410752.476,102.89517
1425410752.492,147.88707
1425410752.507,203.21729
1425410752.523,258.51755
1425410752.538,305.24286
1425410752.554,327.72836
1425410752.57,317.19254
1425410752.585,277.72025
1425410752.601,224.92458
1425410752.617,174.9879
1425410752.632,142.57297
1425410752.648,124.17475
1425410752.664,116.49594
1425410752.679,117.33288
1425410752.695,124.67307
1425410752.71,136.08484
1425410752.726,148.47148
1425410752.742,157.52277
1425410752.757,159.09256
1425410752.773,152.23708
1425410752.789,139.24968
1425410752.804,126.250916
1425410752.82,116.88545
1425410752.835,111.868866
1425410752.851,110.801056
1425410752.867,112.39241
1425410752.882,114.72066
1425410752.898,114.08963
1425410752.914,107.27072
1425410752.929,91.97046
1425410752.945,68.59003
1425410752.96,35.65799
1425410752.976,-7.1499023
1425410752.992,-57.594666
1425410753.007,-112.12445
1425410753.023,-166.71503
1425410753.039,-221.08951
1425410753.054,-275.66418
1425410753.07,-330.4076
1425410753.085,-383.46426
1425410753.101,-436.3919
1425410753.117,-489.11133
1425410753.132,-538.7699
1425410753.148,-581.1846
1425410753.164,-612.0504
1425410753.179,-633.6719
1425410753.195,-650.6197
1425410753.21,-666.87146
1425410753.226,-683.1332
1425410753.242,-701.34326
1425410753.257,-718.07513
1425410753.273,-725.37134
1425410753.289,-714.97327
1425410753.304,-681.22015
1425410753.32,-629.75146
1425410753.335,-570.8533
1425410753.351,-514.26416
1425410753.367,-433.46954
1425410753.382,-320.43195
1425410753.398,-186.64133
1425410753.414,-56.25302
1425410753.429,35.23123
1425410753.445,92.83972
1425410753.46,125.39163
1425410753.476,140.22444
1425410753.492,147.09529
1425410753.507,152.98769
1425410753.523,158.31525
1425410753.539,163.77353
1425410753.554,171.67601
1425410753.57,185.59058
1425410753.585,210.82617
1425410753.601,246.6994
1425410753.617,286.08765
1425410753.632,319.76276
1425410753.648,341.39716
1425410753.664,346.60318
1425410753.679,337.12128
1425410753.695,318.09296
1425410753.71,295.10822
1425410753.726,273.4991
1425410753.742,252.5195
1425410753.757,237.46982
1425410753.773,225.49036
1425410753.789,215.10065
1425410753.804,204.22093
1425410753.82,192.62611
1425410753.835,181.86551
1425410753.851,174.62341
1425410753.867,174.42401
1425410753.882,182.11134
1425410753.898,188.32031
1425410753.914,188.25848
1425410753.929,180.77809
1425410753.945,165.91254
1425410753.96,145.89816
1425410753.976,125.08902
1425410753.992,109.10568
1425410754.007,103.66681
1425410754.023,110.71704
1425410754.039,127.59799
1425410754.054,147.67078
1425410754.07,161.53531
1425410754.085,158.78659
1425410754.101,131.7911
1425410754.117,78.763275
1425410754.132,5.013977
1425410754.148,-78.06683
1425410754.164,-156.80338
1425410754.179,-218.74887
1425410754.195,-255.25082
1425410754.21,-263.65814
1425410754.226,-246.98999
1425410754.242,-212.00201
1425410754.257,-166.37701
1425410754.273,-116.088806
1425410754.289,-63.967865
1425410754.304,-9.65509
1425410754.32,48.940155
1425410754.335,113.280365
1425410754.351,181.52975
1425410754.367,247.92816
1425410754.382,304.28918
1425410754.398,342.6829
1425410754.414,358.50488
1425410754.429,352.14038
1425410754.445,329.15527
1425410754.46,297.75006
1425410754.476,265.1135
1425410754.492,234.51352
1425410754.507,205.73553
1425410754.523,176.89856
1425410754.539,146.46912
1425410754.554,113.86133
1425410754.57,78.53757
1425410754.585,40.275787
1425410754.601,-1.929657
1425410754.617,-49.870483
1425410754.632,-104.16464
1425410754.648,-161.43684
1425410754.664,-214.21552
1425410754.679,-253.89172
1425410754.695,-274.23694
1425410754.71,-273.47388
1425410754.726,-257.18567
1425410754.742,-233.16042
1425410754.757,-208.32982
1425410754.773,-188.06465
1425410754.789,-174.12585
1425410754.804,-164.28696
1425410754.82,-154.00034
1425410754.835,-138.4372
1425410754.851,-114.33627
1425410754.867,-76.91362
1425410754.882,-22.625153
1425410754.898,48.25998
1425410754.914,131.0008
1425410754.929,218.03633
1425410754.945,300.5994
1425410754.96,369.8675
1425410754.976,418.64026
1425410754.992,424.7914
1425410755.007,379.72653
1425410755.023,296.09164
1425410755.039,201.78625
1425410755.054,122.20077
1425410755.07,68.47514
1425410755.085,38.400578
1425410755.101,23.697273
1425410755.117,18.220009
1425410755.132,15.669575
1425410755.148,15.209728
1425410755.164,16.063793
1425410755.179,14.467777
1425410755.195,3.9810562
1425410755.21,-21.216988
1425410755.226,-64.056305
1425410755.242,-123.08866
1425410755.257,-190.89166
1425410755.273,-257.02182
1425410755.289,-309.38528
1425410755.304,-340.91577
1425410755.32,-352.28195
1425410755.336,-349.98993
1425410755.351,-341.8044
1425410755.367,-333.65573
1425410755.382,-327.64014
1425410755.398,-322.50558
1425410755.414,-315.02518
1425410755.429,-299.0781
1425410755.445,-269.64148
1425410755.461,-225.8519
1425410755.476,-172.12152
1425410755.492,-116.51553
1425410755.507,-68.00067
1425410755.523,-32.019276
1425410755.539,-9.329617
1425410755.554,2.5171776
1425410755.57,10.096165
1425410755.586,18.204334
1425410755.601,28.739487
1425410755.617,41.543762
1425410755.632,56.321957
1425410755.648,73.348434
1425410755.664,94.91902
1425410755.679,123.31052
1425410755.695,158.88277
1425410755.711,197.7326
1425410755.726,235.29701
1425410755.742,267.23984
1425410755.757,290.575
1425410755.773,309.06537
1425410755.789,323.49274
1425410755.804,336.56558
1425410755.82,351.5262
1425410755.836,370.64798
1425410755.851,394.95905
1425410755.867,422.17752
1425410755.882,447.02124
1425410755.898,462.91016
1425410755.914,464.64252
1425410755.929,449.71298
1425410755.945,420.847
1425410755.961,384.1984
1425410755.976,341.2644
1425410755.992,297.46844
1425410756.007,256.525
1425410756.023,218.97818
1425410756.039,183.13388
1425410756.054,147.0152
1425410756.07,109.41193
1425410756.086,71.25519
1425410756.101,34.238373
1425410756.117,-0.638855
1425410756.132,-32.890076
1425410756.148,-63.821777
1425410756.164,-95.21307
1425410756.179,-127.98758
1425410756.195,-161.42221
1425410756.211,-193.76923
1425410756.226,-222.60745
1425410756.242,-246.23276
1425410756.257,-264.50677
1425410756.273,-278.12634
1425410756.289,-289.32397
1425410756.304,-300.6457
1425410756.32,-314.1187
1425410756.336,-330.75153
1425410756.351,-350.51886
1425410756.367,-371.96906
1425410756.382,-392.35797
1425410756.398,-408.13074
1425410756.414,-415.02606
1425410756.429,-410.13947
1425410756.445,-392.73517
1425410756.461,-364.81378
1425410756.476,-330.63806
1425410756.492,-295.29822
1425410756.507,-262.8977
1425410756.523,-235.38129
1425410756.539,-212.34125
1425410756.554,-191.66504
1425410756.57,-171.3175
1425410756.586,-150.22052
1425410756.601,-128.63165
1425410756.617,-107.7583
1425410756.632,-89.11682
1425410756.648,-73.87604
1425410756.664,-62.130737
1425410756.679,-52.82831
1425410756.695,-43.990112
1425410756.711,-33.742065
1425410756.726,-20.955078
1425410756.742,-5.722168
1425410756.757,10.533813
1425410756.773,25.503418
1425410756.789,36.73004
1425410756.804,42.848267
1425410756.82,44.285706
1425410756.836,42.981445
1425410756.851,41.286743
1425410756.867,40.823853
1425410756.882,41.992065
1425410756.898,44.259094
1425410756.914,47.070496
1425410756.929,50.066772
1425410756.945,53.40094
1425410756.961,57.386658
1425410756.976,61.732788
1425410756.992,65.42938
1425410757.007,67.38733
1425410757.023,67.22009
1425410757.039,65.59619
1425410757.054,63.87671
1425410757.07,62.23932
1425410757.086,60.506958
1425410757.101,58.559875
1425410757.117,56.776062
1425410757.132,55.787598
1425410757.148,56.04535
1425410757.164,57.299255
1425410757.179,58.604248
1425410757.195,58.621765
1425410757.211,54.507263
1425410757.226,45.032593
1425410757.242,31.056213
1425410757.257,14.523254
1425410757.273,-3.4439697
1425410757.289,-23.205322
1425410757.304,-45.608704
1425410757.32,-70.55005
1425410757.336,-96.2077
1425410757.351,-122.54358
1425410757.367,-148.06348
1425410757.382,-170.0227
1425410757.398,-185.96167
1425410757.414,-195.7312
1425410757.429,-201.74805
1425410757.445,-207.73764
1425410757.461,-217.03986
1425410757.476,-231.95175
1425410757.492,-257.5711
1425410757.507,-295.54855
1425410757.523,-342.15836
1425410757.539,-388.73627
1425410757.554,-424.94186
1425410757.57,-442.3608
1425410757.586,-436.90527
1425410757.601,-410.1876
1425410757.617,-344.5182
1425410757.632,-241.98596
1425410757.648,-123.11609
1425410757.664,-16.206512
1425410757.679,60.821686
1425410757.695,106.64729
1425410757.711,129.73206
1425410757.726,139.45122
1425410757.742,141.94559
1425410757.757,140.30493
1425410757.773,131.10909
1425410757.789,114.81061
1425410757.804,95.54308
1425410757.82,79.44109
1425410757.836,71.28749
1425410757.851,72.60968
1425410757.867,81.94129
1425410757.882,96.701065
1425410757.898,114.46292
1425410757.914,131.20735
1425410757.929,143.79556
1425410757.945,152.96112
1425410757.961,162.25954
1425410757.976,175.37666
1425410757.992,194.13892
1425410758.008,218.11691
1425410758.023,245.11214
1425410758.039,272.09024
1425410758.054,294.3119
1425410758.07,308.71588
1425410758.086,314.45605
1425410758.101,311.82394
1425410758.117,300.48953
1425410758.133,279.41656
1425410758.148,248.5341
1425410758.164,210.46092
1425410758.179,170.4025
1425410758.195,133.24268
1425410758.211,101.99422
1425410758.226,76.67082
1425410758.242,55.2518
1425410758.258,36.217224
1425410758.273,21.014404
1425410758.289,14.27417
1425410758.304,20.77298
1425410758.32,41.12625
1425410758.336,69.188965
1425410758.351,94.1355
1425410758.367,105.389984
1425410758.383,97.66797
1425410758.398,72.748535
1425410758.414,38.01526
1425410758.429,2.692627
1425410758.445,-25.430267
1425410758.461,-41.901794
1425410758.476,-45.85672
1425410758.492,-39.300476
1425410758.508,-26.158142
1425410758.523,-11.8967285
1425410758.539,-2.6279602
1425410758.554,-3.4648438
1425410758.57,-16.66037
1425410758.586,-40.255524
1425410758.601,-67.88858
1425410758.617,-90.58746
1425410758.633,-99.67938
1425410758.648,-89.74899
1425410758.664,-60.852783
1425410758.679,-18.671173
1425410758.695,27.557312
1425410758.711,68.283356
1425410758.726,96.719025
1425410758.742,110.69324
1425410758.758,112.17551
1425410758.773,105.49274
1425410758.789,95.18298
1425410758.804,84.544586
1425410758.82,75.18518
1425410758.836,67.3512
1425410758.851,60.46872
1425410758.867,53.52945
1425410758.883,45.488663
1425410758.898,35.688858
1425410758.914,24.427979
1425410758.929,12.856506
1425410758.945,2.876175
1425410758.961,-3.7160797
1425410758.976,-5.9710846
1425410758.992,-4.0818787
1425410759.008,0.8919983
1425410759.023,7.265152
1425410759.039,13.172241
1425410759.054,16.909225
1425410759.07,17.115738
1425410759.086,13.301361
1425410759.101,6.1514587
1425410759.117,-2.462082
1425410759.133,-9.974701
1425410759.148,-14.021652
1425410759.164,-13.6427765
1425410759.179,-9.706909
1425410759.195,-4.6463776
1425410759.211,-1.2368011
1425410759.226,-0.81108093
1425410759.242,-2.080597
1425410759.258,-1.2795258
1425410759.273,5.8699493
1425410759.289,21.495361
1425410759.304,43.479965
1425410759.32,65.50507
1425410759.336,79.388336
1425410759.351,78.726685
1425410759.367,61.910027
1425410759.383,32.663254
1425410759.398,-2.0177078
1425410759.414,-35.070976
1425410759.429,-61.919563
1425410759.445,-81.16405
1425410759.461,-93.44069
1425410759.476,-99.68012
1425410759.492,-100.29966
1425410759.508,-95.68001
1425410759.523,-87.370094
1425410759.539,-78.67246
1425410759.554,-73.87041
1425410759.57,-76.1015
1425410759.586,-85.47154
1425410759.601,-98.619514
1425410759.617,-110.1947
1425410759.633,-115.38061
1425410759.648,-111.93385
1425410759.664,-100.83798
1425410759.679,-85.59821
1425410759.695,-70.80826
1425410759.711,-60.89328
1425410759.726,-59.08278
1425410759.742,-66.75433
1425410759.758,-82.814705
1425410759.773,-103.56789
1425410759.789,-123.26531
1425410759.804,-135.48427
1425410759.82,-135.13237
1425410759.836,-120.24682
1425410759.851,-92.600494
1425410759.867,-57.002388
1425410759.883,-19.560043
1425410759.898,14.080627
1425410759.914,39.963806
1425410759.929,56.39982
1425410759.945,63.50856
1425410759.961,62.61489
1425410759.976,55.5727
1425410759.992,44.229645
1425410760.008,30.079346
1425410760.023,14.550369
1425410760.039,-0.67087555
1425410760.054,-13.493927
1425410760.07,-21.700928
1425410760.086,-23.80275
1425410760.101,-19.79155
1425410760.117,-11.36763
1425410760.133,-1.3301239
1425410760.148,7.3395386
1425410760.164,12.674316
1425410760.179,14.267334
1425410760.195,12.949051
1425410760.211,9.927231
1425410760.226,5.9931793
1425410760.242,0.99121094
1425410760.258,-6.005905
1425410760.273,-15.8980255
1425410760.289,-28.727234
1425410760.304,-43.01744
1425410760.32,-55.946
1425410760.336,-64.24759
1425410760.351,-65.0945
1425410760.367,-57.01613
1425410760.383,-40.29544
1425410760.398,-16.973389
1425410760.414,9.429581
1425410760.429,34.457947
1425410760.445,53.523605
1425410760.461,63.37976
1425410760.476,63.313446
1425410760.492,55.944427
1425410760.508,46.456024
1425410760.523,40.73871
1425410760.539,42.927063
1425410760.554,53.95108
1425410760.57,71.392365
1425410760.586,90.854126
1425410760.601,107.89224
1425410760.617,119.3331
1425410760.633,123.75116
1425410760.648,121.12323
1425410760.664,112.45697
1425410760.68,99.51376
1425410760.695,84.79431
1425410760.711,71.2504
1425410760.726,61.714172
1425410760.742,58.24237
1425410760.758,61.477722
1425410760.773,70.39548
1425410760.789,82.4924
1425410760.805,94.264984
1425410760.82,101.8656
1425410760.836,102.05945
1425410760.851,93.32416
1425410760.867,76.855194
1425410760.883,56.819397
1425410760.898,39.200623
1425410760.914,29.78186
1425410760.93,31.768127
1425410760.945,44.344116
1425410760.961,63.075104
1425410760.976,81.73198
1425410760.992,94.60014
1425410761.008,97.97594
1425410761.023,90.525116
1425410761.039,72.70468
1425410761.055,46.564987
1425410761.07,15.94722
1425410761.086,-13.477798
1425410761.101,-35.025253
1425410761.117,-43.465363
1425410761.133,-37.99185
1425410761.148,-23.604431
1425410761.164,-9.438904
1425410761.18,-4.295059
1425410761.195,-11.805328
1425410761.211,-28.272736
1425410761.226,-44.947357
1425410761.242,-53.11563
1425410761.258,-48.907303
1425410761.273,-34.652206
1425410761.289,-16.456177
1425410761.305,-0.14463806
1425410761.32,11.308151
1425410761.336,17.632156
1425410761.351,19.285507
1425410761.367,15.930672
1425410761.383,6.8787766
1425410761.398,-7.3056183
1425410761.414,-23.543556
1425410761.43,-37.01841
1425410761.445,-43.814995
1425410761.461,-43.291046
1425410761.476,-38.310013
1425410761.492,-33.335564
1425410761.508,-31.77472
1425410761.523,-34.16793
1425410761.539,-38.818157
1425410761.555,-43.426567
1425410761.57,-46.520184
1425410761.586,-47.60463
1425410761.601,-46.22811
1425410761.617,-41.38758
1425410761.633,-31.970167
1425410761.648,-18.011408
1425410761.664,-1.708787
1425410761.68,13.199214
1425410761.695,23.35378
1425410761.711,27.612196
1425410761.726,27.807796
1425410761.742,27.571663
1425410761.758,30.074251
1425410761.773,36.36548
1425410761.789,44.696045
1425410761.805,51.15644
1425410761.82,51.224094
1425410761.836,41.190914
1425410761.851,19.466309
1425410761.867,-12.5301285
1425410761.883,-50.222385
1425410761.898,-86.88452
1425410761.914,-115.50621
1425410761.93,-130.96361
1425410761.945,-131.6762
1425410761.961,-119.678894
1425410761.976,-99.25156
1425410761.992,-75.086464
1425410762.008,-51.29483
1425410762.023,-31.075577
1425410762.039,-17.140213
1425410762.055,-11.537025
1425410762.07,-14.841095
1425410762.086,-24.984573
1425410762.101,-37.171906
1425410762.117,-45.48934
1425410762.133,-45.45951
1425410762.148,-36.171333
1425410762.164,-20.767746
1425410762.18,-4.7315598
1425410762.195,6.907921
1425410762.211,11.4782715
1425410762.226,9.53717
1425410762.242,3.9656982
1425410762.258,-1.5357895
1425410762.273,-3.700035
