1426793290.496,0.0
1426793290.512,0.0
1426793290.528,0.0
1426793290.543,0.0
1426793290.559,0.0
1426793290.574,0.0
1426793290.59,0.0
1426793290.606,0.0
1426793290.621,0.0
1426793290.637,0.0022315353
1426793290.653,-0.0045169927
1426793290.668,-0.011265522
1426793290.684,-0.011383951
1426793290.699,0.0011864507
1426793290.715,0.025910312
1426793290.731,0.050634187
1426793290.746,0.051362894
1426793290.762,-0.0014929791
1426793290.778,-0.1302426
1426793290.793,-0.35562757
1426793290.809,-0.6591247
1426793290.824,-1.0095103
1426793290.84,-1.3709826
1426793290.856,-1.7197359
1426793290.871,-2.0551105
1426793290.887,-2.39945
1426793290.903,-2.7866635
1426793290.918,-3.2399073
1426793290.934,-3.796012
1426793290.949,-4.418684
1426793290.965,-5.0592937
1426793290.981,-5.6644096
1426793290.996,-6.2021537
1426793291.012,-6.6808796
1426793291.028,-7.149598
1426793291.043,-7.6782336
1426793291.059,-8.310739
1426793291.074,-9.143657
1426793291.09,-10.089731
1426793291.106,-11.041313
1426793291.121,-11.8842125
1426793291.137,-12.564316
1426793291.153,-13.13563
1426793291.168,-13.760044
1426793291.184,-14.65232
1426793291.199,-15.962056
1426793291.215,-17.914442
1426793291.231,-20.317299
1426793291.246,-22.903854
1426793291.262,-25.37947
1426793291.278,-27.578028
1426793291.293,-29.57246
1426793291.309,-31.675173
1426793291.324,-34.3178
1426793291.34,-37.813618
1426793291.356,-42.541233
1426793291.371,-48.1463
1426793291.387,-54.104755
1426793291.403,-59.83309
1426793291.418,-64.972374
1426793291.434,-69.58293
1426793291.449,-74.14353
1426793291.465,-79.344986
1426793291.481,-85.70726
1426793291.496,-93.76193
1426793291.512,-102.99779
1426793291.528,-112.61757
1426793291.543,-121.73034
1426793291.559,-129.76602
1426793291.574,-136.75102
1426793291.59,-143.30344
1426793291.606,-150.74623
1426793291.621,-157.77356
1426793291.637,-166.64323
1426793291.653,-177.94798
1426793291.668,-191.79102
1426793291.684,-206.96808
1426793291.699,-220.56592
1426793291.715,-228.24644
1426793291.731,-225.36154
1426793291.746,-208.53198
1426793291.762,-176.87024
1426793291.778,-132.76222
1426793291.793,-80.04997
1426793291.809,-23.069275
1426793291.824,34.94339
1426793291.84,92.43695
1426793291.856,149.15695
1426793291.871,205.22772
1426793291.887,260.36963
1426793291.903,313.74133
1426793291.918,363.87396
1426793291.934,409.83353
1426793291.949,450.90775
1426793291.965,486.50244
1426793291.981,515.73865
1426793291.996,537.2274
1426793292.012,549.22
1426793292.028,549.9613
1426793292.043,538.367
1426793292.059,514.2055
1426793292.074,478.674
1426793292.09,433.87952
1426793292.106,382.45126
1426793292.121,327.02106
1426793292.137,269.84186
1426793292.153,212.63379
1426793292.168,156.6594
1426793292.184,102.95233
1426793292.199,52.37375
1426793292.215,5.9051514
1426793292.231,-35.579376
1426793292.246,-71.42398
1426793292.262,-101.34906
1426793292.278,-125.49759
1426793292.293,-144.37604
1426793292.309,-158.69174
1426793292.324,-169.15239
1426793292.34,-176.38063
1426793292.356,-180.7743
1426793292.371,-182.61757
1426793292.387,-182.14098
1426793292.403,-179.61763
1426793292.418,-175.39362
1426793292.434,-169.87352
1426793292.449,-163.46857
1426793292.465,-156.51823
1426793292.481,-149.26848
1426793292.496,-141.85402
1426793292.512,-134.34666
1426793292.528,-126.77794
1426793292.543,-119.19198
1426793292.559,-111.64665
1426793292.574,-104.20885
1426793292.59,-96.94866
1426793292.606,-89.91563
1426793292.621,-83.143486
1426793292.637,-76.64608
1426793292.653,-70.439606
1426793292.668,-64.52899
1426793292.684,-58.930305
1426793292.7,-53.657047
1426793292.715,-48.71788
1426793292.731,-44.11993
1426793292.746,-39.860626
1426793292.762,-35.939423
1426793292.778,-32.34676
1426793292.793,-29.086172
1426793292.809,-26.146193
1426793292.824,-23.52736
1426793292.84,-21.226465
1426793292.856,-19.238173
1426793292.871,-17.558985
1426793292.887,-16.178108
1426793292.903,-15.086119
1426793292.918,-14.268935
1426793292.934,-13.716832
1426793292.95,-13.411482
1426793292.965,-13.33588
1426793292.981,-13.473244
1426793292.996,-13.807769
1426793293.012,-14.318127
1426793293.028,-14.98563
1426793293.043,-15.79726
1426793293.059,-16.739985
1426793293.075,-17.805895
1426793293.09,-18.982405
1426793293.106,-20.26485
1426793293.121,-21.647099
1426793293.137,-23.117886
1426793293.153,-24.670992
1426793293.168,-26.31664
1426793293.184,-28.057854
1426793293.2,-29.893623
1426793293.215,-31.826626
1426793293.231,-33.836094
1426793293.246,-35.87129
1426793293.262,-37.84537
1426793293.278,-39.607723
1426793293.293,-40.948433
1426793293.309,-41.592934
1426793293.325,-41.235264
1426793293.34,-39.57667
1426793293.356,-36.363926
1426793293.371,-31.412807
1426793293.387,-24.604492
1426793293.403,-15.986141
1426793293.418,-5.747696
1426793293.434,5.78265
1426793293.45,18.120636
1426793293.465,30.672752
1426793293.481,42.76451
1426793293.496,53.713913
1426793293.512,62.855064
1426793293.528,69.61522
1426793293.543,73.54518
1426793293.559,74.40372
1426793293.575,72.1429
1426793293.59,66.94864
1426793293.606,59.209145
1426793293.621,49.48979
1426793293.637,38.448822
1426793293.653,26.817497
1426793293.668,15.271835
1426793293.684,4.382286
1426793293.7,-5.3849945
1426793293.715,-13.737251
1426793293.731,-20.525604
1426793293.746,-25.754433
1426793293.762,-29.541397
1426793293.778,-32.07952
1426793293.793,-33.6371
1426793293.809,-34.49913
1426793293.825,-34.968254
1426793293.84,-35.200623
1426793293.856,-35.357162
1426793293.871,-35.560577
1426793293.887,-35.927338
1426793293.903,-36.53575
1426793293.918,-37.468124
1426793293.934,-38.79532
1426793293.95,-40.576202
1426793293.965,-42.891815
1426793293.981,-45.61786
1426793293.996,-48.668503
1426793294.012,-51.98958
1426793294.028,-55.540955
1426793294.043,-59.301437
1426793294.059,-63.273315
1426793294.075,-67.37938
1426793294.09,-71.605774
1426793294.106,-76.05092
1426793294.121,-80.56673
1426793294.137,-85.157074
1426793294.153,-89.919174
1426793294.168,-94.874405
1426793294.184,-99.971954
1426793294.2,-105.17674
1426793294.215,-110.36926
1426793294.231,-115.46698
1426793294.246,-120.51654
1426793294.262,-125.215515
1426793294.278,-129.39008
1426793294.293,-132.96735
1426793294.309,-135.71652
1426793294.325,-137.28094
1426793294.34,-137.1802
1426793294.356,-134.49557
1426793294.371,-128.06702
1426793294.387,-119.508575
1426793294.403,-109.4653
1426793294.418,-98.4892
1426793294.434,-87.1933
1426793294.45,-75.82391
1426793294.465,-64.446594
1426793294.481,-53.09372
1426793294.496,-41.09268
1426793294.512,-27.95523
1426793294.528,-13.674072
1426793294.543,1.6855469
1426793294.559,17.641235
1426793294.575,33.13275
1426793294.59,47.93744
1426793294.606,62.18573
1426793294.621,76.04553
1426793294.637,91.10516
1426793294.653,108.58417
1426793294.668,128.77673
1426793294.684,151.26923
1426793294.7,174.9206
1426793294.715,197.49402
1426793294.731,218.4972
1426793294.746,238.20135
1426793294.762,256.97797
1426793294.778,277.47473
1426793294.793,301.7339
1426793294.809,330.26404
1426793294.825,362.0564
1426793294.84,394.88678
1426793294.856,424.68823
1426793294.871,450.11847
1426793294.887,470.90424
1426793294.903,486.93402
1426793294.918,500.99268
1426793294.934,515.2671
1426793294.95,530.08215
1426793294.965,543.9427
1426793294.981,554.19055
1426793294.996,556.26245
1426793295.012,549.5027
1426793295.028,535.10254
1426793295.043,495.32416
1426793295.059,421.11017
1426793295.075,313.33234
1426793295.09,183.59033
1426793295.106,49.73944
1426793295.121,-58.58551
1426793295.137,-138.33524
1426793295.153,-193.56628
1426793295.168,-229.75427
1426793295.184,-251.77463
1426793295.2,-263.07797
1426793295.215,-264.48254
1426793295.231,-257.08313
1426793295.246,-242.95532
1426793295.262,-224.93552
1426793295.278,-207.78217
1426793295.293,-192.81012
1426793295.309,-180.02731
1426793295.325,-169.39357
1426793295.34,-158.51776
1426793295.356,-145.0739
1426793295.371,-127.901276
1426793295.387,-107.19035
1426793295.403,-84.14534
1426793295.418,-61.835266
1426793295.434,-40.551926
1426793295.45,-19.489471
1426793295.465,2.160427
1426793295.481,25.797333
1426793295.496,51.302757
1426793295.512,75.93376
1426793295.528,95.050896
1426793295.543,103.89559
1426793295.559,98.82466
1426793295.575,80.96889
1426793295.59,54.73593
1426793295.606,25.546066
1426793295.622,-1.5523529
1426793295.637,-23.764023
1426793295.653,-40.904022
1426793295.668,-54.20134
1426793295.684,-64.65428
1426793295.7,-72.63309
1426793295.715,-77.0083
1426793295.731,-76.849304
1426793295.747,-72.70175
1426793295.762,-66.577576
1426793295.778,-61.220215
1426793295.793,-59.030243
1426793295.809,-60.84549
1426793295.825,-65.68533
1426793295.84,-71.7225
1426793295.856,-77.0542
1426793295.872,-80.98309
1426793295.887,-84.1557
1426793295.903,-87.971375
1426793295.918,-93.353546
1426793295.934,-99.94647
1426793295.95,-106.07025
1426793295.965,-109.652405
1426793295.981,-109.39197
1426793295.997,-105.61328
1426793296.012,-100.26776
1426793296.028,-95.96344
1426793296.043,-94.72595
1426793296.059,-97.000916
1426793296.075,-101.601074
1426793296.09,-106.50787
1426793296.106,-110.027466
1426793296.122,-111.71338
1426793296.137,-112.383484
1426793296.153,-113.53381
1426793296.168,-116.27124
1426793296.184,-120.47876
1426793296.2,-124.77551
1426793296.215,-127.17413
1426793296.231,-126.164246
1426793296.247,-121.58795
1426793296.262,-114.68829
1426793296.278,-107.46185
1426793296.293,-101.66028
1426793296.309,-97.87811
1426793296.325,-95.27301
1426793296.34,-92.27521
1426793296.356,-87.555725
1426793296.372,-80.89404
1426793296.387,-73.35724
1426793296.403,-66.70618
1426793296.418,-62.40027
1426793296.434,-60.67462
1426793296.45,-60.346558
1426793296.465,-59.453552
1426793296.481,-56.399475
1426793296.497,-50.804565
1426793296.512,-43.693054
1426793296.528,-36.929993
1426793296.543,-32.16925
1426793296.559,-29.780151
1426793296.575,-28.733643
1426793296.59,-27.217651
1426793296.606,-23.72406
1426793296.622,-18.019348
1426793296.637,-11.178589
1426793296.653,-4.9970703
1426793296.668,-0.9657593
1426793296.684,0.69226074
1426793296.7,1.1360474
1426793296.715,2.1617432
1426793296.731,5.194275
1426793296.747,10.400574
1426793296.762,16.663025
1426793296.778,22.234009
1426793296.793,25.807251
1426793296.809,27.277649
1426793296.825,27.903015
1426793296.84,29.498352
1426793296.856,33.325073
1426793296.872,39.24341
1426793296.887,45.712463
1426793296.903,50.311707
1426793296.918,51.057007
1426793296.934,47.361023
1426793296.95,40.254333
1426793296.965,31.784912
1426793296.981,23.878662
1426793296.997,17.315552
1426793297.012,11.48645
1426793297.028,4.992981
1426793297.043,-3.4927368
1426793297.059,-14.036621
1426793297.075,-25.315308
1426793297.09,-35.24341
1426793297.106,-42.091003
1426793297.122,-45.38733
1426793297.137,-46.17096
1426793297.153,-46.269592
1426793297.168,-47.187866
1426793297.184,-49.2265
1426793297.2,-51.30725
1426793297.215,-51.765137
1426793297.231,-49.402283
1426793297.247,-44.352234
1426793297.262,-38.07184
1426793297.278,-32.675476
1426793297.293,-29.769592
1426793297.309,-29.557922
1426793297.325,-30.747375
1426793297.34,-31.402283
1426793297.356,-29.935425
1426793297.372,-26.104675
1426793297.387,-20.939758
1426793297.403,-16.248596
1426793297.418,-13.509827
1426793297.434,-12.89093
1426793297.45,-13.176086
1426793297.465,-12.425903
1426793297.481,-9.228699
1426793297.497,-3.3886108
1426793297.512,3.8062134
1426793297.528,10.435425
1426793297.543,14.865356
1426793297.559,16.821045
1426793297.575,17.449463
1426793297.59,18.587158
1426793297.606,21.643738
1426793297.622,26.664063
1426793297.637,32.46338
1426793297.653,37.196655
1426793297.668,39.516724
1426793297.684,39.477234
1426793297.7,38.670105
1426793297.715,39.271667
1426793297.731,42.842773
1426793297.747,49.471313
1426793297.762,57.54364
1426793297.778,64.59418
1426793297.793,68.42993
1426793297.809,68.20465
1426793297.825,64.67291
1426793297.84,59.545654
1426793297.856,54.43866
1426793297.872,49.82257
1426793297.887,45.00482
1426793297.903,38.570374
1426793297.918,29.41034
1426793297.934,17.698181
1426793297.95,4.9157104
1426793297.965,-6.739319
1426793297.981,-15.52832
1426793297.997,-21.059875
1426793298.012,-24.398987
1426793298.028,-27.336243
1426793298.043,-31.345947
1426793298.059,-36.58307
1426793298.075,-41.85022
1426793298.09,-45.360535
1426793298.106,-45.83435
1426793298.122,-43.459534
1426793298.137,-39.72632
1426793298.153,-36.676056
1426793298.168,-35.662964
1426793298.184,-36.593475
1426793298.2,-37.951233
1426793298.215,-37.803345
1426793298.231,-35.031616
1426793298.247,-30.034454
1426793298.262,-24.601746
1426793298.278,-20.963013
1426793298.294,-20.606812
1426793298.309,-23.301147
1426793298.325,-27.246552
1426793298.34,-30.01825
1426793298.356,-29.832703
1426793298.372,-26.459259
1426793298.387,-21.194763
1426793298.403,-16.076324
1426793298.419,-12.709076
1426793298.434,-11.401886
1426793298.45,-10.958191
1426793298.465,-9.579926
1426793298.481,-5.898926
1426793298.497,0.18466187
1426793298.512,7.4810486
1426793298.528,14.1085205
1426793298.544,18.631195
1426793298.559,20.989258
1426793298.575,22.494354
1426793298.59,25.072693
1426793298.606,30.14975
1426793298.622,37.7211
1426793298.637,46.412262
1426793298.653,54.148376
1426793298.669,59.302216
1426793298.684,61.543793
1426793298.7,61.951294
1426793298.715,62.150177
1426793298.731,63.24591
1426793298.747,64.98941
1426793298.762,65.85971
1426793298.778,63.966736
1426793298.794,58.122406
1426793298.809,48.717865
1426793298.825,37.54779
1426793298.84,26.951569
1426793298.856,18.514404
1426793298.872,12.389038
1426793298.887,7.3439026
1426793298.903,1.5657349
1426793298.919,-6.1123657
1426793298.934,-15.495697
1426793298.95,-24.92987
1426793298.965,-32.34729
1426793298.981,-36.379974
1426793298.997,-37.13745
1426793299.012,-36.046753
1426793299.028,-35.126526
1426793299.044,-35.86078
1426793299.059,-38.290283
1426793299.075,-41.176666
1426793299.09,-42.74356
1426793299.106,-41.844543
1426793299.122,-38.619446
1426793299.137,-34.412903
1426793299.153,-31.015198
1426793299.169,-29.58014
1426793299.184,-29.86621
1426793299.2,-30.3414
1426793299.215,-29.178253
1426793299.231,-25.275208
1426793299.247,-19.073212
1426793299.262,-12.3402405
1426793299.278,-7.2069397
1426793299.294,-5.093933
1426793299.309,-5.7880554
1426793299.325,-7.604248
1426793299.34,-8.336212
1426793299.356,-6.5422363
1426793299.372,-2.2571106
1426793299.387,3.0651245
1426793299.403,7.4049683
1426793299.419,9.416016
1426793299.434,9.173401
1426793299.45,8.182953
1426793299.465,8.406311
1426793299.481,11.1102295
1426793299.497,16.168365
1426793299.512,22.171509
1426793299.528,27.222595
1426793299.544,30.120392
1426793299.559,31.12091
1426793299.575,31.78012
1426793299.59,34.063904
1426793299.606,39.209686
1426793299.622,46.87561
1426793299.637,55.34955
1426793299.653,62.34424
1426793299.669,66.010345
1426793299.684,66.01767
1426793299.7,63.447357
1426793299.715,60.06476
1426793299.731,57.17633
1426793299.747,54.937714
1426793299.762,52.174408
1426793299.778,47.235535
1426793299.794,39.00937
1426793299.809,27.67865
1426793299.825,14.879913
1426793299.84,2.802887
1426793299.856,-6.857086
1426793299.872,-13.68515
1426793299.887,-18.460358
1426793299.903,-22.659393
1426793299.919,-27.332184
1426793299.934,-32.472534
1426793299.95,-37.07907
1426793299.965,-39.835724
1426793299.981,-40.134094
1426793299.997,-38.540924
1426793300.012,-36.561188
1426793300.028,-35.932495
1426793300.044,-37.644638
1426793300.059,-41.33217
1426793300.075,-45.47522
1426793300.09,-48.30861
1426793300.106,-48.74942
1426793300.122,-47.090195
1426793300.137,-44.700363
1426793300.153,-43.236145
1426793300.169,-43.609665
1426793300.184,-45.297195
1426793300.2,-46.569717
1426793300.215,-45.3618
1426793300.231,-40.623245
1426793300.247,-32.9066
1426793300.262,-24.418808
1426793300.278,-18.035675
1426793300.294,-15.969086
1426793300.309,-18.66307
1426793300.325,-24.58107
1426793300.34,-31.082672
1426793300.356,-35.65074
1426793300.372,-37.21901
1426793300.387,-36.382813
1426793300.403,-34.8916
1426793300.419,-34.392883
1426793300.434,-35.337555
1426793300.45,-36.611588
1426793300.465,-36.337402
1426793300.481,-33.094086
1426793300.497,-26.741333
1426793300.512,-18.588623
1426793300.528,-10.6983795
1426793300.544,-4.657379
1426793300.559,-0.7395325
1426793300.575,1.9891968
1426793300.59,4.9574127
1426793300.606,8.932266
1426793300.622,13.459824
1426793300.637,17.06176
1426793300.653,18.020134
1426793300.669,15.3916855
1426793300.684,9.604469
1426793300.7,2.222725
1426793300.715,-4.9881363
1426793300.731,-10.94709
1426793300.747,-15.775314
1426793300.762,-20.368774
1426793300.778,-25.640884
1426793300.794,-31.658772
1426793300.809,-37.277863
1426793300.825,-40.3819
1426793300.84,-39.112762
1426793300.856,-32.789764
1426793300.872,-22.370079
1426793300.887,-10.25688
1426793300.903,0.69945145
1426793300.919,8.366211
1426793300.934,12.122157
1426793300.95,12.95355
1426793300.966,12.784389
1426793300.981,13.331076
1426793300.997,15.317875
1426793301.012,18.40405
1426793301.028,21.640732
1426793301.044,24.234856
1426793301.059,26.374935
1426793301.075,28.88955
1426793301.09,32.688766
1426793301.106,37.888268
1426793301.122,43.462326
1426793301.137,47.635574
1426793301.153,48.87349
1426793301.169,46.74465
1426793301.184,42.45987
1426793301.2,38.525475
1426793301.216,37.38627
1426793301.231,40.37709
1426793301.247,47.028137
1426793301.262,55.280823
1426793301.278,62.518402
1426793301.294,66.824646
1426793301.309,67.917854
1426793301.325,67.19146
1426793301.341,66.89523
1426793301.356,68.733986
1426793301.372,73.17239
1426793301.387,79.165924
1426793301.403,84.850525
1426793301.419,88.74698
1426793301.434,90.66966
1426793301.45,91.70328
1426793301.466,93.36429
1426793301.481,96.441864
1426793301.497,100.240204
1426793301.512,102.768936
1426793301.528,101.70424
1426793301.544,95.58052
1426793301.559,84.70433
1426793301.575,71.01053
1426793301.591,57.1745
1426793301.606,45.168312
1426793301.622,35.47438
1426793301.637,27.112518
1426793301.653,18.520882
1426793301.669,8.577805
1426793301.684,-2.516693
1426793301.7,-13.282555
1426793301.716,-21.841293
1426793301.731,-26.95221
1426793301.747,-28.797218
1426793301.762,-28.820435
1426793301.778,-29.00856
1426793301.794,-30.828072
1426793301.809,-34.406975
1426793301.825,-38.615753
1426793301.841,-41.737823
1426793301.856,-42.66539
1426793301.872,-41.39119
1426793301.887,-39.13584
1426793301.903,-37.539124
1426793301.919,-37.825935
1426793301.934,-39.99665
1426793301.95,-42.798157
1426793301.966,-44.507645
1426793301.981,-43.87999
1426793301.997,-40.888054
1426793302.012,-36.64849
1426793302.028,-32.94227
1426793302.044,-31.04715
1426793302.059,-30.998123
1426793302.075,-31.632988
1426793302.091,-31.164055
1426793302.106,-28.355953
1426793302.122,-23.223278
1426793302.137,-17.108234
1426793302.153,-11.879032
1426793302.169,-9.005547
1426793302.184,-8.505775
1426793302.2,-8.9965515
1426793302.216,-8.488407
1426793302.231,-5.4328003
1426793302.247,0.4007454
1426793302.262,7.8085213
1426793302.278,14.858936
1426793302.294,19.955063
1426793302.309,22.773304
1426793302.325,24.402046
1426793302.341,26.645515
1426793302.356,30.88314
1426793302.372,37.297703
1426793302.387,44.647213
1426793302.403,50.900024
1426793302.419,54.284256
1426793302.434,54.21093
1426793302.45,51.49842
1426793302.466,47.700523
1426793302.481,44.07051
1426793302.497,40.835697
1426793302.512,37.087154
1426793302.528,31.440054
1426793302.544,22.960323
1426793302.559,12.041338
1426793302.575,0.24828148
1426793302.591,-10.329902
1426793302.606,-18.263897
1426793302.622,-23.375965
1426793302.637,-26.758064
1426793302.653,-30.003202
1426793302.669,-34.229855
1426793302.684,-39.351746
1426793302.7,-44.113644
1426793302.716,-46.884315
1426793302.731,-46.713562
1426793302.747,-43.900955
1426793302.762,-39.904335
1426793302.778,-36.61966
1426793302.794,-35.453102
1426793302.809,-36.463997
1426793302.825,-38.47164
1426793302.841,-39.754322
1426793302.856,-39.138847
1426793302.872,-36.64327
1426793302.887,-33.43585
1426793302.903,-31.106928
1426793302.919,-30.756815
1426793302.934,-32.13661
1426793302.95,-33.79168
1426793302.966,-33.891026
1426793302.981,-31.267698
1426793302.997,-26.166443
1426793303.012,-20.052301
1426793303.028,-14.872702
1426793303.044,-11.963733
1426793303.059,-11.2504835
1426793303.075,-11.315007
1426793303.091,-10.294607
1426793303.106,-6.9617834
1426793303.122,-1.4511452
1426793303.137,4.804537
1426793303.153,9.873605
1426793303.169,12.371268
1426793303.184,12.384195
1426793303.2,11.337845
1426793303.216,11.158304
1426793303.231,13.211629
1426793303.247,17.57962
1426793303.262,23.13136
1426793303.278,28.40591
1426793303.294,32.501545
1426793303.309,35.735718
1426793303.325,39.400864
1426793303.341,44.789497
1426793303.356,52.20962
1426793303.372,60.473545
1426793303.387,67.27405
1426793303.403,70.259705
1426793303.419,68.08638
1426793303.434,61.15348
1426793303.45,51.342308
1426793303.466,41.013786
1426793303.481,31.857233
1426793303.497,24.203876
1426793303.512,17.123787
1426793303.528,9.24382
1426793303.544,-0.3482151
1426793303.559,-11.288113
1426793303.575,-22.070032
1426793303.591,-30.79424
1426793303.606,-36.22477
1426793303.622,-38.492973
1426793303.638,-38.893158
1426793303.653,-39.20968
1426793303.669,-40.75708
1426793303.684,-43.602394
1426793303.7,-46.54885
1426793303.716,-48.04548
1426793303.731,-47.046364
1426793303.747,-43.77707
1426793303.762,-39.621605
1426793303.778,-36.339603
1426793303.794,-35.160713
1426793303.809,-35.992153
1426793303.825,-37.53923
1426793303.841,-38.062325
1426793303.856,-36.467686
1426793303.872,-32.874428
1426793303.888,-28.569387
1426793303.903,-25.189653
1426793303.919,-23.746185
1426793303.934,-23.954449
1426793303.95,-24.367323
1426793303.966,-23.22755
1426793303.981,-19.560349
1426793303.997,-13.702429
1426793304.013,-7.2528687
1426793304.028,-2.1504555
1426793304.044,0.26428223
1426793304.059,0.14522362
1426793304.075,-1.0577879
1426793304.091,-1.3815584
1426793304.106,0.59187126
1426793304.122,4.8918486
1426793304.138,10.281571
1426793304.153,14.966618
1426793304.169,17.640945
1426793304.184,18.329176
1426793304.2,18.452286
1426793304.216,19.941288
1426793304.231,24.176035
1426793304.247,31.202702
1426793304.263,39.70427
1426793304.278,47.700127
1426793304.294,53.515396
1426793304.309,56.681446
1426793304.325,57.896564
1426793304.341,58.402832
1426793304.356,59.04351
1426793304.372,59.665344
1426793304.388,59.158295
1426793304.403,56.042675
1426793304.419,49.382023
1426793304.434,39.446938
1426793304.45,27.640194
1426793304.466,15.898999
1426793304.481,5.636264
1426793304.497,-2.7504857
1426793304.513,-9.980248
1426793304.528,-17.293068
1426793304.544,-25.49356
1426793304.559,-34.289795
1426793304.575,-42.3075
1426793304.591,-47.86631
1426793304.606,-49.90662
1426793304.622,-48.64049
1426793304.638,-45.55193
1426793304.653,-42.545715
1426793304.669,-41.06736
1426793304.684,-41.2078
1426793304.7,-41.83944
1426793304.716,-41.348557
1426793304.731,-38.69281
1426793304.747,-34.085285
1426793304.763,-28.848852
1426793304.778,-24.753202
1426793304.794,-22.982855
1426793304.809,-23.445915
1426793304.825,-24.733696
1426793304.841,-24.990036
1426793304.856,-22.973072
1426793304.872,-18.651558
1426793304.888,-13.2667465
1426793304.903,-8.63843
1426793304.919,-6.1323247
1426793304.934,-5.7390795
1426793304.95,-6.122822
1426793304.966,-5.1817694
1426793304.981,-1.3746147
1426793304.997,5.4979534
1426793305.013,14.10684
1426793305.028,22.224237
1426793305.044,27.826195
1426793305.059,30.27258
1426793305.075,30.563444
1426793305.091,30.62677
1426793305.106,32.20463
1426793305.122,35.90683
1426793305.138,40.914825
1426793305.153,45.77499
1426793305.169,49.423595
1426793305.184,51.86858
1426793305.2,54.234177
1426793305.216,57.68886
1426793305.231,62.36269
1426793305.247,66.931366
1426793305.263,69.01302
1426793305.278,66.46133
1426793305.294,58.529907
1426793305.309,46.534607
1426793305.325,33.174774
1426793305.341,21.35883
1426793305.356,12.711209
1426793305.372,7.0198984
1426793305.388,2.56347
1426793305.403,-2.7636385
1426793305.419,-10.234075
1426793305.434,-19.506685
1426793305.45,-28.89845
1426793305.466,-36.29482
1426793305.481,-40.332336
1426793305.497,-41.09106
1426793305.513,-39.951965
1426793305.528,-38.77429
1426793305.544,-38.889038
1426793305.559,-40.303387
1426793305.575,-41.828533
1426793305.591,-41.961914
1426793305.606,-39.89883
1426793305.622,-36.099064
1426793305.638,-32.053307
1426793305.653,-29.515356
1426793305.669,-29.475048
1426793305.684,-31.530323
1426793305.7,-34.143456
1426793305.716,-35.475033
1426793305.731,-34.38291
1426793305.747,-31.036625
1426793305.763,-26.721256
1426793305.778,-23.022068
1426793305.794,-20.992678
1426793305.809,-20.393663
1426793305.825,-19.873646
1426793305.841,-17.817636
1426793305.856,-13.228025
1426793305.872,-6.3550987
1426793305.888,1.3750625
1426793305.903,8.089552
1426793305.919,12.485691
1426793305.934,14.533074
1426793305.95,15.500818
1426793305.966,17.233795
1426793305.981,21.119104
1426793305.997,27.364267
1426793306.013,34.937294
1426793306.028,42.215446
1426793306.044,47.90481
1426793306.059,51.868896
1426793306.075,55.22554
1426793306.091,59.50035
1426793306.106,65.73849
1426793306.122,73.564606
1426793306.138,81.285995
1426793306.153,86.569885
1426793306.169,87.62256
1426793306.184,84.09527
1426793306.2,77.188156
1426793306.216,68.85162
1426793306.231,60.64622
1426793306.247,53.035522
1426793306.263,45.205185
1426793306.278,35.830082
1426793306.294,24.083643
1426793306.309,10.3015175
1426793306.325,-3.8629017
1426793306.341,-16.361214
1426793306.356,-25.726336
1426793306.372,-31.757082
1426793306.388,-35.48707
1426793306.403,-38.6519
1426793306.419,-42.61701
1426793306.434,-47.59109
1426793306.45,-52.609085
1426793306.466,-56.17154
1426793306.481,-57.18825
1426793306.497,-55.66691
1426793306.513,-52.780743
1426793306.528,-50.198574
1426793306.544,-49.23528
1426793306.56,-50.006847
1426793306.575,-51.341217
1426793306.591,-51.566463
1426793306.606,-49.43558
1426793306.622,-44.90637
1426793306.638,-39.178703
1426793306.653,-34.155056
1426793306.669,-31.289413
1426793306.685,-30.732452
1426793306.7,-31.249939
1426793306.716,-30.858482
1426793306.731,-28.074802
1426793306.747,-22.591549
1426793306.763,-15.561836
1426793306.778,-8.848812
1426793306.794,-4.0224304
1426793306.81,-1.4410477
1426793306.825,-0.10684967
1426793306.841,1.6276093
1426793306.856,5.1196136
1426793306.872,10.543045
1426793306.888,17.076523
1426793306.903,23.242447
1426793306.919,27.982513
1426793306.935,31.356247
1426793306.95,34.594788
1426793306.966,39.308083
1426793306.981,46.427605
1426793306.997,55.518524
1426793307.013,64.6415
1426793307.028,71.314415
1426793307.044,73.445465
1426793307.06,70.47619
1426793307.075,63.526825
1426793307.091,54.721832
1426793307.106,45.954453
1426793307.122,37.941483
1426793307.138,30.054787
1426793307.153,20.913994
1426793307.169,9.509987
1426793307.185,-3.8388443
1426793307.2,-17.446854
1426793307.216,-29.020134
1426793307.231,-36.93123
1426793307.247,-40.92453
1426793307.263,-42.29544
1426793307.278,-43.030228
1426793307.294,-44.816254
1426793307.31,-47.992706
1426793307.325,-51.56482
1426793307.341,-53.922577
1426793307.356,-53.872406
1426793307.372,-51.468643
1426793307.388,-47.841072
1426793307.403,-44.709427
1426793307.419,-43.227707
1426793307.435,-43.377174
1426793307.45,-43.885757
1426793307.466,-43.056953
1426793307.481,-39.69468
1426793307.497,-33.893066
1426793307.513,-26.953476
1426793307.528,-20.73986
1426793307.544,-16.681824
1426793307.56,-14.934639
1426793307.575,-14.477615
1426793307.591,-13.722046
1426793307.606,-11.512329
1426793307.622,-7.7400284
1426793307.638,-3.3314285
1426793307.653,0.38249207
1426793307.669,2.4780807
1426793307.685,3.206581
1426793307.7,3.9356766
1426793307.716,6.2706223
1426793307.731,11.151672
1426793307.747,18.213348
1426793307.763,25.914207
1426793307.778,32.307716
1426793307.794,36.077385
1426793307.81,37.403587
1426793307.825,37.922363
1426793307.841,39.869377
1426793307.856,44.764107
1426793307.872,52.636803
1426793307.888,61.87908
1426793307.903,70.010765
1426793307.919,74.81686
1426793307.935,75.35916
1426793307.95,72.29752
1426793307.966,67.15689
1426793307.981,61.396667
1426793307.997,55.45848
1426793308.013,48.744713
1426793308.028,40.17153
1426793308.044,28.955162
1426793308.06,15.481041
1426793308.075,1.2498703
1426793308.091,-11.769424
1426793308.106,-22.104706
1426793308.122,-29.499695
1426793308.138,-34.880074
1426793308.153,-39.729088
1426793308.169,-45.108612
1426793308.185,-51.018707
1426793308.2,-56.280724
1426793308.216,-59.34536
1426793308.231,-59.188637
1426793308.247,-56.015434
1426793308.263,-51.26706
1426793308.278,-46.901665
1426793308.294,-44.379013
1426793308.31,-43.922997
1426793308.325,-44.490295
1426793308.341,-44.405693
1426793308.356,-42.463562
1426793308.372,-38.57991
1426793308.388,-33.869614
1426793308.403,-29.999252
1426793308.419,-28.187279
1426793308.435,-28.410141
1426793308.45,-29.41291
1426793308.466,-29.412865
1426793308.481,-27.032387
1426793308.497,-22.179947
1426793308.513,-16.065071
1426793308.528,-10.532768
1426793308.544,-7.086113
1426793308.56,-6.0254135
1426793308.575,-6.26783
1426793308.591,-6.0470276
1426793308.606,-3.9542236
1426793308.622,0.33403778
1426793308.638,5.9160233
1426793308.653,11.160881
1426793308.669,14.746338
1426793308.685,16.505219
1426793308.7,17.5383
1426793308.716,19.534454
1426793308.731,23.770111
1426793308.747,30.37201
1426793308.763,38.33892
1426793308.778,46.011414
1426793308.794,52.149536
1426793308.81,56.58644
1426793308.825,60.174347
1426793308.841,64.035576
1426793308.856,68.612785
1426793308.872,73.07348
1426793308.888,75.56714
1426793308.903,74.15052
1426793308.919,67.72298
1426793308.935,56.85286
1426793308.95,43.530975
1426793308.966,30.248741
1426793308.981,18.904945
1426793308.997,9.981926
1426793309.013,2.6694183
1426793309.028,-4.524559
1426793309.044,-12.724922
1426793309.06,-21.939056
1426793309.075,-30.981361
1426793309.091,-38.219566
1426793309.106,-42.5138
1426793309.122,-43.885574
1426793309.138,-43.553627
1426793309.153,-43.215538
1426793309.169,-44.18599
1426793309.185,-46.597916
1426793309.2,-49.380096
1426793309.216,-50.929146
1426793309.232,-50.173943
1426793309.247,-47.24134
1426793309.263,-43.311188
1426793309.278,-40.105064
1426793309.294,-38.80513
1426793309.31,-39.349937
1426793309.325,-40.47959
1426793309.341,-40.50358
1426793309.357,-38.228317
1426793309.372,-33.728104
1426793309.388,-28.292213
1426793309.403,-23.683632
1426793309.419,-21.329697
1426793309.435,-21.335442
1426793309.45,-22.50489
1426793309.466,-23.074417
1426793309.482,-21.684517
1426793309.497,-18.121498
1426793309.513,-13.448471
1426793309.528,-9.395592
1426793309.544,-7.3128433
1426793309.56,-7.3811417
1426793309.575,-8.314415
1426793309.591,-8.171898
1426793309.607,-5.406212
1426793309.622,0.34913635
1426793309.638,8.023384
1426793309.653,15.759392
1426793309.669,22.010895
1426793309.685,26.388542
1426793309.7,29.905647
1426793309.716,34.399643
1426793309.732,41.350723
1426793309.747,50.97457
1426793309.763,62.030586
1426793309.778,72.27339
1426793309.794,79.50028
1426793309.81,82.62755
1426793309.825,81.98982
1426793309.841,78.85406
1426793309.857,74.606895
1426793309.872,69.814125
1426793309.888,64.07006
1426793309.903,56.41143
1426793309.919,46.013725
1426793309.935,33.113518
1426793309.95,19.12172
1426793309.966,5.9934006
1426793309.982,-4.7272186
1426793309.997,-12.626968
1426793310.013,-18.528008
1426793310.028,-23.943909
1426793310.044,-30.008263
1426793310.06,-36.854103
1426793310.075,-43.40258
1426793310.091,-47.985374
1426793310.107,-49.389572
1426793310.122,-47.548996
1426793310.138,-43.65503
1426793310.153,-39.59967
1426793310.169,-37.090973
1426793310.185,-36.636642
1426793310.2,-37.504227
1426793310.216,-38.162506
1426793310.232,-37.24376
1426793310.247,-34.39142
1426793310.263,-30.382225
1426793310.278,-26.684204
1426793310.294,-24.595482
1426793310.31,-24.329342
1426793310.325,-24.861359
1426793310.341,-24.576656
1426793310.357,-22.195648
1426793310.372,-17.639542
1426793310.388,-12.096767
1426793310.403,-7.3335075
1426793310.419,-4.8061676
1426793310.435,-4.73267
1426793310.45,-5.9908905
1426793310.466,-6.746662
1426793310.482,-5.5070343
1426793310.497,-1.8653069
1426793310.513,3.4250603
1426793310.528,8.815479
1426793310.544,12.975662
1426793310.56,15.546799
1426793310.575,17.302792
1426793310.591,19.645176
1426793310.607,23.785282
1426793310.622,30.031395
1426793310.638,37.58987
1426793310.653,45.048244
1426793310.669,51.079895
1426793310.685,55.318863
1426793310.7,58.365177
1426793310.716,61.32456
1426793310.732,64.98532
1426793310.747,69.04478
1426793310.763,72.1167
1426793310.778,72.33244
1426793310.794,68.321945
1426793310.81,60.040012
1426793310.825,48.961536
1426793310.841,37.27337
1426793310.857,26.879116
1426793310.872,18.422062
1426793310.888,11.172379
1426793310.903,3.5886955
1426793310.919,-5.667824
1426793310.935,-16.74258
1426793310.95,-28.384224
1426793310.966,-38.586452
1426793310.982,-45.614952
1426793310.997,-48.999702
1426793311.013,-49.721184
1426793311.028,-49.585552
1426793311.044,-50.339466
1426793311.06,-52.556915
1426793311.075,-55.410328
1426793311.091,-57.277657
1426793311.107,-56.789543
1426793311.122,-53.69948
1426793311.138,-49.044785
1426793311.153,-44.60592
1426793311.169,-41.931175
1426793311.185,-41.38476
1426793311.2,-41.98072
1426793311.216,-42.11818
1426793311.232,-40.45165
1426793311.247,-36.750328
1426793311.263,-31.986557
1426793311.278,-27.7331
1426793311.294,-25.258194
1426793311.31,-24.729473
1426793311.325,-25.034721
1426793311.341,-24.488003
1426793311.357,-21.745392
1426793311.372,-16.616356
1426793311.388,-10.139332
1426793311.403,-4.0726852
1426793311.419,0.022678375
1426793311.435,1.7452927
1426793311.45,2.0520744
1426793311.466,2.685009
1426793311.482,5.190037
1426793311.497,10.0214
1426793311.513,16.32169
1426793311.528,22.437908
1426793311.544,26.844181
1426793311.56,29.129051
1426793311.575,30.300938
1426793311.591,32.17098
1426793311.607,36.36163
1426793311.622,43.16094
1426793311.638,51.347847
1426793311.653,58.665558
1426793311.669,62.915527
1426793311.685,62.956436
1426793311.7,59.384296
1426793311.716,53.856995
1426793311.732,48.114166
1426793311.747,43.054935
1426793311.763,38.252914
1426793311.778,32.47072
1426793311.794,24.587128
1426793311.81,14.515165
1426793311.825,3.5230923
1426793311.841,-6.2864437
1426793311.857,-13.067219
1426793311.872,-16.299816
1426793311.888,-16.93229
1426793311.904,-17.001942
1426793311.919,-18.51916
1426793311.935,-22.333498
1426793311.95,-27.792496
1426793311.966,-33.177307
1426793311.982,-36.7164
1426793311.997,-37.6361
1426793312.013,-36.492134
1426793312.029,-34.721146
1426793312.044,-33.84817
1426793312.06,-34.500973
1426793312.075,-35.9964
1426793312.091,-36.90158
1426793312.107,-35.843872
1426793312.122,-32.444626
1426793312.138,-27.527073
1426793312.154,-22.684649
1426793312.169,-19.354015
1426793312.185,-18.058327
1426793312.2,-17.986938
1426793312.216,-17.566542
1426793312.232,-15.421075
1426793312.247,-11.232167
1426793312.263,-5.931312
1426793312.279,-1.2352155
1426793312.294,1.4041255
1426793312.31,1.7403655
1426793312.325,0.9160042
1426793312.341,0.8571553
1426793312.357,3.2508082
1426793312.372,8.397299
1426793312.388,15.221382
1426793312.404,21.809875
1426793312.419,26.446468
1426793312.435,28.74973
1426793312.45,29.765224
1426793312.466,31.395142
1426793312.482,35.338078
1426793312.497,42.06765
1426793312.513,50.545807
1426793312.529,58.805256
1426793312.544,64.81916
1426793312.56,67.397804
1426793312.575,66.69907
1426793312.591,63.784023
1426793312.607,59.8118
1426793312.622,55.335976
1426793312.638,50.016724
1426793312.654,42.968
1426793312.669,33.427013
1426793312.685,21.604511
1426793312.7,8.8226795
1426793312.716,-2.960907
1426793312.732,-11.95471
1426793312.747,-17.540827
1426793312.763,-20.415813
1426793312.779,-22.301994
1426793312.794,-24.978588
1426793312.81,-29.356123
1426793312.825,-34.88672
1426793312.841,-40.07918
1426793312.857,-43.330235
1426793312.872,-43.924843
1426793312.888,-42.40654
1426793312.904,-40.281593
1426793312.919,-39.143654
1426793312.935,-39.684933
1426793312.95,-41.3112
1426793312.966,-42.51387
1426793312.982,-41.80936
1426793312.997,-38.63691
1426793313.013,-33.741913
1426793313.029,-28.795513
1426793313.044,-25.472527
1426793313.06,-24.431229
1426793313.075,-24.887001
1426793313.091,-25.10028
1426793313.107,-23.382265
1426793313.122,-19.079977
1426793313.138,-13.01796
1426793313.154,-6.9936066
1426793313.169,-2.8243103
1426793313.185,-1.206543
1426793313.2,-1.2840519
1426793313.216,-1.2778625
1426793313.232,0.59539986
1426793313.247,4.9658318
1426793313.263,11.088539
1426793313.279,17.312162
1426793313.294,22.078976
1426793313.31,24.823679
1426793313.325,26.355515
1426793313.341,28.282713
1426793313.357,32.034744
1426793313.372,38.032852
1426793313.388,45.40261
1426793313.404,52.464043
1426793313.419,57.682404
1426793313.435,60.539375
1426793313.45,61.67174
1426793313.466,62.43904
1426793313.482,63.875286
1426793313.497,65.91675
1426793313.513,67.32213
1426793313.529,66.189186
1426793313.544,60.882786
1426793313.56,51.08178
1426793313.575,38.037292
1426793313.591,23.909214
1426793313.607,10.8696575
1426793313.622,0.016061783
1426793313.638,-8.81325
1426793313.654,-16.700037
1426793313.669,-24.845629
1426793313.685,-33.535736
1426793313.7,-41.83847
1426793313.716,-48.101116
1426793313.732,-50.834488
1426793313.747,-49.6187
1426793313.763,-45.495483
1426793313.779,-40.433746
1426793313.794,-36.50708
1426793313.81,-34.828224
1426793313.825,-35.042725
1426793313.841,-35.73707
1426793313.857,-35.31815
1426793313.872,-32.978645
1426793313.888,-29.114737
1426793313.904,-25.161379
1426793313.919,-22.70515
1426793313.935,-22.458462
1426793313.95,-23.865538
1426793313.966,-25.344696
1426793313.982,-25.232008
1426793313.997,-22.839876
1426793314.013,-18.799501
1426793314.029,-14.761227
1426793314.044,-12.562883
1426793314.06,-13.044926
1426793314.075,-15.469694
1426793314.091,-18.034237
1426793314.107,-18.678812
1426793314.122,-16.354645
1426793314.138,-11.418673
1426793314.154,-5.3991623
1426793314.169,-0.07523918
1426793314.185,3.5025692
1426793314.2,5.7423935
1426793314.216,8.007076
1426793314.232,11.647688
1426793314.247,17.130318
1426793314.263,23.535994
1426793314.279,29.215145
1426793314.294,32.67093
1426793314.31,33.669914
1426793314.325,33.489555
1426793314.341,34.356827
1426793314.357,38.092278
1426793314.372,45.01671
1426793314.388,53.650616
1426793314.404,61.24502
1426793314.419,64.977615
1426793314.435,63.38331
1426793314.45,56.86438
1426793314.466,47.36068
1426793314.482,37.319374
1426793314.497,28.428415
1426793314.513,21.017296
1426793314.529,14.220678
1426793314.544,6.7660103
1426793314.56,-2.0003433
1426793314.576,-11.440701
1426793314.591,-19.842001
1426793314.607,-25.383144
1426793314.622,-27.152761
1426793314.638,-25.770975
1426793314.654,-23.091526
1426793314.669,-21.217505
1426793314.685,-21.425028
1426793314.7,-23.528723
1426793314.716,-26.068727
1426793314.732,-27.350214
1426793314.747,-26.529043
1426793314.763,-24.120543
1426793314.779,-21.757103
1426793314.794,-21.162539
1426793314.81,-23.075762
1426793314.826,-26.782259
1426793314.841,-30.54914
1426793314.857,-32.57265
1426793314.872,-32.116734
1426793314.888,-29.808805
1426793314.904,-27.193079
1426793314.919,-25.895458
1426793314.935,-26.510578
1426793314.951,-28.16766
1426793314.966,-29.157688
1426793314.982,-27.87231
1426793314.997,-23.851078
1426793315.013,-17.972923
1426793315.029,-12.033224
1426793315.044,-7.64653
1426793315.06,-5.393755
1426793315.076,-4.442066
1426793315.091,-2.9847412
1426793315.107,0.6081219
1426793315.122,6.8749275
1426793315.138,14.98634
1426793315.154,23.194395
1426793315.169,29.681597
1426793315.185,33.71149
1426793315.201,35.882717
1426793315.216,37.800823
1426793315.232,41.213806
1426793315.247,46.86516
1426793315.263,54.177494
1426793315.279,61.487274
1426793315.294,66.75197
1426793315.31,68.63931
1426793315.326,67.15344
1426793315.341,63.343857
1426793315.357,58.70479
1426793315.372,54.1225
1426793315.388,49.386272
1426793315.404,43.414883
1426793315.419,35.05343
1426793315.435,23.85671
1426793315.451,10.7587385
1426793315.466,-2.3357468
1426793315.482,-13.448026
1426793315.497,-21.441612
1426793315.513,-26.54122
1426793315.529,-30.086601
1426793315.544,-33.692894
1426793315.56,-38.18876
1426793315.576,-43.29556
1426793315.591,-47.78418
1426793315.607,-50.194935
1426793315.622,-49.926865
1426793315.638,-47.469997
1426793315.654,-44.286674
1426793315.669,-42.05045
1426793315.685,-41.696705
1426793315.701,-42.83324
1426793315.716,-44.16501
1426793315.732,-44.13398
1426793315.747,-41.888123
1426793315.763,-37.885033
1426793315.779,-33.44225
1426793315.794,-30.133575
1426793315.81,-28.791538
1426793315.826,-28.89317
1426793315.841,-28.949379
1426793315.857,-27.391848
1426793315.872,-23.49854
1426793315.888,-17.862751
1426793315.904,-12.126856
1426793315.919,-7.920665
1426793315.935,-6.016342
1426793315.951,-5.6987224
1426793315.966,-5.230045
1426793315.982,-2.8597932
1426793315.997,2.0505848
1426793316.013,8.749681
1426793316.029,15.39492
1426793316.044,20.029446
1426793316.06,21.811003
1426793316.076,21.49442
1426793316.091,20.981216
1426793316.107,22.341726
1426793316.122,26.635841
1426793316.138,33.47138
1426793316.154,41.419483
1426793316.169,48.789085
1426793316.185,54.49651
1426793316.201,58.698013
1426793316.216,62.188164
1426793316.232,65.63718
1426793316.247,68.88549
1426793316.263,70.65816
1426793316.279,69.20006
1426793316.294,63.13638
1426793316.31,52.36322
1426793316.326,38.255882
1426793316.341,23.20139
1426793316.357,9.560801
1426793316.372,-1.3255177
1426793316.388,-9.470805
1426793316.404,-16.016973
1426793316.419,-22.359219
1426793316.435,-29.20888
1426793316.451,-36.12098
1426793316.466,-41.811035
1426793316.482,-44.91174
1426793316.497,-44.981926
1426793316.513,-42.759026
1426793316.529,-39.829605
1426793316.544,-37.856777
1426793316.56,-37.658028
1426793316.576,-38.705734
1426793316.591,-39.534958
1426793316.607,-38.642124
1426793316.622,-35.421345
1426793316.638,-30.617373
1426793316.654,-25.80043
1426793316.669,-22.574198
1426793316.685,-21.632318
1426793316.701,-22.31613
1426793316.716,-22.97575
1426793316.732,-21.973074
1426793316.747,-18.618027
1426793316.763,-13.552446
1426793316.779,-8.391752
1426793316.794,-4.8884087
1426793316.81,-3.7746167
1426793316.826,-4.435751
1426793316.841,-5.161118
1426793316.857,-4.1236033
1426793316.872,-0.45801157
1426793316.888,5.3081656
1426793316.904,11.551811
1426793316.919,16.415459
1426793316.935,18.899097
1426793316.951,19.43586
1426793316.966,19.57828
1426793316.982,21.104336
1426793316.997,25.027935
1426793317.013,31.100784
1426793317.029,38.040592
1426793317.044,44.3451
1426793317.06,49.149513
1426793317.076,52.670425
1426793317.091,55.848053
1426793317.107,59.544556
1426793317.122,63.614414
1426793317.138,66.75071
1426793317.154,66.87841
1426793317.169,62.242237
1426793317.185,52.371178
1426793317.201,38.567963
1426793317.216,23.391014
1426793317.232,9.590618
1426793317.247,-1.2057638
1426793317.263,-8.994361
1426793317.279,-15.091169
1426793317.294,-21.215958
1426793317.31,-28.281048
1426793317.326,-35.88001
1426793317.341,-42.497955
1426793317.357,-46.541397
1426793317.372,-47.26726
1426793317.388,-45.34735
1426793317.404,-42.417793
1426793317.419,-40.25867
1426793317.435,-39.826046
1426793317.451,-40.72908
1426793317.466,-41.717327
1426793317.482,-41.362656
1426793317.498,-39.12463
1426793317.513,-35.545605
1426793317.529,-31.97486
1426793317.544,-29.825155
1426793317.56,-29.62855
1426793317.576,-30.71073
1426793317.591,-31.48574
1426793317.607,-30.403381
1426793317.623,-26.748087
1426793317.638,-21.047497
1426793317.654,-14.852957
1426793317.669,-9.855392
1426793317.685,-6.9526253
1426793317.701,-5.757639
1426793317.716,-4.8260098
1426793317.732,-2.444275
1426793317.748,2.270359
1426793317.763,8.95434
1426793317.779,16.112465
1426793317.794,21.938915
1426793317.81,25.405966
1426793317.826,26.86826
1426793317.841,27.923992
1426793317.857,30.524883
1426793317.873,35.92146
1426793317.888,43.883125
1426793317.904,52.835373
1426793317.919,60.51676
1426793317.935,65.074745
1426793317.951,66.05134
1426793317.966,64.20923
1426793317.982,60.96247
1426793317.998,57.30819
1426793318.013,53.267853
1426793318.029,47.93856
1426793318.044,40.129402
1426793318.06,29.330566
1426793318.076,16.323168
1426793318.091,3.0537128
1426793318.107,-8.325115
1426793318.123,-16.495043
1426793318.138,-21.551931
1426793318.154,-24.852755
1426793318.169,-28.235863
1426793318.185,-32.824608
1426793318.201,-38.43712
1426793318.216,-43.808132
1426793318.232,-47.306015
1426793318.248,-48.079712
1426793318.263,-46.604763
1426793318.279,-44.38105
1426793318.294,-43.166462
1426793318.31,-43.930836
1426793318.326,-46.207882
1426793318.341,-48.42733
1426793318.357,-48.792877
1426793318.373,-46.332047
1426793318.388,-41.413364
1426793318.404,-35.564415
1426793318.419,-30.559029
1426793318.435,-27.471817
1426793318.451,-26.054966
1426793318.466,-25.008434
1426793318.482,-22.751366
1426793318.498,-18.510517
1426793318.513,-12.766815
1426793318.529,-6.982979
1426793318.544,-2.8525848
1426793318.56,-1.1929703
1426793318.576,-1.4459534
1426793318.591,-1.9665527
1426793318.607,-0.9650383
1426793318.623,2.4723434
1426793318.638,7.9055023
1426793318.654,13.850246
1426793318.669,18.662483
1426793318.685,21.521498
1426793318.701,23.067762
1426793318.716,25.040169
1426793318.732,29.319117
1426793318.748,36.840008
1426793318.763,46.952744
1426793318.779,57.662292
1426793318.794,66.48581
1426793318.81,71.5691
1426793318.826,72.46552
1426793318.841,70.10779
1426793318.857,66.01442
1426793318.873,61.284912
1426793318.888,56.006966
1426793318.904,49.325115
1426793318.919,40.13206
1426793318.935,28.016483
1426793318.951,13.911036
1426793318.966,-0.2552204
1426793318.982,-12.329369
1426793318.998,-21.012566
1426793319.013,-26.42009
1426793319.029,-29.803394
1426793319.044,-32.93459
1426793319.06,-36.942497
1426793319.076,-41.77592
1426793319.091,-46.286896
1426793319.107,-49.004894
1426793319.123,-49.133743
1426793319.138,-47.054607
1426793319.154,-44.142036
1426793319.169,-42.052864
1426793319.185,-41.819565
1426793319.201,-43.135056
1426793319.216,-44.52698
1426793319.232,-44.264927
1426793319.248,-41.358086
1426793319.263,-36.10712
1426793319.279,-30.094582
1426793319.294,-25.261473
1426793319.31,-22.872728
1426793319.326,-22.800514
1426793319.341,-23.632637
1426793319.357,-23.533865
1426793319.373,-21.318243
1426793319.388,-17.147995
1426793319.404,-12.314907
1426793319.419,-8.561499
1426793319.435,-6.933161
1426793319.451,-6.991926
1426793319.466,-7.1123886
1426793319.482,-5.350672
1426793319.498,-0.6127987
1426793319.513,6.728325
1426793319.529,14.998959
1426793319.544,22.105236
1426793319.56,26.73316
1426793319.576,29.099699
1426793319.591,30.809954
1426793319.607,33.898666
1426793319.623,39.65396
1426793319.638,47.893738
1426793319.654,57.10943
1426793319.669,65.25926
1426793319.685,70.78756
1426793319.701,73.40683
1426793319.716,73.9097
1426793319.732,73.51105
1426793319.748,72.755745
1426793319.763,71.19144
1426793319.779,67.445786
1426793319.794,60.128548
1426793319.81,48.79767
1426793319.826,34.42988
1426793319.841,19.200151
1426793319.857,5.4481544
1426793319.873,-5.463814
1426793319.888,-13.687078
1426793319.904,-20.52212
1426793319.919,-27.607676
1426793319.935,-35.77745
1426793319.951,-44.447277
1426793319.966,-51.955223
1426793319.982,-56.542007
1426793319.998,-57.40252
1426793320.013,-55.166183
1426793320.029,-51.64599
1426793320.044,-48.852932
1426793320.06,-47.998642
1426793320.076,-48.848522
1426793320.091,-49.94914
1426793320.107,-49.599655
1426793320.123,-46.910988
1426793320.138,-42.318565
1426793320.154,-37.315384
1426793320.17,-33.738655
1426793320.185,-32.659763
1426793320.201,-33.66191
1426793320.216,-35.124474
1426793320.232,-35.072273
1426793320.248,-32.37769
1426793320.263,-27.359898
1426793320.279,-21.65012
1426793320.295,-17.229841
1426793320.31,-15.317689
1426793320.326,-15.625844
1426793320.341,-16.493134
1426793320.357,-15.8879385
1426793320.373,-12.514041
1426793320.388,-6.5989637
1426793320.404,0.31877232
1426793320.42,6.2411366
1426793320.435,9.836639
1426793320.451,11.252686
1426793320.466,11.9846115
1426793320.482,13.934324
1426793320.498,18.302513
1426793320.513,24.931423
1426793320.529,32.351383
1426793320.545,38.79416
1426793320.56,43.199883
1426793320.576,45.916397
1426793320.591,48.408424
1426793320.607,52.292698
1426793320.623,58.061928
1426793320.638,64.57203
1426793320.654,69.510284
1426793320.67,70.316414
1426793320.685,65.64129
1426793320.701,56.029984
1426793320.716,43.60444
1426793320.732,30.941923
1426793320.748,19.859896
1426793320.763,10.655233
1426793320.779,2.4006147
1426793320.795,-6.163867
1426793320.81,-15.571403
1426793320.826,-25.053198
1426793320.841,-32.821224
1426793320.857,-37.22587
1426793320.873,-37.621952
1426793320.888,-34.8556
1426793320.904,-30.960398
1426793320.92,-28.118761
1426793320.935,-27.616522
1426793320.951,-29.290962
1426793320.966,-31.738672
1426793320.982,-33.24504
1426793320.998,-32.87195
1426793321.013,-30.839716
1426793321.029,-28.400461
1426793321.045,-27.096106
1426793321.06,-27.728804
1426793321.076,-29.729385
1426793321.091,-31.548527
1426793321.107,-31.405533
1426793321.123,-28.437973
1426793321.138,-23.248528
1426793321.154,-17.537806
1426793321.17,-13.342823
1426793321.185,-11.8233185
1426793321.201,-12.60722
1426793321.216,-14.081501
1426793321.232,-14.37336
1426793321.248,-12.429802
1426793321.263,-8.600159
1426793321.279,-4.3965645
1426793321.295,-1.5580711
1426793321.31,-1.031311
1426793321.326,-2.3717117
1426793321.341,-3.9148445
1426793321.357,-3.833332
1426793321.373,-1.0979958
1426793321.388,3.9947624
1426793321.404,10.025612
1426793321.42,15.215797
1426793321.435,18.53022
1426793321.451,20.22147
1426793321.466,21.661098
1426793321.482,24.602684
1426793321.498,30.07423
1426793321.513,37.826275
1426793321.529,46.48049
1426793321.545,54.155983
1426793321.56,59.377106
1426793321.576,61.828323
1426793321.591,62.279655
1426793321.607,61.81154
1426793321.623,61.043007
1426793321.638,59.547523
1426793321.654,56.120834
1426793321.67,49.497208
1426793321.685,39.21382
1426793321.701,26.293251
1426793321.716,12.842209
1426793321.732,1.1716156
1426793321.748,-7.3953323
1426793321.763,-12.955368
1426793321.779,-16.877968
1426793321.795,-20.919876
1426793321.81,-26.100685
1426793321.826,-32.105194
1426793321.841,-37.483643
1426793321.857,-40.614365
1426793321.873,-40.680954
1426793321.888,-38.28248
1426793321.904,-35.05406
1426793321.92,-32.824905
1426793321.935,-32.636116
1426793321.951,-34.077957
1426793321.966,-35.610435
1426793321.982,-35.544487
1426793321.998,-33.0355
1426793322.013,-28.616554
1426793322.029,-23.898308
1426793322.045,-20.810486
1426793322.06,-20.414223
1426793322.076,-22.41214
1426793322.091,-25.285759
1426793322.107,-27.108742
1426793322.123,-26.65271
1426793322.138,-23.984215
1426793322.154,-20.264763
1426793322.17,-17.033531
1426793322.185,-15.311462
1426793322.201,-14.818802
1426793322.216,-14.305557
1426793322.232,-12.309196
1426793322.248,-8.07254
1426793322.263,-2.0997772
1426793322.279,4.0978622
1426793322.295,8.767395
1426793322.31,10.980614
1426793322.326,11.113495
1426793322.341,10.745041
1426793322.357,11.695877
1426793322.373,14.93206
1426793322.388,20.11438
1426793322.404,25.731766
1426793322.42,30.052505
1426793322.435,32.169014
1426793322.451,32.68129
1426793322.466,33.437172
1426793322.482,36.461037
1426793322.498,42.73282
1426793322.513,51.461617
1426793322.529,60.3506
1426793322.545,66.54513
1426793322.56,68.051445
1426793322.576,64.69787
1426793322.591,57.860382
1426793322.607,49.643806
1426793322.623,41.627907
1426793322.638,34.149796
1426793322.654,26.374
1426793322.67,17.210892
1426793322.685,6.216057
1426793322.701,-5.732918
1426793322.716,-16.598442
1426793322.732,-24.348137
1426793322.748,-27.9206
1426793322.763,-27.75718
1426793322.779,-25.60942
1426793322.795,-23.67212
1426793322.81,-23.441116
1426793322.826,-25.129028
1426793322.842,-27.664398
1426793322.857,-29.489792
1426793322.873,-29.607758
1426793322.888,-28.094543
1426793322.904,-26.070465
1426793322.92,-25.016571
1426793322.935,-25.798492
1426793322.951,-28.008026
1426793322.967,-30.171326
1426793322.982,-30.595459
1426793322.998,-28.342926
1426793323.013,-23.816269
1426793323.029,-18.538132
1426793323.045,-14.377335
1426793323.06,-12.543472
1426793323.076,-12.767242
1426793323.092,-13.658035
1426793323.107,-13.488617
1426793323.123,-11.251038
1426793323.138,-7.2146606
1426793323.154,-2.7031403
1426793323.17,0.7502594
1426793323.185,2.2642517
1426793323.201,2.1950989
1426793323.217,2.0345001
1426793323.232,3.4525146
1426793323.248,7.302063
1426793323.263,13.159958
1426793323.279,19.443893
1426793323.295,24.285065
1426793323.31,26.552414
1426793323.326,26.498398
1426793323.342,25.675125
1426793323.357,26.10733
1426793323.373,29.113022
1426793323.388,34.74376
1426793323.404,41.690475
1426793323.42,47.986847
1426793323.435,51.963943
1426793323.451,53.114975
1426793323.467,52.007523
1426793323.482,49.723145
1426793323.498,47.008377
1426793323.513,43.735382
1426793323.529,39.081024
1426793323.545,32.03499
1426793323.56,22.171478
1426793323.576,10.29126
1426793323.592,-1.7958984
1426793323.607,-12.094574
1426793323.623,-19.236343
1426793323.638,-23.214554
1426793323.654,-25.237808
1426793323.67,-26.96373
1426793323.685,-29.653534
1426793323.701,-33.335052
1426793323.717,-36.922485
1426793323.732,-38.821335
1426793323.748,-38.090073
1426793323.763,-35.049927
1426793323.779,-31.187347
1426793323.795,-28.403183
1426793323.81,-27.976074
1426793323.826,-29.843811
1426793323.842,-32.668182
1426793323.857,-34.71585
1426793323.873,-34.876877
1426793323.888,-33.23221
1426793323.904,-30.987076
1426793323.92,-29.716766
1426793323.935,-30.363571
1426793323.951,-32.5403
1426793323.967,-34.68889
1426793323.982,-34.84372
1426793323.998,-31.722214
1426793324.013,-25.396027
1426793324.029,-17.294388
1426793324.045,-9.519608
1426793324.06,-3.7445831
1426793324.076,-0.31762695
1426793324.092,1.8761444
1426793324.107,4.579956
1426793324.123,9.128586
1426793324.138,15.607605
1426793324.154,22.726654
1426793324.17,28.638107
1426793324.185,31.958923
1426793324.201,32.757492
1426793324.217,32.56134
1426793324.232,33.53247
1426793324.248,37.347656
1426793324.263,44.204163
1426793324.279,52.81076
1426793324.295,61.10005
1426793324.31,67.29866
1426793324.326,70.839264
1426793324.342,72.336365
1426793324.357,72.913605
1426793324.373,73.22125
1426793324.388,72.91597
1426793324.404,70.72209
1426793324.42,65.165726
1426793324.435,55.612656
1426793324.451,42.839127
1426793324.467,28.909164
1426793324.482,16.168472
1426793324.498,6.2245026
1426793324.513,-0.7618103
1426793324.529,-5.863266
1426793324.545,-10.682632
1426793324.56,-16.311295
1426793324.576,-22.649948
1426793324.592,-28.520645
1426793324.607,-32.43486
1426793324.623,-33.64325
1426793324.638,-32.64154
1426793324.654,-31.047745
1426793324.67,-30.710083
1426793324.685,-32.71472
1426793324.701,-36.654076
1426793324.717,-40.9149
1426793324.732,-43.58818
1426793324.748,-43.514122
1426793324.763,-40.87973
1426793324.779,-37.02716
1426793324.795,-33.7164
1426793324.81,-32.058525
1426793324.826,-31.813759
1426793324.842,-31.58377
1426793324.857,-29.805489
1426793324.873,-25.71605
1426793324.888,-19.833885
1426793324.904,-13.672195
1426793324.92,-8.925934
1426793324.935,-6.559784
1426793324.951,-6.088051
1426793324.967,-6.017479
1426793324.982,-4.6211853
1426793324.998,-0.96987915
1426793325.013,4.5612717
1426793325.029,10.577492
1426793325.045,15.447487
1426793325.06,18.289124
1426793325.076,19.586563
1426793325.092,21.012062
1426793325.107,24.550583
1426793325.123,31.396194
1426793325.138,41.28157
1426793325.154,52.440025
1426793325.17,62.384468
1426793325.185,68.95464
1426793325.201,71.32957
1426793325.217,70.18663
1426793325.232,66.98857
1426793325.248,63.028625
1426793325.263,58.630432
1426793325.279,53.09056
1426793325.295,45.232964
1426793325.31,34.357216
1426793325.326,20.984215
1426793325.342,6.8082047
1426793325.357,-5.927376
1426793325.373,-15.62281
1426793325.388,-22.009308
1426793325.404,-26.110817
1426793325.42,-29.621368
1426793325.435,-33.883038
1426793325.451,-39.031185
1426793325.467,-44.058414
1426793325.482,-47.459053
1426793325.498,-48.133408
1426793325.514,-46.132896
1426793325.529,-42.64823
1426793325.545,-39.407482
1426793325.56,-37.754776
1426793325.576,-37.86952
1426793325.592,-38.75433
1426793325.607,-38.93125
1426793325.623,-37.339966
1426793325.638,-33.95531
1426793325.654,-29.855762
1426793325.67,-26.51513
1426793325.685,-24.9752
1426793325.701,-25.06083
1426793325.717,-25.431435
1426793325.732,-24.423172
1426793325.748,-20.97703
1426793325.764,-15.32642
1426793325.779,-8.868666
1426793325.795,-3.4576893
1426793325.81,-0.28947258
1426793325.826,0.8321934
1426793325.842,1.3767223
1426793325.857,3.2086163
1426793325.873,7.4450703
1426793325.889,13.8528
1426793325.904,20.940416
1426793325.92,26.854311
1426793325.935,30.515999
1426793325.951,32.421658
1426793325.967,34.35118
1426793325.982,38.42758
1426793325.998,45.81955
1426793326.014,56.003765
1426793326.029,66.95308
1426793326.045,76.02195
1426793326.06,81.10677
1426793326.076,81.66561
1426793326.092,78.649284
1426793326.107,73.766685
1426793326.123,68.39456
1426793326.139,62.821754
1426793326.154,56.17002
1426793326.17,47.206776
1426793326.185,35.182262
1426793326.201,20.628813
1426793326.217,5.371601
1426793326.232,-8.357693
1426793326.248,-18.96269
1426793326.264,-26.224283
1426793326.279,-31.216446
1426793326.295,-35.63581
1426793326.31,-40.696106
1426793326.326,-46.427315
1426793326.342,-51.653557
1426793326.357,-54.8571
1426793326.373,-55.08115
1426793326.389,-52.650837
1426793326.404,-49.050266
1426793326.42,-46.191032
1426793326.435,-45.516983
1426793326.451,-47.06355
1426793326.467,-49.72774
1426793326.482,-51.73487
1426793326.498,-51.869534
1426793326.514,-49.934975
1426793326.529,-46.898804
1426793326.545,-44.179596
1426793326.56,-42.81479
1426793326.576,-42.75612
1426793326.592,-42.71872
1426793326.607,-41.099785
1426793326.623,-36.773796
1426793326.639,-29.903313
1426793326.654,-21.857277
1426793326.67,-14.516708
1426793326.685,-9.263023
1426793326.701,-6.1136627
1426793326.717,-3.912239
1426793326.732,-0.84970856
1426793326.748,4.275444
1426793326.764,11.368301
1426793326.779,19.095215
1426793326.795,25.61348
1426793326.81,29.68103
1426793326.826,31.45929
1426793326.842,32.65941
1426793326.857,35.40161
1426793326.873,41.298035
1426793326.889,50.379066
1426793326.904,61.077026
1426793326.92,71.01529
1426793326.935,77.98464
1426793326.951,81.103264
1426793326.967,80.84679
1426793326.982,78.50719
1426793326.998,75.15936
1426793327.014,71.04673
1426793327.029,65.36844
1426793327.045,56.920517
1426793327.06,45.11947
1426793327.076,30.501945
1426793327.092,14.85408
1426793327.107,0.31295013
1426793327.123,-11.622505
1426793327.139,-20.76828
1426793327.154,-28.089272
1426793327.17,-35.077774
1426793327.185,-42.845093
1426793327.201,-51.136658
1426793327.217,-58.72281
1426793327.232,-63.92668
1426793327.248,-65.75745
1426793327.264,-64.49896
1426793327.279,-61.620087
1426793327.295,-59.022827
1426793327.31,-58.092026
1426793327.326,-58.96422
1426793327.342,-60.44484
1426793327.357,-60.916107
1426793327.373,-59.16806
1426793327.389,-55.24417
1426793327.404,-50.36876
1426793327.42,-46.23758
1426793327.435,-44.09462
1426793327.451,-43.8873
1426793327.467,-44.311127
1426793327.482,-43.582382
1426793327.498,-40.555542
1426793327.514,-35.265717
1426793327.529,-28.945908
1426793327.545,-23.303406
1426793327.56,-19.496521
1426793327.576,-17.371872
1426793327.592,-15.599609
1426793327.607,-12.449005
1426793327.623,-6.8399353
1426793327.639,1.0024261
1426793327.654,9.661118
1426793327.67,17.240051
1426793327.685,22.314331
1426793327.701,24.827148
1426793327.717,26.109467
1426793327.732,28.121109
1426793327.748,32.407562
1426793327.764,39.389862
1426793327.779,48.10144
1426793327.795,56.907227
1426793327.81,64.20224
1426793327.826,69.27951
1426793327.842,72.40642
1426793327.857,74.32915
1426793327.873,75.53615
1426793327.889,75.668365
1426793327.904,73.64198
1426793327.92,68.20418
1426793327.935,58.675568
1426793327.951,45.62126
1426793327.967,30.784576
1426793327.982,16.387009
1426793327.998,4.133972
1426793328.014,-5.4805756
1426793328.029,-13.165421
1426793328.045,-20.332901
1426793328.06,-28.150848
1426793328.076,-36.693237
1426793328.092,-44.744965
1426793328.107,-50.582855
1426793328.123,-52.96814
1426793328.139,-51.958572
1426793328.154,-48.95854
1426793328.17,-46.03923
1426793328.186,-44.925323
1426793328.201,-46.040283
1426793328.217,-48.37401
1426793328.232,-50.111862
1426793328.248,-49.776947
1426793328.264,-46.985626
1426793328.279,-42.723953
1426793328.295,-38.674652
1426793328.31,-36.279953
1426793328.326,-35.828568
1426793328.342,-36.314972
1426793328.357,-36.050995
1426793328.373,-33.59439
1426793328.389,-28.70993
1426793328.404,-22.49945
1426793328.42,-16.74469
1426793328.436,-12.976746
1426793328.451,-11.536514
1426793328.467,-11.266602
1426793328.482,-10.269562
1426793328.498,-6.9730225
1426793328.514,-1.0468445
1426793328.529,6.370819
1426793328.545,13.317657
1426793328.561,18.09349
1426793328.576,20.207458
1426793328.592,20.685349
1426793328.607,21.38095
1426793328.623,24.02356
1426793328.639,29.216553
1426793328.654,36.309326
1426793328.67,43.902588
1426793328.686,50.64734
1426793328.701,56.15912
1426793328.717,60.966034
1426793328.732,65.93477
1426793328.748,71.362976
1426793328.764,76.480896
1426793328.779,79.45833
1426793328.795,78.40024
1426793328.811,72.14789
1426793328.826,61.083054
1426793328.842,47.037277
1426793328.857,32.436142
1426793328.873,19.278122
1426793328.889,8.302429
1426793328.904,-1.0218353
1426793328.92,-9.945374
1426793328.936,-19.488708
1426793328.951,-29.719513
1426793328.967,-39.57863
1426793328.982,-47.471634
1426793328.998,-52.14171
1426793329.014,-53.455063
1426793329.029,-52.428284
1426793329.045,-50.74298
1426793329.061,-49.89781
1426793329.076,-50.3918
1426793329.092,-51.486496
1426793329.107,-51.821213
1426793329.123,-50.222458
1426793329.139,-46.48265
1426793329.154,-41.58928
1426793329.17,-37.13376
1426793329.186,-34.513367
1426793329.201,-34.036453
1426793329.217,-34.75522
1426793329.232,-34.981216
1426793329.248,-33.319138
1426793329.264,-29.47194
1426793329.279,-24.423752
1426793329.295,-19.915283
1426793329.311,-17.445724
1426793329.326,-17.385864
1426793329.342,-18.688873
1426793329.357,-19.637894
1426793329.373,-18.653564
1426793329.389,-15.316452
1426793329.404,-10.482315
1426793329.42,-5.7177124
1426793329.436,-2.4413757
1426793329.451,-0.9619293
1426793329.467,-0.2589569
1426793329.482,1.327774
1426793329.498,5.177719
1426793329.514,11.486679
1426793329.529,19.17308
1426793329.545,26.459976
1426793329.561,31.882584
1426793329.576,35.19615
1426793329.592,37.56688
1426793329.607,40.93538
1426793329.623,46.733856
1426793329.639,55.09738
1426793329.654,64.53287
1426793329.67,72.61546
1426793329.686,77.074936
1426793329.701,76.88969
1426793329.717,72.64873
1426793329.732,65.9639
1426793329.748,58.559578
1426793329.764,51.32048
1426793329.779,44.009674
1426793329.795,35.660126
1426793329.811,25.351402
1426793329.826,13.064774
1426793329.842,0.048072815
1426793329.857,-11.903717
1426793329.873,-21.230179
1426793329.889,-27.462807
1426793329.904,-31.43264
1426793329.92,-34.730408
1426793329.936,-38.84951
1426793329.951,-44.272835
1426793329.967,-50.24138
1426793329.982,-55.186295
1426793329.998,-57.66806
1426793330.014,-57.35672
1426793330.029,-55.16536
1426793330.045,-52.840187
1426793330.061,-52.018433
1426793330.076,-53.252205
1426793330.092,-55.742134
1426793330.107,-57.846916
1426793330.123,-58.00216
1426793330.139,-55.66243
1426793330.154,-51.48352
1426793330.17,-46.907166
1426793330.186,-43.35814
1426793330.201,-41.332153
1426793330.217,-40.01317
1426793330.232,-37.93463
1426793330.248,-33.852654
1426793330.264,-27.571854
1426793330.279,-20.173546
1426793330.295,-13.355362
1426793330.311,-8.553871
1426793330.326,-6.1163406
1426793330.342,-4.9873276
1426793330.357,-3.357994
1426793330.373,0.33652496
1426793330.389,6.609497
1426793330.404,14.580315
1426793330.42,22.569038
1426793330.436,28.95697
1426793330.451,33.164207
1426793330.467,35.85858
1426793330.482,38.45498
1426793330.498,42.399227
1426793330.514,48.066257
1426793330.529,54.926655
1426793330.545,61.69069
1426793330.561,67.06191
1426793330.576,70.6211
1426793330.592,72.98236
1426793330.607,75.18243
1426793330.623,78.03229
1426793330.639,81.35324
1426793330.654,83.72478
1426793330.67,83.31409
1426793330.686,78.588806
1426793330.701,69.23312
1426793330.717,56.485382
1426793330.732,42.56548
1426793330.748,29.57991
1426793330.764,18.593033
1426793330.779,9.30677
1426793330.795,0.40760803
1426793330.811,-9.416649
1426793330.826,-20.447056
1426793330.842,-31.664745
1426793330.857,-41.134777
1426793330.873,-47.136173
1426793330.889,-49.030403
1426793330.904,-47.759716
1426793330.92,-45.248783
1426793330.936,-43.582584
1426793330.951,-43.86811
1426793330.967,-45.723587
1426793330.982,-47.86488
1426793330.998,-48.68873
1426793331.014,-47.47706
1426793331.029,-44.62054
1426793331.045,-41.410675
1426793331.061,-39.254143
1426793331.076,-38.77761
1426793331.092,-39.32071
1426793331.108,-39.364643
1426793331.123,-37.452427
1426793331.139,-32.975624
1426793331.154,-26.73357
1426793331.17,-20.37663
1426793331.186,-15.655819
1426793331.201,-13.299719
1426793331.217,-12.715315
1426793331.233,-12.249096
1426793331.248,-10.294912
1426793331.264,-6.2962246
1426793331.279,-0.98101616
1426793331.295,3.9881382
1426793331.311,7.07425
1426793331.326,7.7410755
1426793331.342,7.020649
1426793331.358,6.772191
1426793331.373,8.741999
1426793331.389,13.556179
1426793331.404,20.288534
1426793331.42,27.154202
1426793331.436,32.277313
1426793331.451,34.96421
1426793331.467,36.0027
1426793331.483,37.265587
1426793331.498,40.586884
1426793331.514,46.749245
1426793331.529,54.941765
1426793331.545,63.139442
1426793331.561,69.12765
1426793331.576,71.43117
1426793331.592,70.10249
1426793331.608,66.33967
1426793331.623,61.584595
1426793331.639,56.62085
1426793331.654,51.09288
1426793331.67,43.869648
1426793331.686,33.83032
1426793331.701,20.843712
1426793331.717,6.10723
1426793331.733,-8.292154
1426793331.748,-20.315403
1426793331.764,-29.089287
1426793331.779,-35.043724
1426793331.795,-39.686928
1426793331.811,-44.50842
1426793331.826,-50.0547
1426793331.842,-55.470028
1426793331.858,-59.065514
1426793331.873,-59.35334
1426793331.889,-55.931892
1426793331.904,-50.067574
1426793331.92,-43.878136
1426793331.936,-39.513687
1426793331.951,-37.932774
1426793331.967,-38.49473
1426793331.983,-39.46425
1426793331.998,-39.106804
1426793332.014,-36.641014
1426793332.029,-32.694153
1426793332.045,-28.817827
1426793332.061,-26.521147
1426793332.076,-26.379059
1426793332.092,-27.56826
1426793332.108,-28.401405
1426793332.123,-27.256554
1426793332.139,-23.604782
1426793332.154,-18.239372
1426793332.17,-12.891819
1426793332.186,-9.210247
1426793332.201,-7.7864876
1426793332.217,-7.8517113
1426793332.233,-7.619522
1426793332.248,-5.3505096
1426793332.264,-0.34449768
1426793332.279,6.6731644
1426793332.295,14.0440445
1426793332.311,19.969051
1426793332.326,23.548729
1426793332.342,25.205708
1426793332.358,26.355854
1426793332.373,28.464584
1426793332.389,32.274403
1426793332.404,37.42722
1426793332.42,42.818726
1426793332.436,47.38143
1426793332.451,50.705215
1426793332.467,53.38623
1426793332.483,56.52494
1426793332.498,60.944016
1426793332.514,66.39173
1426793332.529,71.46015
1426793332.545,74.01943
1426793332.561,72.1484
1426793332.576,65.18172
1426793332.592,54.08116
1426793332.608,41.08786
1426793332.623,28.566574
1426793332.639,18.025696
1426793332.654,9.465324
1426793332.67,1.7732468
1426793332.686,-6.587227
1426793332.701,-16.236275
1426793332.717,-26.467003
1426793332.733,-35.482483
1426793332.748,-41.43802
1426793332.764,-43.531303
1426793332.779,-42.359062
1426793332.795,-39.762268
1426793332.811,-37.717926
1426793332.826,-37.39279
1426793332.842,-38.478622
1426793332.858,-39.6099
1426793332.873,-39.220184
1426793332.889,-36.56479
1426793332.904,-32.106247
1426793332.92,-27.276093
1426793332.936,-23.734161
1426793332.951,-22.332886
1426793332.967,-22.682693
1426793332.983,-23.322495
1426793332.998,-22.577446
1426793333.014,-19.55774
1426793333.029,-14.644936
1426793333.045,-9.315201
1426793333.061,-5.440605
1426793333.076,-4.1221237
1426793333.092,-5.1368713
1426793333.108,-6.9486847
1426793333.123,-7.707405
1426793333.139,-6.1948624
1426793333.154,-2.6147308
1426793333.17,1.6621704
1426793333.186,4.9003525
1426793333.201,6.067337
1426793333.217,5.5284195
1426793333.233,4.7912216
1426793333.248,5.61911
1426793333.264,8.865646
1426793333.279,14.152031
1426793333.295,20.062744
1426793333.311,25.097229
1426793333.326,28.591507
1426793333.342,31.21537
1426793333.358,34.507225
1426793333.373,39.899536
1426793333.389,47.701324
1426793333.404,56.594505
1426793333.42,64.28515
1426793333.436,68.32807
1426793333.451,67.41084
1426793333.467,61.900887
1426793333.483,53.59291
1426793333.498,44.618073
1426793333.514,36.417297
1426793333.529,29.099174
1426793333.545,21.633888
1426793333.561,12.790474
1426793333.576,2.08313
1426793333.592,-9.6835785
1426793333.608,-20.649277
1426793333.623,-28.952446
1426793333.639,-33.729073
1426793333.654,-35.511154
1426793333.67,-35.911423
1426793333.686,-36.742622
1426793333.701,-38.93315
1426793333.717,-42.095665
1426793333.733,-44.792137
1426793333.748,-45.479813
1426793333.764,-43.50689
1426793333.78,-39.509026
1426793333.795,-35.10858
1426793333.811,-32.005035
1426793333.826,-31.076927
1426793333.842,-31.857727
1426793333.858,-32.827316
1426793333.873,-32.38565
1426793333.889,-29.723259
1426793333.905,-25.379532
1426793333.92,-20.783287
1426793333.936,-17.601173
1426793333.951,-16.632591
1426793333.967,-17.385635
1426793333.983,-18.262085
1426793333.998,-17.53331
1426793334.014,-14.32943
1426793334.03,-9.045792
1426793334.045,-3.1614227
1426793334.061,1.6613846
1426793334.076,4.4982605
1426793334.092,5.7485657
1426793334.108,6.805916
1426793334.123,9.168877
1426793334.139,13.514107
1426793334.155,19.201935
1426793334.17,24.7379
1426793334.186,28.504303
1426793334.201,29.869522
1426793334.217,29.558258
1426793334.233,29.493835
1426793334.248,31.655334
1426793334.264,37.10858
1426793334.28,45.502106
1426793334.295,55.07115
1426793334.311,63.617218
1426793334.326,69.3985
1426793334.342,71.95314
1426793334.358,71.95218
1426793334.373,70.58809
1426793334.389,68.587555
1426793334.405,65.69087
1426793334.42,60.886627
1426793334.436,52.92885
1426793334.451,41.497894
1426793334.467,27.528244
1426793334.483,13.14566
1426793334.498,0.55314636
1426793334.514,-8.9014435
1426793334.53,-15.33844
1426793334.545,-20.106903
1426793334.561,-24.961449
1426793334.576,-31.02253
1426793334.592,-37.987274
1426793334.608,-44.43428
1426793334.623,-48.565147
1426793334.639,-49.39508
1426793334.655,-47.219986
1426793334.67,-43.547516
1426793334.686,-40.31241
1426793334.701,-38.810265
1426793334.717,-39.175926
1426793334.733,-40.212227
1426793334.748,-40.473984
1426793334.764,-38.99434
1426793334.78,-35.98474
1426793334.795,-32.77523
1426793334.811,-31.05265
1426793334.826,-31.834503
1426793334.842,-34.747604
1426793334.858,-38.212433
1426793334.873,-40.059105
1426793334.889,-38.951233
1426793334.905,-34.881943
1426793334.92,-29.181961
1426793334.936,-23.80201
1426793334.951,-20.160187
1426793334.967,-18.342216
1426793334.983,-17.114174
1426793334.998,-14.873039
1426793335.014,-10.509384
1426793335.03,-4.2408295
1426793335.045,2.6388626
1426793335.061,8.449043
1426793335.076,12.016983
1426793335.092,13.511261
1426793335.108,14.236221
1426793335.123,15.909988
1426793335.139,19.593826
1426793335.155,25.256287
1426793335.17,31.784576
1426793335.186,37.683853
1426793335.201,42.046936
1426793335.217,45.034912
1426793335.233,47.998108
1426793335.248,52.341476
1426793335.264,58.66925
1426793335.28,66.163895
1426793335.295,72.79932
1426793335.311,76.14703
1426793335.326,74.58655
1426793335.342,68.198944
1426793335.358,58.503357
1426793335.373,47.842712
1426793335.389,37.903748
1426793335.405,29.047043
1426793335.42,20.426147
1426793335.436,10.768036
1426793335.451,-0.6324463
1426793335.467,-13.098236
1426793335.483,-24.703522
1426793335.498,-33.42447
1426793335.514,-38.047928
1426793335.53,-38.94142
1426793335.545,-37.817734
1426793335.561,-36.765472
1426793335.576,-37.262802
1426793335.592,-39.38495
1426793335.608,-41.891266
1426793335.623,-43.150604
1426793335.639,-42.187607
1426793335.655,-39.20147
1426793335.67,-35.53837
1426793335.686,-32.861656
1426793335.701,-32.116104
1426793335.717,-33.03424
1426793335.733,-34.124207
1426793335.748,-33.706635
1426793335.764,-30.857864
1426793335.78,-26.08886
1426793335.795,-20.987747
1426793335.811,-17.35495
1426793335.826,-16.253433
1426793335.842,-17.278336
1426793335.858,-18.904877
1426793335.873,-19.36229
1426793335.889,-17.566772
1426793335.905,-13.723907
1426793335.92,-9.135254
1426793335.936,-5.3165894
1426793335.951,-3.2500153
1426793335.967,-2.7979736
1426793335.983,-2.688324
1426793335.998,-1.4148865
1426793336.014,1.9606018
1426793336.03,7.332596
1426793336.045,13.512344
1426793336.061,18.899261
1426793336.076,22.34581
1426793336.092,23.863876
1426793336.108,24.67192
1426793336.123,26.48584
1426793336.139,30.55278
1426793336.155,36.98976
1426793336.17,44.748596
1426793336.186,52.13733
1426793336.201,57.77539
1426793336.217,61.25284
1426793336.233,63.242004
1426793336.248,64.78502
1426793336.264,66.497406
1426793336.28,67.934006
1426793336.295,67.69058
1426793336.311,64.1613
1426793336.326,56.369843
1426793336.342,44.754257
1426793336.358,31.17897
1426793336.373,17.985458
1426793336.389,6.9768677
1426793336.405,-1.296051
1426793336.42,-7.7069855
1426793336.436,-13.834686
1426793336.452,-20.883667
1426793336.467,-28.94786
1426793336.483,-36.857895
1426793336.498,-42.85711
1426793336.514,-45.732338
1426793336.53,-45.51818
1426793336.545,-43.4824
1426793336.561,-41.543655
1426793336.576,-41.194855
1426793336.592,-42.68879
1426793336.608,-44.89901
1426793336.623,-46.08645
1426793336.639,-44.903893
1426793336.655,-41.264595
1426793336.67,-36.371773
1426793336.686,-32.063423
1426793336.702,-29.795822
1426793336.717,-29.786156
1426793336.733,-30.877533
1426793336.748,-31.282341
1426793336.764,-29.642769
1426793336.78,-25.827759
1426793336.795,-21.026283
1426793336.811,-17.068474
1426793336.827,-15.348366
1426793336.842,-15.9520645
1426793336.858,-17.5346
1426793336.873,-18.216187
1426793336.889,-16.546669
1426793336.905,-12.471626
1426793336.92,-7.177681
1426793336.936,-2.5004501
1426793336.952,0.18263245
1426793336.967,0.84423065
1426793336.983,0.78603363
1426793336.998,1.851387
1426793337.014,5.3165894
1426793337.03,11.176407
1426793337.045,18.188255
1426793337.061,24.604965
1426793337.077,29.107277
1426793337.092,31.6753
1426793337.108,33.594505
1426793337.123,36.7417
1426793337.139,42.51641
1426793337.155,50.96634
1426793337.17,60.689095
1426793337.186,69.44386
1426793337.202,75.09951
1426793337.217,76.6583
1426793337.233,74.508644
1426793337.248,70.01747
1426793337.264,64.5252
1426793337.28,58.605186
1426793337.295,51.886024
1426793337.311,43.413727
1426793337.327,32.49164
1426793337.342,19.48626
1426793337.358,5.978676
1426793337.373,-6.000366
1426793337.389,-14.770729
1426793337.405,-19.962029
1426793337.42,-22.52517
1426793337.436,-24.244339
1426793337.452,-26.824501
1426793337.467,-30.843254
1426793337.483,-35.575333
1426793337.498,-39.459763
1426793337.514,-41.10872
1426793337.53,-40.19948
1426793337.545,-37.753464
1426793337.561,-35.551178
1426793337.577,-35.223663
1426793337.592,-37.26172
1426793337.608,-40.636803
1426793337.623,-43.449257
1426793337.639,-43.973618
1426793337.655,-41.716476
1426793337.67,-37.610466
1426793337.686,-33.5562
1426793337.702,-31.248756
1426793337.717,-31.186882
1426793337.733,-32.43656
1426793337.748,-33.19838
1426793337.764,-31.908035
1426793337.78,-28.176315
1426793337.795,-22.959778
1426793337.811,-18.027565
1426793337.827,-14.900734
1426793337.842,-13.946312
1426793337.858,-14.099617
1426793337.873,-13.521294
1426793337.889,-10.541702
1426793337.905,-4.6883087
1426793337.92,3.143135
1426793337.936,11.097092
1426793337.952,17.303513
1426793337.967,20.929947
1426793337.983,22.518341
1426793337.998,23.57109
1426793338.014,25.658546
1426793338.03,29.54078
1426793338.045,34.872543
1426793338.061,40.543
1426793338.077,45.467102
1426793338.092,49.354996
1426793338.108,52.849518
1426793338.123,57.031746
1426793338.139,62.498604
1426793338.155,68.685196
1426793338.17,73.98624
1426793338.186,76.35046
1426793338.202,74.242744
1426793338.217,67.48252
1426793338.233,57.44452
1426793338.248,46.24137
1426793338.264,35.763847
1426793338.28,26.772446
1426793338.295,18.772171
1426793338.311,10.504852
1426793338.327,0.8930435
1426793338.342,-10.071877
1426793338.358,-21.097267
1426793338.373,-30.23835
1426793338.389,-35.864113
1426793338.405,-37.631134
1426793338.42,-36.606506
1426793338.436,-34.767105
1426793338.452,-34.017868
1426793338.467,-35.198387
1426793338.483,-37.727013
1426793338.498,-40.124565
1426793338.514,-40.93344
1426793338.53,-39.731255
1426793338.545,-37.303474
1426793338.561,-35.258743
1426793338.577,-35.122498
1426793338.592,-37.33586
1426793338.608,-40.918396
1426793338.623,-43.91153
1426793338.639,-44.422516
1426793338.655,-41.671577
1426793338.67,-36.40416
1426793338.686,-30.410896
1426793338.702,-25.637268
1426793338.717,-23.028786
1426793338.733,-22.104485
1426793338.748,-21.305588
1426793338.764,-18.99215
1426793338.78,-14.518089
1426793338.795,-8.4874115
1426793338.811,-2.4959412
1426793338.827,1.8435822
1426793338.842,3.8800888
1426793338.858,4.334709
1426793338.873,4.82222
1426793338.889,7.000759
1426793338.905,11.548706
1426793338.92,17.909943
1426793338.936,24.605747
1426793338.952,30.187119
1426793338.967,34.116814
1426793338.983,37.22797
1426793338.998,41.130856
1426793339.014,47.242546
1426793339.03,55.720604
1426793339.045,65.08621
1426793339.061,72.8199
1426793339.077,76.366905
1426793339.092,74.47181
1426793339.108,67.709915
1426793339.124,58.110554
1426793339.139,48.018623
1426793339.155,38.885147
1426793339.17,30.758781
1426793339.186,22.598286
1426793339.202,13.116104
1426793339.217,1.8464508
1426793339.233,-10.351246
1426793339.248,-21.710209
1426793339.264,-30.426952
1426793339.28,-35.66932
1426793339.295,-37.987206
1426793339.311,-38.988316
1426793339.327,-40.52064
1426793339.342,-43.672794
1426793339.358,-48.136967
1426793339.374,-52.529034
1426793339.389,-55.164337
1426793339.405,-55.12761
1426793339.42,-52.746513
1426793339.436,-49.45632
1426793339.452,-46.950386
1426793339.467,-46.231785
1426793339.483,-46.973885
1426793339.499,-47.762386
1426793339.514,-46.973347
1426793339.53,-43.737705
1426793339.545,-38.53654
1426793339.561,-32.792217
1426793339.577,-28.174149
1426793339.592,-25.568409
1426793339.608,-24.51632
1426793339.624,-23.657623
1426793339.639,-21.52671
1426793339.655,-17.450638
1426793339.67,-11.951027
1426793339.686,-6.335682
1426793339.702,-1.9324455
1426793339.717,0.7760391
1426793339.733,2.4150162
1426793339.749,4.442734
1426793339.764,8.189175
1426793339.78,14.119019
1426793339.795,21.543049
1426793339.811,28.978165
1426793339.827,34.96549
1426793339.842,38.943127
1426793339.858,41.670853
1426793339.874,44.84699
1426793339.889,50.159073
1426793339.905,58.275406
1426793339.92,68.389084
1426793339.936,78.42833
1426793339.952,85.94338
1426793339.967,89.22507
1426793339.983,88.03206
1426793339.999,83.45056
1426793340.014,77.15842
1426793340.03,70.38702
1426793340.045,63.31696
1426793340.061,55.199562
1426793340.077,45.03487
1426793340.092,32.366
1426793340.108,18.039963
1426793340.124,3.7692757
1426793340.139,-8.5597
1426793340.155,-17.860392
1426793340.17,-24.369171
1426793340.186,-29.318565
1426793340.202,-34.258003
1426793340.217,-39.992874
1426793340.233,-46.022198
1426793340.249,-50.899673
1426793340.264,-53.14185
1426793340.28,-52.16083
1426793340.295,-48.724644
1426793340.311,-44.619846
1426793340.327,-41.75078
1426793340.342,-41.086014
1426793340.358,-42.096657
1426793340.374,-43.117897
1426793340.389,-42.379494
1426793340.405,-39.140377
1426793340.42,-34.0337
1426793340.436,-28.820404
1426793340.452,-25.365208
1426793340.467,-24.628801
1426793340.483,-26.031918
1426793340.499,-27.93635
1426793340.514,-28.495413
1426793340.53,-26.74962
1426793340.545,-23.062164
1426793340.561,-18.778576
1426793340.577,-15.414791
1426793340.592,-13.755644
1426793340.608,-13.262083
1426793340.624,-12.392921
1426793340.639,-9.520895
1426793340.655,-3.857393
1426793340.67,4.0973425
1426793340.686,12.866087
1426793340.702,20.73707
1426793340.717,26.713867
1426793340.733,31.166145
1426793340.749,35.565525
1426793340.764,41.664413
1426793340.78,50.528606
1426793340.795,61.973667
1426793340.811,74.56916
1426793340.827,86.35432
1426793340.842,95.68468
1426793340.858,101.84488
1426793340.874,105.15211
1426793340.889,106.34884
1426793340.905,105.8084
1426793340.92,103.28277
1426793340.936,97.880295
1426793340.952,88.662155
1426793340.967,75.38075
1426793340.983,59.108692
1426793340.999,41.78466
1426793341.014,25.619465
1426793341.03,12.052174
1426793341.045,1.2316856
1426793341.061,-7.801155
1426793341.077,-16.384926
1426793341.092,-25.350403
1426793341.108,-34.343727
1426793341.124,-41.984337
1426793341.139,-46.745758
1426793341.155,-47.872887
1426793341.17,-46.02726
1426793341.186,-43.06073
1426793341.202,-41.14103
1426793341.217,-41.712074
1426793341.233,-44.730614
1426793341.249,-48.803543
1426793341.264,-52.02813
1426793341.28,-53.157944
1426793341.295,-52.09204
1426793341.311,-49.95395
1426793341.327,-48.303406
1426793341.342,-48.16514
1426793341.358,-49.38408
1426793341.374,-50.69992
1426793341.389,-50.527855
1426793341.405,-47.990135
1426793341.42,-43.358597
1426793341.436,-37.90377
1426793341.452,-33.113495
1426793341.467,-29.92292
1426793341.483,-27.978546
1426793341.499,-26.042053
1426793341.514,-22.786179
1426793341.53,-17.61058
1426793341.545,-11.186356
1426793341.561,-5.056549
1426793341.577,-0.8240204
1426793341.592,0.7438202
1426793341.608,0.26913452
1426793341.624,-0.5100708
1426793341.639,0.26519775
1426793341.655,3.7027283
1426793341.67,9.625992
1426793341.686,16.701904
1426793341.702,23.251724
1426793341.717,28.264206
1426793341.733,32.00389
1426793341.749,35.84903
1426793341.764,41.45938
1426793341.78,49.6167
1426793341.795,59.677063
1426793341.811,69.64708
1426793341.827,76.97414
1426793341.842,79.778
1426793341.858,77.68671
1426793341.874,71.88194
1426793341.889,64.24625
1426793341.905,56.333435
1426793341.92,48.590485
1426793341.936,40.295334
1426793341.952,30.210098
1426793341.967,17.589462
1426793341.983,2.8960724
1426793341.999,-12.129684
1426793342.014,-25.326248
1426793342.03,-35.14334
1426793342.046,-41.25615
1426793342.061,-44.630386
1426793342.077,-46.819855
1426793342.092,-49.09755
1426793342.108,-51.687347
1426793342.124,-53.83661
1426793342.139,-54.34494
1426793342.155,-52.520767
1426793342.171,-48.72032
1426793342.186,-44.31476
1426793342.202,-41.098907
1426793342.217,-40.358307
1426793342.233,-42.1931
1426793342.249,-45.400024
1426793342.264,-48.187057
1426793342.28,-49.200775
1426793342.296,-48.16829
1426793342.311,-45.927536
1426793342.327,-43.871338
1426793342.342,-43.060547
1426793342.358,-43.39711
1426793342.374,-43.662155
1426793342.389,-42.266815
1426793342.405,-38.231567
1426793342.421,-31.846283
1426793342.436,-24.557327
1426793342.452,-18.211975
1426793342.467,-14.044815
1426793342.483,-11.977432
1426793342.499,-10.733032
1426793342.514,-8.556839
1426793342.53,-4.311554
1426793342.546,1.9815674
1426793342.561,9.14003
1426793342.577,15.501297
1426793342.592,19.86206
1426793342.608,22.335175
1426793342.624,24.251694
1426793342.639,27.436829
1426793342.655,33.267593
1426793342.671,41.860214
1426793342.686,51.960968
1426793342.702,61.43808
1426793342.717,68.26848
1426793342.733,71.427475
1426793342.749,71.099014
1426793342.764,68.31526
1426793342.78,64.08104
1426793342.796,58.719147
1426793342.811,51.8172
1426793342.827,42.608704
1426793342.842,30.641632
1426793342.858,16.539413
1426793342.874,1.911438
1426793342.889,-11.275589
1426793342.905,-21.56189
1426793342.921,-28.62259
1426793342.936,-33.34453
1426793342.952,-37.17627
1426793342.967,-41.342957
1426793342.983,-46.00467
1426793342.999,-50.2274
1426793343.014,-52.580994
1426793343.03,-52.080994
1426793343.046,-48.916626
1426793343.061,-44.42038
1426793343.077,-40.55867
1426793343.092,-38.884888
1426793343.108,-39.733795
1426793343.124,-42.028107
1426793343.139,-43.984604
1426793343.155,-44.180603
1426793343.171,-42.208435
1426793343.186,-38.971832
1426793343.202,-36.053207
1426793343.217,-34.843857
1426793343.233,-35.55165
1426793343.249,-37.12451
1426793343.264,-37.824783
1426793343.28,-36.20761
1426793343.296,-32.00818
1426793343.311,-26.194778
1426793343.327,-20.519592
1426793343.342,-16.593506
1426793343.358,-14.8452
1426793343.374,-14.354797
1426793343.389,-13.382263
1426793343.405,-10.380829
1426793343.421,-4.868881
1426793343.436,2.215088
1426793343.452,9.171188
1426793343.467,14.350906
1426793343.483,17.24681
1426793343.499,18.770126
1426793343.514,20.699478
1426793343.53,24.722748
1426793343.546,31.384827
1426793343.561,40.084564
1426793343.577,49.2545
1426793343.592,57.413025
1426793343.608,63.925964
1426793343.624,69.16989
1426793343.639,73.988525
1426793343.655,78.78523
1426793343.671,83.039856
1426793343.686,85.20262
1426793343.702,83.535
1426793343.717,76.771454
1426793343.733,65.14592
1426793343.749,50.380188
1426793343.764,34.875732
1426793343.78,20.771606
1426793343.796,9.025772
1426793343.811,-0.79537964
1426793343.827,-9.960495
1426793343.842,-19.733673
1426793343.858,-30.398087
1426793343.874,-40.954865
1426793343.889,-49.62018
1426793343.905,-54.810593
1426793343.921,-56.137848
1426793343.936,-54.63298
1426793343.952,-52.27101
1426793343.967,-50.95636
1426793343.983,-51.508316
1426793343.999,-53.34758
1426793344.014,-54.958984
1426793344.03,-54.80493
1426793344.046,-52.41391
1426793344.061,-48.588287
1426793344.077,-44.931183
1426793344.092,-42.96414
1426793344.108,-43.014175
1426793344.124,-44.039352
1426793344.139,-44.20424
1426793344.155,-42.034225
1426793344.171,-37.182877
1426793344.186,-30.828293
1426793344.202,-24.945145
1426793344.217,-21.282501
1426793344.233,-20.403564
1426793344.249,-21.311447
1426793344.264,-22.11
1426793344.28,-21.068253
1426793344.296,-17.69571
1426793344.311,-12.820755
1426793344.327,-8.141113
1426793344.342,-5.188675
1426793344.358,-4.3386536
1426793344.374,-4.585144
1426793344.389,-4.1728516
1426793344.405,-1.5424805
1426793344.421,3.7004242
1426793344.436,10.50415
1426793344.452,17.061478
1426793344.467,21.63681
1426793344.483,23.703049
1426793344.499,24.211563
1426793344.514,25.026855
1426793344.53,27.94719
1426793344.546,33.677094
1426793344.561,41.571335
1426793344.577,49.917526
1426793344.592,56.895264
1426793344.608,61.498962
1426793344.624,63.841293
1426793344.639,64.87752
1426793344.655,65.43205
1426793344.671,65.6044
1426793344.686,64.501076
1426793344.702,60.715065
1426793344.718,53.11895
1426793344.733,41.79928
1426793344.749,28.241425
1426793344.764,14.68251
1426793344.78,3.2245483
1426793344.796,-5.301918
1426793344.811,-11.563255
1426793344.827,-17.137825
1426793344.843,-23.637741
1426793344.858,-31.593391
1426793344.874,-40.038475
1426793344.889,-47.160355
1426793344.905,-51.3468
1426793344.921,-52.084442
1426793344.936,-50.41899
1426793344.952,-48.17621
1426793344.968,-47.119377
1426793344.983,-47.912125
1426793344.999,-49.823975
1426793345.014,-51.30323
1426793345.03,-50.977333
1426793345.046,-48.4674
1426793345.061,-44.49671
1426793345.077,-40.605225
1426793345.093,-38.268913
1426793345.108,-37.946915
1426793345.124,-38.967213
1426793345.139,-39.80478
1426793345.155,-39.025795
1426793345.171,-36.0229
1426793345.186,-31.396938
1426793345.202,-26.51432
1426793345.218,-22.824436
1426793345.233,-20.970829
1426793345.249,-20.332397
1426793345.264,-19.52653
1426793345.28,-17.141504
1426793345.296,-12.6179905
1426793345.311,-6.644993
1426793345.327,-0.7912884
1426793345.343,3.3462877
1426793345.358,5.1197753
1426793345.374,5.239648
1426793345.389,5.455729
1426793345.405,7.456462
1426793345.421,12.007399
1426793345.436,18.389309
1426793345.452,24.884516
1426793345.468,29.664206
1426793345.483,31.987705
1426793345.499,32.666176
1426793345.514,33.669777
1426793345.53,37.111847
1426793345.546,43.90654
1426793345.561,53.408974
1426793345.577,63.610733
1426793345.593,72.11392
1426793345.608,77.39219
1426793345.624,79.33359
1426793345.639,79.00789
1426793345.655,77.737045
1426793345.671,76.25182
1426793345.686,74.06575
1426793345.702,69.919655
1426793345.718,62.437782
1426793345.733,51.274742
1426793345.749,37.524986
1426793345.764,23.34742
1426793345.78,10.978455
1426793345.796,1.5903549
1426793345.811,-5.036682
1426793345.827,-10.295273
1426793345.843,-15.768951
1426793345.858,-22.203064
1426793345.874,-28.92685
1426793345.889,-34.282944
1426793345.905,-36.753395
1426793345.921,-35.932426
1426793345.936,-32.978302
1426793345.952,-30.018051
1426793345.968,-29.205307
1426793345.983,-31.457474
1426793345.999,-36.02073
1426793346.014,-41.059555
1426793346.03,-44.52356
1426793346.046,-45.472862
1426793346.061,-44.286255
1426793346.077,-42.343056
1426793346.093,-41.14393
1426793346.108,-41.42324
1426793346.124,-42.66217
1426793346.139,-43.453453
1426793346.155,-42.46148
1426793346.171,-39.08229
1426793346.186,-33.845673
1426793346.202,-27.985855
1426793346.218,-22.849548
1426793346.233,-19.012878
1426793346.249,-16.026627
1426793346.264,-12.709457
1426793346.28,-7.8486176
1426793346.296,-1.1454773
1426793346.311,6.6606445
1426793346.327,13.992325
1426793346.343,19.398346
1426793346.358,22.384018
1426793346.374,23.853287
1426793346.389,25.70459
1426793346.405,29.807999
1426793346.421,36.952484
1426793346.436,46.321625
1426793346.452,55.966507
1426793346.468,63.750366
1426793346.483,68.47534
1426793346.499,70.586365
1426793346.514,71.709625
1426793346.53,73.56944
1426793346.546,76.91904
1426793346.561,80.99289
1426793346.577,83.89011
1426793346.593,83.562195
1426793346.608,78.957016
1426793346.624,70.63959
1426793346.639,60.448425
1426793346.655,50.532227
1426793346.671,42.15097
1426793346.686,35.152664
1426793346.702,28.243011
1426793346.718,19.879517
1426793346.733,9.331741
1426793346.749,-2.6543732
1426793346.764,-14.23024
1426793346.78,-23.29216
1426793346.796,-28.667038
1426793346.811,-30.60048
1426793346.827,-30.682571
1426793346.843,-30.844757
1426793346.858,-32.429962
1426793346.874,-35.349487
1426793346.889,-38.29152
1426793346.905,-39.66913
1426793346.921,-38.581116
1426793346.936,-35.517822
1426793346.952,-32.05237
1426793346.968,-30.049332
1426793346.983,-30.518631
1426793346.999,-33.01068
1426793347.014,-35.756195
1426793347.03,-36.723724
1426793347.046,-34.81433
1426793347.061,-30.42984
1426793347.077,-25.2229
1426793347.093,-21.260605
1426793347.108,-19.774612
1426793347.124,-20.43628
1426793347.139,-21.662827
1426793347.155,-21.495026
1426793347.171,-18.739761
1426793347.186,-13.581314
1426793347.202,-7.5085297
1426793347.218,-2.2773895
1426793347.233,0.97062683
1426793347.249,2.5167236
1426793347.264,3.8075256
1426793347.28,6.504181
1426793347.296,11.431198
1426793347.311,18.158005
1426793347.327,25.21695
1426793347.343,30.974792
1426793347.358,34.682465
1426793347.374,36.87877
1426793347.39,39.10675
1426793347.405,42.800125
1426793347.421,48.265152
1426793347.436,54.282974
1426793347.452,58.568893
1426793347.468,58.776398
1426793347.483,53.755142
1426793347.499,44.1929
1426793347.514,32.276566
1426793347.53,20.544556
1426793347.546,10.58902
1426793347.561,2.5401917
1426793347.577,-4.6772003
1426793347.593,-12.427353
1426793347.608,-21.285019
1426793347.624,-30.35463
1426793347.64,-37.686203
1426793347.655,-41.381393
1426793347.671,-40.79901
1426793347.686,-36.92935
1426793347.702,-32.0177
1426793347.718,-28.391312
1426793347.733,-27.36145
1426793347.749,-28.622452
1426793347.765,-30.50972
1426793347.78,-31.146423
1426793347.796,-29.47145
1426793347.811,-25.87236
1426793347.827,-21.812134
1426793347.843,-19.06195
1426793347.858,-18.609024
1426793347.874,-20.056274
1426793347.89,-21.87294
1426793347.905,-22.284546
1426793347.921,-20.330551
1426793347.936,-16.392075
1426793347.952,-11.949783
1426793347.968,-8.725922
1426793347.983,-7.7263947
1426793347.999,-8.488571
1426793348.015,-9.415726
1426793348.03,-8.63002
1426793348.046,-5.1592865
1426793348.061,0.50531006
1426793348.077,6.634323
1426793348.093,11.234528
1426793348.108,13.027771
1426793348.124,12.217102
1426793348.14,10.308136
1426793348.155,9.187164
1426793348.171,10.12796
1426793348.186,13.097015
1426793348.202,16.962463
1426793348.218,20.101715
1426793348.233,21.555115
1426793348.249,21.614105
1426793348.265,21.574066
1426793348.28,23.083069
1426793348.296,26.975342
1426793348.311,32.92874
1426793348.327,39.616333
1426793348.343,45.48877
1426793348.358,49.7034
1426793348.374,52.729248
1426793348.39,55.910645
1426793348.405,60.501953
1426793348.421,66.729706
1426793348.436,73.387665
1426793348.452,78.21857
1426793348.468,79.0238
1426793348.483,74.68234
1426793348.499,65.84515
1426793348.515,54.546783
1426793348.53,43.12491
1426793348.546,33.136017
1426793348.561,24.804443
1426793348.577,17.137604
1426793348.593,8.732086
1426793348.608,-1.1552734
1426793348.624,-12.05249
1426793348.64,-22.41246
1426793348.655,-30.414291
1426793348.671,-35.0587
1426793348.686,-36.632477
1426793348.702,-36.544724
1426793348.718,-36.608658
1426793348.733,-38.056
1426793348.749,-40.7576
1426793348.765,-43.48198
1426793348.78,-44.65387
1426793348.796,-43.333405
1426793348.811,-39.8916
1426793348.827,-35.789383
1426793348.843,-32.795654
1426793348.858,-31.997284
1426793348.874,-33.09323
1426793348.89,-34.507065
1426793348.905,-34.377457
1426793348.921,-31.550278
1426793348.936,-26.220627
1426793348.952,-19.866516
1426793348.968,-14.464172
1426793348.983,-11.393387
1426793348.999,-10.643677
1426793349.015,-10.977936
1426793349.03,-10.587555
1426793349.046,-8.259811
1426793349.061,-4.0373535
1426793349.077,0.91238403
1426793349.093,4.8551025
1426793349.108,6.5015717
1426793349.124,5.9332123
1426793349.14,4.4464264
1426793349.155,3.8860474
1426793349.171,5.6204834
1426793349.186,9.766296
1426793349.202,15.2508545
1426793349.218,20.436996
1426793349.233,24.000107
1426793349.249,25.721115
1426793349.265,26.447388
1426793349.28,27.248947
1426793349.296,28.680527
1426793349.311,30.203613
1426793349.327,30.311264
1426793349.343,27.33406
1426793349.358,20.456161
1426793349.374,10.365524
1426793349.39,-0.8863983
1426793349.405,-10.791565
1426793349.421,-17.492188
1426793349.436,-20.531036
1426793349.452,-20.84523
1426793349.468,-20.265
1426793349.483,-20.40149
1426793349.499,-21.792038
1426793349.515,-23.79776
1426793349.53,-25.177048
1426793349.546,-24.966324
1426793349.561,-23.233154
1426793349.577,-21.054214
1426793349.593,-19.899963
1426793349.608,-20.830872
1426793349.624,-23.605453
1426793349.64,-26.859573
1426793349.655,-28.79567
1426793349.671,-28.23851
1426793349.686,-25.295486
1426793349.702,-21.35376
1426793349.718,-18.289505
1426793349.733,-17.37117
1426793349.749,-18.563278
1426793349.765,-20.440048
1426793349.78,-21.1474
1426793349.796,-19.45987
1426793349.811,-15.52916
1426793349.827,-10.688446
1426793349.843,-6.766098
1426793349.858,-5.0964203
1426793349.874,-5.618454
1426793349.89,-7.025589
1426793349.905,-7.569412
1426793349.921,-6.0901337
1426793349.936,-2.7075653
1426793349.952,1.309021
1426793349.968,4.2869263
1426793349.983,5.162552
1426793349.999,4.1755066
1426793350.015,2.8445435
1426793350.03,3.0608368
1426793350.046,6.046814
1426793350.062,11.74588
1426793350.077,18.760437
1426793350.093,25.21376
1426793350.108,29.621216
1426793350.124,31.822739
1426793350.14,32.959442
1426793350.155,34.8188
1426793350.171,38.755142
1426793350.186,44.970474
1426793350.202,52.57065
1426793350.218,59.886353
1426793350.233,65.665436
1426793350.249,69.63611
1426793350.265,72.63933
1426793350.28,75.814865
1426793350.296,79.773926
1426793350.312,83.80592
1426793350.327,86.15509
1426793350.343,84.850815
1426793350.358,78.59059
1426793350.374,67.780426
1426793350.39,54.292007
1426793350.405,40.548843
1426793350.421,28.355728
1426793350.437,18.201477
1426793350.452,9.322067
1426793350.468,0.37794495
1426793350.483,-9.47258
1426793350.499,-19.985962
1426793350.515,-29.7753
1426793350.53,-37.083817
1426793350.546,-40.78096
1426793350.562,-40.98224
1426793350.577,-39.01355
1426793350.593,-36.787796
1426793350.608,-35.819702
1426793350.624,-36.418457
1426793350.64,-37.688232
1426793350.655,-38.075912
1426793350.671,-36.414886
1426793350.687,-32.77455
1426793350.702,-28.319534
1426793350.718,-24.945496
1426793350.733,-24.055893
1426793350.749,-25.8788
1426793350.765,-29.141418
1426793350.78,-31.941788
1426793350.796,-32.70816
1426793350.812,-31.101318
1426793350.827,-28.04712
1426793350.843,-25.093063
1426793350.858,-23.564331
1426793350.874,-23.555084
1426793350.89,-23.97522
1426793350.905,-23.139755
1426793350.921,-19.861343
1426793350.937,-14.226944
1426793350.952,-7.619751
1426793350.968,-2.0421753
1426793350.983,0.9369354
1426793350.999,1.0814362
1426793351.015,-0.27838135
1426793351.03,-1.079361
1426793351.046,0.5973511
1426793351.062,5.2833405
1426793351.077,12.005402
1426793351.093,18.70105
1426793351.108,23.228943
1426793351.124,24.518341
1426793351.14,22.92453
1426793351.155,19.87207
1426793351.171,16.82576
1426793351.187,14.463974
1426793351.202,12.308594
1426793351.218,9.174316
1426793351.233,3.9832306
1426793351.249,-3.2140884
1426793351.265,-11.065956
1426793351.28,-17.491364
1426793351.296,-20.747238
1426793351.312,-20.497734
1426793351.327,-17.87558
1426793351.343,-14.978348
1426793351.358,-13.7951355
1426793351.374,-15.044106
1426793351.39,-17.90213
1426793351.405,-20.6175
1426793351.421,-21.479004
1426793351.437,-19.9272
1426793351.452,-16.871384
1426793351.468,-14.002617
1426793351.483,-12.98056
1426793351.499,-14.329033
1426793351.515,-17.09188
1426793351.53,-19.564003
1426793351.546,-20.199379
1426793351.562,-18.504501
1426793351.577,-15.277069
1426793351.593,-12.18882
1426793351.608,-10.750053
1426793351.624,-11.458633
1426793351.64,-13.51738
1426793351.655,-15.17997
1426793351.671,-14.923332
1426793351.687,-12.1753845
1426793351.702,-7.682785
1426793351.718,-3.0173187
1426793351.733,0.24128723
1426793351.749,1.4997253
1426793351.765,1.4879303
1426793351.78,1.7213898
1426793351.796,3.719223
1426793351.812,7.9348145
1426793351.827,13.6222
1426793351.843,19.147964
1426793351.858,22.92772
1426793351.874,24.239967
1426793351.89,23.80555
1426793351.905,23.113503
1426793351.921,23.667213
1426793351.937,26.095833
1426793351.952,29.847656
1426793351.968,33.60916
1426793351.983,36.09002
1426793351.999,37.070915
1426793352.015,37.4896
1426793352.03,39.1307
1426793352.046,43.37008
1426793352.062,50.291153
1426793352.077,58.358376
1426793352.093,64.97849
1426793352.108,67.590294
1426793352.124,64.96902
1426793352.14,57.743225
1426793352.155,47.92778
1426793352.171,37.857727
1426793352.187,28.907608
1426793352.202,21.055862
1426793352.218,13.155418
1426793352.233,3.8720627
1426793352.249,-7.1787796
1426793352.265,-18.982994
1426793352.28,-29.563225
1426793352.296,-37.018982
1426793352.312,-40.569107
1426793352.327,-40.934372
1426793352.343,-39.920967
1426793352.358,-39.43229
1426793352.374,-40.44455
1426793352.39,-42.5335
1426793352.405,-44.305
1426793352.421,-44.295303
1426793352.437,-42.00248
1426793352.452,-38.19449
1426793352.468,-34.46592
1426793352.483,-32.52614
1426793352.499,-32.990326
1426793352.515,-35.0308
1426793352.53,-36.79918
1426793352.546,-36.46783
1426793352.562,-33.204353
1426793352.577,-27.67611
1426793352.593,-21.649342
1426793352.608,-17.028984
1426793352.624,-14.736053
1426793352.64,-14.218769
1426793352.655,-13.801929
1426793352.671,-11.757633
1426793352.687,-7.402939
1426793352.702,-1.4425278
1426793352.718,4.4033623
1426793352.733,8.416618
1426793352.749,9.92104
1426793352.765,9.795483
1426793352.78,9.835701
1426793352.796,11.880325
1426793352.812,16.636356
1426793352.827,23.453102
1426793352.843,30.74168
1426793352.858,36.977474
1426793352.874,41.63311
1426793352.89,45.579605
1426793352.905,50.404472
1426793352.921,57.222984
1426793352.937,65.86449
1426793352.952,74.48451
1426793352.968,80.37847
1426793352.984,81.130844
1426793352.999,75.852615
1426793353.015,65.543655
1426793353.03,52.56141
1426793353.046,39.39569
1426793353.062,27.44562
1426793353.077,16.777172
1426793353.093,6.4048805
1426793353.109,-4.7395678
1426793353.124,-16.745209
1426793353.14,-28.45953
1426793353.155,-37.99762
1426793353.171,-43.824585
1426793353.187,-45.670956
1426793353.202,-44.691467
1426793353.218,-42.883057
1426793353.234,-42.124657
1426793353.249,-43.218834
1426793353.265,-45.485924
1426793353.28,-47.380806
1426793353.296,-47.44997
1426793353.312,-45.244934
1426793353.327,-41.57762
1426793353.343,-38.05322
1426793353.359,-36.19854
1426793353.374,-36.50687
1426793353.39,-38.180443
1426793353.405,-39.551514
1426793353.421,-39.081055
1426793353.437,-36.21028
1426793353.452,-31.655363
1426793353.468,-27.024113
1426793353.484,-23.984325
1426793353.499,-23.148895
1426793353.515,-23.778526
1426793353.53,-24.201126
1426793353.546,-22.772724
1426793353.562,-18.90953
1426793353.577,-13.26387
1426793353.593,-7.4268646
1426793353.609,-2.8856163
1426793353.624,-0.1957779
1426793353.64,1.4967003
1426793353.655,3.860115
1426793353.671,8.443451
1426793353.687,15.583031
1426793353.702,24.290264
1426793353.718,32.759403
1426793353.734,39.326763
1426793353.749,43.51351
1426793353.765,46.373955
1426793353.78,49.941418
1426793353.796,56.051086
1426793353.812,65.35993
1426793353.827,76.7047
1426793353.843,87.58773
1426793353.859,95.09851
1426793353.874,97.22202
1426793353.89,93.73422
1426793353.905,86.00328
1426793353.921,76.22997
1426793353.937,66.10892
1426793353.952,56.274467
1426793353.968,46.15162
1426793353.984,34.668175
1426793353.999,21.311676
1426793354.015,6.715187
1426793354.03,-7.459297
1426793354.046,-19.37201
1426793354.062,-28.068413
1426793354.077,-33.87829
1426793354.093,-38.20632
1426793354.109,-42.674698
1426793354.124,-48.162987
1426793354.14,-54.24682
1426793354.155,-59.511497
1426793354.171,-62.356476
1426793354.187,-62.098877
1426793354.202,-59.356613
1426793354.218,-55.729874
1426793354.234,-53.088272
1426793354.249,-52.502174
1426793354.265,-53.692596
1426793354.28,-55.212402
1426793354.296,-55.402275
1426793354.312,-53.283417
1426793354.327,-49.211746
1426793354.343,-44.593605
1426793354.359,-41.093185
1426793354.374,-39.63768
1426793354.39,-39.75055
1426793354.405,-39.940567
1426793354.421,-38.4422
1426793354.437,-34.39476
1426793354.452,-28.236221
1426793354.468,-21.43953
1426793354.484,-15.690033
1426793354.499,-11.807785
1426793354.515,-9.251801
1426793354.53,-6.548523
1426793354.546,-2.15477
1426793354.562,4.4982147
1426793354.577,12.734299
1426793354.593,20.866592
1426793354.609,27.245865
1426793354.624,31.163818
1426793354.64,33.39023
1426793354.655,35.73767
1426793354.671,40.130463
1426793354.687,47.54634
1426793354.702,57.432266
1426793354.718,68.00714
1426793354.734,76.98682
1426793354.749,82.61267
1426793354.765,84.39372
1426793354.78,83.02524
1426793354.796,79.67978
1426793354.812,75.20868
1426793354.827,69.60042
1426793354.843,62.08136
1426793354.859,51.739853
1426793354.874,38.326584
1426793354.89,22.829544
1426793354.905,7.161911
1426793354.921,-6.6296997
1426793354.937,-17.402237
1426793354.952,-25.275726
1426793354.968,-31.547455
1426793354.984,-37.796585
1426793354.999,-44.950058
1426793355.015,-52.596466
1426793355.03,-59.267197
1426793355.046,-63.32512
1426793355.062,-63.968628
1426793355.077,-61.73857
1426793355.093,-58.21167
1426793355.109,-55.259766
1426793355.124,-54.018707
1426793355.14,-54.302734
1426793355.155,-54.83902
1426793355.171,-54.17775
1426793355.187,-51.602936
1426793355.202,-47.607788
1426793355.218,-43.561935
1426793355.234,-40.88292
1426793355.249,-40.31143
1426793355.265,-41.314957
1426793355.28,-42.38208
1426793355.296,-41.992706
1426793355.312,-39.434143
1426793355.327,-35.263214
1426793355.343,-30.94188
1426793355.359,-28.034134
1426793355.374,-27.251251
1426793355.39,-27.948914
1426793355.405,-28.416092
1426793355.421,-26.82161
1426793355.437,-22.442947
1426793355.452,-15.886322
1426793355.468,-8.907547
1426793355.484,-3.456421
1426793355.499,-0.55934143
1426793355.515,0.29943848
1426793355.53,0.863266
1426793355.546,3.1987457
1426793355.562,8.543549
1426793355.577,16.720337
1426793355.593,26.539795
1426793355.609,36.513107
1426793355.624,45.749588
1426793355.64,54.389572
1426793355.656,63.247223
1426793355.671,72.90524
1426793355.687,82.929016
1426793355.702,91.65105
1426793355.718,96.67804
1426793355.734,96.11177
1426793355.749,89.354904
1426793355.765,77.64038
1426793355.781,63.47194
1426793355.796,49.53511
1426793355.812,37.511307
1426793355.827,27.586578
1426793355.843,18.710388
1426793355.859,9.425644
1426793355.874,-1.026062
1426793355.89,-12.172409
1426793355.906,-22.538254
1426793355.921,-30.419815
1426793355.937,-34.97415
1426793355.952,-36.68892
1426793355.968,-37.06636
1426793355.984,-37.872482
1426793355.999,-40.113068
1426793356.015,-43.383484
1426793356.031,-46.228836
1426793356.046,-47.01912
1426793356.062,-45.030365
1426793356.077,-40.905823
1426793356.093,-36.42189
1426793356.109,-33.47264
1426793356.124,-33.050507
1426793356.14,-34.663483
1426793356.156,-36.564285
1426793356.171,-36.898743
1426793356.187,-34.6698
1426793356.202,-30.31491
1426793356.218,-25.387589
1426793356.234,-21.702835
1426793356.249,-20.277603
1426793356.265,-20.748672
1426793356.281,-21.624298
1426793356.296,-21.159363
1426793356.312,-18.39093
1426793356.327,-13.650131
1426793356.343,-8.242279
1426793356.359,-3.7816772
1426793356.374,-1.1853943
1426793356.39,-0.036636353
1426793356.406,1.1587524
1426793356.421,4.066269
1426793356.437,9.592224
1426793356.452,17.236725
1426793356.468,25.40091
1426793356.484,32.25392
1426793356.499,36.77951
1426793356.515,39.497925
1426793356.531,42.219543
1426793356.546,47.2081
1426793356.562,55.834015
1426793356.577,67.95529
1426793356.593,81.87541
1426793356.609,95.061615
1426793356.624,105.336716
1426793356.64,111.63574
1426793356.656,114.17569
1426793356.671,113.75641
1426793356.687,110.99362
1426793356.702,105.62883
1426793356.718,96.804794
1426793356.734,83.714035
1426793356.749,66.337296
1426793356.765,46.10112
1426793356.781,25.374466
1426793356.796,6.601425
1426793356.812,-8.771484
1426793356.827,-20.742111
1426793356.843,-30.552399
1426793356.859,-39.761032
1426793356.874,-49.299805
1426793356.89,-58.890884
1426793356.906,-67.20474
1426793356.921,-72.72592
1426793356.937,-74.776276
1426793356.952,-73.841064
1426793356.968,-71.46414
1426793356.984,-69.5311
1426793356.999,-69.20714
1426793357.015,-70.30423
1426793357.031,-71.64026
1426793357.046,-71.59125
1426793357.062,-69.31583
1426793357.077,-65.23944
1426793357.093,-60.814697
1426793357.109,-57.73468
1426793357.124,-57.01599
1426793357.14,-58.204254
1426793357.156,-59.636444
1426793357.171,-59.48178
1426793357.187,-56.59848
1426793357.202,-51.213043
1426793357.218,-44.76944
1426793357.234,-38.963196
1426793357.249,-34.876984
1426793357.265,-32.314056
1426793357.281,-29.91565
1426793357.296,-26.112152
1426793357.312,-20.17215
1426793357.327,-12.561371
1426793357.343,-4.7893677
1426793357.359,1.3074951
1426793357.374,4.693283
1426793357.39,5.623459
1426793357.406,5.5530853
1426793357.421,6.417984
1426793357.437,9.496445
1426793357.452,14.8624115
1426793357.468,21.594421
1426793357.484,28.284653
1426793357.499,34.052704
1426793357.515,39.272995
1426793357.531,45.17447
1426793357.546,53.088913
1426793357.562,63.356415
1426793357.577,74.721085
1426793357.593,84.58522
1426793357.609,90.1487
1426793357.624,89.59593
1426793357.64,83.00331
1426793357.656,72.32359
1426793357.671,60.200104
1426793357.687,48.67302
1426793357.702,38.36821
1426793357.718,28.525711
1426793357.734,17.756989
1426793357.749,5.278717
1426793357.765,-8.359695
1426793357.781,-21.434982
1426793357.796,-31.820236
1426793357.812,-38.255936
1426793357.827,-40.96837
1426793357.843,-41.442444
1426793357.859,-41.657196
1426793357.874,-43.018738
1426793357.89,-45.517838
1426793357.906,-47.9478
1426793357.921,-48.773895
1426793357.937,-47.0997
1426793357.952,-43.361267
1426793357.968,-39.204086
1426793357.984,-36.484497
1426793357.999,-36.30771
1426793358.015,-38.27182
1426793358.031,-40.64041
1426793358.046,-41.31273
1426793358.062,-39.12509
1426793358.077,-34.35736
1426793358.093,-28.609604
1426793358.109,-23.923584
1426793358.124,-21.572296
1426793358.14,-21.420715
1426793358.156,-22.00354
1426793358.171,-21.540466
1426793358.187,-18.923492
1426793358.202,-14.411407
1426793358.218,-9.318924
1426793358.234,-5.347412
1426793358.249,-3.514679
1426793358.265,-3.538437
1426793358.281,-4.030243
1426793358.296,-3.2334747
1426793358.312,-0.10404968
1426793358.328,5.1361084
1426793358.343,11.141174
1426793358.359,16.222733
1426793358.374,19.27324
1426793358.39,20.529984
1426793358.406,21.525558
1426793358.421,24.166153
1426793358.437,29.76538
1426793358.453,38.29576
1426793358.468,48.369476
1426793358.484,57.932114
1426793358.499,65.216324
1426793358.515,69.41315
1426793358.531,70.80243
1426793358.546,70.26019
1426793358.562,68.40169
1426793358.578,65.20032
1426793358.593,59.928574
1426793358.609,51.764587
1426793358.624,40.469498
1426793358.64,26.89383
1426793358.656,12.843918
1426793358.671,0.2392273
1426793358.687,-9.658829
1426793358.703,-16.939377
1426793358.718,-22.77066
1426793358.734,-28.745087
1426793358.749,-35.85147
1426793358.765,-43.798706
1426793358.781,-51.11148
1426793358.796,-55.97084
1426793358.812,-57.296783
1426793358.828,-55.31627
1426793358.843,-51.552597
1426793358.859,-47.95276
1426793358.874,-45.99228
1426793358.89,-45.8219
1426793358.906,-46.340805
1426793358.921,-45.988144
1426793358.937,-43.6109
1426793358.953,-39.23233
1426793358.968,-33.980316
1426793358.984,-29.57405
1426793358.999,-27.242706
1426793359.015,-27.073593
1426793359.031,-27.96019
1426793359.046,-28.303314
1426793359.062,-26.937973
1426793359.078,-23.83525
1426793359.093,-20.023224
1426793359.109,-16.953842
1426793359.124,-15.686264
1426793359.14,-16.018188
1426793359.156,-16.639679
1426793359.171,-15.8992
1426793359.187,-12.765472
1426793359.203,-7.3354034
1426793359.218,-0.8644409
1426793359.234,5.005478
1426793359.249,9.168564
1426793359.265,11.6456375
1426793359.281,13.575867
1426793359.296,16.382874
1426793359.312,20.846039
1426793359.328,26.639061
1426793359.343,32.52346
1426793359.359,37.021164
1426793359.374,39.41591
1426793359.39,40.235466
1426793359.406,41.184265
1426793359.421,44.16829
1426793359.437,50.289444
1426793359.453,59.001503
1426793359.468,68.289314
1426793359.484,75.39693
1426793359.499,78.03026
1426793359.515,75.42528
1426793359.531,68.54535
1426793359.546,59.372826
1426793359.562,49.939484
1426793359.578,41.28292
1426793359.593,33.1512
1426793359.609,24.548393
1426793359.624,14.514175
1426793359.64,3.0712357
1426793359.656,-8.578705
1426793359.671,-18.69487
1426793359.687,-26.049545
1426793359.703,-30.506454
1426793359.718,-33.177284
1426793359.734,-35.791107
1426793359.749,-39.611465
1426793359.765,-44.716217
1426793359.781,-49.907814
1426793359.796,-53.370415
1426793359.812,-53.827606
1426793359.828,-51.29064
1426793359.843,-47.06859
1426793359.859,-43.131073
1426793359.874,-41.11809
1426793359.89,-41.313694
1426793359.906,-42.611416
1426793359.921,-43.215652
1426793359.937,-41.615536
1426793359.953,-37.4595
1426793359.968,-31.771626
1426793359.984,-26.357079
1426793359.999,-22.817902
1426793360.015,-21.605316
1426793360.031,-21.735184
1426793360.046,-21.433361
1426793360.062,-19.217464
1426793360.078,-14.680374
1426793360.093,-8.728447
1426793360.109,-3.0415764
1426793360.124,0.89910316
1426793360.14,2.7483902
1426793360.156,3.4133625
1426793360.171,4.527437
1426793360.187,7.304493
1426793360.203,11.835751
1426793360.218,17.06977
1426793360.234,21.340488
1426793360.249,23.40453
1426793360.265,23.207226
1426793360.281,21.916103
1426793360.296,21.23804
1426793360.312,22.495398
1426793360.328,25.926933
1426793360.343,30.593372
1426793360.359,35.097446
1426793360.374,38.35898
1426793360.39,40.410587
1426793360.406,42.538944
1426793360.421,46.420647
1426793360.437,53.016678
1426793360.453,61.76117
1426793360.468,70.5621
1426793360.484,76.476456
1426793360.499,77.17435
1426793360.515,72.04666
1426793360.531,62.421974
1426793360.546,50.87961
1426793360.562,39.784126
1426793360.578,30.251923
1426793360.593,21.853275
1426793360.609,13.25774
1426793360.624,3.2597656
1426793360.64,-8.023119
1426793360.656,-19.172026
1426793360.671,-28.170801
1426793360.687,-33.524067
1426793360.703,-35.15474
1426793360.718,-34.39044
1426793360.734,-33.242043
1426793360.749,-33.36689
1426793360.765,-35.207397
1426793360.781,-37.85845
1426793360.796,-39.763447
1426793360.812,-39.77135
1426793360.828,-37.793484
1426793360.843,-34.94012
1426793360.859,-32.901283
1426793360.874,-32.912254
1426793360.89,-35.023216
1426793360.906,-38.00878
1426793360.921,-40.044964
1426793360.937,-39.67918
1426793360.953,-36.756596
1426793360.968,-32.33255
1426793360.984,-28.214539
1426793361,-25.927696
1426793361.015,-25.749908
1426793361.031,-26.587955
1426793361.046,-26.594017
1426793361.062,-24.27074
1426793361.078,-19.2975
1426793361.093,-12.753765
1426793361.109,-6.508087
1426793361.124,-2.216938
1426793361.14,-0.3992195
1426793361.156,-0.0934906
1426793361.171,0.3984604
1426793361.187,2.6028671
1426793361.203,6.938057
1426793361.218,12.548264
1426793361.234,17.810509
1426793361.25,21.304771
1426793361.265,22.749062
1426793361.281,23.108658
1426793361.296,24.037193
1426793361.312,26.850342
1426793361.328,31.801376
1426793361.343,37.929504
1426793361.359,43.68412
1426793361.375,47.82141
1426793361.39,50.23967
1426793361.406,52.01573
1426793361.421,54.647972
1426793361.437,59.06536
1426793361.453,64.77846
1426793361.468,69.96387
1426793361.484,72.30094
1426793361.5,70.03392
1426793361.515,63.023735
1426793361.531,52.93373
1426793361.546,42.256706
1426793361.562,33.118523
1426793361.578,26.272926
1426793361.593,20.91388
1426793361.609,15.361374
1426793361.625,8.127617
1426793361.64,-1.1185074
1426793361.656,-11.297668
1426793361.671,-20.576904
1426793361.687,-27.32827
1426793361.703,-31.076042
1426793361.718,-32.524902
1426793361.734,-33.18953
1426793361.75,-34.46261
1426793361.765,-36.844048
1426793361.781,-39.637848
1426793361.796,-41.5578
1426793361.812,-41.57393
1426793361.828,-39.577667
1426793361.843,-36.631523
1426793361.859,-34.421577
1426793361.875,-34.317894
1426793361.89,-36.50025
1426793361.906,-39.786102
1426793361.921,-42.224655
1426793361.937,-42.100967
1426793361.953,-39.006393
1426793361.968,-33.889694
1426793361.984,-28.604523
1426793362,-24.890938
1426793362.015,-23.363144
1426793362.031,-23.156357
1426793362.046,-22.56887
1426793362.062,-20.031357
1426793362.078,-15.077484
1426793362.093,-8.769188
1426793362.109,-2.9590073
1426793362.125,0.59659576
1426793362.14,1.2816162
1426793362.156,0.036010742
1426793362.171,-1.2756882
1426793362.187,-0.8630066
1426793362.203,1.9656067
1426793362.218,6.518814
1426793362.234,11.128975
1426793362.25,14.330383
1426793362.265,15.663429
1426793362.281,16.073105
1426793362.296,17.30655
1426793362.312,20.758514
1426793362.328,26.709442
1426793362.343,34.16591
1426793362.359,41.388107
1426793362.375,46.77263
1426793362.39,49.922485
1426793362.406,51.57567
1426793362.421,53.05597
1426793362.437,55.321106
1426793362.453,58.042892
1426793362.468,59.70764
1426793362.484,58.38307
1426793362.5,52.71524
1426793362.515,42.777176
1426793362.531,30.24353
1426793362.546,17.52649
1426793362.562,6.716217
1426793362.578,-1.3063507
1426793362.593,-7.1538544
1426793362.609,-12.200485
1426793362.625,-17.675583
1426793362.64,-23.793228
1426793362.656,-29.601395
1426793362.671,-33.583878
1426793362.687,-34.685394
1426793362.703,-33.02913
1426793362.718,-29.90503
1426793362.734,-27.244507
1426793362.75,-26.56723
1426793362.765,-28.152328
1426793362.781,-30.916199
1426793362.796,-33.13925
1426793362.812,-33.366806
1426793362.828,-31.327637
1426793362.843,-28.02214
1426793362.859,-25.044388
1426793362.875,-23.824265
1426793362.89,-24.64148
1426793362.906,-26.59259
1426793362.921,-28.072006
1426793362.937,-27.799057
1426793362.953,-25.405197
1426793362.968,-21.682266
1426793362.984,-17.991592
1426793363,-15.582138
1426793363.015,-14.699997
1426793363.031,-14.467087
1426793363.046,-13.476532
1426793363.062,-10.541718
1426793363.078,-5.5245667
1426793363.093,0.5962219
1426793363.109,6.2000732
1426793363.125,9.891006
1426793363.14,11.304153
1426793363.156,11.37442
1426793363.171,11.796143
1426793363.187,14.041824
1426793363.203,18.544342
1426793363.218,24.317245
1426793363.234,29.649734
1426793363.25,32.90367
1426793363.265,33.65219
1426793363.281,33.02014
1426793363.296,33.09076
1426793363.312,35.871643
1426793363.328,42.20079
1426793363.343,51.18863
1426793363.359,60.57245
1426793363.375,67.74649
1426793363.39,70.874115
1426793363.406,69.71982
1426793363.421,65.43335
1426793363.437,59.70273
1426793363.453,53.73297
1426793363.468,47.65236
1426793363.484,40.67038
1426793363.5,31.753754
1426793363.515,20.654175
1426793363.531,8.335724
1426793363.546,-3.385727
1426793363.562,-12.706787
1426793363.578,-18.871613
1426793363.593,-22.441483
1426793363.609,-24.951096
1426793363.625,-27.967148
1426793363.64,-32.065674
1426793363.656,-36.46907
1426793363.671,-39.566544
1426793363.687,-39.86235
1426793363.703,-37.031647
1426793363.718,-32.25946
1426793363.734,-27.599533
1426793363.75,-25.01062
1426793363.765,-25.231567
1426793363.781,-27.439392
1426793363.796,-29.761703
1426793363.812,-30.521164
1426793363.828,-29.045898
1426793363.843,-26.09282
1426793363.859,-23.329117
1426793363.875,-22.287003
1426793363.89,-23.401672
1426793363.906,-25.623367
1426793363.922,-27.090134
1426793363.937,-26.15538
1426793363.953,-22.399048
1426793363.968,-16.831146
1426793363.984,-11.351212
1426793364,-7.6859436
1426793364.015,-6.432663
1426793364.031,-6.6977234
1426793364.047,-6.7272186
1426793364.062,-4.863739
1426793364.078,-0.57832336
1426793364.093,5.292206
1426793364.109,11.084732
1426793364.125,15.16951
1426793364.14,16.946014
1426793364.156,17.200317
1426793364.172,17.532532
1426793364.187,19.531082
1426793364.203,23.972443
1426793364.218,30.463394
1426793364.234,37.78293
1426793364.25,44.64308
1426793364.265,50.298965
1426793364.281,54.838287
1426793364.297,58.91385
1426793364.312,62.929947
1426793364.328,66.52103
1426793364.343,68.54436
1426793364.359,67.469315
1426793364.375,62.186356
1426793364.39,52.711823
1426793364.406,40.391785
1426793364.422,27.272537
1426793364.437,15.278946
1426793364.453,5.3800507
1426793364.468,-2.7736359
1426793364.484,-10.290115
1426793364.5,-18.340515
1426793364.515,-27.25322
1426793364.531,-36.164063
1426793364.547,-43.496384
1426793364.562,-47.876785
1426793364.578,-48.9243
1426793364.593,-47.5309
1426793364.609,-45.462265
1426793364.625,-44.446106
1426793364.64,-45.193756
1426793364.656,-47.094604
1426793364.672,-48.662918
1426793364.687,-48.35182
1426793364.703,-45.531387
1426793364.718,-40.81636
1426793364.734,-35.694534
1426793364.75,-31.73938
1426793364.765,-29.66069
1426793364.781,-28.954407
1426793364.797,-28.24327
1426793364.812,-26.165756
1426793364.828,-22.297256
1426793364.843,-17.339401
1426793364.859,-12.847839
1426793364.875,-10.312286
1426793364.89,-10.186203
1426793364.906,-11.492645
1426793364.922,-12.377777
1426793364.937,-11.078598
1426793364.953,-6.9596863
1426793364.968,-0.8950043
1426793364.984,5.2448425
1426793365,9.638153
1426793365.015,11.594254
1426793365.031,12.001495
1426793365.047,12.761566
1426793365.062,15.649673
1426793365.078,21.280853
1426793365.093,28.791962
1426793365.109,36.249268
1426793365.125,41.741867
1426793365.14,44.505737
1426793365.156,45.485718
1426793365.172,46.71312
