1425425737.488,0.0
1425425737.503,0.0
1425425737.519,0.0
1425425737.535,0.0
1425425737.55,0.0
1425425737.566,0.0
1425425737.581,0.0
1425425737.597,0.0
1425425737.613,0.0
1425425737.628,0.0022315353
1425425737.644,-0.0045169927
1425425737.66,-0.011265522
1425425737.675,-0.011383951
1425425737.691,0.0011864507
1425425737.706,0.025910312
1425425737.722,0.050634187
1425425737.738,0.051362894
1425425737.753,-0.0014929791
1425425737.769,-0.1302426
1425425737.785,-0.35562757
1425425737.8,-0.6591247
1425425737.816,-1.0095103
1425425737.831,-1.3709826
1425425737.847,-1.7197359
1425425737.863,-2.0551105
1425425737.878,-2.39945
1425425737.894,-2.7866635
1425425737.91,-3.2399073
1425425737.925,-3.796012
1425425737.941,-4.418684
1425425737.956,-5.0592937
1425425737.972,-5.6644096
1425425737.988,-6.2021537
1425425738.003,-6.6808796
1425425738.019,-7.149598
1425425738.035,-7.6782336
1425425738.05,-8.310739
1425425738.066,-9.143657
1425425738.081,-10.089731
1425425738.097,-11.041313
1425425738.113,-11.8842125
1425425738.128,-12.564316
1425425738.144,-13.13563
1425425738.16,-13.760044
1425425738.175,-14.65232
1425425738.191,-15.962056
1425425738.206,-17.914442
1425425738.222,-20.317299
1425425738.238,-22.903854
1425425738.253,-25.37947
1425425738.269,-27.578028
1425425738.285,-29.57246
1425425738.3,-31.675173
1425425738.316,-34.3178
1425425738.331,-37.813618
1425425738.347,-42.541233
1425425738.363,-48.1463
1425425738.378,-54.104755
1425425738.394,-59.83309
1425425738.41,-64.972374
1425425738.425,-69.58293
1425425738.441,-74.14353
1425425738.456,-79.344986
1425425738.472,-85.70726
1425425738.488,-93.76193
1425425738.503,-102.99779
1425425738.519,-112.61757
1425425738.535,-121.73034
1425425738.55,-129.76602
1425425738.566,-136.75102
1425425738.582,-143.30344
1425425738.597,-150.74623
1425425738.613,-157.77356
1425425738.628,-166.64323
1425425738.644,-177.94798
1425425738.66,-191.79102
1425425738.675,-206.96808
1425425738.691,-220.56592
1425425738.707,-228.24644
1425425738.722,-225.36154
1425425738.738,-208.53198
1425425738.753,-176.87024
1425425738.769,-132.76222
1425425738.785,-80.04997
1425425738.8,-23.069275
1425425738.816,34.94339
1425425738.832,92.43695
1425425738.847,149.15695
1425425738.863,205.22772
1425425738.878,260.36963
1425425738.894,313.74133
1425425738.91,363.87396
1425425738.925,409.83353
1425425738.941,450.90775
1425425738.957,486.50244
1425425738.972,515.73865
1425425738.988,537.2274
1425425739.003,549.22
1425425739.019,549.9613
1425425739.035,538.367
1425425739.05,514.2055
1425425739.066,478.674
1425425739.082,433.87952
1425425739.097,382.45126
1425425739.113,327.02106
1425425739.128,269.84186
1425425739.144,212.63379
1425425739.16,156.6594
1425425739.175,102.95233
1425425739.191,52.373596
1425425739.207,5.9046936
1425425739.222,-35.580414
1425425739.238,-71.42584
1425425739.253,-101.35184
1425425739.269,-125.50113
1425425739.285,-144.3797
1425425739.3,-158.69403
1425425739.316,-169.15071
1425425739.332,-176.3711
1425425739.347,-180.75139
1425425739.363,-182.57419
1425425739.378,-182.06863
1425425739.394,-179.5066
1425425739.41,-175.23325
1425425739.425,-169.65286
1425425739.441,-163.17691
1425425739.457,-156.14568
1425425739.472,-148.80681
1425425739.488,-141.29686
1425425739.503,-133.68983
1425425739.519,-126.01962
1425425739.535,-118.33268
1425425739.55,-110.68864
1425425739.566,-103.15572
1425425739.582,-95.80455
1425425739.597,-88.684166
1425425739.613,-81.82744
1425425739.628,-75.24594
1425425739.644,-68.9526
1425425739.66,-62.949085
1425425739.675,-57.247494
1425425739.691,-51.85711
1425425739.707,-46.782593
1425425739.722,-42.027287
1425425739.738,-37.584404
1425425739.753,-33.450577
1425425739.769,-29.61241
1425425739.785,-26.06954
1425425739.8,-22.808058
1425425739.816,-19.826082
1425425739.832,-17.117964
1425425739.847,-14.676819
1425425739.863,-12.498298
1425425739.878,-10.569553
1425425739.894,-8.880791
1425425739.91,-7.41519
1425425739.925,-6.159528
1425425739.941,-5.093987
1425425739.957,-4.1997843
1425425739.972,-3.4575796
1425425739.988,-2.8512087
1425425740.003,-2.360932
1425425740.019,-1.9678876
1425425740.035,-1.6609991
1425425740.05,-1.4254749
1425425740.066,-1.2503994
1425425740.082,-1.1225293
1425425740.097,-1.036254
1425425740.113,-0.983755
1425425740.128,-0.9571235
1425425740.144,-0.9575795
1425425740.16,-0.9759228
1425425740.175,-1.0115606
1425425740.191,-1.0617635
1425425740.207,-1.1277558
1425425740.222,-1.2099545
1425425740.238,-1.3044815
1425425740.253,-1.41497
1425425740.269,-1.5412194
1425425740.285,-1.6854019
1425425740.3,-1.849926
1425425740.316,-2.0327334
1425425740.332,-2.238757
1425425740.347,-2.4627473
1425425740.363,-2.7158904
1425425740.378,-2.9917352
1425425740.394,-3.2978358
1425425740.41,-3.6316738
1425425740.425,-4.0006065
1425425740.441,-4.3987803
1425425740.457,-4.830837
1425425740.472,-5.2957687
1425425740.488,-5.795455
1425425740.503,-6.329336
1425425740.519,-6.9027505
1425425740.535,-7.5135155
1425425740.55,-8.164241
1425425740.566,-8.855691
1425425740.582,-9.589312
1425425740.597,-10.367144
1425425740.613,-11.186289
1425425740.628,-12.048955
1425425740.644,-12.955784
1425425740.66,-13.923997
1425425740.675,-14.954057
1425425740.691,-16.043331
1425425740.707,-17.199863
1425425740.722,-18.404282
1425425740.738,-19.637255
1425425740.753,-20.852701
1425425740.769,-21.989426
1425425740.785,-22.956179
1425425740.8,-23.647474
1425425740.816,-23.951862
1425425740.832,-23.745111
1425425740.847,-22.929853
1425425740.863,-21.424685
1425425740.878,-19.208847
1425425740.894,-16.296303
1425425740.91,-12.760574
1425425740.925,-8.686016
1425425740.941,-4.247898
1425425740.957,0.35747147
1425425740.972,4.9330826
1425425740.988,9.276817
1425425741.003,13.21489
1425425741.019,16.603668
1425425741.035,19.357407
1425425741.05,21.411736
1425425741.066,22.78249
1425425741.082,23.49902
1425425741.097,23.640991
1425425741.113,23.316433
1425425741.128,22.62658
1425425741.144,21.701084
1425425741.16,20.612595
1425425741.175,19.452984
1425425741.191,18.263813
1425425741.207,17.091805
1425425741.222,15.925125
1425425741.238,14.8040085
1425425741.254,13.72477
1425425741.269,12.693497
1425425741.285,11.677803
1425425741.3,10.662628
1425425741.316,9.612045
1425425741.332,8.501251
1425425741.347,7.242012
1425425741.363,5.7691956
1425425741.378,4.076973
1425425741.394,2.1407394
1425425741.41,-0.1278305
1425425741.425,-2.8046417
1425425741.441,-6.017334
1425425741.457,-9.854385
1425425741.472,-14.424927
1425425741.488,-19.7883
1425425741.504,-26.025635
1425425741.519,-32.916756
1425425741.535,-40.30568
1425425741.55,-48.007286
1425425741.566,-55.881844
1425425741.582,-63.749138
1425425741.597,-71.46774
1425425741.613,-78.90091
1425425741.629,-85.96585
1425425741.644,-92.65491
1425425741.66,-98.65428
1425425741.675,-103.84737
1425425741.691,-108.224335
1425425741.707,-111.86806
1425425741.722,-114.96655
1425425741.738,-117.69168
1425425741.754,-120.239685
1425425741.769,-122.7858
1425425741.785,-125.514145
1425425741.8,-128.11517
1425425741.816,-130.40742
1425425741.832,-132.23851
1425425741.847,-133.50423
1425425741.863,-134.02731
1425425741.879,-133.47949
1425425741.894,-131.16962
1425425741.91,-125.84497
1425425741.925,-119.12009
1425425741.941,-111.22977
1425425741.957,-102.31732
1425425741.972,-92.609436
1425425741.988,-82.428314
1425425742.004,-72.213165
1425425742.019,-62.303284
1425425742.035,-52.878784
1425425742.05,-43.845184
1425425742.066,-35.000275
1425425742.082,-25.600708
1425425742.097,-15.2586975
1425425742.113,-3.9455261
1425425742.129,7.93338
1425425742.144,19.744019
1425425742.16,30.89215
1425425742.175,41.104065
1425425742.191,50.519226
1425425742.207,59.607605
1425425742.222,69.28674
1425425742.238,80.104614
1425425742.254,92.065674
1425425742.269,104.674805
1425425742.285,117.18054
1425425742.3,128.94891
1425425742.316,139.76416
1425425742.332,149.92474
1425425742.347,160.11438
1425425742.363,171.48615
1425425742.379,185.18207
1425425742.394,202.24298
1425425742.41,223.2193
1425425742.425,247.63739
1425425742.441,273.49054
1425425742.457,297.14954
1425425742.472,314.10266
1425425742.488,320.30365
1425425742.504,313.87946
1425425742.519,295.76367
1425425742.535,269.41064
1425425742.55,239.39862
1425425742.566,209.68915
1425425742.582,182.44775
1425425742.597,157.9737
1425425742.613,135.54004
1425425742.629,114.4754
1425425742.644,94.81464
1425425742.66,77.11804
1425425742.675,61.922424
1425425742.691,49.12213
1425425742.707,37.97992
1425425742.722,27.507935
1425425742.738,17.035217
1425425742.754,6.5652466
1425425742.769,-3.270874
1425425742.785,-11.566528
1425425742.8,-17.643738
1425425742.816,-21.326233
1425425742.832,-23.003357
1425425742.847,-23.372192
1425425742.863,-23.202515
1425425742.879,-23.044495
1425425742.894,-23.146423
1425425742.91,-23.460938
1425425742.925,-23.764832
1425425742.941,-23.802063
1425425742.957,-23.37201
1425425742.972,-22.358582
1425425742.988,-20.746704
1425425743.004,-18.628052
1425425743.019,-16.17279
1425425743.035,-13.731812
1425425743.05,-11.826111
1425425743.066,-11.118286
1425425743.082,-12.269287
1425425743.097,-15.704163
1425425743.113,-21.434692
1425425743.129,-28.936584
1425425743.144,-37.294556
1425425743.16,-45.410767
1425425743.175,-52.346405
1425425743.191,-57.524353
1425425743.207,-60.81015
1425425743.222,-62.42636
1425425743.238,-62.75653
1425425743.254,-62.226105
1425425743.269,-61.18152
1425425743.285,-59.87561
1425425743.3,-58.473267
1425425743.316,-57.089447
1425425743.332,-55.780975
1425425743.347,-54.614777
1425425743.363,-53.650726
1425425743.379,-52.89627
1425425743.394,-52.290436
1425425743.41,-51.679413
1425425743.425,-50.812683
1425425743.441,-49.460358
1425425743.457,-47.491302
1425425743.472,-44.959717
1425425743.488,-42.05536
1425425743.504,-39.050537
1425425743.519,-36.09314
1425425743.535,-33.168182
1425425743.55,-30.09961
1425425743.566,-26.637268
1425425743.582,-22.61734
1425425743.597,-18.028564
1425425743.613,-13.029877
1425425743.629,-7.9214478
1425425743.644,-3.0041199
1425425743.66,1.446167
1425425743.675,5.2779236
1425425743.691,8.434723
1425425743.707,11.011475
1425425743.722,13.206604
1425425743.738,15.35022
1425425743.754,17.844147
1425425743.769,21.034698
1425425743.785,25.034363
1425425743.8,29.596222
1425425743.816,34.040375
1425425743.832,37.363403
1425425743.847,38.52289
1425425743.863,36.76062
1425425743.879,31.902832
1425425743.894,24.430298
1425425743.91,15.3671875
1425425743.926,5.958496
1425425743.941,-2.7010193
1425425743.957,-9.915497
1425425743.972,-15.44928
1425425743.988,-19.450287
1425425744.004,-22.319733
1425425744.019,-24.403687
1425425744.035,-26.001068
1425425744.05,-27.215698
1425425744.066,-28.106934
1425425744.082,-28.685364
1425425744.097,-28.997314
1425425744.113,-29.086182
1425425744.129,-29.022064
1425425744.144,-28.808105
1425425744.16,-28.443756
1425425744.176,-27.9393
1425425744.191,-27.348236
1425425744.207,-26.730377
1425425744.222,-26.156372
1425425744.238,-25.621277
1425425744.254,-25.059784
1425425744.269,-24.308624
1425425744.285,-23.260986
1425425744.301,-21.83075
1425425744.316,-20.020538
1425425744.332,-17.858307
1425425744.347,-15.403168
1425425744.363,-12.674713
1425425744.379,-9.662964
1425425744.394,-6.396942
1425425744.41,-2.9436646
1425425744.426,0.56326294
1425425744.441,3.9716797
1425425744.457,7.116974
1425425744.472,9.939301
1425425744.488,12.444763
1425425744.504,14.706177
1425425744.519,16.926392
1425425744.535,19.334381
1425425744.551,22.269348
1425425744.566,25.953186
1425425744.582,30.41919
1425425744.597,35.299866
1425425744.613,39.77124
1425425744.629,42.671875
1425425744.644,42.867523
1425425744.66,39.66974
1425425744.676,33.14621
1425425744.691,24.187439
1425425744.707,14.246674
1425425744.722,4.851074
1425425744.738,-2.8311157
1425425744.754,-8.307892
1425425744.769,-11.712677
1425425744.785,-13.6041565
1425425744.801,-14.589478
1425425744.816,-15.201324
1425425744.832,-15.687592
1425425744.847,-16.137848
1425425744.863,-16.532288
1425425744.879,-16.863495
1425425744.894,-17.176514
1425425744.91,-17.561005
1425425744.926,-18.094482
1425425744.941,-18.79776
1425425744.957,-19.620667
1425425744.972,-20.454102
1425425744.988,-21.13623
1425425745.004,-21.58667
1425425745.019,-21.767548
1425425745.035,-21.673431
1425425745.051,-21.252716
1425425745.066,-20.444244
1425425745.082,-19.140991
1425425745.097,-17.305725
1425425745.113,-15.013031
1425425745.129,-12.461121
1425425745.144,-9.857391
1425425745.16,-7.3501587
1425425745.176,-4.9069824
1425425745.191,-2.3623962
1425425745.207,0.45965576
1425425745.222,3.6182556
1425425745.238,6.946533
1425425745.254,10.16983
1425425745.269,13.053284
1425425745.285,15.489014
1425425745.301,17.625183
1425425745.316,19.760162
1425425745.332,22.262817
1425425745.347,25.413757
1425425745.363,29.35318
1425425745.379,33.95346
1425425745.394,38.716827
1425425745.41,42.812286
1425425745.426,45.20407
1425425745.441,44.954132
1425425745.457,41.589478
1425425745.472,35.29889
1425425745.488,26.953339
1425425745.504,17.831207
1425425745.519,9.177429
1425425745.535,1.8754883
1425425745.551,-3.6943665
1425425745.566,-7.636261
1425425745.582,-10.277252
1425425745.597,-11.970886
1425425745.613,-12.987671
1425425745.629,-13.556274
1425425745.644,-13.819336
1425425745.66,-13.917877
1425425745.676,-14.002899
1425425745.691,-14.183197
1425425745.707,-14.523712
1425425745.722,-15.082672
1425425745.738,-15.791412
1425425745.754,-16.57846
1425425745.769,-17.306152
1425425745.785,-17.826569
1425425745.801,-18.021149
1425425745.816,-17.837982
1425425745.832,-17.268188
1425425745.847,-16.354065
1425425745.863,-15.141205
1425425745.879,-13.6293335
1425425745.894,-11.76651
1425425745.91,-9.50061
1425425745.926,-6.8116455
1425425745.941,-3.761261
1425425745.957,-0.49142456
1425425745.972,2.820282
1425425745.988,6.013916
1425425746.004,8.971344
1425425746.019,11.6944275
1425425746.035,14.226746
1425425746.051,16.698425
1425425746.066,19.222382
1425425746.082,21.974518
1425425746.097,25.05899
1425425746.113,28.59552
1425425746.129,32.502533
1425425746.144,36.452667
1425425746.16,39.806427
1425425746.176,41.70404
1425425746.191,41.271942
1425425746.207,37.994904
1425425746.222,31.91919
1425425746.238,23.735565
1425425746.254,14.596832
1425425746.269,5.741272
1425425746.285,-1.8692627
1425425746.301,-7.755432
1425425746.316,-11.960358
1425425746.332,-14.82019
1425425746.347,-16.76706
1425425746.363,-18.103607
1425425746.379,-18.980194
1425425746.394,-19.412018
1425425746.41,-19.416687
1425425746.426,-19.084564
1425425746.441,-18.594025
1425425746.457,-18.195313
1425425746.472,-18.13736
1425425746.488,-18.557953
1425425746.504,-19.471191
1425425746.519,-20.689636
1425425746.535,-21.885498
1425425746.551,-22.699509
1425425746.566,-22.868942
1425425746.582,-22.232529
1425425746.597,-20.8367
1425425746.613,-18.828186
1425425746.629,-16.410309
1425425746.644,-13.801483
1425425746.66,-11.149384
1425425746.676,-8.531464
1425425746.691,-5.9327087
1425425746.707,-3.2926636
1425425746.722,-0.55563354
1425425746.738,2.328064
1425425746.754,5.298706
1425425746.769,8.284271
1425425746.785,11.134705
1425425746.801,13.730591
1425425746.816,16.0159
1425425746.832,18.011658
1425425746.848,19.893341
1425425746.863,21.966248
1425425746.879,24.572144
1425425746.894,28.047974
1425425746.91,32.43062
1425425746.926,37.311188
1425425746.941,41.76863
1425425746.957,44.56276
1425425746.973,44.51573
1425425746.988,41.02069
1425425747.004,34.250824
1425425747.019,25.20639
1425425747.035,15.318665
1425425747.051,6.008484
1425425747.066,-1.8350983
1425425747.082,-7.8952026
1425425747.098,-12.3888855
1425425747.113,-15.69191
1425425747.129,-18.131607
1425425747.144,-19.866669
1425425747.16,-20.940933
1425425747.176,-21.429642
1425425747.191,-21.464523
1425425747.207,-21.278076
1425425747.223,-21.113708
1425425747.238,-21.087143
1425425747.254,-21.218185
1425425747.269,-21.407242
1425425747.285,-21.54361
1425425747.301,-21.52127
1425425747.316,-21.294434
1425425747.332,-20.850739
1425425747.348,-20.230804
1425425747.363,-19.40091
1425425747.379,-18.347351
1425425747.394,-17.019424
1425425747.41,-15.382706
1425425747.426,-13.522934
1425425747.441,-11.563232
1425425747.457,-9.65947
1425425747.473,-7.897537
1425425747.488,-6.2205048
1425425747.504,-4.451065
1425425747.519,-2.381775
1425425747.535,0.05078125
1425425747.551,2.7719116
1425425747.566,5.566574
1425425747.582,8.221176
1425425747.598,10.633255
1425425747.613,12.894669
1425425747.629,15.196548
1425425747.644,17.784485
1425425747.66,20.845566
1425425747.676,24.41304
1425425747.691,28.362595
1425425747.707,32.383636
1425425747.723,35.827744
1425425747.738,37.879852
1425425747.754,37.605164
1425425747.769,34.389572
1425425747.785,28.187698
1425425747.801,19.68631
1425425747.816,10.146912
1425425747.832,1.0059967
1425425747.848,-6.588196
1425425747.863,-12.091309
1425425747.879,-15.619934
1425425747.894,-17.688568
1425425747.91,-18.923157
1425425747.926,-19.788544
1425425747.941,-20.525894
1425425747.957,-21.165573
1425425747.973,-21.69928
1425425747.988,-22.158432
1425425748.004,-22.606384
1425425748.019,-23.1035
1425425748.035,-23.671402
1425425748.051,-24.264359
1425425748.066,-24.790466
1425425748.082,-25.133163
1425425748.098,-25.220581
1425425748.113,-25.037262
1425425748.129,-24.617401
1425425748.144,-23.95198
1425425748.16,-22.967102
1425425748.176,-21.506134
1425425748.191,-19.493698
1425425748.207,-16.930496
1425425748.223,-13.990814
1425425748.238,-10.878494
1425425748.254,-7.8063354
1425425748.269,-4.8335724
1425425748.285,-1.9765472
1425425748.301,0.8077545
1425425748.316,3.490219
1425425748.332,5.9445496
1425425748.348,8.030182
1425425748.363,9.726913
1425425748.379,11.176712
1425425748.394,12.668625
1425425748.41,14.521057
1425425748.426,17.001297
1425425748.441,20.206497
1425425748.457,24.176239
1425425748.473,28.764633
1425425748.488,33.624146
1425425748.504,38.113083
1425425748.519,41.318024
1425425748.535,42.23842
1425425748.551,40.214233
1425425748.566,35.098984
1425425748.582,27.494965
1425425748.598,18.50467
1425425748.613,9.429016
1425425748.629,1.3024292
1425425748.644,-5.3128204
1425425748.66,-10.362137
1425425748.676,-14.069351
1425425748.691,-16.697144
1425425748.707,-18.413239
1425425748.723,-19.287598
1425425748.738,-19.418365
1425425748.754,-18.95523
1425425748.769,-18.16159
1425425748.785,-17.340668
1425425748.801,-16.753891
1425425748.816,-16.532883
1425425748.832,-16.673172
1425425748.848,-17.01558
1425425748.863,-17.316238
1425425748.879,-17.331772
1425425748.894,-16.90068
1425425748.91,-16.057861
1425425748.926,-14.937073
1425425748.941,-13.78093
1425425748.957,-12.728516
1425425748.973,-11.748306
1425425748.988,-10.611481
1425425749.004,-9.003326
1425425749.019,-6.6338806
1425425749.035,-3.4750824
1425425749.051,0.27116394
1425425749.066,4.1863403
1425425749.082,7.854645
1425425749.098,10.965347
1425425749.113,13.428131
1425425749.129,15.358978
1425425749.144,16.981247
1425425749.16,18.57425
1425425749.176,20.39795
1425425749.191,22.661697
1425425749.207,25.51706
1425425749.223,29.015259
1425425749.238,32.961067
1425425749.254,36.81137
1425425749.269,39.73156
1425425749.285,40.71486
1425425749.301,38.962738
1425425749.316,34.188988
1425425749.332,26.848335
1425425749.348,17.971924
1425425749.363,8.87825
1425425749.379,0.6418762
1425425749.394,-6.14373
1425425749.41,-11.471214
1425425749.426,-15.67337
1425425749.441,-19.108109
1425425749.457,-21.941383
1425425749.473,-24.1203
1425425749.488,-25.514748
1425425749.504,-26.086395
1425425749.52,-25.950272
1425425749.535,-25.325111
1425425749.551,-24.438606
1425425749.566,-23.39341
1425425749.582,-22.178436
1425425749.598,-20.761833
1425425749.613,-19.131073
1425425749.629,-17.40667
1425425749.645,-15.797943
1425425749.66,-14.523064
1425425749.676,-13.704102
1425425749.691,-13.335777
1425425749.707,-13.261185
1425425749.723,-13.232414
1425425749.738,-12.943909
1425425749.754,-12.128571
1425425749.77,-10.624641
1425425749.785,-8.409943
1425425749.801,-5.567383
1425425749.816,-2.2787018
1425425749.832,1.2541885
1425425749.848,4.8207397
1425425749.863,8.288689
1425425749.879,11.541382
1425425749.895,14.554344
1425425749.91,17.346436
1425425749.926,20.067009
1425425749.941,22.962875
1425425749.957,26.271454
1425425749.973,30.178055
1425425749.988,34.633102
1425425750.004,39.225212
1425425750.02,43.209785
1425425750.035,45.65921
1425425750.051,45.639847
1425425750.066,42.625175
1425425750.082,36.68077
1425425750.098,28.43763
1425425750.113,19.024826
1425425750.129,9.66066
1425425750.145,1.3599701
1425425750.16,-5.3203278
1425425750.176,-10.278091
1425425750.191,-13.77594
1425425750.207,-16.191162
1425425750.223,-17.869278
1425425750.238,-19.083809
1425425750.254,-20.025314
1425425750.27,-20.785618
1425425750.285,-21.450459
1425425750.301,-22.042011
1425425750.316,-22.575191
1425425750.332,-23.039497
1425425750.348,-23.419754
1425425750.363,-23.720566
1425425750.379,-23.958336
1425425750.395,-24.107658
1425425750.41,-24.143192
1425425750.426,-23.996101
1425425750.441,-23.610718
1425425750.457,-22.87677
1425425750.473,-21.73668
1425425750.488,-20.106075
1425425750.504,-17.993465
1425425750.52,-15.447166
1425425750.535,-12.577084
1425425750.551,-9.484753
1425425750.566,-6.2409897
1425425750.582,-2.8633842
1425425750.598,0.6230545
1425425750.613,4.1496964
1425425750.629,7.5409126
1425425750.645,10.606129
1425425750.66,13.182304
1425425750.676,15.295586
1425425750.691,17.174953
1425425750.707,19.214386
1425425750.723,21.860922
1425425750.738,25.489462
1425425750.754,30.195654
1425425750.77,35.622246
1425425750.785,40.989395
1425425750.801,45.157135
1425425750.816,46.954758
1425425750.832,45.523483
1425425750.848,40.678627
1425425750.863,32.984398
1425425750.879,23.595789
1425425750.895,13.879103
1425425750.91,4.9495697
1425425750.926,-2.5015202
1425425750.941,-8.340538
1425425750.957,-12.774899
1425425750.973,-16.202175
1425425750.988,-18.994675
1425425751.004,-21.457005
1425425751.02,-23.70498
1425425751.035,-25.808914
1425425751.051,-27.69489
1425425751.066,-29.283491
1425425751.082,-30.49088
1425425751.098,-31.32325
1425425751.113,-31.817242
1425425751.129,-32.04235
1425425751.145,-32.01326
1425425751.16,-31.67896
1425425751.176,-30.97147
1425425751.191,-29.881037
1425425751.207,-28.444202
1425425751.223,-26.782888
1425425751.238,-24.973108
1425425751.254,-23.002558
1425425751.27,-20.819515
1425425751.285,-18.375446
1425425751.301,-15.696699
1425425751.316,-12.867481
1425425751.332,-10.001456
1425425751.348,-7.1142163
1425425751.363,-4.2086
1425425751.379,-1.2617369
1425425751.395,1.716322
1425425751.41,4.634266
1425425751.426,7.4312
1425425751.441,10.101312
1425425751.457,12.731559
1425425751.473,15.485979
1425425751.488,18.597734
1425425751.504,22.23447
1425425751.52,26.54504
1425425751.535,31.489475
1425425751.551,36.776554
1425425751.566,41.74656
1425425751.582,45.437473
1425425751.598,46.78537
1425425751.613,45.021652
1425425751.629,39.98552
1425425751.645,32.216766
1425425751.66,22.838524
1425425751.676,13.13648
1425425751.691,4.1862698
1425425751.707,-3.3461456
1425425751.723,-9.256069
1425425751.738,-13.595455
1425425751.754,-16.609035
1425425751.77,-18.504232
1425425751.785,-19.505499
1425425751.801,-19.799551
1425425751.816,-19.646698
1425425751.832,-19.323992
1425425751.848,-19.105204
1425425751.863,-19.209816
1425425751.879,-19.745296
1425425751.895,-20.679623
1425425751.91,-21.843712
1425425751.926,-22.970629
1425425751.941,-23.795492
1425425751.957,-24.181932
1425425751.973,-24.114614
1425425751.988,-23.679453
1425425752.004,-22.963503
1425425752.02,-21.977835
1425425752.035,-20.665243
1425425752.051,-18.913668
1425425752.066,-16.709438
1425425752.082,-14.067184
1425425752.098,-11.055237
1425425752.113,-7.7458534
1425425752.129,-4.1903954
1425425752.145,-0.49087143
1425425752.16,3.151867
1425425752.176,6.5028915
1425425752.192,9.371014
1425425752.207,11.705601
1425425752.223,13.695866
1425425752.238,15.671764
1425425752.254,18.024593
1425425752.27,21.08815
1425425752.285,24.975246
1425425752.301,29.575115
1425425752.317,34.47381
1425425752.332,38.96238
1425425752.348,42.04417
1425425752.363,42.69999
1425425752.379,40.19158
1425425752.395,34.36874
1425425752.41,25.810944
1425425752.426,15.716866
1425425752.442,5.5101166
1425425752.457,-3.5370483
1425425752.473,-10.6477585
1425425752.488,-15.587967
1425425752.504,-18.596577
1425425752.52,-20.143757
1425425752.535,-20.793419
1425425752.551,-20.970394
1425425752.567,-20.970646
1425425752.582,-20.91383
1425425752.598,-20.812046
1425425752.613,-20.642685
1425425752.629,-20.487648
1425425752.645,-20.485744
1425425752.66,-20.814278
1425425752.676,-21.497875
1425425752.692,-22.407772
1425425752.707,-23.227345
1425425752.723,-23.630035
1425425752.738,-23.399559
1425425752.754,-22.57138
1425425752.77,-21.39811
1425425752.785,-20.133957
1425425752.801,-18.925243
1425425752.817,-17.698215
1425425752.832,-16.164886
1425425752.848,-14.055317
1425425752.863,-11.256123
1425425752.879,-7.894512
1425425752.895,-4.278473
1425425752.91,-0.78074646
1425425752.926,2.3897743
1425425752.942,5.171406
1425425752.957,7.6517296
1425425752.973,9.953632
1425425752.988,12.188324
1425425753.004,14.385197
1425425753.02,16.596321
1425425753.035,18.935322
1425425753.051,21.633217
1425425753.067,24.916729
1425425753.082,28.87696
1425425753.098,33.18324
1425425753.113,37.089146
1425425753.129,39.402954
1425425753.145,38.941616
1425425753.16,34.879814
1425425753.176,27.206135
1425425753.192,16.694305
1425425753.207,4.6599655
1425425753.223,-7.614147
1425425753.238,-19.31107
1425425753.254,-30.279278
1425425753.27,-40.84462
1425425753.285,-51.39167
1425425753.301,-62.00159
1425425753.317,-72.3446
1425425753.332,-81.81107
1425425753.348,-89.84966
1425425753.363,-96.1366
1425425753.379,-100.64807
1425425753.395,-103.588455
1425425753.41,-105.290474
1425425753.426,-106.11475
1425425753.442,-106.45822
1425425753.457,-106.61003
1425425753.473,-106.63548
1425425753.488,-106.18494
1425425753.504,-104.47861
1425425753.52,-100.42384
1425425753.535,-93.0151
1425425753.551,-81.70651
1425425753.567,-66.777626
1425425753.582,-49.439457
1425425753.598,-31.448677
1425425753.613,-14.62748
1425425753.629,-0.3968506
1425425753.645,10.615524
1425425753.66,18.494331
1425425753.676,23.747307
1425425753.692,26.954643
1425425753.707,28.480652
1425425753.723,28.570755
1425425753.738,27.50837
1425425753.754,25.86354
1425425753.77,24.511803
1425425753.785,24.429008
1425425753.801,26.356804
1425425753.817,30.483871
1425425753.832,36.53087
1425425753.848,43.93416
1425425753.863,52.118378
1425425753.879,60.613785
1425425753.895,68.93747
1425425753.91,76.492905
1425425753.926,82.50566
1425425753.942,86.19739
1425425753.957,86.99434
1425425753.973,84.86206
1425425753.988,80.282745
1425425754.004,74.019424
1425425754.02,66.84885
1425425754.035,59.3575
1425425754.051,51.83896
1425425754.067,44.512543
1425425754.082,37.552658
1425425754.098,31.216476
1425425754.113,25.783722
1425425754.129,21.404053
1425425754.145,18.023773
1425425754.16,15.374573
1425425754.176,13.099762
1425425754.192,10.833023
1425425754.207,8.358154
1425425754.223,5.621048
1425425754.238,2.7598877
1425425754.254,2.1362305E-4
1425425754.27,-2.4554443
1425425754.285,-4.511566
1425425754.301,-6.1476135
1425425754.317,-7.394287
1425425754.332,-8.2933655
1425425754.348,-8.858398
1425425754.363,-9.140137
1425425754.379,-9.180664
1425425754.395,-9.059326
1425425754.41,-8.8367
1425425754.426,-8.479462
1425425754.442,-7.8486023
1425425754.457,-6.792389
1425425754.473,-5.2609863
1425425754.488,-3.291626
1425425754.504,-1.0995789
1425425754.52,1.0931702
1425425754.535,3.1620178
1425425754.551,5.1676025
1425425754.567,7.347229
1425425754.582,10.09314
1425425754.598,13.753052
1425425754.613,18.48816
1425425754.629,24.140045
1425425754.645,30.098907
1425425754.66,35.34024
1425425754.676,38.731293
1425425754.692,39.25998
1425425754.707,36.547607
1425425754.723,30.933868
1425425754.738,23.450745
1425425754.754,15.491699
1425425754.77,8.377808
1425425754.785,2.9588013
1425425754.801,-0.52993774
1425425754.817,-2.3874817
1425425754.832,-3.223816
1425425754.848,-3.6313171
1425425754.864,-4.0203857
1425425754.879,-4.5256653
1425425754.895,-5.068329
1425425754.91,-5.463135
1425425754.926,-5.5341797
1425425754.942,-5.263092
1425425754.957,-4.7349243
1425425754.973,-4.211914
1425425754.988,-3.8684387
1425425755.004,-3.795044
1425425755.02,-3.9210815
1425425755.035,-4.0925903
1425425755.051,-4.187805
1425425755.067,-4.209015
1425425755.082,-4.186676
1425425755.098,-4.0961304
1425425755.114,-3.7366943
1425425755.129,-2.7394104
1425425755.145,-0.7211914
1425425755.16,2.4262085
1425425755.176,6.5061035
1425425755.192,10.942505
1425425755.207,15.077576
1425425755.223,18.449432
1425425755.239,20.916687
1425425755.254,22.763153
1425425755.27,24.46939
1425425755.285,26.537811
1425425755.301,29.329681
1425425755.317,32.960663
1425425755.332,37.31192
1425425755.348,42.018402
1425425755.364,46.491882
1425425755.379,49.92224
1425425755.395,51.423706
1425425755.41,50.162292
1425425755.426,45.7247
1425425755.442,38.212006
1425425755.457,28.42511
1425425755.473,17.579987
1425425755.489,7.002533
1425425755.504,-2.2234802
1425425755.52,-9.539642
1425425755.535,-14.891022
1425425755.551,-18.589325
1425425755.567,-21.037994
1425425755.582,-22.560364
1425425755.598,-23.30835
1425425755.614,-23.39972
1425425755.629,-23.022736
1425425755.645,-22.51007
1425425755.66,-22.34732
1425425755.676,-22.935028
1425425755.692,-24.460907
1425425755.707,-26.785065
1425425755.723,-29.472992
1425425755.739,-32.004517
1425425755.754,-33.938873
1425425755.77,-35.0896
1425425755.785,-35.48712
1425425755.801,-35.196564
1425425755.817,-34.246185
1425425755.832,-32.459717
1425425755.848,-29.591919
1425425755.864,-25.437286
1425425755.879,-20.02298
1425425755.895,-13.606537
1425425755.91,-6.7216797
1425425755.926,0.12991333
1425425755.942,6.461334
1425425755.957,12.053009
1425425755.973,16.907959
1425425755.989,21.238922
1425425756.004,25.394287
1425425756.02,29.799225
1425425756.035,34.79657
1425425756.051,40.5401
1425425756.067,46.905975
1425425756.082,53.34012
1425425756.098,58.953552
1425425756.114,62.659027
1425425756.129,63.450714
1425425756.145,60.724762
1425425756.16,54.565735
1425425756.176,45.77707
1425425756.192,35.669647
1425425756.207,25.643402
1425425756.223,16.81662
1425425756.239,9.7309265
1425425756.254,4.3597107
1425425756.27,0.27841187
1425425756.285,-2.975891
1425425756.301,-5.7168274
1425425756.317,-7.994995
1425425756.332,-9.718323
1425425756.348,-10.8220825
1425425756.364,-11.372772
1425425756.379,-11.6206665
1425425756.395,-11.91095
1425425756.41,-12.562073
1425425756.426,-13.691101
1425425756.442,-15.172943
1425425756.457,-16.687286
1425425756.473,-17.833618
1425425756.489,-18.289215
1425425756.504,-17.95195
1425425756.52,-16.930817
1425425756.535,-15.496582
1425425756.551,-13.929367
1425425756.567,-12.351379
1425425756.582,-10.677338
1425425756.598,-8.651306
1425425756.614,-5.969467
1425425756.629,-2.4654999
1425425756.645,1.6915894
1425425756.66,6.1326447
1425425756.676,10.333725
1425425756.692,13.868927
1425425756.707,16.554749
1425425756.723,18.469727
1425425756.739,19.908218
1425425756.754,21.259003
1425425756.77,22.864624
1425425756.785,25.000397
1425425756.801,27.741837
1425425756.817,30.90805
1425425756.832,33.987427
1425425756.848,36.142517
1425425756.864,36.390747
1425425756.879,33.927628
1425425756.895,28.425491
1425425756.91,20.254517
1425425756.926,10.416428
1425425756.942,0.26446533
1425425756.957,-8.919235
1425425756.973,-16.29277
1425425756.989,-21.660812
1425425757.004,-25.288559
1425425757.02,-27.678284
1425425757.035,-29.266373
1425425757.051,-30.299622
1425425757.067,-30.844894
1425425757.082,-30.941147
1425425757.098,-30.736237
1425425757.114,-30.428604
1425425757.129,-30.216034
1425425757.145,-30.201294
1425425757.16,-30.375214
1425425757.176,-30.603256
1425425757.192,-30.738876
1425425757.207,-30.64917
1425425757.223,-30.270706
1425425757.239,-29.545547
1425425757.254,-28.467148
1425425757.27,-27.095062
1425425757.285,-25.50975
1425425757.301,-23.847565
1425425757.317,-22.13652
1425425757.332,-20.383835
1425425757.348,-18.461334
1425425757.364,-16.284088
1425425757.379,-13.781525
1425425757.395,-10.99794
1425425757.41,-8.036789
1425425757.426,-5.001526
1425425757.442,-1.9818878
1425425757.457,0.9849396
1425425757.473,3.848999
1425425757.489,6.564636
1425425757.504,9.125244
1425425757.52,11.6020355
1425425757.535,14.217285
1425425757.551,17.261871
1425425757.567,21.014587
1425425757.582,25.556961
1425425757.598,30.63533
1425425757.614,35.5748
1425425757.629,39.42668
1425425757.645,41.12892
1425425757.66,39.866577
1425425757.676,35.273438
1425425757.692,27.650024
1425425757.707,17.908524
1425425757.723,7.351059
1425425757.739,-2.7124329
1425425757.754,-11.280197
1425425757.77,-17.907104
1425425757.786,-22.727974
1425425757.801,-26.241936
1425425757.817,-28.963333
1425425757.832,-31.232323
1425425757.848,-33.059998
1425425757.864,-34.29503
1425425757.879,-34.827446
1425425757.895,-34.821
1425425757.911,-34.684334
1425425757.926,-34.986465
1425425757.942,-36.137115
1425425757.957,-38.192886
1425425757.973,-40.84909
1425425757.989,-43.539
1425425758.004,-45.65145
1425425758.02,-46.84845
1425425758.036,-47.054787
1425425758.051,-46.41703
1425425758.067,-45.15162
1425425758.082,-43.400307
1425425758.098,-41.11138
1425425758.114,-38.08584
1425425758.129,-34.079132
1425425758.145,-28.973457
1425425758.161,-22.883163
1425425758.176,-16.185928
1425425758.192,-9.382736
1425425758.207,-2.967041
1425425758.223,2.788681
1425425758.239,7.8968353
1425425758.254,12.573425
1425425758.27,17.098358
1425425758.286,21.735352
1425425758.301,26.620651
1425425758.317,31.854538
1425425758.332,37.552734
1425425758.348,43.72769
1425425758.364,50.170624
1425425758.379,56.257217
1425425758.395,60.953857
1425425758.411,63.05716
1425425758.426,61.60968
1425425758.442,56.370758
1425425758.457,47.9516
1425425758.473,37.67108
1425425758.489,27.058807
1425425758.504,17.406433
1425425758.52,9.430557
1425425758.536,3.2392883
1425425758.551,-1.4158325
1425425758.567,-4.903366
1425425758.582,-7.465332
1425425758.598,-9.220917
1425425758.614,-10.207062
1425425758.629,-10.554367
1425425758.645,-10.526627
1425425758.661,-10.503265
1425425758.676,-10.857269
1425425758.692,-11.796188
1425425758.707,-13.267151
1425425758.723,-14.9266815
1425425758.739,-16.33461
1425425758.754,-17.109436
1425425758.77,-17.121964
1425425758.786,-16.470139
1425425758.801,-15.4362335
1425425758.817,-14.252106
1425425758.832,-13.038239
1425425758.848,-11.741211
1425425758.864,-10.196213
1425425758.879,-8.306213
1425425758.895,-6.030533
1425425758.911,-3.404602
1425425758.926,-0.52760315
1425425758.942,2.5246887
1425425758.957,5.6282806
1425425758.973,8.672913
1425425758.989,11.518112
1425425759.004,14.0952
1425425759.02,16.383484
1425425759.036,18.518433
1425425759.051,20.751251
1425425759.067,23.413635
1425425759.082,26.722076
1425425759.098,30.609543
1425425759.114,34.619522
1425425759.129,37.887405
1425425759.145,39.371063
1425425759.161,38.232635
1425425759.176,34.175446
1425425759.192,27.545609
1425425759.207,19.272064
1425425759.223,10.544479
1425425759.239,2.4248505
1425425759.254,-4.388397
1425425759.27,-9.689377
1425425759.286,-13.652237
1425425759.301,-16.59488
1425425759.317,-18.804733
1425425759.332,-20.410141
1425425759.348,-21.41214
1425425759.364,-21.762985
1425425759.379,-21.48964
1425425759.395,-20.76915
1425425759.411,-19.885376
1425425759.426,-19.196411
1425425759.442,-18.899536
1425425759.457,-19.03305
1425425759.473,-19.372421
1425425759.489,-19.612732
1425425759.504,-19.454193
1425425759.52,-18.767166
1425425759.536,-17.632172
1425425759.551,-16.276566
1425425759.567,-14.926956
1425425759.582,-13.676895
1425425759.598,-12.483185
1425425759.614,-11.092957
1425425759.629,-9.260056
1425425759.645,-6.8241425
1425425759.661,-3.8265686
1425425759.676,-0.4888916
1425425759.692,2.8823547
1425425759.707,6.055893
1425425759.723,8.964371
1425425759.739,11.595108
1425425759.754,14.044357
1425425759.77,16.393951
1425425759.786,18.726242
1425425759.801,21.134552
1425425759.817,23.760666
1425425759.832,26.705658
1425425759.848,30.022476
1425425759.864,33.487488
1425425759.879,36.59378
1425425759.895,38.561493
1425425759.911,38.485138
1425425759.926,35.69171
1425425759.942,29.994553
1425425759.957,21.895767
1425425759.973,12.479187
1425425759.989,3.087799
1425425760.004,-5.0730133
1425425760.02,-11.298538
1425425760.036,-15.456985
1425425760.051,-17.926346
1425425760.067,-19.266052
1425425760.082,-19.943253
1425425760.098,-20.172165
1425425760.114,-20.011353
1425425760.129,-19.480408
1425425760.145,-18.680588
1425425760.161,-17.83435
1425425760.176,-17.172577
1425425760.192,-16.855286
1425425760.207,-16.885086
1425425760.223,-17.088165
1425425760.239,-17.20079
1425425760.254,-16.950836
1425425760.27,-16.126282
1425425760.286,-14.651077
1425425760.301,-12.636642
1425425760.317,-10.337662
1425425760.332,-8.102966
1425425760.348,-6.2156677
1425425760.364,-4.7957764
1425425760.379,-3.6987305
1425425760.395,-2.6038666
1425425760.411,-1.157074
1425425760.426,0.87654114
1425425760.442,3.4909515
1425425760.458,6.3943787
1425425760.473,9.226929
1425425760.489,11.639084
1425425760.504,13.512695
1425425760.52,14.922241
1425425760.536,16.133972
1425425760.551,17.46733
1425425760.567,19.271606
1425425760.583,21.77121
1425425760.598,25.04364
1425425760.614,28.934753
1425425760.629,32.97786
1425425760.645,36.43608
1425425760.661,38.38649
1425425760.676,37.97336
1425425760.692,34.649048
1425425760.708,28.468979
1425425760.723,20.136139
1425425760.739,10.823547
1425425760.754,1.8516693
1425425760.77,-5.7687073
1425425760.786,-11.560669
1425425760.801,-15.588577
1425425760.817,-18.295593
1425425760.833,-20.166931
1425425760.848,-21.49942
1425425760.864,-22.390015
1425425760.879,-22.762161
1425425760.895,-22.569595
1425425760.911,-21.92305
1425425760.926,-21.11351
1425425760.942,-20.512192
1425425760.958,-20.393738
1425425760.973,-20.828781
1425425760.989,-21.64592
1425425761.004,-22.47377
1425425761.02,-22.990479
1425425761.036,-22.929993
1425425761.051,-22.258743
1425425761.067,-21.054153
1425425761.083,-19.458267
1425425761.098,-17.584305
1425425761.114,-15.528
1425425761.129,-13.357117
1425425761.145,-11.131882
1425425761.161,-8.92923
1425425761.176,-6.7457275
1425425761.192,-4.522766
1425425761.208,-2.1175995
1425425761.223,0.56889343
1425425761.239,3.5498962
1425425761.254,6.7292786
1425425761.27,9.93573
1425425761.286,13.022736
1425425761.301,15.951935
1425425761.317,18.885147
1425425761.333,22.06224
1425425761.348,25.777695
1425425761.364,30.127258
1425425761.379,34.926544
1425425761.395,39.62578
1425425761.411,43.353836
1425425761.426,45.139236
1425425761.442,44.138397
1425425761.458,39.99594
1425425761.473,32.9534
1425425761.489,23.839462
1425425761.504,13.902786
1425425761.52,4.3789825
1425425761.536,-3.759964
1425425761.551,-10.057541
1425425761.567,-14.485153
1425425761.583,-17.338882
1425425761.598,-18.981552
1425425761.614,-19.744507
1425425761.629,-19.83934
1425425761.645,-19.462143
1425425761.661,-18.810242
1425425761.676,-18.0831
1425425761.692,-17.546722
1425425761.708,-17.354568
1425425761.723,-17.589539
1425425761.739,-18.19806
1425425761.754,-19.001617
1425425761.77,-19.724213
1425425761.786,-20.106659
1425425761.801,-19.95015
1425425761.817,-19.202621
1425425761.833,-18.010025
1425425761.848,-16.55925
1425425761.864,-15.066849
1425425761.879,-13.602875
1425425761.895,-12.054611
1425425761.911,-10.208405
1425425761.926,-7.820862
1425425761.942,-4.753479
1425425761.958,-1.0391846
1425425761.973,3.0828552
1425425761.989,7.2732697
1425425762.004,11.175583
1425425762.02,14.570129
1425425762.036,17.434525
1425425762.051,19.932632
1425425762.067,22.372284
1425425762.083,25.048492
1425425762.098,28.188522
1425425762.114,31.84375
1425425762.129,35.85341
1425425762.145,39.775192
1425425762.161,42.900757
1425425762.176,44.350708
1425425762.192,43.343338
1425425762.208,39.47531
1425425762.223,32.945175
1425425762.239,24.547775
1425425762.254,15.445557
1425425762.27,6.786316
1425425762.286,-0.6274719
1425425762.301,-6.5345154
1425425762.317,-11.0290985
1425425762.333,-14.394409
1425425762.348,-16.809357
1425425762.364,-18.294083
1425425762.379,-18.816147
1425425762.395,-18.452408
1425425762.411,-17.490494
1425425762.426,-16.375717
1425425762.442,-15.52626
1425425762.458,-15.256226
1425425762.473,-15.663864
1425425762.489,-16.616943
1425425762.504,-17.882568
1425425762.52,-19.159561
1425425762.536,-20.176254
1425425762.551,-20.747345
1425425762.567,-20.76793
1425425762.583,-20.29425
1425425762.598,-19.459732
1425425762.614,-18.45285
1425425762.629,-17.401672
1425425762.645,-16.287994
1425425762.661,-14.91777
1425425762.676,-13.020126
1425425762.692,-10.410141
1425425762.708,-7.08313
1425425762.723,-3.2440033
1425425762.739,0.7569885
1425425762.754,4.543457
1425425762.77,7.8655853
1425425762.786,10.697968
1425425762.801,13.162415
1425425762.817,15.569977
1425425762.833,18.235428
1425425762.848,21.454285
1425425762.864,25.382751
1425425762.879,30.003021
1425425762.895,35.05426
1425425762.911,39.93332
1425425762.926,43.725388
1425425762.942,45.402924
1425425762.958,44.062164
1425425762.973,39.25847
1425425762.989,31.31314
1425425763.004,21.261642
1425425763.02,10.602051
1425425763.036,0.81770325
1425425763.051,-7.063431
1425425763.067,-12.632309
1425425763.083,-16.086777
1425425763.098,-17.948196
1425425763.114,-18.739182
1425425763.13,-18.825531
1425425763.145,-18.415771
1425425763.161,-17.641953
1425425763.176,-16.662064
1425425763.192,-15.756348
1425425763.208,-15.223709
1425425763.223,-15.265701
1425425763.239,-15.888123
1425425763.255,-16.889069
1425425763.27,-17.921646
1425425763.286,-18.62613
1425425763.301,-18.799576
1425425763.317,-18.44513
1425425763.333,-17.72145
1425425763.348,-16.825409
1425425763.364,-15.887054
1425425763.38,-14.875137
1425425763.395,-13.626678
1425425763.411,-11.943481
1425425763.426,-9.709045
1425425763.442,-6.92276
1425425763.458,-3.7343903
1425425763.473,-0.34440613
1425425763.489,2.9901123
1425425763.505,6.027817
1425425763.52,8.626129
1425425763.536,10.720001
1425425763.551,12.356995
1425425763.567,13.701782
1425425763.583,15.063568
1425425763.598,16.824524
1425425763.614,19.391739
1425425763.63,23.034637
1425425763.645,27.652191
1425425763.661,32.72078
1425425763.676,37.29985
1425425763.692,40.270737
1425425763.708,40.644745
1425425763.723,37.94989
1425425763.739,32.35144
1425425763.755,24.63678
1425425763.77,15.883545
1425425763.786,7.214966
1425425763.801,-0.5400696
1425425763.817,-6.903984
1425425763.833,-11.79969
1425425763.848,-15.380936
1425425763.864,-17.936218
1425425763.88,-19.752327
1425425763.895,-21.023613
1425425763.911,-21.83802
1425425763.926,-22.221405
1425425763.942,-22.210396
1425425763.958,-21.913025
1425425763.973,-21.503792
1425425763.989,-21.143227
1425425764.005,-20.909698
1425425764.02,-20.782303
1425425764.036,-20.645538
1425425764.051,-20.369751
1425425764.067,-19.839195
1425425764.083,-18.990265
1425425764.098,-17.81009
1425425764.114,-16.312576
1425425764.13,-14.495628
1425425764.145,-12.407593
1425425764.161,-10.065659
1425425764.176,-7.493126
1425425764.192,-4.6333466
1425425764.208,-1.4679489
1425425764.223,1.9643631
1425425764.239,5.540222
1425425764.255,9.052544
1425425764.27,12.301292
1425425764.286,15.190773
1425425764.301,17.759415
1425425764.317,20.146652
1425425764.333,22.518875
1425425764.348,25.064194
1425425764.364,27.90731
1425425764.38,31.174103
1425425764.395,34.86376
1425425764.411,38.723694
1425425764.426,42.20627
1425425764.442,44.481483
1425425764.458,44.656
1425425764.473,42.096848
1425425764.489,36.69014
1425425764.505,28.96138
1425425764.52,19.931671
1425425764.536,10.8372345
1425425764.551,2.678543
1425425764.567,-3.9321823
1425425764.583,-8.906204
1425425764.598,-12.48896
1425425764.614,-15.056816
1425425764.63,-16.902977
1425425764.645,-18.129745
1425425764.661,-18.726486
1425425764.676,-18.74253
1425425764.692,-18.377487
1425425764.708,-18.043594
1425425764.723,-18.178253
1425425764.739,-19.02961
1425425764.755,-20.494019
1425425764.77,-22.153587
1425425764.786,-23.47831
1425425764.801,-24.102219
1425425764.817,-23.959938
1425425764.833,-23.30135
1425425764.848,-22.41249
1425425764.864,-21.483204
1425425764.88,-20.421768
1425425764.895,-18.976631
1425425764.911,-16.889622
1425425764.926,-14.021839
1425425764.942,-10.48859
1425425764.958,-6.535572
1425425764.973,-2.4540062
1425425764.989,1.526268
1425425765.005,5.2327995
1425425765.02,8.603355
1425425765.036,11.626629
1425425765.051,14.3709755
1425425765.067,17.053333
1425425765.083,19.933052
1425425765.098,23.31424
1425425765.114,27.380585
1425425765.13,32.034782
1425425765.145,36.842926
1425425765.161,41.04944
1425425765.176,43.687664
1425425765.192,43.872032
1425425765.208,41.076103
1425425765.223,35.31793
1425425765.239,27.190739
1425425765.255,17.772919
1425425765.27,8.212353
1425425765.286,-0.50208855
1425425765.301,-7.769659
1425425765.317,-13.426704
1425425765.333,-17.623745
1425425765.348,-20.609514
1425425765.364,-22.66889
1425425765.38,-23.973993
1425425765.395,-24.641346
1425425765.411,-24.835579
1425425765.426,-24.770472
1425425765.442,-24.729382
1425425765.458,-24.96415
1425425765.473,-25.653625
1425425765.489,-26.722153
1425425765.505,-27.969498
1425425765.52,-29.06735
1425425765.536,-29.715153
1425425765.551,-29.770895
1425425765.567,-29.241144
1425425765.583,-28.278996
1425425765.598,-27.011484
1425425765.614,-25.44044
1425425765.63,-23.418776
1425425765.645,-20.773798
1425425765.661,-17.364616
1425425765.676,-13.215813
1425425765.692,-8.572971
1425425765.708,-3.7860947
1425425765.723,0.7868438
1425425765.739,4.84519
1425425765.755,8.279779
1425425765.77,11.123261
1425425765.786,13.510751
1425425765.802,15.684365
1425425765.817,17.876045
1425425765.833,20.30597
1425425765.848,23.235462
1425425765.864,26.889832
1425425765.88,31.409456
1425425765.895,36.70717
1425425765.911,42.3032
1425425765.926,47.27569
1425425765.942,50.4429
1425425765.958,50.759506
1425425765.973,47.63908
1425425765.989,41.29509
1425425766.005,32.677467
1425425766.02,23.153158
1425425766.036,14.013954
1425425766.052,6.073927
1425425766.067,-0.42607117
1425425766.083,-5.7135506
1425425766.098,-10.184956
1425425766.114,-14.118069
1425425766.13,-17.537323
1425425766.145,-20.359821
1425425766.161,-22.48883
1425425766.177,-23.990318
1425425766.192,-25.014671
1425425766.208,-25.824577
1425425766.223,-26.571308
1425425766.239,-27.322437
1425425766.255,-28.063198
1425425766.27,-28.747822
1425425766.286,-29.381859
1425425766.302,-29.926064
1425425766.317,-30.338428
1425425766.333,-30.500042
1425425766.348,-30.241077
1425425766.364,-29.397617
1425425766.38,-27.915295
1425425766.395,-25.83183
1425425766.411,-23.246082
1425425766.427,-20.280201
1425425766.442,-16.943008
1425425766.458,-13.202549
1425425766.473,-8.987141
1425425766.489,-4.3258743
1425425766.505,0.62183
1425425766.52,5.545223
1425425766.536,10.087711
1425425766.552,13.949528
1425425766.567,16.96854
1425425766.583,19.192268
1425425766.598,20.815353
1425425766.614,22.161186
1425425766.63,23.627953
1425425766.645,25.63057
1425425766.661,28.452942
1425425766.677,32.09346
1425425766.692,36.157463
1425425766.708,39.806755
1425425766.723,41.94574
1425425766.739,41.52137
1425425766.755,37.922737
1425425766.77,31.200668
1425425766.786,22.133461
1425425766.802,11.968018
1425425766.817,2.040535
1425425766.833,-6.5875626
1425425766.848,-13.377708
1425425766.864,-18.327644
1425425766.88,-21.832977
1425425766.895,-24.387344
1425425766.911,-26.382118
1425425766.927,-27.967567
1425425766.942,-29.0494
1425425766.958,-29.435432
1425425766.973,-28.98648
1425425766.989,-27.807922
1425425767.005,-26.213402
1425425767.02,-24.67926
1425425767.036,-23.567894
1425425767.052,-23.018837
1425425767.067,-22.861588
1425425767.083,-22.774673
1425425767.098,-22.41285
1425425767.114,-21.558258
1425425767.13,-20.199211
1425425767.145,-18.398338
1425425767.161,-16.28231
1425425767.177,-13.930992
1425425767.192,-11.373085
1425425767.208,-8.643951
1425425767.223,-5.7719574
1425425767.239,-2.7865448
1425425767.255,0.22145844
1425425767.27,3.1509018
1425425767.286,5.9261703
1425425767.302,8.43737
1425425767.317,10.640694
1425425767.333,12.550537
1425425767.348,14.29847
1425425767.364,16.115105
1425425767.38,18.286781
1425425767.395,21.074326
1425425767.411,24.606003
1425425767.427,28.869217
1425425767.442,33.57096
1425425767.458,38.136215
1425425767.473,41.764412
1425425767.489,43.496353
1425425767.505,42.547836
1425425767.52,38.579865
1425425767.536,31.873428
1425425767.552,23.267159
1425425767.567,13.945755
1425425767.583,5.0829926
1425425767.598,-2.5539322
1425425767.614,-8.6182785
1425425767.63,-13.21727
1425425767.645,-16.68814
1425425767.661,-19.348358
1425425767.677,-21.437195
1425425767.692,-23.06675
1425425767.708,-24.268059
1425425767.723,-25.041756
1425425767.739,-25.40805
1425425767.755,-25.438774
1425425767.77,-25.312485
1425425767.786,-25.248016
1425425767.802,-25.447426
1425425767.817,-25.948257
1425425767.833,-26.596481
1425425767.848,-27.078384
1425425767.864,-27.050163
1425425767.88,-26.322083
1425425767.895,-24.936348
1425425767.911,-23.099106
1425425767.927,-21.044762
1425425767.942,-18.874489
1425425767.958,-16.486374
1425425767.973,-13.65007
1425425767.989,-10.200905
1425425768.005,-6.113411
1425425768.02,-1.5823212
1425425768.036,3.1101532
1425425768.052,7.6511154
1425425768.067,11.786171
1425425768.083,15.389717
1425425768.098,18.421623
1425425768.114,20.974655
1425425768.13,23.23455
1425425768.145,25.482353
1425425768.161,28.001465
1425425768.177,31.035019
1425425768.192,34.643555
1425425768.208,38.57379
1425425768.223,42.192192
1425425768.239,44.57244
1425425768.255,44.698593
1425425768.27,41.812035
1425425768.286,35.735924
1425425768.302,26.95237
1425425768.317,16.517944
1425425768.333,5.752846
1425425768.348,-4.1676636
1425425768.364,-12.497856
1425425768.38,-18.961159
1425425768.395,-23.699501
1425425768.411,-27.06585
1425425768.427,-29.377876
1425425768.442,-30.89241
1425425768.458,-31.779732
1425425768.473,-32.11387
1425425768.489,-31.967255
1425425768.505,-31.39283
1425425768.52,-30.494278
1425425768.536,-29.437263
1425425768.552,-28.460228
1425425768.567,-27.754364
1425425768.583,-27.426697
1425425768.598,-27.38816
1425425768.614,-27.347046
1425425768.63,-26.947838
1425425768.645,-25.939774
1425425768.661,-24.237999
1425425768.677,-22.017357
1425425768.692,-19.501144
1425425768.708,-16.827103
1425425768.724,-14.002022
1425425768.739,-10.883766
1425425768.755,-7.3434143
1425425768.77,-3.4154587
1425425768.786,0.7231827
1425425768.802,4.8404007
1425425768.817,8.705978
1425425768.833,12.216469
1425425768.849,15.41658
1425425768.864,18.368835
1425425768.88,21.151764
1425425768.895,23.861977
1425425768.911,26.636742
1425425768.927,29.68348
1425425768.942,33.22367
1425425768.958,37.33355
1425425768.974,41.852524
1425425768.989,46.228874
1425425769.005,49.60858
1425425769.02,51.015488
1425425769.036,49.599945
1425425769.052,44.917084
1425425769.067,37.130356
1425425769.083,27.019882
1425425769.099,15.784424
1425425769.114,4.7584534
1425425769.13,-4.8813934
1425425769.145,-12.42659
1425425769.161,-17.655724
1425425769.177,-20.819397
1425425769.192,-22.410088
1425425769.208,-22.961754
1425425769.224,-22.915207
1425425769.239,-22.6081
1425425769.255,-22.253769
1425425769.27,-22.040749
1425425769.286,-22.084251
1425425769.302,-22.477264
1425425769.317,-23.274483
1425425769.333,-24.476334
1425425769.349,-25.97351
1425425769.364,-27.551834
1425425769.38,-28.906242
1425425769.395,-29.72937
1425425769.411,-29.753128
1425425769.427,-28.93367
1425425769.442,-27.35714
1425425769.458,-25.273201
1425425769.474,-22.911812
1425425769.489,-20.38099
1425425769.505,-17.665955
1425425769.52,-14.677734
1425425769.536,-11.338264
1425425769.552,-7.686432
1425425769.567,-3.879074
1425425769.583,-0.12310791
1425425769.599,3.4134521
1425425769.614,6.6811905
1425425769.63,9.67791
1425425769.645,12.467766
1425425769.661,15.152092
1425425769.677,17.86042
1425425769.692,20.852097
1425425769.708,24.422234
1425425769.724,28.836212
1425425769.739,34.10579
1425425769.755,39.829765
1425425769.77,45.096832
1425425769.786,48.689537
1425425769.802,49.401665
1425425769.817,46.542084
1425425769.833,40.188393
1425425769.849,31.22509
1425425769.864,21.023026
1425425769.88,11.006981
1425425769.895,2.202156
1425425769.911,-4.8837967
1425425769.927,-10.278313
1425425769.942,-14.23233
1425425769.958,-17.076195
1425425769.974,-19.06372
1425425769.989,-20.407234
1425425770.005,-21.316025
1425425770.02,-22.045311
1425425770.036,-22.856827
1425425770.052,-23.920853
1425425770.067,-25.188515
1425425770.083,-26.428017
1425425770.099,-27.288353
1425425770.114,-27.44284
1425425770.13,-26.728806
1425425770.145,-25.237274
1425425770.161,-23.273048
1425425770.177,-21.196198
1425425770.192,-19.266014
1425425770.208,-17.499931
1425425770.224,-15.729057
1425425770.239,-13.719543
1425425770.255,-11.264931
1425425770.27,-8.34021
1425425770.286,-5.003479
1425425770.302,-1.3647614
1425425770.317,2.4996262
1425425770.333,6.4923477
1425425770.349,10.50824
1425425770.364,14.311867
1425425770.38,17.643784
1425425770.395,20.288322
1425425770.411,22.26522
1425425770.427,23.847252
1425425770.442,25.541466
1425425770.458,27.839653
1425425770.474,31.017845
1425425770.489,34.9339
1425425770.505,39.03054
1425425770.52,42.43422
1425425770.536,44.18679
1425425770.552,43.48221
1425425770.567,39.901367
1425425770.583,33.524666
1425425770.599,24.95977
1425425770.614,15.1636505
1425425770.63,5.2372437
1425425770.645,-3.797081
1425425770.661,-11.230995
1425425770.677,-16.75026
1425425770.692,-20.359062
1425425770.708,-22.316643
1425425770.724,-22.975082
1425425770.739,-22.765022
1425425770.755,-22.041656
1425425770.77,-21.113716
1425425770.786,-20.258156
1425425770.802,-19.703941
1425425770.817,-19.60521
1425425770.833,-19.989182
1425425770.849,-20.76744
1425425770.864,-21.704147
1425425770.88,-22.53115
1425425770.895,-23.020699
1425425770.911,-23.049095
1425425770.927,-22.646141
1425425770.942,-21.942383
1425425770.958,-21.00711
1425425770.974,-19.79145
1425425770.989,-18.091156
1425425771.005,-15.581131
1425425771.02,-12.001549
1425425771.036,-7.2954025
1425425771.052,-1.7216492
1425425771.067,4.166336
1425425771.083,9.659561
1425425771.099,14.204208
1425425771.114,17.546516
1425425771.13,19.842392
1425425771.145,21.61734
1425425771.161,23.540062
1425425771.177,26.160088
1425425771.192,29.749504
1425425771.208,34.23806
1425425771.224,39.203598
1425425771.239,43.958458
1425425771.255,47.626724
1425425771.27,49.319656
1425425771.286,48.257744
1425425771.302,44.12584
1425425771.317,37.133484
1425425771.333,28.160423
1425425771.349,18.462807
1425425771.364,9.32769
1425425771.38,1.6944275
1425425771.396,-4.115921
1425425771.411,-8.277344
1425425771.427,-11.269165
1425425771.442,-13.52449
1425425771.458,-15.308151
1425425771.474,-16.64547
1425425771.489,-17.50058
1425425771.505,-17.899803
1425425771.521,-17.989166
1425425771.536,-18.015343
1425425771.552,-18.194717
1425425771.567,-18.617432
1425425771.583,-19.284332
1425425771.599,-20.077866
1425425771.614,-20.86412
1425425771.63,-21.491432
1425425771.646,-21.86618
1425425771.661,-21.931091
1425425771.677,-21.742188
1425425771.692,-21.357506
1425425771.708,-20.832916
1425425771.724,-20.08377
1425425771.739,-18.899727
1425425771.755,-17.005112
1425425771.771,-14.202339
1425425771.786,-10.570572
1425425771.802,-6.4734726
1425425771.817,-2.442604
1425425771.833,1.0566254
1425425771.849,3.8957062
1425425771.864,6.270012
1425425771.88,8.633194
1425425771.896,11.405846
1425425771.911,14.868065
1425425771.927,19.039665
1425425771.942,23.785896
1425425771.958,28.835579
1425425771.974,33.79164
1425425771.989,37.99359
1425425772.005,40.575226
1425425772.021,40.63006
1425425772.036,37.573494
1425425772.052,31.485916
1425425772.067,23.187805
1425425772.083,14.038986
1425425772.099,5.4392853
1425425772.114,-1.6269836
1425425772.13,-6.8315964
1425425772.146,-10.439011
1425425772.161,-12.953056
1425425772.177,-14.848579
1425425772.192,-16.33387
1425425772.208,-17.44786
1425425772.224,-18.163765
1425425772.239,-18.534462
1425425772.255,-18.706764
1425425772.271,-18.939453
1425425772.286,-19.416153
1425425772.302,-20.206032
1425425772.317,-21.240372
1425425772.333,-22.319801
1425425772.349,-23.23333
1425425772.364,-23.824043
1425425772.38,-24.042732
1425425772.396,-23.94152
1425425772.411,-23.621979
1425425772.427,-23.118721
1425425772.442,-22.357735
1425425772.458,-21.183914
1425425772.474,-19.391922
1425425772.489,-16.856422
1425425772.505,-13.568855
1425425772.521,-9.668404
1425425772.536,-5.4140396
1425425772.552,-1.11203
1425425772.567,2.9508438
1425425772.583,6.5793076
1425425772.599,9.685928
1425425772.614,12.337357
1425425772.63,14.732658
1425425772.646,17.144157
1425425772.661,19.85833
1425425772.677,23.15767
1425425772.692,27.219246
1425425772.708,31.999214
1425425772.724,37.138397
1425425772.739,41.822746
1425425772.755,44.979813
1425425772.771,45.49292
1425425772.786,42.63408
1425425772.802,36.371437
1425425772.817,27.514313
1425425772.833,17.460632
1425425772.849,7.7405396
1425425772.864,-0.49796295
1425425772.88,-6.7747116
1425425772.896,-11.280716
1425425772.911,-14.579933
1425425772.927,-17.255959
1425425772.942,-19.611969
1425425772.958,-21.643578
1425425772.974,-23.12761
1425425772.989,-23.85984
1425425773.005,-23.850151
1425425773.021,-23.35588
1425425773.036,-22.77533
1425425773.052,-22.472954
1425425773.067,-22.620354
1425425773.083,-23.11023
1425425773.099,-23.652473
1425425773.114,-23.90329
1425425773.13,-23.598907
1425425773.146,-22.680717
1425425773.161,-21.247246
1425425773.177,-19.474838
1425425773.192,-17.487068
1425425773.208,-15.337807
1425425773.224,-12.922592
1425425773.239,-10.127983
1425425773.255,-6.8619003
1425425773.271,-3.1948395
1425425773.286,0.637146
1425425773.302,4.321518
1425425773.317,7.56073
1425425773.333,10.214561
1425425773.349,12.3413315
1425425773.364,14.194748
1425425773.38,16.15506
1425425773.396,18.584183
1425425773.411,21.768456
1425425773.427,25.81205
1425425773.442,30.637512
1425425773.458,35.88617
1425425773.474,40.92198
1425425773.489,44.804977
1425425773.505,46.558754
1425425773.521,45.373695
1425425773.536,40.938293
1425425773.552,33.620605
1425425773.567,24.417923
1425425773.583,14.635841
1425425773.599,5.4883347
1425425773.614,-2.2482605
1425425773.63,-8.32888
1425425773.646,-12.9277725
1425425773.661,-16.386017
1425425773.677,-19.028084
1425425773.692,-20.944283
1425425773.708,-22.162407
1425425773.724,-22.737038
1425425773.739,-22.87223
1425425773.755,-22.858017
1425425773.771,-23.018936
1425425773.786,-23.509163
1425425773.802,-24.330124
1425425773.817,-25.252953
1425425773.833,-25.975403
1425425773.849,-26.22641
1425425773.864,-25.880486
1425425773.88,-24.952003
1425425773.896,-23.607117
1425425773.911,-22.012238
1425425773.927,-20.263351
1425425773.942,-18.31392
1425425773.958,-16.005447
1425425773.974,-13.063797
1425425773.989,-9.320488
1425425774.005,-4.8175735
1425425774.021,0.114097595
1425425774.036,4.925766
1425425774.052,9.031181
1425425774.068,12.026855
1425425774.083,13.873428
1425425774.099,14.880669
1425425774.114,15.640373
1425425774.13,16.792068
1425425774.146,18.850143
1425425774.161,22.096405
1425425774.177,26.455605
1425425774.193,31.514626
1425425774.208,36.48056
1425425774.224,40.345818
1425425774.239,42.04596
1425425774.255,40.858177
1425425774.271,36.615715
1425425774.286,29.873962
1425425774.302,21.707153
1425425774.318,13.397644
1425425774.333,5.9640045
1425425774.349,-0.051567078
1425425774.364,-4.6195908
1425425774.38,-7.997078
1425425774.396,-10.496315
1425425774.411,-12.313454
1425425774.427,-13.551346
1425425774.443,-14.28759
1425425774.458,-14.711906
1425425774.474,-15.088524
1425425774.489,-15.71347
1425425774.505,-16.727043
1425425774.521,-18.114563
1425425774.536,-19.673111
1425425774.552,-21.100632
1425425774.568,-22.141632
1425425774.583,-22.620163
1425425774.599,-22.538803
1425425774.614,-22.017693
1425425774.63,-21.203117
1425425774.646,-20.194275
1425425774.661,-19.016647
1425425774.677,-17.635735
1425425774.693,-15.937927
1425425774.708,-13.792915
1425425774.724,-11.117134
1425425774.739,-7.9092865
1425425774.755,-4.2405624
1425425774.771,-0.303154
1425425774.786,3.6691895
1425425774.802,7.3494797
1425425774.818,10.496361
1425425774.833,13.015518
1425425774.849,15.0438385
1425425774.864,16.872406
1425425774.88,18.916534
1425425774.896,21.531013
1425425774.911,24.933174
1425425774.927,29.071587
1425425774.943,33.5373
1425425774.958,37.57924
1425425774.974,40.21827
1425425774.989,40.434708
1425425775.005,37.534058
1425425775.021,31.420761
1425425775.036,22.689804
1425425775.052,12.518501
1425425775.068,2.3097382
1425425775.083,-6.698601
1425425775.099,-13.758148
1425425775.114,-18.711494
1425425775.13,-21.830048
1425425775.146,-23.624146
1425425775.161,-24.554436
1425425775.177,-24.936264
1425425775.193,-24.964027
1425425775.208,-24.763863
1425425775.224,-24.461761
1425425775.239,-24.23114
1425425775.255,-24.24479
1425425775.271,-24.630417
1425425775.286,-25.34317
1425425775.302,-26.25283
1425425775.318,-27.107056
1425425775.333,-27.68644
1425425775.349,-27.80542
1425425775.364,-27.462547
1425425775.38,-26.665833
1425425775.396,-25.489906
1425425775.411,-23.944557
1425425775.427,-22.01596
1425425775.443,-19.672653
1425425775.458,-16.912529
1425425775.474,-13.764519
1425425775.489,-10.276489
1425425775.505,-6.504921
1425425775.521,-2.527504
1425425775.536,1.5341644
1425425775.552,5.517807
1425425775.568,9.247025
1425425775.583,12.550423
1425425775.599,15.379173
1425425775.614,17.77819
1425425775.63,19.976807
1425425775.646,22.258102
1425425775.661,24.967781
1425425775.677,28.407608
1425425775.693,32.661827
1425425775.708,37.451057
1425425775.724,42.03163
1425425775.739,45.251648
1425425775.755,45.911682
1425425775.771,43.165333
1425425775.786,36.910038
1425425775.802,27.900314
1425425775.818,17.533958
1425425775.833,7.3906517
1425425775.849,-1.2470322
1425425775.864,-7.7691917
1425425775.88,-12.203552
1425425775.896,-15.039303
1425425775.911,-16.86728
1425425775.927,-18.183807
1425425775.943,-19.238068
1425425775.958,-20.115585
1425425775.974,-20.807854
1425425775.989,-21.359947
1425425776.005,-21.899143
1425425776.021,-22.601273
1425425776.036,-23.587711
1425425776.052,-24.815098
1425425776.068,-26.059261
1425425776.083,-27.024723
1425425776.099,-27.45655
1425425776.114,-27.223125
1425425776.13,-26.417858
1425425776.146,-25.21465
1425425776.161,-23.771297
1425425776.177,-22.200554
1425425776.193,-20.525848
1425425776.208,-18.779121
1425425776.224,-16.964176
1425425776.239,-15.09959
1425425776.255,-13.128027
1425425776.271,-10.886354
1425425776.286,-8.200577
1425425776.302,-4.9986134
1425425776.318,-1.3860893
1425425776.333,2.3533688
1425425776.349,5.8791656
1425425776.364,8.984604
1425425776.38,11.660223
1425425776.396,14.079058
1425425776.411,16.531353
1425425776.427,19.28788
1425425776.443,22.582884
1425425776.458,26.51348
1425425776.474,31.055202
1425425776.489,35.862534
1425425776.505,40.24332
1425425776.521,43.152504
1425425776.536,43.459404
1425425776.552,40.327023
1425425776.568,33.64072
1425425776.583,24.094517
1425425776.599,13.013487
1425425776.614,1.8908153
1425425776.63,-8.069468
1425425776.646,-16.352932
1425425776.661,-23.126844
1425425776.677,-29.07329
1425425776.693,-34.972496
1425425776.708,-41.470478
1425425776.724,-48.88138
1425425776.74,-57.164448
1425425776.755,-66.04599
1425425776.771,-75.164986
1425425776.786,-84.16319
1425425776.802,-92.76964
1425425776.818,-100.71653
1425425776.833,-107.69658
1425425776.849,-113.38397
1425425776.864,-117.49951
1425425776.88,-119.907936
1425425776.896,-120.75389
1425425776.911,-120.39002
1425425776.927,-119.247406
1425425776.943,-117.57409
1425425776.958,-115.32955
1425425776.974,-112.17329
1425425776.99,-107.66333
1425425777.005,-101.487724
1425425777.021,-93.62537
1425425777.036,-84.35819
1425425777.052,-74.1565
1425425777.068,-63.462578
1425425777.083,-52.559433
1425425777.099,-41.492386
1425425777.115,-30.254211
1425425777.13,-18.782883
1425425777.146,-7.108307
1425425777.161,4.6355286
1425425777.177,16.233337
1425425777.193,27.444092
1425425777.208,38.029892
1425425777.224,47.70285
1425425777.24,56.12207
1425425777.255,62.90164
1425425777.271,67.693695
1425425777.286,70.34189
1425425777.302,70.9397
1425425777.318,69.88577
1425425777.333,67.79898
1425425777.349,65.355774
1425425777.365,63.117706
1425425777.38,61.459045
1425425777.396,60.52408
1425425777.411,60.31073
1425425777.427,60.713196
1425425777.443,61.62903
1425425777.458,62.97702
1425425777.474,64.73102
1425425777.49,66.87384
1425425777.505,69.33197
1425425777.521,71.88684
1425425777.536,74.10867
1425425777.552,75.40881
1425425777.568,75.13739
1425425777.583,72.92804
1425425777.599,68.84613
1425425777.615,63.401
1425425777.63,57.43347
1425425777.646,51.766968
1425425777.661,46.94519
1425425777.677,43.13571
1425425777.693,40.164734
1425425777.708,37.822662
1425425777.724,36.06305
1425425777.74,35.075623
1425425777.755,35.17105
1425425777.771,36.575836
1425425777.786,39.20053
1425425777.802,42.582886
1425425777.818,46.042297
1425425777.833,48.88806
1425425777.849,50.735962
1425425777.865,51.630432
1425425777.88,51.986694
1425425777.896,52.390137
1425425777.911,53.347046
1425425777.927,55.112854
1425425777.943,57.56665
1425425777.958,60.27661
1425425777.974,62.51367
1425425777.99,63.44586
1425425778.005,62.21936
1425425778.021,58.149475
1425425778.036,50.87787
1425425778.052,40.646362
1425425778.068,28.167358
1425425778.083,14.7282715
1425425778.099,1.616333
1425425778.115,-10.31189
1425425778.13,-20.780518
1425425778.146,-29.902771
1425425778.161,-37.900208
1425425778.177,-44.8703
1425425778.193,-50.72339
1425425778.208,-55.26944
1425425778.224,-58.37439
1425425778.24,-60.349457
1425425778.255,-62.22693
1425425778.271,-65.27252
1425425778.286,-70.41687
1425425778.302,-77.72168
1425425778.318,-86.256836
1425425778.333,-94.539856
1425425778.349,-101.21176
1425425778.365,-105.08606
1425425778.38,-106.02191
1425425778.396,-104.835754
1425425778.411,-102.726746
1425425778.427,-100.42505
1425425778.443,-97.82965
1425425778.458,-94.212524
1425425778.474,-88.77142
1425425778.49,-80.987366
1425425778.505,-69.62286
1425425778.521,-54.435913
1425425778.536,-36.685852
1425425778.552,-18.49353
1425425778.568,-1.4699097
1425425778.583,14.14209
1425425778.599,29.381348
1425425778.615,45.80365
1425425778.63,64.57391
1425425778.646,88.406006
1425425778.661,117.55322
1425425778.677,148.90894
1425425778.693,177.26758
1425425778.708,198.29767
1425425778.724,210.18451
1425425778.74,213.63794
1425425778.755,210.64832
1425425778.771,203.52838
1425425778.786,198.53351
1425425778.802,199.60706
1425425778.818,206.59296
1425425778.833,216.04364
1425425778.849,224.53241
1425425778.865,230.4411
1425425778.88,233.94073
1425425778.896,235.94324
1425425778.911,237.84088
1425425778.927,246.90753
1425425778.943,268.31238
1425425778.958,301.90445
1425425778.974,342.33966
1425425778.99,382.59323
1425425779.005,416.54544
1425425779.021,440.27985
1425425779.036,452.22168
1425425779.052,418.97946
1425425779.068,329.84225
1425425779.083,203.18137
1425425779.099,75.286224
1425425779.115,-26.334137
1425425779.13,-94.2657
1425425779.146,-134.67221
1425425779.161,-156.91449
1425425779.177,-168.40515
1425425779.193,-173.52617
1425425779.208,-169.06595
1425425779.224,-153.85095
1425425779.24,-131.43834
1425425779.255,-109.069885
1425425779.271,-91.877945
1425425779.286,-83.058174
1425425779.302,-82.115204
1425425779.318,-86.609505
1425425779.333,-93.849106
1425425779.349,-97.34589
1425425779.365,-93.77966
1425425779.38,-84.26866
1425425779.396,-73.32839
1425425779.412,-65.4279
1425425779.427,-63.006924
1425425779.443,-66.27708
1425425779.458,-74.69168
1425425779.474,-88.09278
1425425779.49,-100.539566
1425425779.505,-109.115845
1425425779.521,-114.05214
1425425779.536,-117.96701
1425425779.552,-123.64003
1425425779.568,-132.66628
1425425779.583,-145.19498
1425425779.599,-160.87383
1425425779.615,-179.43312
1425425779.63,-199.30016
1425425779.646,-219.68408
1425425779.662,-239.76294
1425425779.677,-258.16922
1425425779.693,-272.35126
1425425779.708,-279.2039
1425425779.724,-276.40286
1425425779.74,-263.7572
1425425779.755,-243.48462
1425425779.771,-218.58011
1425425779.787,-192.46823
1425425779.802,-167.53156
1425425779.818,-144.79611
1425425779.833,-124.21887
1425425779.849,-105.47098
1425425779.865,-88.45044
1425425779.88,-73.41733
1425425779.896,-60.5282
1425425779.912,-49.336853
1425425779.927,-39.0907
1425425779.943,-28.775421
1425425779.958,-17.688934
1425425779.974,-5.7400208
1425425779.99,6.5242004
1425425780.005,18.309082
1425425780.021,28.88852
1425425780.037,37.848145
1425425780.052,45.057373
1425425780.068,50.33246
1425425780.083,53.42749
1425425780.099,53.95874
1425425780.115,51.585968
1425425780.13,46.264557
1425425780.146,38.41635
1425425780.162,29.02655
1425425780.177,19.377625
1425425780.193,10.798004
1425425780.208,4.227539
1425425780.224,0.048858643
1425425780.24,-1.9135742
1425425780.255,-2.2843018
1425425780.271,-1.8283386
1425425780.287,-1.1794434
1425425780.302,-0.73934937
1425425780.318,-0.6168213
1425425780.333,-0.7320862
1425425780.349,-0.92922974
1425425780.365,-1.0743408
1425425780.38,-1.0877686
1425425780.396,-1.0006104
1425425780.412,-0.83114624
1425425780.427,-0.6062012
1425425780.443,-0.2531433
1425425780.458,0.3260193
1425425780.474,1.3059692
1425425780.49,2.8011475
1425425780.505,4.893799
1425425780.521,7.5626526
1425425780.537,10.679016
1425425780.552,14.049286
1425425780.568,17.418945
1425425780.583,20.608002
1425425780.599,23.570282
1425425780.615,26.404999
1425425780.63,29.360596
1425425780.646,32.708313
1425425780.662,36.635773
1425425780.677,41.0979
1425425780.693,45.839264
1425425780.708,50.316986
1425425780.724,53.850998
1425425780.74,55.73369
1425425780.755,55.355347
1425425780.771,52.367416
1425425780.787,46.801086
1425425780.802,39.079285
1425425780.818,30.03003
1425425780.833,20.736816
1425425780.849,12.2771
1425425780.865,5.4632263
1425425780.88,0.6826172
1425425780.896,-2.1593933
1425425780.912,-3.4451294
1425425780.927,-3.664215
1425425780.943,-3.2471619
1425425780.958,-2.5513306
1425425780.974,-1.8738403
1425425780.99,-1.4907837
1425425781.005,-1.6787415
1425425781.021,-2.5580444
1425425781.037,-4.0615845
1425425781.052,-5.9003296
1425425781.068,-7.6859436
1425425781.083,-9.083618
1425425781.099,-9.973297
1425425781.115,-10.4184265
1425425781.13,-10.576935
1425425781.146,-10.561493
1425425781.162,-10.307159
1425425781.177,-9.642517
1425425781.193,-8.332245
1425425781.208,-6.2673035
1425425781.224,-3.5197754
1425425781.24,-0.36557007
1425425781.255,2.8586426
1425425781.271,5.8499146
1425425781.287,8.470337
1425425781.302,10.780701
1425425781.318,12.997253
1425425781.333,15.406372
1425425781.349,18.249939
1425425781.365,21.688812
1425425781.38,25.64566
1425425781.396,29.810944
1425425781.412,33.57022
1425425781.427,36.121643
1425425781.443,36.619476
1425425781.458,34.41086
1425425781.474,29.330933
1425425781.49,21.83554
1425425781.505,12.889252
1425425781.521,3.7461243
1425425781.537,-4.4778748
1425425781.552,-11.091278
1425425781.568,-15.928467
1425425781.583,-19.22519
1425425781.599,-21.390106
1425425781.615,-22.755219
1425425781.63,-23.500702
1425425781.646,-23.671234
1425425781.662,-23.299286
1425425781.677,-22.54367
1425425781.693,-21.672577
1425425781.708,-21.060608
1425425781.724,-21.006409
1425425781.74,-21.634064
1425425781.755,-22.778687
1425425781.771,-24.071045
1425425781.787,-25.017456
1425425781.802,-25.262787
1425425781.818,-24.686157
1425425781.833,-23.418884
1425425781.849,-21.825897
1425425781.865,-20.23642
1425425781.88,-18.809875
1425425781.896,-17.368958
1425425781.912,-15.60498
1425425781.927,-13.170074
1425425781.943,-9.905273
1425425781.958,-5.9884644
1425425781.974,-1.776886
1425425781.99,2.2892761
1425425782.005,5.8526
1425425782.021,8.750336
1425425782.037,11.027588
1425425782.052,12.824371
1425425782.068,14.374207
1425425782.083,15.975098
1425425782.099,17.893372
1425425782.115,20.380829
1425425782.13,23.424683
1425425782.146,26.662872
1425425782.162,29.35788
1425425782.177,30.57022
1425425782.193,29.537994
1425425782.208,25.944305
1425425782.224,20.126373
1425425782.24,12.89624
1425425782.255,5.306427
1425425782.271,-1.766449
1425425782.287,-7.7806396
1425425782.302,-12.618652
1425425782.318,-16.435822
1425425782.334,-19.41858
1425425782.349,-21.671295
1425425782.365,-23.20868
1425425782.38,-24.093536
1425425782.396,-24.451904
1425425782.412,-24.608765
1425425782.427,-24.914764
1425425782.443,-25.682373
1425425782.459,-27.011261
1425425782.474,-28.735321
1425425782.49,-30.455963
1425425782.505,-31.686188
1425425782.521,-32.101227
1425425782.537,-31.602173
1425425782.552,-30.362152
1425425782.568,-28.710571
1425425782.584,-26.945404
1425425782.599,-25.192627
1425425782.615,-23.36377
1425425782.63,-21.23468
1425425782.646,-18.56427
1425425782.662,-15.26886
1425425782.677,-11.433075
1425425782.693,-7.316986
1425425782.709,-3.1575012
1425425782.724,0.82873535
1425425782.74,4.495392
1425425782.755,7.766968
1425425782.771,10.517181
1425425782.787,12.709076
1425425782.802,14.4166565
1425425782.818,15.932068
1425425782.834,17.667358
1425425782.849,20.103394
1425425782.865,23.511871
1425425782.88,27.782959
1425425782.896,32.338013
1425425782.912,36.219635
1425425782.927,38.338867
1425425782.943,37.854095
1425425782.959,34.406464
1425425782.974,28.261963
1425425782.99,20.233856
1425425783.005,11.407501
1425425783.021,2.8442993
1425425783.037,-4.6574707
1425425783.052,-10.692505
1425425783.068,-15.226288
1425425783.084,-18.484741
1425425783.099,-20.764435
1425425783.115,-22.333405
1425425783.13,-23.355927
1425425783.146,-23.905212
1425425783.162,-24.017578
1425425783.177,-23.733978
1425425783.193,-23.17154
1425425783.209,-22.56076
1425425783.224,-22.120728
1425425783.24,-22.046265
1425425783.255,-22.348938
1425425783.271,-22.860657
1425425783.287,-23.2818
1425425783.302,-23.336273
1425425783.318,-22.805176
1425425783.334,-21.64502
1425425783.349,-19.934326
1425425783.365,-17.825409
1425425783.38,-15.508362
1425425783.396,-13.102753
1425425783.412,-10.64502
1425425783.427,-8.090576
1425425783.443,-5.3676453
1425425783.459,-2.3792725
1425425783.474,0.87646484
1425425783.49,4.2941895
1425425783.505,7.690399
1425425783.521,10.854614
1425425783.537,13.656769
1425425783.552,16.141937
1425425783.568,18.53836
1425425783.584,21.129303
1425425783.599,24.187836
1425425783.615,27.785461
1425425783.63,31.747711
1425425783.646,35.58383
1425425783.662,38.583527
1425425783.677,39.88617
1425425783.693,38.802277
1425425783.709,34.956238
1425425783.724,28.521912
1425425783.74,20.186737
1425425783.755,10.992157
1425425783.771,2.0271301
1425425783.787,-5.829071
1425425783.802,-12.07843
1425425783.818,-16.631256
1425425783.834,-19.641602
1425425783.849,-21.404541
1425425783.865,-22.196228
1425425783.88,-22.236694
1425425783.896,-21.739777
1425425783.912,-20.93628
1425425783.927,-20.05188
1425425783.943,-19.28424
1425425783.959,-18.745483
1425425783.974,-18.41455
1425425783.99,-18.209381
1425425784.005,-18.029968
1425425784.021,-17.814453
1425425784.037,-17.58551
1425425784.052,-17.424591
1425425784.068,-17.41568
1425425784.084,-17.570038
1425425784.099,-17.786438
1425425784.115,-17.842377
1425425784.13,-17.455627
1425425784.146,-16.372528
1425425784.162,-14.412781
1425425784.177,-11.588196
1425425784.193,-8.06012
1425425784.209,-4.14386
1425425784.224,-0.21240234
1425425784.24,3.3886719
1425425784.255,6.4528503
1425425784.271,8.9748535
1425425784.287,11.117615
1425425784.302,13.149475
1425425784.318,15.339325
1425425784.334,17.903625
1425425784.349,20.952759
1425425784.365,24.44806
1425425784.38,28.157623
1425425784.396,31.637024
1425425784.412,34.23065
1425425784.427,35.202423
1425425784.443,33.946594
1425425784.459,30.21286
1425425784.474,24.291473
1425425784.49,16.914124
1425425784.505,9.083038
1425425784.521,1.7683716
1425425784.537,-4.3567505
1425425784.552,-9.0234375
1425425784.568,-12.306122
1425425784.584,-14.502502
1425425784.599,-15.872162
1425425784.615,-16.563293
1425425784.63,-16.624298
1425425784.646,-16.106506
1425425784.662,-15.133972
1425425784.677,-14.018219
1425425784.693,-13.140381
1425425784.709,-12.821167
1425425784.724,-13.209778
1425425784.74,-14.182434
1425425784.755,-15.421753
1425425784.771,-16.549896
1425425784.787,-17.280365
1425425784.802,-17.439484
1425425784.818,-17.024628
1425425784.834,-16.10196
1425425784.849,-14.7456665
1425425784.865,-13.029083
1425425784.88,-10.983856
1425425784.896,-8.652557
1425425784.912,-6.089142
1425425784.927,-3.3479004
1425425784.943,-0.4593506
1425425784.959,2.5207825
1425425784.974,5.5932007
1425425784.99,8.744232
1425425785.006,11.968628
1425425785.021,15.218231
1425425785.037,18.41513
1425425785.052,21.447235
1425425785.068,24.203217
1425425785.084,26.66095
1425425785.099,28.899231
1425425785.115,31.087433
1425425785.131,33.36618
1425425785.146,35.63568
1425425785.162,37.517395
1425425785.177,38.34485
1425425785.193,37.34494
1425425785.209,33.971252
1425425785.224,28.186066
1425425785.24,20.555145
1425425785.256,12.108398
1425425785.271,4.037506
1425425785.287,-2.736084
1425425785.302,-7.773163
1425425785.318,-11.129456
1425425785.334,-13.21048
1425425785.349,-14.447357
1425425785.365,-15.195099
1425425785.381,-15.572205
1425425785.396,-15.585358
1425425785.412,-15.273346
1425425785.427,-14.812836
1425425785.443,-14.470123
1425425785.459,-14.536621
1425425785.474,-15.129913
1425425785.49,-16.128632
1425425785.506,-17.202972
1425425785.521,-17.945496
1425425785.537,-18.029816
1425425785.552,-17.369781
1425425785.568,-16.115814
1425425785.584,-14.59964
1425425785.599,-13.137817
1425425785.615,-11.886749
1425425785.631,-10.758667
1425425785.646,-9.482483
1425425785.662,-7.764374
1425425785.677,-5.4145203
1425425785.693,-2.4603577
1425425785.709,0.84140015
1425425785.724,4.1507874
1425425785.74,7.1362
1425425785.756,9.586487
1425425785.771,11.525848
1425425785.787,13.122314
1425425785.802,14.65387
1425425785.818,16.42517
1425425785.834,18.645569
1425425785.849,21.446686
1425425785.865,24.871445
1425425785.881,28.800858
1425425785.896,32.926666
1425425785.912,36.709244
1425425785.927,39.41606
1425425785.943,40.228104
1425425785.959,38.544235
1425425785.974,34.130768
1425425785.99,27.370132
1425425786.006,19.141388
1425425786.021,10.614334
1425425786.037,2.86615
1425425786.052,-3.4368286
1425425786.068,-8.198669
1425425786.084,-11.717743
1425425786.099,-14.46521
1425425786.115,-16.747925
1425425786.131,-18.630157
1425425786.146,-19.94815
1425425786.162,-20.514526
1425425786.177,-20.289795
1425425786.193,-19.506287
1425425786.209,-18.545319
1425425786.224,-17.820496
1425425786.24,-17.532532
1425425786.256,-17.707275
1425425786.271,-18.148926
1425425786.287,-18.610565
1425425786.302,-18.910828
1425425786.318,-18.927078
1425425786.334,-18.631302
1425425786.349,-18.08133
1425425786.365,-17.298782
1425425786.381,-16.314362
1425425786.396,-15.107986
1425425786.412,-13.688248
1425425786.427,-12.0507965
1425425786.443,-10.215958
1425425786.459,-8.16922
1425425786.474,-5.9076385
1425425786.49,-3.4274597
1425425786.506,-0.7751465
1425425786.521,1.9508057
1425425786.537,4.5920563
1425425786.552,7.0682526
1425425786.568,9.326752
1425425786.584,11.434174
1425425786.599,13.56163
1425425786.615,15.939743
1425425786.631,18.797089
1425425786.646,22.27005
1425425786.662,26.276367
1425425786.677,30.45755
1425425786.693,34.129578
1425425786.709,36.38179
1425425786.724,36.315872
1425425786.74,33.407516
1425425786.756,27.714691
1425425786.771,19.942245
1425425786.787,11.241989
1425425786.802,2.8690948
1425425786.818,-4.2283325
1425425786.834,-9.550552
1425425786.849,-13.1604
1425425786.865,-15.444382
1425425786.881,-16.871017
1425425786.896,-17.769424
1425425786.912,-18.270493
1425425786.927,-18.345673
1425425786.943,-17.958755
1425425786.959,-17.176346
1425425786.974,-16.223953
1425425786.99,-15.427322
1425425787.006,-15.043686
1425425787.021,-15.177765
1425425787.037,-15.731506
1425425787.052,-16.456528
1425425787.068,-17.075043
1425425787.084,-17.408752
1425425787.099,-17.414124
1425425787.115,-17.117432
1425425787.131,-16.56691
1425425787.146,-15.7452545
1425425787.162,-14.55455
1425425787.177,-12.849701
1425425787.193,-10.514267
1425425787.209,-7.5637054
1425425787.224,-4.158081
1425425787.24,-0.5777893
1425425787.256,2.8688507
1425425787.271,5.974365
1425425787.287,8.646469
1425425787.302,10.969147
1425425787.318,13.09169
1425425787.334,15.222382
1425425787.349,17.551407
1425425787.365,20.271591
1425425787.381,23.564636
1425425787.396,27.531021
1425425787.412,32.02104
1425425787.427,36.584335
1425425787.443,40.40117
1425425787.459,42.504044
1425425787.474,42.03145
1425425787.49,38.594162
1425425787.506,32.41446
1425425787.521,24.269882
1425425787.537,15.236145
1425425787.552,6.318939
1425425787.568,-1.6981201
1425425787.584,-8.415161
1425425787.599,-13.734238
1425425787.615,-17.699875
1425425787.631,-20.44249
1425425787.646,-22.05281
1425425787.662,-22.680832
1425425787.678,-22.482971
1425425787.693,-21.694122
1425425787.709,-20.590607
1425425787.724,-19.479782
1425425787.74,-18.650253
1425425787.756,-18.274628
1425425787.771,-18.337936
1425425787.787,-18.682678
1425425787.802,-19.05391
1425425787.818,-19.22226
1425425787.834,-19.062408
1425425787.849,-18.649963
1425425787.865,-18.08995
1425425787.881,-17.469269
1425425787.896,-16.692978
1425425787.912,-15.558273
1425425787.928,-13.810196
1425425787.943,-11.29834
1425425787.959,-7.9740143
1425425787.974,-3.9756775
1425425787.99,0.47213745
1425425788.006,5.078354
1425425788.021,9.5486145
1425425788.037,13.620682
1425425788.053,17.112442
1425425788.068,19.976196
1425425788.084,22.337341
1425425788.099,24.524231
1425425788.115,26.9747
1425425788.131,30.00673
1425425788.146,33.74214
1425425788.162,37.909943
1425425788.178,41.85759
1425425788.193,44.657883
1425425788.209,45.359375
1425425788.224,43.345596
1425425788.24,38.46701
1425425788.256,31.225845
1425425788.271,22.601639
1425425788.287,13.77887
1425425788.303,5.775299
1425425788.318,-0.7718048
1425425788.334,-5.6453705
1425425788.349,-9.01561
1425425788.365,-11.175125
1425425788.381,-12.453201
1425425788.396,-13.106674
1425425788.412,-13.380035
1425425788.428,-13.456436
1425425788.443,-13.54126
1425425788.459,-13.7486725
1425425788.474,-14.120148
1425425788.49,-14.584793
1425425788.506,-15.053726
1425425788.521,-15.443253
1425425788.537,-15.700302
1425425788.553,-15.833527
1425425788.568,-15.806335
1425425788.584,-15.608139
1425425788.599,-15.249252
1425425788.615,-14.72197
1425425788.631,-14.059372
1425425788.646,-13.282745
1425425788.662,-12.381836
1425425788.678,-11.268356
1425425788.693,-9.868271
1425425788.709,-8.125931
1425425788.724,-6.0371704
1425425788.74,-3.70195
1425425788.756,-1.228775
1425425788.771,1.2550049
1425425788.787,3.62294
1425425788.803,5.753784
1425425788.818,7.571594
1425425788.834,9.103806
1425425788.849,10.511948
1425425788.865,12.113922
1425425788.881,14.300476
1425425788.896,17.4263
1425425788.912,21.644989
1425425788.928,26.773682
1425425788.943,32.21396
1425425788.959,37.05777
1425425788.974,40.245163
1425425788.99,40.870407
1425425789.006,38.474487
1425425789.021,33.184174
1425425789.037,25.716415
1425425789.053,17.143005
1425425789.068,8.601791
1425425789.084,0.99024963
1425425789.099,-5.21196
1425425789.115,-9.968323
1425425789.131,-13.501251
1425425789.146,-16.160248
1425425789.162,-18.254242
1425425789.178,-19.984863
1425425789.193,-21.435715
1425425789.209,-22.62239
1425425789.224,-23.517014
1425425789.24,-24.12143
1425425789.256,-24.521011
1425425789.271,-24.848068
1425425789.287,-25.230225
1425425789.303,-25.736801
1425425789.318,-26.271149
1425425789.334,-26.610687
1425425789.349,-26.523743
1425425789.365,-25.86615
1425425789.381,-24.665329
1425425789.396,-23.140808
1425425789.412,-21.536743
1425425789.428,-19.958801
1425425789.443,-18.384735
1425425789.459,-16.60376
1425425789.474,-14.380783
1425425789.49,-11.584854
1425425789.506,-8.258484
1425425789.521,-4.554718
1425425789.537,-0.75123596
1425425789.553,2.931656
1425425789.568,6.3463593
1425425789.584,9.392548
1425425789.599,12.068848
1425425789.615,14.401184
1425425789.631,16.474121
1425425789.646,18.440598
1425425789.662,20.573914
1425425789.678,23.092285
1425425789.693,26.219513
1425425789.709,29.884628
1425425789.724,33.673904
1425425789.74,36.81462
1425425789.756,38.335617
1425425789.771,37.387665
1425425789.787,33.57135
1425425789.803,27.190048
1425425789.818,19.128006
1425425789.834,10.648361
1425425789.849,2.9396973
1425425789.865,-3.2160187
1425425789.881,-7.5326385
1425425789.896,-10.170364
1425425789.912,-11.524811
1425425789.928,-11.992859
1425425789.943,-11.946976
1425425789.959,-11.659439
1425425789.974,-11.378693
1425425789.99,-11.33638
1425425790.006,-11.718643
1425425790.021,-12.579895
1425425790.037,-13.902161
1425425790.053,-15.580154
1425425790.068,-17.425125
1425425790.084,-19.267426
1425425790.099,-20.915314
1425425790.115,-22.205078
1425425790.131,-22.959366
1425425790.146,-23.07309
1425425790.162,-22.459259
1425425790.178,-21.198029
1425425790.193,-19.399109
1425425790.209,-17.244629
1425425790.224,-14.902039
1425425790.24,-12.467194
1425425790.256,-9.956238
1425425790.271,-7.333725
1425425790.287,-4.609329
1425425790.303,-1.8685608
1425425790.318,0.76890564
1425425790.334,3.1995087
1425425790.35,5.437546
1425425790.365,7.58461
1425425790.381,9.851517
1425425790.396,12.397903
1425425790.412,15.284958
1425425790.428,18.48056
1425425790.443,21.907593
1425425790.459,25.540726
1425425790.474,29.385132
1425425790.49,33.2921
1425425790.506,36.77841
1425425790.521,39.094894
1425425790.537,39.341293
1425425790.553,36.860794
1425425790.568,31.595795
1425425790.584,24.182053
1425425790.6,15.808609
1425425790.615,7.7148438
1425425790.631,0.85336304
1425425790.646,-4.441696
1425425790.662,-8.290329
1425425790.678,-11.053238
1425425790.693,-13.016525
1425425790.709,-14.281631
1425425790.725,-14.847565
1425425790.74,-14.749252
1425425790.756,-14.242462
1425425790.771,-13.739075
1425425790.787,-13.704498
1425425790.803,-14.401703
1425425790.818,-15.873322
1425425790.834,-17.909653
1425425790.85,-20.151596
1425425790.865,-22.263397
1425425790.881,-23.979996
1425425790.896,-25.126938
1425425790.912,-25.567703
1425425790.928,-25.208145
1425425790.943,-24.010513
1425425790.959,-22.055191
1425425790.975,-19.545563
1425425790.99,-16.719208
1425425791.006,-13.787247
1425425791.021,-10.846191
1425425791.037,-7.845749
1425425791.053,-4.6791687
1425425791.068,-1.2924194
1425425791.084,2.2061768
1425425791.1,5.630554
1425425791.115,8.7285
1425425791.131,11.394592
1425425791.146,13.685822
1425425791.162,15.840042
1425425791.178,18.165314
1425425791.193,20.963867
1425425791.209,24.421005
1425425791.225,28.47731
1425425791.24,32.830795
1425425791.256,36.867813
1425425791.271,39.754913
1425425791.287,40.59784
1425425791.303,38.722794
1425425791.318,33.945755
1425425791.334,26.684982
1425425791.35,17.917252
1425425791.365,8.917847
1425425791.381,0.8679352
1425425791.396,-5.488678
1425425791.412,-9.961884
1425425791.428,-12.819855
1425425791.443,-14.573524
1425425791.459,-15.664551
1425425791.475,-16.341545
1425425791.49,-16.687439
1425425791.506,-16.68155
1425425791.521,-16.361267
1425425791.537,-15.882683
1425425791.553,-15.454201
1425425791.568,-15.247147
1425425791.584,-15.345551
1425425791.6,-15.707809
1425425791.615,-16.216858
1425425791.631,-16.770638
1425425791.646,-17.295677
1425425791.662,-17.762672
1425425791.678,-18.146019
1425425791.693,-18.321335
1425425791.709,-18.137459
1425425791.725,-17.404793
1425425791.74,-16.01818
1425425791.756,-14.0336
1425425791.771,-11.64901
1425425791.787,-9.080566
1425425791.803,-6.5048523
1425425791.818,-3.9528427
1425425791.834,-1.3380356
1425425791.85,1.4291458
1425425791.865,4.3289185
1425425791.881,7.23822
1425425791.896,9.940887
1425425791.912,12.340576
1425425791.928,14.5431595
1425425791.943,16.865128
1425425791.959,19.701942
1425425791.975,23.386032
1425425791.99,27.958519
1425425792.006,33.139748
1425425792.021,38.33873
1425425792.037,42.659225
1425425792.053,45.184814
1425425792.068,45.101486
1425425792.084,41.98944
1425425792.1,35.94976
1425425792.115,27.682045
1425425792.131,18.293198
1425425792.146,9.021217
1425425792.162,0.908905
1425425792.178,-5.472313
1425425792.193,-9.964165
1425425792.209,-12.784683
1425425792.225,-14.3005905
1425425792.24,-14.83567
1425425792.256,-14.647705
1425425792.271,-14.005493
1425425792.287,-13.160194
1425425792.303,-12.411804
1425425792.318,-12.031654
1425425792.334,-12.167923
1425425792.35,-12.80735
1425425792.365,-13.866264
1425425792.381,-15.177719
1425425792.396,-16.595284
1425425792.412,-17.960365
1425425792.428,-19.104347
1425425792.443,-19.875648
1425425792.459,-20.15551
1425425792.475,-19.888916
1425425792.49,-19.091415
1425425792.506,-17.871834
1425425792.521,-16.305115
1425425792.537,-14.489952
1425425792.553,-12.437317
1425425792.568,-10.133751
1425425792.584,-7.591339
1425425792.6,-4.847809
1425425792.615,-1.991478
1425425792.631,0.89011383
1425425792.646,3.6594467
1425425792.662,6.2210693
1425425792.678,8.526855
1425425792.693,10.625618
1425425792.709,12.724373
1425425792.725,15.091873
1425425792.74,18.012993
1425425792.756,21.67974
1425425792.771,26.016502
1425425792.787,30.63591
1425425792.803,34.81272
1425425792.818,37.618637
1425425792.834,38.136627
1425425792.85,35.828537
1425425792.865,30.668793
1425425792.881,23.290314
1425425792.896,14.755211
1425425792.912,6.2779694
1425425792.928,-1.1039658
1425425792.943,-6.788742
1425425792.959,-10.624786
1425425792.975,-12.862389
1425425792.99,-13.918037
1425425793.006,-14.22097
1425425793.021,-14.144173
1425425793.037,-13.932877
1425425793.053,-13.7614975
1425425793.068,-13.730759
1425425793.084,-13.933769
1425425793.1,-14.459427
1425425793.115,-15.351372
1425425793.131,-16.542465
1425425793.146,-17.868187
1425425793.162,-18.997894
1425425793.178,-19.613258
1425425793.193,-19.517128
1425425793.209,-18.687126
1425425793.225,-17.310005
1425425793.24,-15.708534
1425425793.256,-14.135864
1425425793.272,-12.6562195
1425425793.287,-11.151649
1425425793.303,-9.388626
1425425793.318,-7.168442
1425425793.334,-4.465721
1425425793.35,-1.3763428
1425425793.365,1.8718948
1425425793.381,5.0911026
1425425793.397,8.112297
1425425793.412,10.891624
1425425793.428,13.4739
1425425793.443,15.93821
1425425793.459,18.366493
1425425793.475,20.875343
1425425793.49,23.591278
1425425793.506,26.672424
1425425793.522,30.191544
1425425793.537,33.976715
1425425793.553,37.620834
1425425793.568,40.427902
1425425793.584,41.61866
1425425793.6,40.498024
1425425793.615,36.719376
1425425793.631,30.44429
1425425793.647,22.34237
1425425793.662,13.437576
1425425793.678,4.7979813
1425425793.693,-2.7019424
1425425793.709,-8.577934
1425425793.725,-12.7046585
1425425793.74,-15.275536
1425425793.756,-16.598747
1425425793.772,-17.009216
1425425793.787,-16.778519
1425425793.803,-16.126236
1425425793.818,-15.264412
1425425793.834,-14.43956
1425425793.85,-13.909676
1425425793.865,-13.873947
1425425793.881,-14.349609
1425425793.897,-15.211533
1425425793.912,-16.170113
1425425793.928,-16.982773
1425425793.943,-17.452393
1425425793.959,-17.554482
1425425793.975,-17.347656
1425425793.99,-16.936806
1425425794.006,-16.335564
1425425794.022,-15.385757
1425425794.037,-13.8903885
1425425794.053,-11.631233
1425425794.068,-8.5849
1425425794.084,-4.9015427
1425425794.1,-0.986557
1425425794.115,2.6980515
1425425794.131,5.7653275
1425425794.147,8.078812
1425425794.162,9.82106
1425425794.178,11.429184
1425425794.193,13.422676
1425425794.209,16.195618
1425425794.225,19.945343
1425425794.24,24.557732
1425425794.256,29.682327
1425425794.272,34.702072
1425425794.287,38.858093
1425425794.303,41.319046
1425425794.318,41.375175
1425425794.334,38.650154
1425425794.35,33.26867
1425425794.365,25.827835
1425425794.381,17.281921
1425425794.397,8.666573
1425425794.412,0.8268585
1425425794.428,-5.7401886
1425425794.443,-10.908524
1425425794.459,-14.846443
1425425794.475,-17.775856
1425425794.49,-19.890678
1425425794.506,-21.283394
1425425794.522,-21.949585
1425425794.537,-21.881447
1425425794.553,-21.207977
1425425794.568,-20.197365
1425425794.584,-19.18666
1425425794.6,-18.482368
1425425794.615,-18.22004
1425425794.631,-18.320663
1425425794.647,-18.508247
1425425794.662,-18.470428
1425425794.678,-17.989517
1425425794.693,-17.04515
1425425794.709,-15.809105
1425425794.725,-14.454056
1425425794.74,-13.126762
1425425794.756,-11.790886
1425425794.772,-10.296333
1425425794.787,-8.461784
1425425794.803,-6.176071
1425425794.818,-3.4387512
1425425794.834,-0.42471313
1425425794.85,2.6802979
1425425794.865,5.6721344
1425425794.881,8.390732
1425425794.897,10.801926
1425425794.912,12.949371
1425425794.928,14.98764
1425425794.943,17.155685
1425425794.959,19.706467
1425425794.975,22.840347
1425425794.99,26.589386
1425425795.006,30.712387
1425425795.022,34.606735
1425425795.037,37.450424
1425425795.053,38.37436
1425425795.068,36.763107
1425425795.084,32.50322
1425425795.1,26.02858
1425425795.115,18.22911
1425425795.131,10.166351
1425425795.147,2.753189
1425425795.162,-3.4658356
1425425795.178,-8.318634
1425425795.193,-11.943527
1425425795.209,-14.642899
1425425795.225,-16.71344
1425425795.24,-18.371841
1425425795.256,-19.708954
1425425795.272,-20.779648
1425425795.287,-21.578568
1425425795.303,-22.121216
1425425795.318,-22.471802
1425425795.334,-22.71698
1425425795.35,-22.941086
1425425795.365,-23.150146
1425425795.381,-23.263992
1425425795.397,-23.160706
1425425795.412,-22.740234
1425425795.428,-22.000809
1425425795.443,-21.043991
1425425795.459,-20.051498
1425425795.475,-19.12909
1425425795.49,-18.314407
1425425795.506,-17.475708
1425425795.522,-16.432007
1425425795.537,-14.956024
1425425795.553,-12.925491
1425425795.568,-10.320236
1425425795.584,-7.2331696
1425425795.6,-3.8453827
1425425795.615,-0.35272217
1425425795.631,3.039688
1425425795.647,6.2389526
1425425795.662,9.206512
1425425795.678,11.985672
1425425795.693,14.665268
1425425795.709,17.374954
1425425795.725,20.31041
1425425795.74,23.69339
1425425795.756,27.753021
1425425795.772,32.478592
1425425795.787,37.517212
1425425795.803,42.1196
1425425795.818,45.236084
1425425795.834,45.849182
1425425795.85,43.345093
1425425795.865,37.79254
1425425795.881,29.93895
1425425795.897,20.981277
1425425795.912,12.118973
1425425795.928,4.2539673
1425425795.944,-2.1824646
1425425795.959,-7.1857452
1425425795.975,-10.990921
1425425795.99,-13.841797
1425425796.006,-15.939835
1425425796.022,-17.40541
1425425796.037,-18.348984
1425425796.053,-18.922958
1425425796.069,-19.292908
1425425796.084,-19.66185
1425425796.1,-20.148148
1425425796.115,-20.778229
1425425796.131,-21.457993
1425425796.147,-22.068863
1425425796.162,-22.489319
1425425796.178,-22.68956
1425425796.194,-22.70633
1425425796.209,-22.609894
1425425796.225,-22.44609
1425425796.24,-22.180878
1425425796.256,-21.706451
1425425796.272,-20.921295
1425425796.287,-19.745224
1425425796.303,-18.223724
1425425796.319,-16.417465
1425425796.334,-14.370636
1425425796.35,-12.051239
1425425796.365,-9.3819275
1425425796.381,-6.2892303
1425425796.397,-2.8246613
1425425796.412,0.8134918
1425425796.428,4.3181915
1425425796.444,7.423477
1425425796.459,10.052277
1425425796.475,12.333069
1425425796.49,14.679886
1425425796.506,17.509293
1425425796.522,21.194519
1425425796.537,25.6913
1425425796.553,30.55606
1425425796.569,34.9348
1425425796.584,37.788605
1425425796.6,38.23369
1425425796.615,35.78305
1425425796.631,30.542923
1425425796.647,23.09111
1425425796.662,14.379028
1425425796.678,5.4060516
1425425796.694,-2.9873962
1425425796.709,-10.225586
1425425796.725,-16.05043
1425425796.74,-20.431747
1425425796.756,-23.470581
1425425796.772,-25.3768
1425425796.787,-26.313934
1425425796.803,-26.426895
1425425796.819,-25.914566
1425425796.834,-25.029053
1425425796.85,-24.07225
1425425796.865,-23.34195
1425425796.881,-23.047684
1425425796.897,-23.184387
1425425796.912,-23.58899
1425425796.928,-23.976425
1425425796.944,-24.05867
1425425796.959,-23.637115
1425425796.975,-22.678406
1425425796.99,-21.23256
1425425797.006,-19.384033
1425425797.022,-17.204376
1425425797.037,-14.763702
1425425797.053,-12.095993
1425425797.069,-9.231827
1425425797.084,-6.209503
1425425797.1,-3.0614014
1425425797.115,0.17376709
1425425797.131,3.4600983
1425425797.147,6.729965
1425425797.162,9.884872
1425425797.178,12.800964
1425425797.194,15.374527
1425425797.209,17.556152
1425425797.225,19.410553
1425425797.24,21.15091
1425425797.256,23.107834
1425425797.272,25.641037
1425425797.287,28.934128
1425425797.303,32.913986
1425425797.319,37.14171
1425425797.334,40.89363
1425425797.35,43.240753
1425425797.365,43.348175
1425425797.381,40.670807
1425425797.397,35.12419
1425425797.412,27.219055
1425425797.428,17.87851
1425425797.444,8.282486
1425425797.459,-0.43206787
1425425797.475,-7.428055
1425425797.49,-12.377899
1425425797.506,-15.4179535
1425425797.522,-17.01825
1425425797.537,-17.768723
1425425797.553,-18.136276
1425425797.569,-18.340775
1425425797.584,-18.46814
1425425797.6,-18.484299
1425425797.615,-18.416931
1425425797.631,-18.378296
1425425797.647,-18.518707
1425425797.662,-18.930542
1425425797.678,-19.614044
1425425797.694,-20.398956
1425425797.709,-21.074905
1425425797.725,-21.445892
1425425797.74,-21.364563
1425425797.756,-20.793365
1425425797.772,-19.784119
1425425797.787,-18.424881
1425425797.803,-16.827728
1425425797.819,-15.084549
1425425797.834,-13.15564
1425425797.85,-10.892197
1425425797.865,-8.165497
1425425797.881,-4.879471
1425425797.897,-1.1560974
1425425797.912,2.702942
1425425797.928,6.312134
1425425797.944,9.355728
1425425797.959,11.649643
1425425797.975,13.245087
1425425797.99,14.387558
1425425798.006,15.446259
1425425798.022,16.846497
1425425798.037,18.97609
1425425798.053,22.032684
1425425798.069,25.939957
1425425798.084,30.191666
1425425798.1,33.882813
1425425798.115,35.913544
1425425798.131,35.366013
1425425798.147,31.829102
1425425798.162,25.613861
1425425798.178,17.64264
1425425798.194,9.140396
1425425798.209,1.2661133
1425425798.225,-5.2428436
1425425798.24,-10.162445
1425425798.256,-13.6866455
1425425798.272,-16.237183
1425425798.287,-18.21434
1425425798.303,-19.8741
1425425798.319,-21.291733
1425425798.334,-22.461472
1425425798.35,-23.350388
1425425798.365,-24.011322
1425425798.381,-24.560532
1425425798.397,-25.15628
1425425798.412,-25.874863
1425425798.428,-26.707626
1425425798.444,-27.477158
1425425798.459,-27.947144
1425425798.475,-27.920372
1425425798.49,-27.281769
1425425798.506,-26.090363
1425425798.522,-24.557442
1425425798.537,-22.87416
1425425798.553,-21.196266
1425425798.569,-19.515182
1425425798.584,-17.736526
1425425798.6,-15.682632
1425425798.616,-13.22496
1425425798.631,-10.303261
1425425798.647,-7.0089417
1425425798.662,-3.512535
1425425798.678,-0.0043182373
1425425798.694,3.3467865
1425425798.709,6.457527
1425425798.725,9.301506
1425425798.741,11.913933
1425425798.756,14.333801
1425425798.772,16.630074
1425425798.787,18.989471
1425425798.803,21.66832
1425425798.819,24.956047
1425425798.834,28.982697
1425425798.85,33.52269
1425425798.866,37.870735
1425425798.881,40.995438
1425425798.897,41.84867
1425425798.912,39.762283
1425425798.928,34.737152
1425425798.944,27.472366
1425425798.959,19.096352
1425425798.975,10.782173
1425425798.991,3.4420166
1425425799.006,-2.4412918
1425425799.022,-6.7982864
1425425799.037,-9.789558
1425425799.053,-11.695648
1425425799.069,-12.77359
1425425799.084,-13.208794
1425425799.1,-13.130714
1425425799.116,-12.668198
1425425799.131,-11.964279
1425425799.147,-11.190475
1425425799.162,-10.564949
1425425799.178,-10.273384
1425425799.194,-10.451286
1425425799.209,-11.125328
1425425799.225,-12.196785
1425425799.241,-13.530663
1425425799.256,-14.921562
1425425799.272,-16.208809
1425425799.287,-17.18161
1425425799.303,-17.638878
1425425799.319,-17.447495
1425425799.334,-16.558617
1425425799.35,-15.041489
1425425799.366,-13.054848
1425425799.381,-10.769131
1425425799.397,-8.250572
1425425799.412,-5.490734
1425425799.428,-2.4519844
1425425799.444,0.86481094
1425425799.459,4.3531113
1425425799.475,7.8359833
1425425799.491,11.088581
1425425799.506,13.955395
1425425799.522,16.36473
1425425799.537,18.356987
1425425799.553,20.10389
1425425799.569,21.887463
1425425799.584,24.055504
1425425799.6,26.93266
1425425799.616,30.637234
1425425799.631,34.93709
1425425799.647,39.127583
1425425799.662,42.118298
1425425799.678,42.768528
1425425799.694,40.27924
1425425799.709,34.50597
1425425799.725,26.073956
1425425799.741,16.128563
1425425799.756,6.0383034
1425425799.772,-3.0519867
1425425799.787,-10.449093
1425425799.803,-15.915512
1425425799.819,-19.565166
1425425799.834,-21.674316
1425425799.85,-22.578812
1425425799.866,-22.577488
1425425799.881,-21.94144
1425425799.897,-20.89996
1425425799.912,-19.6198
1425425799.928,-18.227062
1425425799.944,-16.80471
1425425799.959,-15.487289
1425425799.975,-14.433033
1425425799.991,-13.802757
1425425800.006,-13.693871
1425425800.022,-14.066359
1425425800.037,-14.752447
1425425800.053,-15.494148
1425425800.069,-16.036049
1425425800.084,-16.230892
1425425800.1,-15.999479
1425425800.116,-15.385786
1425425800.131,-14.451368
1425425800.147,-13.215624
1425425800.162,-11.7189865
1425425800.178,-9.971939
1425425800.194,-7.981703
1425425800.209,-5.789339
1425425800.225,-3.3800354
1425425800.241,-0.79034233
1425425800.256,1.9087677
1425425800.272,4.632498
1425425800.287,7.2974834
1425425800.303,9.833052
1425425800.319,12.279221
1425425800.334,14.754235
1425425800.35,17.465326
1425425800.366,20.645336
1425425800.381,24.454468
1425425800.397,28.881384
1425425800.412,33.622467
1425425800.428,38.10296
1425425800.444,41.465332
1425425800.459,42.77164
1425425800.475,41.249626
1425425800.491,36.600605
1425425800.506,29.209877
1425425800.522,20.069433
1425425800.537,10.462389
1425425800.553,1.6296129
1425425800.569,-5.6043906
1425425800.584,-10.987509
1425425800.6,-14.704712
1425425800.616,-17.18505
1425425800.631,-18.830105
1425425800.647,-19.850397
1425425800.662,-20.275097
1425425800.678,-20.122007
1425425800.694,-19.476116
1425425800.709,-18.594965
1425425800.725,-17.811745
1425425800.741,-17.428637
1425425800.756,-17.564373
1425425800.772,-18.13909
1425425800.787,-18.80743
1425425800.803,-19.221216
1425425800.819,-19.136232
1425425800.834,-18.490292
1425425800.85,-17.450716
1425425800.866,-16.238138
1425425800.881,-15.001482
1425425800.897,-13.756664
1425425800.912,-12.338449
1425425800.928,-10.514365
1425425800.944,-8.121649
1425425800.959,-5.1230154
1425425800.975,-1.6700649
1425425800.991,1.9537916
1425425801.006,5.4881334
1425425801.022,8.748377
1425425801.037,11.685192
1425425801.053,14.332426
1425425801.069,16.7957
1425425801.084,19.16125
1425425801.1,21.532835
1425425801.116,24.038958
1425425801.131,26.821396
1425425801.147,30.048813
1425425801.162,33.771904
1425425801.178,37.784985
1425425801.194,41.56698
1425425801.209,44.282913
1425425801.225,44.94993
1425425801.241,42.832115
1425425801.256,37.696205
1425425801.272,29.897512
1425425801.288,20.403934
1425425801.303,10.4212265
1425425801.319,1.077507
1425425801.334,-6.844267
1425425801.35,-13.020266
1425425801.366,-17.575308
1425425801.381,-20.741194
1425425801.397,-22.805698
1425425801.412,-23.95476
1425425801.428,-24.290142
1425425801.444,-23.977285
1425425801.459,-23.254517
1425425801.475,-22.399904
1425425801.491,-21.65699
1425425801.506,-21.158651
1425425801.522,-20.8456
1425425801.538,-20.537682
1425425801.553,-20.0191
1425425801.569,-19.16948
1425425801.584,-18.023487
1425425801.6,-16.706844
1425425801.616,-15.390526
1425425801.631,-14.163387
1425425801.647,-13.002117
1425425801.663,-11.772629
1425425801.678,-10.337223
1425425801.694,-8.659016
1425425801.709,-6.7710876
1425425801.725,-4.7660294
1425425801.741,-2.7073975
1425425801.756,-0.53928375
1425425801.772,1.8165588
1425425801.788,4.4651375
1425425801.803,7.408787
1425425801.819,10.528271
1425425801.834,13.628754
1425425801.85,16.577785
1425425801.866,19.359478
1425425801.881,22.130814
1425425801.897,25.122852
1425425801.913,28.5386
1425425801.928,32.413185
1425425801.944,36.49887
1425425801.959,40.19757
1425425801.975,42.697685
1425425801.991,43.142128
1425425802.006,40.870712
1425425802.022,35.718636
1425425802.038,28.116356
1425425802.053,19.043358
1425425802.069,9.777466
1425425802.084,1.4877472
1425425802.1,-5.111538
1425425802.116,-9.891811
1425425802.131,-13.188911
1425425802.147,-15.524345
1425425802.163,-17.34082
1425425802.178,-18.84645
1425425802.194,-20.014618
1425425802.209,-20.77475
1425425802.225,-21.123993
1425425802.241,-21.168602
1425425802.256,-21.064228
1425425802.272,-20.931877
1425425802.288,-20.790031
1425425802.303,-20.578892
1425425802.319,-20.26693
1425425802.334,-19.880848
1425425802.35,-19.498741
1425425802.366,-19.188389
1425425802.381,-18.936981
1425425802.397,-18.604343
1425425802.413,-18.00095
1425425802.428,-16.935326
1425425802.444,-15.299774
1425425802.459,-13.125103
1425425802.475,-10.5251045
1425425802.491,-7.651634
1425425802.506,-4.6225166
1425425802.522,-1.5272522
1425425802.538,1.6309967
1425425802.553,4.841873
1425425802.569,8.085457
1425425802.584,11.263039
1425425802.6,14.19059
1425425802.616,16.664085
1425425802.631,18.559673
1425425802.647,19.968018
1425425802.663,21.246162
1425425802.678,22.969284
1425425802.694,25.649387
1425425802.709,29.484646
1425425802.725,34.14303
1425425802.741,38.733074
1425425802.756,42.02477
1425425802.772,42.821133
1425425802.788,40.35597
1425425802.803,34.592022
1425425802.819,26.265842
1425425802.834,16.61242
1425425802.85,7.011112
1425425802.866,-1.3633919
1425425802.881,-7.8186493
1425425802.897,-12.199657
1425425802.913,-14.806656
1425425802.928,-16.15189
1425425802.944,-16.807453
1425425802.959,-17.188324
1425425802.975,-17.508293
1425425802.991,-17.834667
1425425803.006,-18.094597
1425425803.022,-18.26189
1425425803.038,-18.335732
1425425803.053,-18.402378
1425425803.069,-18.573952
1425425803.084,-18.902546
1425425803.1,-19.400581
1425425803.116,-19.986343
1425425803.131,-20.552048
1425425803.147,-20.96497
1425425803.163,-21.122864
1425425803.178,-20.956509
1425425803.194,-20.428116
1425425803.209,-19.539593
1425425803.225,-18.30774
1425425803.241,-16.754559
1425425803.256,-14.830254
1425425803.272,-12.489216
1425425803.288,-9.720398
1425425803.303,-6.541382
1425425803.319,-3.0750427
1425425803.334,0.48896408
1425425803.35,3.9479713
1425425803.366,7.137993
1425425803.381,9.9755745
1425425803.397,12.4813
1425425803.413,14.758858
1425425803.428,17.015915
1425425803.444,19.535347
1425425803.459,22.594559
1425425803.475,26.382328
1425425803.491,30.812801
1425425803.506,35.395023
1425425803.522,39.2559
1425425803.538,41.365913
1425425803.553,40.842888
1425425803.569,37.233017
1425425803.584,30.751453
1425425803.6,22.21019
1425425803.616,12.81934
1425425803.631,3.805931
1425425803.647,-3.876381
1425425803.663,-9.738953
1425425803.678,-13.750332
1425425803.694,-16.214088
1425425803.709,-17.568691
1425425803.725,-18.224087
1425425803.741,-18.484505
1425425803.756,-18.472183
1425425803.772,-18.202541
1425425803.788,-17.725498
1425425803.803,-17.118988
1425425803.819,-16.560871
1425425803.834,-16.223843
1425425803.85,-16.27462
1425425803.866,-16.750385
1425425803.881,-17.580147
1425425803.897,-18.634544
1425425803.913,-19.693138
1425425803.928,-20.513416
1425425803.944,-20.823277
1425425803.959,-20.376308
1425425803.975,-19.020573
1425425803.991,-16.792519
1425425804.006,-13.900143
1425425804.022,-10.703007
1425425804.038,-7.5628166
1425425804.053,-4.675167
1425425804.069,-2.0135002
1425425804.084,0.5946121
1425425804.1,3.3317413
1425425804.116,6.253189
1425425804.131,9.229275
1425425804.147,11.985924
1425425804.163,14.322556
1425425804.178,16.224892
1425425804.194,17.925621
1425425804.21,19.81408
1425425804.225,22.302353
1425425804.241,25.635506
1425425804.256,29.787643
1425425804.272,34.383198
1425425804.288,38.719997
1425425804.303,41.905926
1425425804.319,43.053772
1425425804.335,41.539368
1425425804.35,37.169403
1425425804.366,30.347847
1425425804.381,21.944382
1425425804.397,13.101925
1425425804.413,4.904915
1425425804.428,-1.8563309
1425425804.444,-6.8482475
1425425804.46,-10.161846
1425425804.475,-12.1777725
1425425804.491,-13.304504
1425425804.506,-13.888985
1425425804.522,-14.094986
1425425804.538,-13.959984
1425425804.553,-13.534294
1425425804.569,-12.915756
1425425804.585,-12.352509
1425425804.6,-12.130547
1425425804.616,-12.544292
1425425804.631,-13.648655
1425425804.647,-15.321823
1425425804.663,-17.247513
1425425804.678,-19.057
1425425804.694,-20.446194
1425425804.71,-21.287708
1425425804.725,-21.563644
1425425804.741,-21.310757
1425425804.756,-20.563015
1425425804.772,-19.281883
1425425804.788,-17.47646
1425425804.803,-15.16449
1425425804.819,-12.42934
1425425804.835,-9.398331
1425425804.85,-6.174076
1425425804.866,-2.8528366
1425425804.881,0.5081787
1425425804.897,3.8137894
1425425804.913,6.958336
1425425804.928,9.812901
1425425804.944,12.39143
1425425804.96,14.875317
1425425804.975,17.592026
1425425804.991,20.923988
1425425805.006,25.105167
1425425805.022,30.074242
1425425805.038,35.37811
1425425805.053,40.249264
1425425805.069,43.708363
1425425805.085,44.837193
1425425805.1,43.03295
1425425805.116,38.184673
1425425805.131,30.812233
1425425805.147,21.894447
1425425805.163,12.639053
1425425805.178,4.156559
1425425805.194,-2.7902107
1425425805.21,-7.928177
1425425805.225,-11.408596
1425425805.241,-13.55986
1425425805.256,-14.808636
1425425805.272,-15.48085
1425425805.288,-15.873886
1425425805.303,-16.154663
1425425805.319,-16.453487
1425425805.335,-16.869175
1425425805.35,-17.453243
1425425805.366,-18.270401
1425425805.381,-19.313286
1425425805.397,-20.523788
1425425805.413,-21.751534
1425425805.428,-22.816864
1425425805.444,-23.508121
1425425805.46,-23.678253
1425425805.475,-23.267334
1425425805.491,-22.324867
1425425805.506,-21.014046
1425425805.522,-19.412945
1425425805.538,-17.57586
1425425805.553,-15.461967
1425425805.569,-13.003384
1425425805.585,-10.12101
1425425805.6,-6.8054504
1425425805.616,-3.1447906
1425425805.631,0.7001343
1425425805.647,4.4905777
1425425805.663,8.004021
1425425805.678,11.040455
1425425805.694,13.533997
1425425805.71,15.574123
1425425805.725,17.387875
1425425805.741,19.310658
1425425805.756,21.694923
1425425805.772,24.842869
1425425805.788,28.830093
1425425805.803,33.42517
1425425805.819,38.02685
1425425805.835,41.734535
1425425805.85,43.54531
1425425805.866,42.667915
1425425805.881,38.76326
1425425805.897,32.15483
1425425805.913,23.71505
1425425805.928,14.621708
1425425805.944,5.996269
1425425805.96,-1.3715134
1425425805.975,-7.1531067
1425425805.991,-11.417286
1425425806.006,-14.44479
1425425806.022,-16.563736
1425425806.038,-17.986282
1425425806.053,-18.86142
1425425806.069,-19.304176
1425425806.085,-19.438175
1425425806.1,-19.448357
1425425806.116,-19.508465
1425425806.131,-19.75038
1425425806.147,-20.171707
1425425806.163,-20.66587
1425425806.178,-21.07507
1425425806.194,-21.288107
1425425806.21,-21.269424
1425425806.225,-21.00656
1425425806.241,-20.505482
1425425806.256,-19.699188
1425425806.272,-18.493416
1425425806.288,-16.777826
1425425806.303,-14.5665455
1425425806.319,-11.983128
1425425806.335,-9.269247
1425425806.35,-6.689844
1425425806.366,-4.388466
1425425806.381,-2.3835316
1425425806.397,-0.52147865
1425425806.413,1.3887348
1425425806.428,3.540411
1425425806.444,6.001129
1425425806.46,8.750828
1425425806.475,11.649273
1425425806.491,14.516819
1425425806.506,17.217382
1425425806.522,19.721428
1425425806.538,22.215687
1425425806.553,24.999771
1425425806.569,28.360865
1425425806.585,32.37281
1425425806.6,36.720505
1425425806.616,40.6257
1425425806.631,43.009613
1425425806.647,42.84672
1425425806.663,39.52157
1425425806.678,33.14761
1425425806.694,24.498806
1425425806.71,14.767275
1425425806.725,5.2647924
1425425806.741,-2.9724712
1425425806.756,-9.360027
1425425806.772,-13.827378
1425425806.788,-16.659527
1425425806.803,-18.347515
1425425806.819,-19.3455
1425425806.835,-19.958632
1425425806.85,-20.362488
1425425806.866,-20.596535
1425425806.882,-20.659779
1425425806.897,-20.626574
1425425806.913,-20.63136
1425425806.928,-20.833397
1425425806.944,-21.344788
1425425806.96,-22.189493
1425425806.975,-23.30573
1425425806.991,-24.550173
1425425807.007,-25.745897
1425425807.022,-26.73152
1425425807.038,-27.321234
1425425807.053,-27.334002
1425425807.069,-26.626741
1425425807.085,-25.135035
1425425807.1,-22.935831
1425425807.116,-20.217596
1425425807.132,-17.229284
1425425807.147,-14.219351
1425425807.163,-11.414676
1425425807.178,-8.897113
1425425807.194,-6.632586
1425425807.21,-4.508346
1425425807.225,-2.376087
1425425807.241,-0.1323663
1425425807.257,2.2977858
1425425807.272,4.888381
1425425807.288,7.6293025
1425425807.303,10.508196
1425425807.319,13.588981
1425425807.335,17.01478
1425425807.35,20.989552
1425425807.366,25.630135
1425425807.382,30.894917
1425425807.397,36.4143
1425425807.413,41.43707
1425425807.428,44.931633
1425425807.444,45.89949
1425425807.46,43.678032
1425425807.475,38.25253
1425425807.491,30.269007
1425425807.507,20.870522
1425425807.522,11.321779
1425425807.538,2.6695247
1425425807.553,-4.448917
1425425807.569,-9.83886
1425425807.585,-13.604649
1425425807.6,-16.035233
1425425807.616,-17.453642
1425425807.632,-18.142227
1425425807.647,-18.301193
1425425807.663,-18.047663
1425425807.678,-17.47703
1425425807.694,-16.74923
1425425807.71,-16.053192
1425425807.725,-15.641766
1425425807.741,-15.730035
1425425807.757,-16.344484
1425425807.772,-17.285887
1425425807.788,-18.191048
1425425807.803,-18.734564
1425425807.819,-18.758034
1425425807.835,-18.300117
1425425807.85,-17.49318
1425425807.866,-16.447968
1425425807.882,-15.129024
1425425807.897,-13.449539
1425425807.913,-11.302547
1425425807.928,-8.701363
1425425807.944,-5.78221
1425425807.96,-2.7665868
1425425807.975,0.119018316
1425425807.991,2.7354105
1425425808.007,5.0734625
1425425808.022,7.200796
1425425808.038,9.222439
1425425808.053,11.287737
1425425808.069,13.494166
1425425808.085,15.9313755
1425425808.1,18.661263
1425425808.116,21.765753
1425425808.132,25.327915
1425425808.147,29.369404
1425425808.163,33.77214
1425425808.178,38.1132
1425425808.194,41.734573
1425425808.21,43.739876
1425425808.225,43.334282
1425425808.241,40.046635
1425425808.257,33.942596
1425425808.272,25.670242
1425425808.288,16.31717
1425425808.303,7.055088
1425425808.319,-1.1415653
1425425808.335,-7.734267
1425425808.35,-12.611146
1425425808.366,-15.9957485
1425425808.382,-18.192745
1425425808.397,-19.502144
1425425808.413,-20.08496
1425425808.428,-20.07837
1425425808.444,-19.581087
1425425808.46,-18.801949
1425425808.475,-17.97045
1425425808.491,-17.342253
1425425808.507,-17.048
1425425808.522,-17.142359
1425425808.538,-17.549633
1425425808.553,-18.126017
1425425808.569,-18.680609
1425425808.585,-19.04021
1425425808.6,-19.047674
1425425808.616,-18.642696
1425425808.632,-17.835009
1425425808.647,-16.704603
1425425808.663,-15.303326
1425425808.678,-13.700573
1425425808.694,-11.895615
1425425808.71,-9.903906
1425425808.725,-7.739485
1425425808.741,-5.4524136
1425425808.757,-3.1445446
1425425808.772,-0.88373375
1425425808.788,1.3092403
1425425808.803,3.5046673
1425425808.819,5.8249874
1425425808.835,8.378117
1425425808.85,11.189861
1425425808.866,14.278009
1425425808.882,17.670954
1425425808.897,21.381853
1425425808.913,25.46656
1425425808.928,29.728184
1425425808.944,33.740356
1425425808.96,36.78695
1425425808.975,37.984024
1425425808.991,36.630394
1425425809.007,32.521954
1425425809.022,26.03529
1425425809.038,18.06028
1425425809.053,9.697386
1425425809.069,1.9417038
1425425809.085,-4.582527
1425425809.1,-9.611858
1425425809.116,-13.239162
1425425809.132,-15.702137
1425425809.147,-17.300758
1425425809.163,-18.339027
1425425809.178,-19.042591
1425425809.194,-19.566895
1425425809.21,-20.006924
1425425809.225,-20.432365
1425425809.241,-20.889023
1425425809.257,-21.476028
1425425809.272,-22.24831
1425425809.288,-23.207504
1425425809.303,-24.263893
1425425809.319,-25.235394
1425425809.335,-25.938477
1425425809.35,-26.266754
1425425809.366,-26.202087
1425425809.382,-25.770424
1425425809.397,-25.033684
1425425809.413,-23.97342
1425425809.428,-22.55952
1425425809.444,-20.75616
1425425809.46,-18.494377
1425425809.475,-15.761745
1425425809.491,-12.621891
1425425809.507,-9.1702
1425425809.522,-5.5435333
1425425809.538,-1.9036255
1425425809.554,1.572052
1425425809.569,4.8009014
1425425809.585,7.7504005
1425425809.6,10.494823
1425425809.616,13.124651
1425425809.632,15.762548
1425425809.647,18.510212
1425425809.663,21.453579
1425425809.679,24.676167
1425425809.694,28.25537
1425425809.71,32.141567
1425425809.725,36.062206
1425425809.741,39.443157
1425425809.757,41.46454
1425425809.772,41.319763
1425425809.788,38.50512
1425425809.804,33.064972
1425425809.819,25.621328
1425425809.835,17.247658
1425425809.85,9.097065
1425425809.866,2.0903149
1425425809.882,-3.307148
1425425809.897,-7.091776
1425425809.913,-9.586422
1425425809.929,-11.234337
1425425809.944,-12.364176
1425425809.96,-13.135803
1425425809.975,-13.516939
1425425809.991,-13.428282
1425425810.007,-12.910585
1425425810.022,-12.109451
1425425810.038,-11.301235
1425425810.054,-10.74638
1425425810.069,-10.603769
1425425810.085,-10.8298
1425425810.1,-11.231577
1425425810.116,-11.557795
1425425810.132,-11.603033
1425425810.147,-11.260334
1425425810.163,-10.55011
1425425810.179,-9.560194
1425425810.194,-8.383142
1425425810.21,-7.130762
1425425810.225,-5.7796955
1425425810.241,-4.3050594
1425425810.257,-2.6296043
1425425810.272,-0.7860813
1425425810.288,1.0973663
1425425810.304,2.7777977
1425425810.319,4.000822
1425425810.335,4.6123257
1425425810.35,4.581007
1425425810.366,4.013855
1425425810.382,2.915739
1425425810.397,1.1816826
1425425810.413,-1.4746132
1425425810.429,-5.361412
1425425810.444,-10.578644
1425425810.46,-16.977083
1425425810.475,-24.15903
1425425810.491,-31.714962
1425425810.507,-39.38885
1425425810.522,-47.16433
1425425810.538,-55.15197
1425425810.554,-63.407978
1425425810.569,-71.79087
1425425810.585,-79.974304
1425425810.6,-87.532845
1425425810.616,-94.143
1425425810.632,-99.577736
1425425810.647,-103.63292
1425425810.663,-106.01352
1425425810.679,-106.1986
1425425810.694,-103.52229
1425425810.71,-97.47715
1425425810.725,-87.994644
1425425810.741,-75.658554
1425425810.757,-61.665142
1425425810.772,-47.535458
1425425810.788,-34.691853
1425425810.804,-24.053123
1425425810.819,-15.800934
1425425810.835,-9.460358
1425425810.85,-4.1817627
1425425810.866,0.88002014
1425425810.882,6.2693787
1425425810.897,12.093376
1425425810.913,18.155182
1425425810.929,24.007324
1425425810.944,29.219925
1425425810.96,33.40615
1425425810.975,36.31894
1425425810.991,37.819336
1425425811.007,37.90187
1425425811.022,36.65439
1425425811.038,34.320282
1425425811.054,31.279541
1425425811.069,28.055206
1425425811.085,25.322968
1425425811.1,23.75998
1425425811.116,23.877213
1425425811.132,25.819992
1425425811.147,29.2807
1425425811.163,33.554214
1425425811.179,37.79117
1425425811.194,41.36325
1425425811.21,44.12091
1425425811.225,46.419952
1425425811.241,48.93776
1425425811.257,52.33835
1425425811.272,56.939835
1425425811.288,62.631073
1425425811.304,68.91467
1425425811.319,75.07106
1425425811.335,80.252075
1425425811.35,83.61861
1425425811.366,84.43858
1425425811.382,82.2352
1425425811.397,76.96872
1425425811.413,69.16028
1425425811.429,59.755646
1425425811.444,49.96701
1425425811.46,40.82617
1425425811.475,32.915802
1425425811.491,26.298523
1425425811.507,20.726654
1425425811.522,15.859741
1425425811.538,11.581177
1425425811.554,8.022308
1425425811.569,5.358856
1425425811.585,3.6325989
1425425811.6,2.5930176
1425425811.616,1.7567749
1425425811.632,0.64852905
1425425811.647,-0.97598267
1425425811.663,-3.0008545
1425425811.679,-5.003998
1425425811.694,-6.4865723
1425425811.71,-7.0704956
1425425811.725,-6.633148
1425425811.741,-5.288513
1425425811.757,-3.2523804
1425425811.772,-0.77349854
1425425811.788,1.9591675
1425425811.804,4.783905
1425425811.819,7.585846
1425425811.835,10.285065
1425425811.85,12.843231
1425425811.866,15.283508
1425425811.882,17.656494
1425425811.897,19.983978
