1425688162.606,0.0
1425688162.622,0.0
1425688162.637,0.0
1425688162.653,0.0
1425688162.668,0.0
1425688162.684,0.0
1425688162.7,0.0
1425688162.715,0.0
1425688162.731,0.0
1425688162.747,-0.004627197
1425688162.762,-0.014208838
1425688162.778,-0.018984035
1425688162.793,-0.008769624
1425688162.809,0.02098121
1425688162.825,0.05932794
1425688162.84,0.077331424
1425688162.856,0.03911565
1425688162.872,-0.07644789
1425688162.887,-0.26072535
1425688162.903,-0.46372086
1425688162.918,-0.6088515
1425688162.934,-0.6377028
1425688162.95,-0.5458599
1425688162.965,-0.39851302
1425688162.981,-0.3096886
1425688162.997,-0.39139456
1425688163.012,-0.6979559
1425688163.028,-1.2075034
1425688163.043,-1.814005
1425688163.059,-2.3642492
1425688163.075,-2.7424552
1425688163.09,-2.923504
1425688163.106,-2.9942532
1425688163.122,-3.12076
1425688163.137,-3.4701405
1425688163.153,-4.121696
1425688163.168,-5.0441413
1425688163.184,-6.051544
1425688163.2,-6.847836
1425688163.215,-7.2046523
1425688163.231,-7.0817394
1425688163.247,-6.69806
1425688163.262,-6.474496
1425688163.278,-6.850895
1425688163.293,-8.054306
1425688163.309,-10.009373
1425688163.325,-12.242897
1425688163.34,-14.019417
1425688163.356,-14.775263
1425688163.372,-14.422084
1425688163.387,-13.500216
1425688163.403,-13.016875
1425688163.418,-13.998049
1425688163.434,-16.954834
1425688163.45,-21.655241
1425688163.465,-27.01656
1425688163.481,-31.474306
1425688163.497,-33.856617
1425688163.512,-33.9828
1425688163.528,-32.900406
1425688163.544,-32.509773
1425688163.559,-34.69519
1425688163.575,-40.363976
1425688163.59,-49.033276
1425688163.606,-58.78403
1425688163.622,-66.987564
1425688163.637,-71.718475
1425688163.653,-72.690186
1425688163.668,-71.540344
1425688163.684,-71.163795
1425688163.7,-74.36596
1425688163.715,-81.63088
1425688163.731,-92.1434
1425688163.747,-104.921974
1425688163.762,-118.19203
1425688163.778,-130.18144
1425688163.794,-138.55022
1425688163.809,-140.2116
1425688163.825,-132.37242
1425688163.84,-114.71338
1425688163.856,-91.23152
1425688163.872,-70.03828
1425688163.887,-59.914543
1425688163.903,-65.39055
1425688163.919,-83.511086
1425688163.934,-104.10566
1425688163.95,-114.18576
1425688163.965,-103.982254
1425688163.981,-71.1964
1425688163.997,-21.088226
1425688164.012,37.166855
1425688164.028,95.58168
1425688164.044,150.54185
1425688164.059,202.31505
1425688164.075,252.31364
1425688164.09,300.18018
1425688164.106,342.88782
1425688164.122,376.12305
1425688164.137,396.57684
1425688164.153,403.5785
1425688164.169,399.11096
1425688164.184,386.68604
1425688164.2,369.34467
1425688164.215,348.58453
1425688164.231,324.05768
1425688164.247,294.55557
1425688164.262,259.20557
1425688164.278,218.47339
1425688164.294,174.4223
1425688164.309,130.23817
1425688164.325,89.21472
1425688164.34,53.60826
1425688164.356,24.063507
1425688164.372,-0.30352783
1425688164.387,-21.178757
1425688164.403,-40.157745
1425688164.419,-58.03932
1425688164.434,-74.61903
1425688164.45,-88.97223
1425688164.465,-100.043015
1425688164.481,-107.259
1425688164.497,-110.82379
1425688164.512,-111.63504
1425688164.528,-110.88428
1425688164.544,-109.60495
1425688164.559,-108.349365
1425688164.575,-107.12279
1425688164.59,-105.56125
1425688164.606,-103.22745
1425688164.622,-99.88194
1425688164.637,-95.59572
1425688164.653,-90.70333
1425688164.669,-85.62903
1425688164.684,-80.71445
1425688164.7,-76.11943
1425688164.715,-71.830215
1425688164.731,-67.722824
1425688164.747,-63.671844
1425688164.762,-59.611664
1425688164.778,-55.544975
1425688164.794,-51.529694
1425688164.809,-47.62703
1425688164.825,-43.883636
1425688164.84,-40.31237
1425688164.856,-36.919106
1425688164.872,-33.670353
1425688164.887,-30.57597
1425688164.903,-27.644508
1425688164.919,-24.881878
1425688164.934,-22.297733
1425688164.95,-19.89566
1425688164.965,-17.674799
1425688164.981,-15.637501
1425688164.997,-13.785278
1425688165.012,-12.108639
1425688165.028,-10.607405
1425688165.044,-9.274805
1425688165.059,-8.097019
1425688165.075,-7.064049
1425688165.09,-6.160207
1425688165.106,-5.3763714
1425688165.122,-4.696846
1425688165.137,-4.111264
1425688165.153,-3.607666
1425688165.169,-3.1789799
1425688165.184,-2.8154469
1425688165.2,-2.50533
1425688165.215,-2.242525
1425688165.231,-2.0186014
1425688165.247,-1.8243856
1425688165.262,-1.6571522
1425688165.278,-1.5159073
1425688165.294,-1.3916054
1425688165.309,-1.2830038
1425688165.325,-1.192502
1425688165.34,-1.1092429
1425688165.356,-1.0374126
1425688165.372,-0.9745946
1425688165.387,-0.9157615
1425688165.403,-0.8623438
1425688165.419,-0.81517935
1425688165.434,-0.770741
1425688165.45,-0.7316823
1425688165.465,-0.6967654
1425688165.481,-0.6647854
1425688165.497,-0.6371126
1425688165.512,-0.61370087
1425688165.528,-0.5932288
1425688165.544,-0.57451487
1425688165.559,-0.5604
1425688165.575,-0.54959726
1425688165.59,-0.5400286
1425688165.606,-0.5362768
1425688165.622,-0.5353713
1425688165.637,-0.5345144
1425688165.653,-0.54320717
1425688165.669,-0.5481992
1425688165.684,-0.55859375
1425688165.7,-0.5700555
1425688165.715,-0.5855565
1425688165.731,-0.5999198
1425688165.747,-0.61676264
1425688165.762,-0.63622904
1425688165.778,-0.6549921
1425688165.794,-0.6749711
1425688165.809,-0.6999426
1425688165.825,-0.7249937
1425688165.84,-0.75445986
1425688165.856,-0.7923641
1425688165.872,-0.82999897
1425688165.887,-0.88016796
1425688165.903,-0.9365363
1425688165.919,-1.0050426
1425688165.934,-1.0763574
1425688165.95,-1.1610413
1425688165.965,-1.2580805
1425688165.981,-1.3600569
1425688165.997,-1.4755654
1425688166.012,-1.5987763
1425688166.028,-1.7329087
1425688166.044,-1.8846731
1425688166.059,-2.0511365
1425688166.075,-2.2299485
1425688166.09,-2.4281387
1425688166.106,-2.6539602
1425688166.122,-2.8924932
1425688166.137,-3.1579251
1425688166.153,-3.4461522
1425688166.169,-3.7511692
1425688166.184,-4.0872746
1425688166.2,-4.4453583
1425688166.216,-4.8257465
1425688166.231,-5.2396717
1425688166.247,-5.675537
1425688166.262,-6.137398
1425688166.278,-6.6361513
1425688166.294,-7.1449327
1425688166.309,-7.6937437
1425688166.325,-8.284003
1425688166.34,-8.9070215
1425688166.356,-9.561348
1425688166.372,-10.24063
1425688166.387,-10.938568
1425688166.403,-11.614522
1425688166.419,-12.265638
1425688166.434,-12.825209
1425688166.45,-13.2631855
1425688166.466,-13.522314
1425688166.481,-13.5615425
1425688166.497,-13.373295
1425688166.512,-12.935068
1425688166.528,-12.238003
1425688166.544,-11.271252
1425688166.559,-10.052113
1425688166.575,-8.593376
1425688166.591,-6.940668
1425688166.606,-5.125002
1425688166.622,-3.2074451
1425688166.637,-1.2080994
1425688166.653,0.753788
1425688166.669,2.5977135
1425688166.684,4.252527
1425688166.7,5.6444893
1425688166.716,6.736931
1425688166.731,7.489094
1425688166.747,7.8623657
1425688166.762,7.8405075
1425688166.778,7.4281006
1425688166.794,6.654503
1425688166.809,5.6793327
1425688166.825,4.6364403
1425688166.841,3.7265854
1425688166.856,3.1016083
1425688166.872,2.8939476
1425688166.887,3.1020508
1425688166.903,3.6101723
1425688166.919,4.2141953
1425688166.934,4.641094
1425688166.95,4.696972
1425688166.966,4.294857
1425688166.981,3.4304428
1425688166.997,2.202423
1425688167.012,0.731411
1425688167.028,-0.88131714
1425688167.044,-2.5864258
1425688167.059,-4.4090347
1425688167.075,-6.412941
1425688167.091,-8.400997
1425688167.106,-10.172653
1425688167.122,-11.402451
1425688167.137,-11.787735
1425688167.153,-11.156654
1425688167.169,-9.592339
1425688167.184,-7.4979553
1425688167.2,-5.5100403
1425688167.216,-4.3398743
1425688167.231,-4.124672
1425688167.247,-4.718895
1425688167.262,-5.622658
1425688167.278,-6.1426926
1425688167.294,-5.745613
1425688167.309,-4.2651596
1425688167.325,-2.1266632
1425688167.341,-0.17436981
1425688167.356,0.57331085
1425688167.372,-0.010375977
1425688167.387,-1.577446
1425688167.403,-3.2082443
1425688167.419,-3.7169876
1425688167.434,-2.126152
1425688167.45,1.8325195
1425688167.466,7.5191116
1425688167.481,13.687355
1425688167.497,18.773994
1425688167.512,22.382439
1425688167.528,24.702263
1425688167.544,26.710083
1425688167.559,30.093803
1425688167.575,36.89318
1425688167.591,49.262726
1425688167.606,69.024414
1425688167.622,97.38558
1425688167.637,129.03482
1425688167.653,158.78093
1425688167.669,180.27591
1425688167.684,187.66037
1425688167.7,177.51532
1425688167.716,150.35593
1425688167.731,110.74755
1425688167.747,65.72105
1425688167.762,22.426125
1425688167.778,-14.150112
1425688167.794,-41.395844
1425688167.809,-59.63137
1425688167.825,-70.65816
1425688167.841,-76.382164
1425688167.856,-78.01911
1425688167.872,-76.243286
1425688167.887,-71.66437
1425688167.903,-65.294426
1425688167.919,-58.617096
1425688167.934,-52.59313
1425688167.95,-47.927563
1425688167.966,-44.715374
1425688167.981,-42.415565
1425688167.997,-40.320152
1425688168.012,-38.008404
1425688168.028,-35.63224
1425688168.044,-33.82474
1425688168.059,-33.31762
1425688168.075,-34.07529
1425688168.091,-35.57096
1425688168.106,-36.813652
1425688168.122,-36.85756
1425688168.137,-35.12544
1425688168.153,-31.671082
1425688168.169,-27.083336
1425688168.184,-22.115852
1425688168.2,-17.3932
1425688168.216,-12.987751
1425688168.231,-8.577286
1425688168.247,-3.6799688
1425688168.262,2.130332
1425688168.278,8.8775425
1425688168.294,16.116255
1425688168.309,23.042149
1425688168.325,28.858433
1425688168.341,33.0906
1425688168.356,35.953777
1425688168.372,38.23406
1425688168.387,41.09906
1425688168.403,45.680897
1425688168.419,52.61255
1425688168.434,61.57697
1425688168.45,71.15504
1425688168.466,78.96123
1425688168.481,82.228165
1425688168.497,78.569016
1425688168.512,66.88291
1425688168.528,47.72088
1425688168.544,23.280548
1425688168.559,-3.2864532
1425688168.575,-28.740881
1425688168.591,-50.580727
1425688168.606,-67.431465
1425688168.622,-78.90854
1425688168.637,-85.28619
1425688168.653,-87.153145
1425688168.669,-85.22475
1425688168.684,-80.35302
1425688168.7,-73.55466
1425688168.716,-65.94258
1425688168.731,-58.54535
1425688168.747,-52.14577
1425688168.762,-47.120125
1425688168.778,-43.545418
1425688168.794,-41.253048
1425688168.809,-40.000206
1425688168.825,-39.51452
1425688168.841,-39.51803
1425688168.856,-39.689194
1425688168.872,-39.63572
1425688168.887,-38.975967
1425688168.903,-37.418087
1425688168.919,-34.855087
1425688168.934,-31.447348
1425688168.95,-27.49606
1425688168.966,-23.384132
1425688168.981,-19.328709
1425688168.997,-15.310263
1425688169.012,-11.0496025
1425688169.028,-6.19022
1425688169.044,-0.5041542
1425688169.059,5.9364624
1425688169.075,12.748816
1425688169.091,19.353569
1425688169.106,25.228764
1425688169.122,30.081715
1425688169.138,33.95948
1425688169.153,37.272133
1425688169.169,40.712532
1425688169.184,45.09376
1425688169.2,51.16658
1425688169.216,59.22568
1425688169.231,68.75877
1425688169.247,78.2194
1425688169.263,85.23377
1425688169.278,87.152504
1425688169.294,81.98646
1425688169.309,69.139595
1425688169.325,49.71015
1425688169.341,26.212637
1425688169.356,1.6448934
1425688169.372,-21.325743
1425688169.388,-41.01544
1425688169.403,-56.749844
1425688169.419,-68.529175
1425688169.434,-76.554825
1425688169.45,-80.816475
1425688169.466,-81.17184
1425688169.481,-77.61537
1425688169.497,-70.66518
1425688169.513,-61.466244
1425688169.528,-51.653194
1425688169.544,-42.8102
1425688169.559,-35.97822
1425688169.575,-31.345928
1425688169.591,-28.354614
1425688169.606,-26.138987
1425688169.622,-24.024174
1425688169.638,-21.87049
1425688169.653,-19.98827
1425688169.669,-18.848318
1425688169.684,-18.637146
1425688169.7,-19.038296
1425688169.716,-19.350327
1425688169.731,-18.757881
1425688169.747,-16.75148
1425688169.763,-13.23267
1425688169.778,-8.580372
1425688169.794,-3.3861923
1425688169.809,1.7395134
1425688169.825,6.331051
1425688169.841,10.257881
1425688169.856,13.6823845
1425688169.872,17.03907
1425688169.888,20.913193
1425688169.903,25.879505
1425688169.919,32.362328
1425688169.934,40.497757
1425688169.95,49.942703
1425688169.966,59.727257
1425688169.981,68.28907
1425688169.997,73.652596
1425688170.013,73.9284
1425688170.028,67.87761
1425688170.044,55.37522
1425688170.059,37.521996
1425688170.075,16.30133
1425688170.091,-5.924652
1425688170.106,-27.062775
1425688170.122,-45.563293
1425688170.138,-60.486694
1425688170.153,-71.34129
1425688170.169,-77.83398
1425688170.184,-79.94882
1425688170.2,-77.94038
1425688170.216,-72.49717
1425688170.231,-64.652405
1425688170.247,-55.62436
1425688170.263,-46.51394
1425688170.278,-38.01693
1425688170.294,-30.392578
1425688170.309,-23.515137
1425688170.325,-17.101166
1425688170.341,-10.992584
1425688170.356,-5.2994995
1425688170.372,-0.34884644
1425688170.388,3.541565
1425688170.403,6.322815
1425688170.419,8.38353
1425688170.434,10.455856
1425688170.45,13.359985
1425688170.466,17.61818
1425688170.481,23.282364
1425688170.497,29.807755
1425688170.513,36.400467
1425688170.528,42.234283
1425688170.544,46.812927
1425688170.559,50.156586
1425688170.575,52.738373
1425688170.591,55.418564
1425688170.606,59.20392
1425688170.622,64.893616
1425688170.638,72.713
1425688170.653,81.902664
1425688170.669,90.69629
1425688170.684,96.572784
1425688170.7,97.00926
1425688170.716,90.26926
1425688170.731,76.06389
1425688170.747,55.639755
1425688170.763,31.43718
1425688170.778,6.27536
1425688170.794,-17.356995
1425688170.809,-37.753372
1425688170.825,-54.023773
1425688170.841,-65.83363
1425688170.856,-73.07408
1425688170.872,-75.705536
1425688170.888,-73.81796
1425688170.903,-67.87262
1425688170.919,-58.793823
1425688170.934,-47.997116
1425688170.95,-37.03949
1425688170.966,-27.393967
1425688170.981,-19.96457
1425688170.997,-14.984451
1425688171.013,-12.050201
1425688171.028,-10.431595
1425688171.044,-9.356995
1425688171.059,-8.206482
1425688171.075,-6.6299896
1425688171.091,-4.516144
1425688171.106,-1.9007568
1425688171.122,1.0491791
1425688171.138,4.2014465
1425688171.153,7.540497
1425688171.169,11.27124
1425688171.184,15.7131195
1425688171.2,21.158325
1425688171.216,27.58078
1425688171.231,34.57286
1425688171.247,41.44246
1425688171.263,47.54007
1425688171.278,52.588562
1425688171.294,56.870926
1425688171.309,61.150253
1425688171.325,66.33696
1425688171.341,73.22716
1425688171.356,82.11688
1425688171.372,92.60164
1425688171.388,103.48338
1425688171.403,112.67708
1425688171.419,117.52792
1425688171.434,115.35661
1425688171.45,104.33324
1425688171.466,84.171936
1425688171.481,56.42224
1425688171.497,24.235825
1425688171.513,-8.517059
1425688171.528,-38.28589
1425688171.544,-62.602127
1425688171.559,-80.44249
1425688171.575,-91.987305
1425688171.591,-98.107635
1425688171.606,-99.79617
1425688171.622,-97.888214
1425688171.638,-92.97247
1425688171.653,-85.60788
1425688171.669,-76.5307
1425688171.684,-66.63071
1425688171.7,-56.900345
1425688171.716,-48.20578
1425688171.731,-41.035294
1425688171.747,-35.546738
1425688171.763,-31.655441
1425688171.778,-29.115707
1425688171.794,-27.642883
1425688171.81,-26.826889
1425688171.825,-26.154907
1425688171.841,-25.100128
1425688171.856,-23.242783
1425688171.872,-20.509735
1425688171.888,-17.048203
1425688171.903,-13.118546
1425688171.919,-8.825317
1425688171.935,-4.0390778
1425688171.95,1.4723663
1425688171.966,7.8494873
1425688171.981,14.895584
1425688171.997,22.125046
1425688172.013,28.970734
1425688172.028,35.02916
1425688172.044,40.206207
1425688172.06,44.681442
1425688172.075,48.808
1425688172.091,52.997604
1425688172.106,57.761063
1425688172.122,63.685837
1425688172.138,71.370056
1425688172.153,80.948456
1425688172.169,91.68085
1425688172.185,101.622925
1425688172.2,107.826294
1425688172.216,107.13893
1425688172.231,97.270676
1425688172.247,77.78284
1425688172.263,50.368042
1425688172.278,18.56424
1425688172.294,-13.359222
1425688172.31,-41.572403
1425688172.325,-63.623093
1425688172.341,-78.755264
1425688172.356,-87.52544
1425688172.372,-91.23074
1425688172.388,-91.15074
1425688172.403,-88.27832
1425688172.419,-83.21687
1425688172.435,-76.42537
1425688172.45,-68.481735
1425688172.466,-60.11122
1425688172.481,-52.12401
1425688172.497,-45.176895
1425688172.513,-39.579453
1425688172.528,-35.230545
1425688172.544,-31.838974
1425688172.56,-29.161926
1425688172.575,-27.20874
1425688172.591,-26.220612
1425688172.606,-26.371735
1425688172.622,-27.54657
1425688172.638,-29.10289
1425688172.653,-30.089981
1425688172.669,-29.4525
1425688172.685,-26.576477
1425688172.7,-21.552872
1425688172.716,-15.1115265
1425688172.731,-8.328552
1425688172.747,-2.1267242
1425688172.763,3.1007538
1425688172.778,7.6054077
1425688172.794,12.065918
1425688172.81,17.20694
1425688172.825,23.398117
1425688172.841,30.440445
1425688172.856,37.71144
1425688172.872,44.382004
1425688172.888,49.824112
1425688172.903,53.86418
1425688172.919,56.913574
1425688172.935,59.845352
1425688172.95,63.81935
1425688172.966,69.83995
1425688172.981,78.39325
1425688172.997,88.95842
1425688173.013,99.79306
1425688173.028,108.07716
1425688173.044,110.52286
1425688173.06,104.40843
1425688173.075,88.51825
1425688173.091,63.69687
1425688173.106,32.781387
1425688173.122,-0.26724243
1425688173.138,-31.455109
1425688173.153,-57.82144
1425688173.169,-77.88188
1425688173.185,-91.53038
1425688173.2,-99.419235
1425688173.216,-102.41608
1425688173.231,-101.21478
1425688173.247,-96.386505
1425688173.263,-88.578995
1425688173.278,-78.7722
1425688173.294,-68.229675
1425688173.31,-58.25627
1425688173.325,-49.862076
1425688173.341,-43.498215
1425688173.356,-39.018173
1425688173.372,-35.934464
1425688173.388,-33.70175
1425688173.403,-32.00267
1425688173.419,-30.775635
1425688173.435,-30.116898
1425688173.45,-30.019577
1425688173.466,-30.275085
1425688173.481,-30.440445
1425688173.497,-29.883072
1425688173.513,-28.014923
1425688173.528,-24.475952
1425688173.544,-19.258041
1425688173.56,-12.798004
1425688173.575,-5.8211517
1425688173.591,0.865448
1425688173.606,6.6452484
1425688173.622,11.292847
1425688173.638,15.073624
1425688173.653,18.540283
1425688173.669,22.332718
1425688173.685,26.874908
1425688173.7,32.22171
1425688173.716,38.05017
1425688173.731,43.794556
1425688173.747,48.889496
1425688173.763,52.944168
1425688173.778,55.844254
1425688173.794,57.83104
1425688173.81,59.433594
1425688173.825,61.404114
1425688173.841,64.567215
1425688173.856,69.62186
1425688173.872,76.777664
1425688173.888,85.43616
1425688173.903,93.957245
1425688173.919,99.7953
1425688173.935,100.10533
1425688173.95,92.6192
1425688173.966,76.49628
1425688173.981,52.754425
1425688173.997,24.039993
1425688174.013,-6.156082
1425688174.028,-34.502075
1425688174.044,-58.57057
1425688174.06,-77.0757
1425688174.075,-89.70488
1425688174.091,-96.69475
1425688174.106,-98.479935
1425688174.122,-95.6239
1425688174.138,-88.87517
1425688174.153,-79.287796
1425688174.169,-68.13544
1425688174.185,-56.81833
1425688174.2,-46.5533
1425688174.216,-38.158264
1425688174.231,-32.022064
1425688174.247,-28.046875
1425688174.263,-25.819702
1425688174.278,-24.753525
1425688174.294,-24.271973
1425688174.31,-23.99739
1425688174.325,-23.707016
1425688174.341,-23.354477
1425688174.356,-22.956161
1425688174.372,-22.439178
1425688174.388,-21.602692
1425688174.403,-20.118225
1425688174.419,-17.659668
1425688174.435,-14.059158
1425688174.45,-9.41124
1425688174.466,-4.1367645
1425688174.482,1.1760559
1425688174.497,6.0223846
1425688174.513,10.217453
1425688174.528,13.997498
1425688174.544,17.903885
1425688174.56,22.531433
1425688174.575,28.192429
1425688174.591,34.700897
1425688174.606,41.41794
1425688174.622,47.483734
1425688174.638,52.210922
1425688174.653,55.31552
1425688174.669,57.11708
1425688174.685,58.339584
1425688174.7,59.915024
1425688174.716,62.767944
1425688174.732,67.561356
1425688174.747,74.50722
1425688174.763,83.11557
1425688174.778,91.94731
1425688174.794,98.63185
1425688174.81,100.263596
1425688174.825,94.23981
1425688174.841,79.22508
1425688174.857,55.843994
1425688174.872,26.638214
1425688174.888,-4.6141663
1425688174.903,-34.084305
1425688174.919,-58.90567
1425688174.935,-77.716385
1425688174.95,-90.3952
1425688174.966,-97.52838
1425688174.982,-99.77942
1425688174.997,-97.63812
1425688175.013,-91.56065
1425688175.028,-82.29509
1425688175.044,-70.993256
1425688175.06,-59.185287
1425688175.075,-48.350998
1425688175.091,-39.573624
1425688175.107,-33.235443
1425688175.122,-29.08281
1425688175.138,-26.508743
1425688175.153,-24.897339
1425688175.169,-23.886246
1425688175.185,-23.439514
1425688175.2,-23.696594
1425688175.216,-24.697067
1425688175.232,-26.241638
1425688175.247,-27.791946
1425688175.263,-28.605698
1425688175.278,-27.978882
1425688175.294,-25.46428
1425688175.31,-21.077774
1425688175.325,-15.295151
1425688175.341,-8.920975
1425688175.357,-2.8030396
1425688175.372,2.4278412
1425688175.388,6.6634674
1425688175.403,10.312958
1425688175.419,14.155151
1425688175.435,18.995514
1425688175.45,25.220154
1425688175.466,32.570282
1425688175.482,40.164185
1425688175.497,46.87944
1425688175.513,51.867477
1425688175.528,54.935776
1425688175.544,56.76927
1425688175.56,58.627472
1425688175.575,61.86615
1425688175.591,67.45096
1425688175.607,75.64221
1425688175.622,85.8846
1425688175.638,96.87184
1425688175.653,106.62047
1425688175.669,112.74666
1425688175.685,112.834274
1425688175.7,105.01018
1425688175.716,88.59816
1425688175.732,64.53438
1425688175.747,35.31018
1425688175.763,4.428406
1425688175.778,-24.575302
1425688175.794,-49.016586
1425688175.81,-67.536575
1425688175.825,-80.02942
1425688175.841,-87.187164
1425688175.857,-89.861435
1425688175.872,-88.7863
1425688175.888,-84.50656
1425688175.903,-77.620316
1425688175.919,-68.99771
1425688175.935,-59.70697
1425688175.95,-50.874207
1425688175.966,-43.30797
1425688175.982,-37.339355
1425688175.997,-32.827118
1425688176.013,-29.365555
1425688176.028,-26.669052
1425688176.044,-24.683304
1425688176.06,-23.629852
1425688176.075,-23.7211
1425688176.091,-24.919052
1425688176.107,-26.698318
1425688176.122,-28.201797
1425688176.138,-28.429
1425688176.153,-26.674728
1425688176.169,-22.726059
1425688176.185,-17.001007
1425688176.2,-10.298187
1425688176.216,-3.4906616
1425688176.232,2.7855377
1425688176.247,8.329926
1425688176.263,13.472305
1425688176.278,18.73555
1425688176.294,24.628632
1425688176.31,31.30043
1425688176.325,38.52025
1425688176.341,45.714294
1425688176.357,52.221237
1425688176.372,57.593124
1425688176.388,61.75734
1425688176.403,65.05879
1425688176.419,68.11763
1425688176.435,71.68843
1425688176.45,76.47255
1425688176.466,82.88228
1425688176.482,90.78569
1425688176.497,99.17914
1425688176.513,106.134766
1425688176.528,109.04234
1425688176.544,105.326004
1425688176.56,93.31366
1425688176.575,73.00922
1425688176.591,46.25978
1425688176.607,16.266388
1425688176.622,-13.385361
1425688176.638,-39.720657
1425688176.653,-60.979996
1425688176.669,-76.645615
1425688176.685,-87.014145
1425688176.7,-92.649
1425688176.716,-93.99379
1425688176.732,-91.32039
1425688176.747,-85.03224
1425688176.763,-75.76572
1425688176.778,-64.606186
1425688176.794,-52.8842
1425688176.81,-41.967697
1425688176.825,-32.8813
1425688176.841,-26.114532
1425688176.857,-21.599289
1425688176.872,-18.923737
1425688176.888,-17.60669
1425688176.903,-17.338547
1425688176.919,-18.030548
1425688176.935,-19.620926
1425688176.95,-21.861984
1425688176.966,-24.186401
1425688176.982,-25.763199
1425688176.997,-25.788147
1425688177.013,-23.79132
1425688177.028,-19.89392
1425688177.044,-14.691971
1425688177.06,-9.037277
1425688177.075,-3.597412
1425688177.091,1.3658447
1425688177.107,6.11528
1425688177.122,11.198883
1425688177.138,17.094955
1425688177.154,23.952774
1425688177.169,31.441193
1425688177.185,38.832626
1425688177.2,45.32173
1425688177.216,50.354553
1425688177.232,53.929993
1425688177.247,56.60411
1425688177.263,59.39688
1425688177.278,63.4318
1425688177.294,69.60026
1425688177.31,78.127014
1425688177.325,88.32519
1425688177.341,98.40204
1425688177.357,105.754395
1425688177.372,107.457855
1425688177.388,101.176895
1425688177.404,85.973274
1425688177.419,62.71823
1425688177.435,33.9802
1425688177.45,3.2787857
1425688177.466,-25.954926
1425688177.482,-51.140274
1425688177.497,-70.94596
1425688177.513,-85.09218
1425688177.529,-93.90545
1425688177.544,-97.8534
1425688177.56,-97.385544
1425688177.575,-92.98898
1425688177.591,-85.385605
1425688177.607,-75.59783
1425688177.622,-64.87205
1425688177.638,-54.43692
1425688177.654,-45.334496
1425688177.669,-38.172005
1425688177.685,-33.11743
1425688177.7,-29.990707
1425688177.716,-28.434776
1425688177.732,-28.033123
1425688177.747,-28.432037
1425688177.763,-29.267696
1425688177.779,-30.146156
1425688177.794,-30.590141
1425688177.81,-30.110142
1425688177.825,-28.30848
1425688177.841,-25.0952
1425688177.857,-20.717339
1425688177.872,-15.702126
1425688177.888,-10.612785
1425688177.904,-5.7853622
1425688177.919,-1.1775398
1425688177.935,3.599945
1425688177.95,9.037773
1425688177.966,15.372032
1425688177.982,22.476944
1425688177.997,29.833992
1425688178.013,36.780846
1425688178.029,42.80349
1425688178.044,47.756493
1425688178.06,51.969044
1425688178.075,56.127495
1425688178.091,61.11989
1425688178.107,67.68236
1425688178.122,76.057526
1425688178.138,85.628365
1425688178.154,94.67834
1425688178.169,100.62223
1425688178.185,100.61367
1425688178.2,92.416664
1425688178.216,75.33895
1425688178.232,50.615623
1425688178.247,21.09164
1425688178.263,-9.522804
1425688178.279,-37.788574
1425688178.294,-61.276424
1425688178.31,-78.87149
1425688178.325,-90.543495
1425688178.341,-96.844406
1425688178.357,-98.48616
1425688178.372,-96.06489
1425688178.388,-90.09846
1425688178.404,-81.23197
1425688178.419,-70.379585
1425688178.435,-58.75546
1425688178.45,-47.700035
1425688178.466,-38.414368
1425688178.482,-31.611774
1425688178.497,-27.416107
1425688178.513,-25.409462
1425688178.529,-24.887127
1425688178.544,-25.134365
1425688178.56,-25.62126
1425688178.575,-26.017841
1425688178.591,-26.079533
1425688178.607,-25.528162
1425688178.622,-24.038443
1425688178.638,-21.3803
1425688178.654,-17.560009
1425688178.669,-12.906975
1425688178.685,-7.9205284
1425688178.7,-3.062889
1425688178.716,1.4985142
1425688178.732,5.9816093
1425688178.747,10.74745
1425688178.763,16.17487
1425688178.779,22.300247
1425688178.794,28.77071
1425688178.81,35.01267
1425688178.825,40.480953
1425688178.841,44.944862
1425688178.857,48.61594
1425688178.872,52.10202
1425688178.888,56.2716
1425688178.904,61.933556
1425688178.919,69.5348
1425688178.935,78.7625
1425688178.95,88.255936
1425688178.966,95.6299
1425688178.982,97.97713
1425688178.997,92.68989
1425688179.013,78.524864
1425688179.029,56.132282
1425688179.044,28.065453
1425688179.06,-1.9999275
1425688179.075,-30.380714
1425688179.091,-54.3218
1425688179.107,-72.437
1425688179.122,-84.55909
1425688179.138,-91.24574
1425688179.154,-93.24928
1425688179.169,-91.23661
1425688179.185,-85.824295
1425688179.2,-77.6669
1425688179.216,-67.70154
1425688179.232,-57.03058
1425688179.247,-46.83883
1425688179.263,-38.12339
1425688179.279,-31.527851
1425688179.294,-27.209084
1425688179.31,-24.986675
1425688179.325,-24.406788
1425688179.341,-24.982483
1425688179.357,-26.226963
1425688179.372,-27.697517
1425688179.388,-28.900078
1425688179.404,-29.277454
1425688179.419,-28.317566
1425688179.435,-25.67696
1425688179.45,-21.368378
1425688179.466,-15.81982
1425688179.482,-9.697105
1425688179.497,-3.7037582
1425688179.513,1.7818527
1425688179.529,6.7689743
1425688179.544,11.600212
1425688179.56,16.662895
1425688179.575,22.157875
1425688179.591,27.97863
1425688179.607,33.78649
1425688179.622,39.215355
1425688179.638,44.157623
1425688179.654,48.798683
1425688179.669,53.705498
1425688179.685,59.60225
1425688179.7,67.12696
1425688179.716,76.4146
1425688179.732,86.72388
1425688179.747,96.24251
1425688179.763,102.252174
1425688179.779,101.82083
1425688179.794,92.743515
1425688179.81,74.38384
1425688179.825,48.117134
1425688179.841,16.94294
1425688179.857,-15.32518
1425688179.872,-45.11032
1425688179.888,-69.82046
1425688179.904,-88.168846
1425688179.919,-99.92585
1425688179.935,-105.61891
1425688179.95,-106.02993
1425688179.966,-102.1179
1425688179.982,-94.84353
1425688179.997,-85.29898
1425688180.013,-74.649704
1425688180.029,-64.09061
1425688180.044,-54.659485
1425688180.06,-47.152275
1425688180.076,-41.964775
1425688180.091,-39.08824
1425688180.107,-38.195145
1425688180.122,-38.80738
1425688180.138,-40.401287
1425688180.154,-42.57974
1425688180.169,-45.014526
1425688180.185,-47.42116
1425688180.201,-49.44131
1425688180.216,-50.624428
1425688180.232,-50.519264
1425688180.247,-48.82759
1425688180.263,-45.538692
1425688180.279,-41.015266
1425688180.294,-35.93124
1425688180.31,-30.981297
1425688180.326,-26.709831
1425688180.341,-23.320858
1425688180.357,-20.736023
1425688180.372,-18.686588
1425688180.388,-16.948318
1425688180.404,-15.449681
1425688180.419,-14.187456
1425688180.435,-13.213423
1425688180.451,-12.426707
1425688180.466,-11.657452
1425688180.482,-10.686743
1425688180.497,-9.337681
1425688180.513,-7.5243874
1425688180.529,-5.261709
1425688180.544,-2.628643
1425688180.56,0.25850677
1425688180.576,3.289608
1425688180.591,6.30896
1425688180.607,9.175583
1425688180.622,11.765938
1425688180.638,14.011314
1425688180.654,15.907028
1425688180.669,17.551659
1425688180.685,19.032112
1425688180.701,20.415054
1425688180.716,21.622124
1425688180.732,22.51043
1425688180.747,22.951866
1425688180.763,22.885185
1425688180.779,22.460114
1425688180.794,21.979347
1425688180.81,21.87339
1425688180.826,22.546654
1425688180.841,24.199448
1425688180.857,26.673233
1425688180.872,29.414001
1425688180.888,31.710876
1425688180.904,32.985977
1425688180.919,33.148224
1425688180.935,32.667313
1425688180.951,32.43123
1425688180.966,33.303665
1425688180.982,35.68268
1425688180.997,39.25679
1425688181.013,43.170975
1425688181.029,46.460007
1425688181.044,48.55995
1425688181.06,49.61873
1425688181.076,50.382675
1425688181.091,51.807083
1425688181.107,54.502655
1425688181.122,58.46138
1425688181.138,63.06598
1425688181.154,67.40773
1425688181.169,70.78339
1425688181.185,72.93144
1425688181.201,74.28227
1425688181.216,75.636154
1425688181.232,77.97554
1425688181.247,82.29376
1425688181.263,89.36464
1425688181.279,99.4592
1425688181.294,111.89725
1425688181.31,124.622665
1425688181.326,134.21695
1425688181.341,136.56758
1425688181.357,128.25021
1425688181.372,107.8441
1425688181.388,76.79855
1425688181.404,39.055527
1425688181.419,-0.15913391
1425688181.435,-36.023773
1425688181.451,-65.33247
1425688181.466,-86.86522
1425688181.482,-100.87846
1425688181.497,-108.29407
1425688181.513,-110.08284
1425688181.529,-107.01439
1425688181.544,-99.93568
1425688181.56,-89.8949
1425688181.576,-78.22135
1425688181.591,-66.30023
1425688181.607,-55.329056
1425688181.622,-46.09503
1425688181.638,-38.81958
1425688181.654,-33.318596
1425688181.669,-29.105202
1425688181.685,-25.765045
1425688181.701,-23.114433
1425688181.716,-21.287872
1425688181.732,-20.55568
1425688181.747,-21.03482
1425688181.763,-22.501602
1425688181.779,-24.297546
1425688181.794,-25.556427
1425688181.81,-25.517761
1425688181.826,-23.695694
1425688181.841,-20.056473
1425688181.857,-14.887444
1425688181.872,-8.678886
1425688181.888,-1.9955292
1425688181.904,4.620331
1425688181.919,10.752422
1425688181.935,16.188038
1425688181.951,21.05706
1425688181.966,25.775665
1425688181.982,31.012524
1425688181.997,37.458984
1425688182.013,45.61321
1425688182.029,55.642212
1425688182.044,67.04443
1425688182.06,78.51866
1425688182.076,87.87982
1425688182.091,92.39145
1425688182.107,89.476204
1425688182.122,77.59406
1425688182.138,56.99974
1425688182.154,29.863842
1425688182.169,-0.27931595
1425688182.185,-29.630913
1425688182.201,-55.102165
1425688182.216,-74.95731
1425688182.232,-88.73836
1425688182.247,-96.75531
1425688182.263,-99.50303
1425688182.279,-97.41725
1425688182.294,-90.90758
1425688182.31,-80.67309
1425688182.326,-67.902824
1425688182.341,-54.234295
1425688182.357,-41.37728
1425688182.372,-30.67443
1425688182.388,-22.772417
1425688182.404,-17.536882
1425688182.419,-14.291817
1425688182.435,-12.223112
1425688182.451,-10.756128
1425688182.466,-9.729037
1425688182.482,-9.30147
1425688182.497,-9.633139
1425688182.513,-10.576586
1425688182.529,-11.527812
1425688182.544,-11.596276
1425688182.56,-9.929225
1425688182.576,-6.134512
1425688182.591,-0.4556017
1425688182.607,6.3023086
1425688182.622,13.106955
1425688182.638,19.139292
1425688182.654,24.081724
1425688182.669,28.211254
1425688182.685,32.205303
1425688182.701,36.944904
1425688182.716,43.24823
1425688182.732,51.6847
1425688182.748,62.42856
1425688182.763,74.9265
1425688182.779,87.682335
1425688182.794,98.213264
1425688182.81,103.46775
1425688182.826,100.65253
1425688182.841,88.24049
1425688182.857,66.77172
1425688182.873,38.83135
1425688182.888,8.320137
1425688182.904,-20.768087
1425688182.919,-45.492657
1425688182.935,-64.501045
1425688182.951,-77.79168
1425688182.966,-86.01928
1425688182.982,-89.79616
1425688182.998,-89.386955
1425688183.013,-84.87057
1425688183.029,-76.5901
1425688183.044,-65.50612
1425688183.06,-53.154007
1425688183.076,-41.226856
1425688183.091,-31.155445
1425688183.107,-23.628672
1425688183.123,-18.622257
1425688183.138,-15.50395
1425688183.154,-13.511137
1425688183.169,-12.023226
1425688183.185,-10.769026
1425688183.201,-9.743837
1425688183.216,-9.066704
1425688183.232,-8.729017
1425688183.248,-8.373583
1425688183.263,-7.368746
1425688183.279,-5.0146694
1425688183.294,-0.79000664
1425688183.31,5.313841
1425688183.326,12.7795105
1425688183.341,20.683842
1425688183.357,28.033104
1425688183.373,34.08555
1425688183.388,38.624832
1425688183.404,42.004
1425688183.419,45.07763
1425688183.435,48.916092
1425688183.451,54.567894
1425688183.466,62.73971
1425688183.482,73.57509
1425688183.498,86.38646
1425688183.513,99.480194
1425688183.529,110.28194
1425688183.544,115.73474
1425688183.56,113.01945
1425688183.576,100.528275
1425688183.591,78.41974
1425688183.607,48.8513
1425688183.623,15.427135
1425688183.638,-17.632462
1425688183.654,-46.600624
1425688183.669,-69.03097
1425688183.685,-84.076126
1425688183.701,-92.22958
1425688183.716,-94.78939
1425688183.732,-93.184875
1425688183.748,-88.55285
1425688183.763,-81.62888
1425688183.779,-72.946075
1425688183.794,-63.14189
1425688183.81,-53.16842
1425688183.826,-44.221207
1425688183.841,-37.46068
1425688183.857,-33.496994
1425688183.873,-32.184105
1425688183.888,-32.638535
1425688183.904,-33.654793
1425688183.919,-34.192085
1425688183.935,-33.711823
1425688183.951,-32.21547
1425688183.966,-29.953514
1425688183.982,-27.23951
1425688183.998,-24.13276
1425688184.013,-20.557648
1425688184.029,-16.358002
1425688184.044,-11.444443
1425688184.06,-5.83342
1425688184.076,0.48612213
1425688184.091,7.4537888
1425688184.107,15.001038
1425688184.123,22.855286
1425688184.138,30.490921
1425688184.154,37.247147
1425688184.169,42.59021
1425688184.185,46.376083
1425688184.201,49.09153
1425688184.216,51.714775
1425688184.232,55.473457
1425688184.248,61.43273
1425688184.263,70.067375
1425688184.279,80.93113
1425688184.294,92.44478
1425688184.31,101.98891
1425688184.326,106.359276
1425688184.341,102.62086
1425688184.357,89.08593
1425688184.373,66.0604
1425688184.388,35.972183
1425688184.404,2.69458
1425688184.419,-29.56105
1425688184.435,-57.467255
1425688184.451,-79.17778
1425688184.466,-94.259155
1425688184.482,-103.21109
1425688184.498,-106.811646
1425688184.513,-105.82356
1425688184.529,-101.0094
1425688184.544,-93.33093
1425688184.56,-83.9783
1425688184.576,-74.24307
1425688184.591,-65.2124
1425688184.607,-57.52263
1425688184.623,-51.289993
1425688184.638,-46.2704
1425688184.654,-42.03534
1425688184.669,-38.269775
1425688184.685,-34.933197
1425688184.701,-32.182083
1425688184.716,-30.31845
1425688184.732,-29.432632
1425688184.748,-29.235611
1425688184.763,-28.998383
1425688184.779,-27.798203
1425688184.794,-24.808243
1425688184.81,-19.755737
1425688184.826,-13.0234375
1425688184.841,-5.496216
1425688184.857,1.7953339
1425688184.873,8.153336
1425688184.888,13.501495
1425688184.904,18.28244
1425688184.919,23.211884
1425688184.935,28.818771
1425688184.951,35.215103
1425688184.966,42.015106
1425688184.982,48.55072
1425688184.998,54.150223
1425688185.013,58.4151
1425688185.029,61.422882
1425688185.044,63.668488
1425688185.06,65.983505
1425688185.076,69.39198
1425688185.091,74.75139
1425688185.107,82.431656
1425688185.123,91.84326
1425688185.138,101.2262
1425688185.154,107.748
1425688185.169,108.16722
1425688185.185,99.86636
1425688185.201,81.91083
1425688185.216,55.5141
1425688185.232,23.867355
1425688185.248,-8.888855
1425688185.263,-38.858322
1425688185.279,-63.439423
1425688185.294,-81.63234
1425688185.31,-93.734375
1425688185.326,-100.66817
1425688185.341,-103.339066
1425688185.357,-102.32112
1425688185.373,-98.01344
1425688185.388,-90.88106
1425688185.404,-81.77391
1425688185.42,-71.87157
1425688185.435,-62.442017
1425688185.451,-54.42148
1425688185.466,-48.16185
1425688185.482,-43.38585
1425688185.498,-39.53383
1425688185.513,-36.12607
1425688185.529,-33.115143
1425688185.545,-30.855637
1425688185.56,-29.820847
1425688185.576,-30.122498
1425688185.591,-31.264053
1425688185.607,-32.19673
1425688185.623,-31.787735
1425688185.638,-29.32846
1425688185.654,-24.835312
1425688185.67,-19.02246
1425688185.685,-12.944519
1425688185.701,-7.4183197
1425688185.716,-2.7316742
1425688185.732,1.4633789
1425688185.748,5.8484344
1425688185.763,11.143005
1425688185.779,17.729416
1425688185.795,25.493362
1425688185.81,33.89946
1425688185.826,42.133774
1425688185.841,49.4245
1425688185.857,55.244827
1425688185.873,59.51883
1425688185.888,62.654938
1425688185.904,65.43948
1425688185.92,68.86647
1425688185.935,73.85445
1425688185.951,80.920334
1425688185.966,89.784454
1425688185.982,99.08768
1425688185.998,106.3871
1425688186.013,108.560104
1425688186.029,102.73517
1425688186.045,87.35003
1425688186.06,62.907547
1425688186.076,32.077713
1425688186.091,-1.0830688
1425688186.107,-32.345795
1425688186.123,-58.55905
1425688186.138,-78.25139
1425688186.154,-91.438835
1425688186.17,-98.97165
1425688186.185,-101.80639
1425688186.201,-100.65173
1425688186.216,-95.99154
1425688186.232,-88.42301
1425688186.248,-78.90143
1425688186.263,-68.69041
1425688186.279,-59.1101
1425688186.295,-51.169754
1425688186.31,-45.32614
1425688186.326,-41.4376
1425688186.341,-38.941742
1425688186.357,-37.164124
1425688186.373,-35.66362
1425688186.388,-34.339462
1425688186.404,-33.370865
1425688186.42,-33.005737
1425688186.435,-33.23008
1425688186.451,-33.598274
1425688186.466,-33.389977
1425688186.482,-31.833038
1425688186.498,-28.468437
1425688186.513,-23.303078
1425688186.529,-16.7574
1425688186.545,-9.465622
1425688186.56,-2.0792847
1425688186.576,4.8632813
1425688186.591,11.030151
1425688186.607,16.329636
1425688186.623,20.9533
1425688186.638,25.302246
1425688186.654,29.810394
1425688186.67,34.737602
1425688186.685,40.050674
1425688186.701,45.335785
1425688186.716,50.085182
1425688186.732,53.9703
1425688186.748,56.976303
1425688186.763,59.466064
1425688186.779,62.032433
1425688186.795,65.343636
1425688186.81,70.028854
1425688186.826,76.5634
1425688186.841,84.976036
1425688186.857,94.551125
1425688186.873,103.51735
1425688186.888,109.17771
1425688186.904,108.638824
1425688186.92,99.687
1425688186.935,81.69438
1425688186.951,56.051834
1425688186.966,25.778152
1425688186.982,-5.3353043
1425688186.998,-33.831463
1425688187.013,-57.35079
1425688187.029,-74.90667
1425688187.045,-86.60286
1425688187.06,-93.15274
1425688187.076,-95.341
1425688187.091,-93.828156
1425688187.107,-89.15164
1425688187.123,-81.99014
1425688187.138,-73.25293
1425688187.154,-64.0939
1425688187.17,-55.707355
1425688187.185,-48.975834
1425688187.201,-44.222496
1425688187.216,-41.22452
1425688187.232,-39.40335
1425688187.248,-38.122982
1425688187.263,-36.960857
1425688187.279,-35.737556
1425688187.295,-34.448257
1425688187.31,-33.112064
1425688187.326,-31.66504
1425688187.341,-29.976856
1425688187.357,-27.853502
1425688187.373,-25.167847
1425688187.388,-21.838308
1425688187.404,-17.83231
1425688187.42,-13.104582
1425688187.435,-7.7074165
1425688187.451,-1.8262005
1425688187.466,4.1614532
1425688187.482,9.794649
1425688187.498,14.668629
1425688187.513,18.677786
1425688187.529,22.133196
1425688187.545,25.628178
1425688187.56,29.755426
1425688187.576,34.791794
1425688187.591,40.433903
1425688187.607,46.025017
1425688187.623,50.78421
1425688187.638,54.35072
1425688187.654,56.992153
1425688187.67,59.546898
1425688187.685,63.020626
1425688187.701,68.26538
1425688187.716,75.64168
1425688187.732,84.91014
1425688187.748,95.15064
1425688187.763,104.72803
1425688187.779,111.35359
1425688187.795,112.41699
1425688187.81,105.65258
1425688187.826,89.96207
1425688187.841,65.98128
1425688187.857,36.214256
1425688187.873,4.318306
1425688187.888,-25.856922
1425688187.904,-51.348022
1425688187.92,-70.63857
1425688187.935,-83.597694
1425688187.951,-90.95815
1425688187.966,-93.76872
1425688187.982,-92.92859
1425688187.998,-89.15674
1425688188.013,-83.0562
1425688188.029,-75.216354
1425688188.045,-66.3087
1425688188.06,-57.117676
1425688188.076,-48.474186
1425688188.092,-41.15854
1425688188.107,-35.7528
1425688188.123,-32.53534
1425688188.138,-31.37945
1425688188.154,-31.84595
1425688188.17,-33.27697
1425688188.185,-34.99934
1425688188.201,-36.394096
1425688188.216,-36.9593
1425688188.232,-36.308113
1425688188.248,-34.226402
1425688188.263,-30.735855
1425688188.279,-26.119888
1425688188.295,-20.89256
1425688188.31,-15.614151
1425688188.326,-10.655819
1425688188.342,-6.1335793
1425688188.357,-1.8680954
1425688188.373,2.353466
1425688188.388,6.677948
1425688188.404,11.105396
1425688188.42,15.543964
1425688188.435,19.917343
1425688188.451,24.230736
1425688188.467,28.566513
1425688188.482,32.990807
1425688188.498,37.489716
1425688188.513,41.95837
1425688188.529,46.19005
1425688188.545,49.967327
1425688188.56,53.123405
1425688188.576,55.67371
1425688188.592,57.91797
1425688188.607,60.434837
1425688188.623,63.96412
1425688188.638,69.22273
1425688188.654,76.58295
1425688188.67,85.784966
1425688188.685,95.697754
1425688188.701,104.30732
1425688188.717,109.01221
1425688188.732,107.20578
1425688188.748,97.093636
1425688188.763,78.4164
1425688188.779,52.763084
1425688188.795,23.229218
1425688188.81,-6.4684143
1425688188.826,-33.055847
1425688188.842,-54.50004
1425688188.857,-70.21332
1425688188.873,-80.679436
1425688188.888,-86.747375
1425688188.904,-89.1454
1425688188.92,-88.28694
1425688188.935,-84.467064
1425688188.951,-78.1066
1425688188.967,-69.90383
1425688188.982,-60.79368
1425688188.998,-51.778656
1425688189.013,-43.695274
1425688189.029,-37.113647
1425688189.045,-32.26596
1425688189.06,-29.141708
1425688189.076,-27.542442
1425688189.092,-27.202614
1425688189.107,-27.797668
1425688189.123,-28.972237
1425688189.138,-30.343582
1425688189.154,-31.432228
1425688189.17,-31.760307
1425688189.185,-31.016037
1425688189.201,-29.126183
1425688189.217,-26.326767
1425688189.232,-22.941048
1425688189.248,-19.28363
1425688189.263,-15.408615
1425688189.279,-11.190773
1425688189.295,-6.4431305
1425688189.31,-1.1663055
1425688189.326,4.3406754
1425688189.342,9.632156
1425688189.357,14.330292
1425688189.373,18.322243
1425688189.388,21.906319
1425688189.404,25.631065
1425688189.42,30.02137
1425688189.435,35.31218
1425688189.451,41.28608
1425688189.467,47.4002
1425688189.482,52.990456
1425688189.498,57.51165
1425688189.513,60.84606
1425688189.529,63.243263
1425688189.545,65.35637
1425688189.56,68.006386
1425688189.576,72.022415
1425688189.592,78.03753
1425688189.607,86.08953
1425688189.623,95.35645
1425688189.638,103.93947
1425688189.654,109.06052
1425688189.67,107.729416
1425688189.685,97.771065
1425688189.701,78.72015
1425688189.717,52.219673
1425688189.732,21.62535
1425688189.748,-9.070198
1425688189.763,-36.452843
1425688189.779,-58.488655
1425688189.795,-74.63172
1425688189.81,-85.3477
1425688189.826,-91.42501
1425688189.842,-93.55265
1425688189.857,-92.1518
1425688189.873,-87.68032
1425688189.888,-80.8186
1425688189.904,-72.500175
1425688189.92,-63.7465
1425688189.935,-55.40355
1425688189.951,-48.018814
1425688189.967,-41.775482
1425688189.982,-36.698914
1425688189.998,-32.802452
1425688190.013,-30.127869
1425688190.029,-28.767746
1425688190.045,-28.682243
1425688190.06,-29.637642
1425688190.076,-31.144714
1425688190.092,-32.444405
1425688190.107,-32.752472
1425688190.123,-31.532509
1425688190.138,-28.664711
1425688190.154,-24.456451
1425688190.17,-19.464508
1425688190.185,-14.200005
1425688190.201,-8.914986
1425688190.217,-3.5915527
1425688190.232,1.8144379
1425688190.248,7.2332687
1425688190.263,12.417961
1425688190.279,17.087982
1425688190.295,21.181343
1425688190.31,24.972488
1425688190.326,28.945274
1425688190.342,33.523666
1425688190.357,38.809395
1425688190.373,44.477875
1425688190.388,49.961594
1425688190.404,54.660126
1425688190.42,58.2667
1425688190.435,60.832916
1425688190.451,62.767265
1425688190.467,64.75824
1425688190.482,67.66616
1425688190.498,72.33299
1425688190.513,79.30916
1425688190.529,88.529465
1425688190.545,99.01046
1425688190.56,108.71974
1425688190.576,114.921165
1425688190.592,114.73902
1425688190.607,106.09504
1425688190.623,88.420525
1425688190.638,62.975143
1425688190.654,32.68538
1425688190.67,1.2921371
1425688190.685,-27.674377
1425688190.701,-51.738663
1425688190.717,-69.89353
1425688190.732,-82.36616
1425688190.748,-90.06734
1425688190.763,-93.90073
1425688190.779,-94.43504
1425688190.795,-91.89105
1425688190.81,-86.49128
1425688190.826,-78.73877
1425688190.842,-69.55442
1425688190.857,-60.107544
1425688190.873,-51.481216
1425688190.888,-44.336395
1425688190.904,-38.798706
1425688190.92,-34.594635
1425688190.935,-31.344406
1425688190.951,-28.779533
1425688190.967,-26.88163
1425688190.982,-25.734715
1425688190.998,-25.337997
1425688191.014,-25.474545
1425688191.029,-25.695297
1425688191.045,-25.447983
1425688191.06,-24.28349
1425688191.076,-21.966461
1425688191.092,-18.541119
1425688191.107,-14.256149
1425688191.123,-9.457905
1425688191.139,-4.526333
1425688191.154,0.22311401
1425688191.17,4.6458817
1425688191.185,8.766621
1425688191.201,12.831993
1425688191.217,17.16874
1425688191.232,22.125927
1425688191.248,27.796555
1425688191.264,33.960087
1425688191.279,40.05139
1425688191.295,45.354427
1425688191.31,49.2457
1425688191.326,51.530888
1425688191.342,52.49153
1425688191.357,52.89521
1425688191.373,53.732624
1425688191.389,56.04771
1425688191.404,60.63499
1425688191.42,67.78134
1425688191.435,76.91054
1425688191.451,86.42622
1425688191.467,93.71521
1425688191.482,95.75214
1425688191.498,89.929276
1425688191.514,75.114334
1425688191.529,52.167183
1425688191.545,23.85215
1425688191.56,-6.089094
1425688191.576,-34.02092
1425688191.592,-57.45508
1425688191.607,-75.34829
1425688191.623,-87.80095
1425688191.639,-95.41556
1425688191.654,-98.74823
1425688191.67,-98.17962
1425688191.685,-94.03407
1425688191.701,-86.901024
1425688191.717,-77.79794
1425688191.732,-68.01842
1425688191.748,-58.83104
1425688191.764,-51.10051
1425688191.779,-45.055584
1425688191.795,-40.373928
1425688191.81,-36.577293
1425688191.826,-33.3289
1425688191.842,-30.723969
1425688191.857,-29.104141
1425688191.873,-28.808975
1425688191.889,-29.806835
1425688191.904,-31.537848
1425688191.92,-33.0841
1425688191.935,-33.432293
1425688191.951,-31.893335
1425688191.967,-28.251331
1425688191.982,-22.83046
1425688191.998,-16.316753
1425688192.014,-9.521497
1425688192.029,-3.1030216
1425688192.045,2.631082
1425688192.06,7.7666183
1425688192.076,12.766522
1425688192.092,18.191916
1425688192.107,24.45002
1425688192.123,31.523945
1425688192.139,38.983727
1425688192.154,46.187683
1425688192.17,52.57161
1425688192.185,57.863663
1425688192.201,62.13823
1425688192.217,65.80147
1425688192.232,69.45111
1425688192.248,73.84987
1425688192.264,79.778694
1425688192.279,87.723274
1425688192.295,97.461655
1425688192.31,107.642555
1425688192.326,115.78869
1425688192.342,118.78281
1425688192.357,113.87803
1425688192.373,99.72618
1425688192.389,76.9461
1425688192.404,48.045258
1425688192.42,16.60456
1425688192.435,-13.784556
1425688192.451,-40.415047
1425688192.467,-61.845108
1425688192.482,-77.691055
1425688192.498,-88.23858
1425688192.514,-93.950386
1425688192.529,-95.24667
1425688192.545,-92.52964
1425688192.56,-86.421135
1425688192.576,-77.9002
1425688192.592,-68.2993
1425688192.607,-59.013584
1425688192.623,-51.198757
1425688192.639,-45.37271
1425688192.654,-41.450493
1425688192.67,-38.895576
1425688192.685,-37.05443
1425688192.701,-35.545994
1425688192.717,-34.270676
1425688192.732,-33.33966
1425688192.748,-32.841003
1425688192.764,-32.58692
1425688192.779,-32.102245
1425688192.795,-30.76229
1425688192.81,-27.999542
1425688192.826,-23.582855
1425688192.842,-17.763721
1425688192.857,-11.199181
1425688192.873,-4.750309
1425688192.889,0.9264183
1425688192.904,5.710758
1425688192.92,10.089859
1425688192.935,14.915321
1425688192.951,20.916569
1425688192.967,28.21917
1425688192.982,36.247383
1425688192.998,43.961823
1425688193.014,50.382538
1425688193.029,54.965096
1425688193.045,57.906612
1425688193.06,59.960968
1425688193.076,62.23087
1425688193.092,65.88527
1425688193.107,71.86764
1425688193.123,80.56758
1425688193.139,91.49716
1425688193.154,103.01312
1425688193.17,112.3931
1425688193.185,116.40079
1425688193.201,112.24909
1425688193.217,98.51976
1425688193.232,75.83328
1425688193.248,46.66511
1425688193.264,14.61145
1425688193.279,-16.629166
1425688193.295,-44.16738
1425688193.31,-66.3525
1425688193.326,-82.66
1425688193.342,-93.30985
1425688193.357,-98.84237
1425688193.373,-99.886536
1425688193.389,-97.08059
1425688193.404,-91.20632
1425688193.42,-83.26714
1425688193.435,-74.41602
1425688193.451,-65.75341
1425688193.467,-58.097275
1425688193.482,-51.823242
1425688193.498,-46.918587
1425688193.514,-43.096153
1425688193.529,-40.083237
1425688193.545,-37.785164
1425688193.56,-36.27761
1425688193.576,-35.658577
1425688193.592,-35.916245
1425688193.607,-36.699615
1425688193.623,-37.358047
1425688193.639,-37.046486
1425688193.654,-35.011482
1425688193.67,-30.837502
1425688193.686,-24.681778
1425688193.701,-17.266937
1425688193.717,-9.615082
1425688193.732,-2.6577988
1425688193.748,3.1428986
1425688193.764,7.99823
1425688193.779,12.626076
1425688193.795,17.914963
1425688193.811,24.403648
1425688193.826,32.048897
1425688193.842,40.19628
1425688193.857,47.934456
1425688193.873,54.46882
1425688193.889,59.47995
1425688193.904,63.26174
1425688193.92,66.572105
1425688193.936,70.41798
1425688193.951,75.790985
1425688193.967,83.30122
1425688193.982,92.81953
1425688193.998,103.172195
1425688194.014,112.10198
1425688194.029,116.69927
1425688194.045,114.124466
1425688194.061,102.56334
1425688194.076,81.96172
1425688194.092,54.131287
1425688194.107,22.30754
1425688194.123,-9.827782
1425688194.139,-39.01651
1425688194.154,-63.132065
1425688194.17,-81.201096
1425688194.186,-93.16802
1425688194.201,-99.49165
1425688194.217,-100.85641
1425688194.232,-98.00634
1425688194.248,-91.841064
1425688194.264,-83.38945
1425688194.279,-73.791046
1425688194.295,-64.19188
1425688194.311,-55.58008
1425688194.326,-48.635468
1425688194.342,-43.67508
1425688194.357,-40.59079
1425688194.373,-39.002945
1425688194.389,-38.40309
1425688194.404,-38.28412
1425688194.42,-38.28145
1425688194.436,-38.233932
1425688194.451,-38.080994
1425688194.467,-37.706497
1425688194.482,-36.845
1425688194.498,-35.084778
1425688194.514,-32.02368
1425688194.529,-27.53067
1425688194.545,-21.896317
1425688194.561,-15.765488
1425688194.576,-9.87941
1425688194.592,-4.6719666
1425688194.607,-0.019210815
1425688194.623,4.634857
1425688194.639,9.944336
1425688194.654,16.232819
1425688194.67,23.247055
1425688194.686,30.19365
1425688194.701,36.163666
1425688194.717,40.497803
1425688194.732,43.154236
1425688194.748,44.715942
1425688194.764,46.249985
1425688194.779,49.00923
1425688194.795,54.115204
1425688194.811,62.177673
1425688194.826,72.90944
1425688194.842,84.916534
1425688194.857,95.67647
1425688194.873,101.997955
1425688194.889,100.8651
1425688194.904,90.397736
1425688194.92,70.5517
1425688194.936,43.273285
1425688194.951,11.969025
1425688194.967,-19.446121
1425688194.982,-47.51741
1425688194.998,-70.030975
1425688195.014,-86.14548
1425688195.029,-96.107376
1425688195.045,-100.76843
1425688195.061,-101.03261
1425688195.076,-97.66135
1425688195.092,-91.32211
1425688195.107,-82.68965
1425688195.123,-72.656586
1425688195.139,-62.26866
1425688195.154,-52.55345
1425688195.17,-44.291794
1425688195.186,-37.85721
1425688195.201,-33.200035
1425688195.217,-30.036911
1425688195.232,-28.023521
1425688195.248,-26.952042
1425688195.264,-26.694366
1425688195.279,-27.173683
1425688195.295,-28.143158
1425688195.311,-29.118614
1425688195.326,-29.447289
1425688195.342,-28.424164
1425688195.357,-25.596375
1425688195.373,-20.996658
1425688195.389,-15.165489
1425688195.404,-8.927437
1425688195.42,-3.0409088
1425688195.436,2.1482162
1425688195.451,6.9147797
1425688195.467,11.877571
1425688195.482,17.709816
1425688195.498,24.691025
1425688195.514,32.5233
1425688195.529,40.513153
1425688195.545,47.819984
1425688195.561,53.851204
1425688195.576,58.48642
1425688195.592,62.072975
1425688195.607,65.368416
1425688195.623,69.32112
1425688195.639,74.91397
1425688195.654,82.85169
1425688195.67,93.19064
1425688195.686,104.861145
1425688195.701,115.5588
1425688195.717,121.98981
1425688195.732,120.79581
1425688195.748,109.70391
1425688195.764,88.47792
1425688195.779,59.247192
1425688195.795,25.885773
1425688195.811,-7.2075043
1425688195.826,-36.38611
1425688195.842,-59.63044
1425688195.857,-76.49357
1425688195.873,-87.62796
1425688195.889,-93.8863
1425688195.904,-95.87196
1425688195.92,-93.90868
1425688195.936,-88.44183
1425688195.951,-80.29911
1425688195.967,-70.70652
1425688195.982,-60.95172
1425688195.998,-52.016174
1425688196.014,-44.377434
1425688196.029,-38.151237
1425688196.045,-33.292503
1425688196.061,-29.90313
1425688196.076,-28.143852
1425688196.092,-28.111023
1425688196.107,-29.544456
1425688196.123,-31.742676
1425688196.139,-33.767517
1425688196.154,-34.657402
1425688196.17,-33.72785
1425688196.186,-30.725403
1425688196.201,-25.804855
1425688196.217,-19.496033
1425688196.232,-12.541306
1425688196.248,-5.7126846
1425688196.264,0.4638672
1425688196.279,5.912834
1425688196.295,11.072113
1425688196.311,16.612656
1425688196.326,23.097633
1425688196.342,30.519447
1425688196.358,38.402863
1425688196.373,45.855194
1425688196.389,52.083046
1425688196.404,56.714622
1425688196.42,59.92714
1425688196.436,62.40644
1425688196.451,65.13776
1425688196.467,69.213974
1425688196.483,75.58231
1425688196.498,84.71533
1425688196.514,96.18129
1425688196.529,108.29558
1425688196.545,118.16547
1425688196.561,122.26157
1425688196.576,117.52102
1425688196.592,102.41485
1425688196.608,77.69554
1425688196.623,46.251587
1425688196.639,12.277351
1425688196.654,-19.936966
1425688196.67,-47.123352
1425688196.686,-67.64804
1425688196.701,-81.39713
1425688196.717,-89.22689
1425688196.733,-92.34102
1425688196.748,-91.74309
1425688196.764,-88.14101
1425688196.779,-82.10805
1425688196.795,-74.3106
1425688196.811,-65.6287
1425688196.826,-57.03337
1425688196.842,-49.341248
1425688196.858,-42.925865
1425688196.873,-37.739098
1425688196.889,-33.515587
1425688196.904,-30.061417
1425688196.92,-27.462784
1425688196.936,-26.045822
1425688196.951,-26.04741
1425688196.967,-27.296204
1425688196.983,-29.062325
1425688196.998,-30.276909
1425688197.014,-29.840775
1425688197.029,-27.067131
1425688197.045,-21.963188
1425688197.061,-15.210503
1425688197.076,-7.9260864
1425688197.092,-1.1725922
1425688197.108,4.398247
1425688197.123,8.832657
1425688197.139,12.792809
1425688197.154,17.174393
1425688197.17,22.644531
1425688197.186,29.304901
1425688197.201,36.60282
1425688197.217,43.666916
1425688197.233,49.688423
1425688197.248,54.254128
1425688197.264,57.537704
1425688197.279,60.1588
1425688197.295,63.036064
1425688197.311,67.1801
1425688197.326,73.42056
1425688197.342,81.99145
1425688197.358,92.163956
1425688197.373,101.98737
1425688197.389,108.461525
1425688197.404,108.347374
1425688197.42,99.24085
1425688197.436,80.574486
1425688197.451,53.964615
1425688197.467,22.771156
1425688197.483,-8.89772
1425688197.498,-37.41281
1425688197.514,-60.38054
1425688197.529,-76.86177
1425688197.545,-87.01715
1425688197.561,-91.59798
1425688197.576,-91.52938
1425688197.592,-87.66273
1425688197.608,-80.813644
1425688197.623,-71.898895
1425688197.639,-61.842163
1425688197.654,-51.578583
1425688197.67,-41.888268
1425688197.686,-33.31024
1425688197.701,-26.150406
1425688197.717,-20.545158
1425688197.733,-16.582497
1425688197.748,-14.327843
1425688197.764,-13.746994
1425688197.779,-14.658035
1425688197.795,-16.601746
1425688197.811,-18.8527
1425688197.826,-20.55886
1425688197.842,-20.97306
1425688197.858,-19.69014
1425688197.873,-16.740112
1425688197.889,-12.548813
1425688197.904,-7.764641
1425688197.92,-2.9530106
1425688197.936,1.593895
1425688197.951,5.9563293
1425688197.967,10.483414
1425688197.983,15.534187
1425688197.998,21.238419
1425688198.014,27.351028
1425688198.029,33.30268
1425688198.045,38.46068
1425688198.061,42.42221
1425688198.076,45.30439
1425688198.092,47.705925
1425688198.108,50.656845
1425688198.123,55.24788
1425688198.139,62.239174
1425688198.154,71.54351
1425688198.17,81.93899
1425688198.186,91.040146
1425688198.201,95.726295
1425688198.217,93.08605
1425688198.233,81.35595
1425688198.248,60.6979
1425688198.264,33.2725
1425688198.279,2.5868073
1425688198.295,-27.534637
1425688198.311,-53.97065
1425688198.326,-74.85257
1425688198.342,-89.48881
1425688198.358,-98.021835
1425688198.373,-101.01371
1425688198.389,-99.17763
1425688198.404,-93.364174
1425688198.42,-84.592354
1425688198.436,-74.03585
1425688198.451,-62.889374
1425688198.467,-52.229073
1425688198.483,-42.863365
1425688198.498,-35.330246
1425688198.514,-29.791367
1425688198.529,-26.105186
1425688198.545,-23.868172
1425688198.561,-22.605522
1425688198.576,-21.898521
1425688198.592,-21.490433
1425688198.608,-21.27288
1425688198.623,-21.17923
1425688198.639,-21.036018
1425688198.654,-20.559128
1425688198.67,-19.396286
1425688198.686,-17.23838
1425688198.701,-13.84333
1425688198.717,-9.0783615
1425688198.733,-2.9276733
1425688198.748,4.399124
1425688198.764,12.446785
1425688198.779,20.47432
1425688198.795,27.727966
1425688198.811,33.662643
1425688198.826,38.225334
1425688198.842,41.868073
1425688198.858,45.41398
1425688198.873,49.771576
1425688198.889,55.691887
1425688198.904,63.62468
1425688198.92,73.42836
1425688198.936,84.08529
1425688198.951,93.53577
1425688198.967,98.84749
1425688198.983,97.04237
1425688198.998,86.031815
1425688199.014,65.65328
1425688199.03,37.870262
1425688199.045,6.3251953
1425688199.061,-24.904488
1425688199.076,-52.42247
1425688199.092,-74.172646
1425688199.108,-89.50581
1425688199.123,-98.72516
1425688199.139,-102.49463
1425688199.154,-101.544106
1425688199.17,-96.568665
1425688199.186,-88.33891
1425688199.201,-77.76622
1425688199.217,-65.95457
1425688199.233,-54.05146
1425688199.248,-43.15628
1425688199.264,-34.08094
1425688199.28,-27.21959
1425688199.295,-22.515564
1425688199.311,-19.559006
1425688199.326,-17.808731
1425688199.342,-16.854523
1425688199.358,-16.480194
1425688199.373,-16.629028
1425688199.389,-17.197243
1425688199.405,-17.875938
1425688199.42,-18.066635
1425688199.436,-17.072258
1425688199.451,-14.3035965
1425688199.467,-9.529655
1425688199.483,-2.8823853
1425688199.498,5.1218414
1425688199.514,13.7847595
1425688199.53,22.401443
1425688199.545,30.38385
1425688199.561,37.351013
1425688199.576,43.17556
1425688199.592,47.95678
1425688199.608,52.09398
1425688199.623,56.157806
1425688199.639,60.98416
1425688199.655,67.51017
1425688199.67,76.44088
1425688199.686,87.76746
1425688199.701,100.32065
1425688199.717,111.55716
1425688199.733,118.078835
1425688199.748,116.52594
1425688199.764,104.813576
1425688199.78,82.95725
1425688199.795,53.24388
1425688199.811,19.541916
1425688199.826,-13.813751
1425688199.842,-43.251595
1425688199.858,-66.569405
1425688199.873,-83.07847
1425688199.889,-93.132965
1425688199.905,-97.59111
1425688199.92,-97.4303
1425688199.936,-93.55654
1425688199.951,-86.77944
1425688199.967,-77.981636
1425688199.983,-68.058174
1425688199.998,-57.897972
1425688200.014,-48.343422
1425688200.03,-39.927048
1425688200.045,-32.93798
1425688200.061,-27.440529
1425688200.076,-23.380386
1425688200.092,-20.722153
1425688200.108,-19.36103
1425688200.123,-19.12658
1425688200.139,-19.585709
1425688200.155,-20.094635
1425688200.17,-19.922089
1425688200.186,-18.497955
1425688200.201,-15.620117
1425688200.217,-11.430756
1425688200.233,-6.2617874
1425688200.248,-0.4460373
1425688200.264,5.876045
1425688200.28,12.749561
1425688200.295,20.189812
1425688200.311,28.037132
1425688200.326,35.887383
1425688200.342,43.170242
1425688200.358,49.407425
1425688200.373,54.425377
1425688200.389,58.522575
1425688200.405,62.522316
1425688200.42,67.549805
1425688200.436,74.685555
1425688200.451,84.5475
1425688200.467,96.77213
1425688200.483,109.75011
1425688200.498,120.691505
1425688200.514,126.1669
1425688200.53,123.04971
1425688200.545,109.535446
1425688200.561,85.826485
1425688200.576,54.266186
1425688200.592,18.70073
1425688200.608,-16.546654
1425688200.623,-47.831276
1425688200.639,-72.85817
1425688200.655,-90.81372
1425688200.67,-102.07474
1425688200.686,-107.54753
1425688200.701,-108.224144
1425688200.717,-105.033226
1425688200.733,-98.7823
1425688200.748,-90.32683
1425688200.764,-80.56894
1425688200.78,-70.384125
1425688200.795,-60.45018
1425688200.811,-51.25149
1425688200.826,-43.095325
1425688200.842,-36.167828
1425688200.858,-30.647476
1425688200.873,-26.697258
1425688200.889,-24.410679
1425688200.905,-23.718735
1425688200.92,-24.252254
1425688200.936,-25.359154
1425688200.951,-26.165474
1425688200.967,-25.707035
1425688200.983,-23.249226
1425688200.998,-18.548824
1425688201.014,-11.979591
1425688201.03,-4.445896
1425688201.045,3.0557861
1425688201.061,9.872509
1425688201.076,16.017086
1425688201.092,22.076462
1425688201.108,28.83445
1425688201.123,36.711193
1425688201.139,45.445736
1425688201.155,54.229874
1425688201.17,62.024235
1425688201.186,68.062485
1425688201.201,72.210266
1425688201.217,74.98334
1425688201.233,77.44459
1425688201.248,80.91269
1425688201.264,86.5993
1425688201.28,95.12775
1425688201.295,106.025955
1425688201.311,117.38537
1425688201.326,125.98065
1425688201.342,128.05493
1425688201.358,120.468445
1425688201.373,101.90586
1425688201.389,73.49478
1425688201.405,38.52504
1425688201.42,1.5363388
1425688201.436,-33.085106
1425688201.451,-62.05905
1425688201.467,-83.756935
1425688201.483,-98.00865
1425688201.498,-105.60513
1425688201.514,-107.736206
1425688201.53,-105.56298
1425688201.545,-100.10779
1425688201.561,-92.278275
1425688201.576,-82.93815
1425688201.592,-72.924904
1425688201.608,-63.00885
1425688201.623,-53.829758
1425688201.639,-45.809807
1425688201.655,-39.16236
1425688201.67,-33.92675
1425688201.686,-30.121292
1425688201.701,-27.75422
1425688201.717,-26.789093
1425688201.733,-27.010742
1425688201.748,-27.889107
1425688201.764,-28.594467
1425688201.78,-28.247375
1425688201.795,-26.169662
1425688201.811,-22.25962
1425688201.826,-16.965034
1425688201.842,-11.1128235
1425688201.858,-5.4706345
1425688201.873,-0.41874695
1425688201.889,4.175438
1425688201.905,8.813049
1425688201.92,14.008682
1425688201.936,20.021973
1425688201.952,26.662285
1425688201.967,33.430214
1425688201.983,39.722443
1425688201.998,45.10424
1425688202.014,49.4532
1425688202.03,53.085335
1425688202.045,56.65793
1425688202.061,61.104645
1425688202.077,67.33787
1425688202.092,75.84539
1425688202.108,86.240204
1425688202.123,96.85125
1425688202.139,104.850296
1425688202.155,106.861664
1425688202.17,100.04861
1425688202.186,83.197
1425688202.202,57.307144
1425688202.217,25.369728
1425688202.233,-8.49588
1425688202.248,-40.282906
1425688202.264,-66.96487
1425688202.28,-87.00322
1425688202.295,-100.14916
1425688202.311,-107.02951
1425688202.327,-108.639984
1425688202.342,-106.06816
1425688202.358,-100.34356
1425688202.373,-92.42397
1425688202.389,-83.21791
1425688202.405,-73.554245
1425688202.42,-64.17837
1425688202.436,-55.685043
1425688202.452,-48.48562
1425688202.467,-42.816948
1425688202.483,-38.67984
1425688202.498,-35.93553
1425688202.514,-34.355362
1425688202.53,-33.59146
1425688202.545,-33.262047
1425688202.561,-32.90358
1425688202.577,-31.968315
1425688202.592,-30.022583
1425688202.608,-26.818909
1425688202.623,-22.423927
1425688202.639,-17.117706
1425688202.655,-11.225533
1425688202.67,-5.0176773
1425688202.686,1.4183044
1425688202.702,8.092079
1425688202.717,14.990517
1425688202.733,21.979912
1425688202.748,28.794922
1425688202.764,35.106667
1425688202.78,40.619774
1425688202.795,45.175735
1425688202.811,48.81701
1425688202.827,51.93985
1425688202.842,55.22409
1425688202.858,59.607872
1425688202.873,65.96672
1425688202.889,74.6986
1425688202.905,85.2184
1425688202.92,95.72074
1425688202.936,103.28328
1425688202.952,104.60845
1425688202.967,96.95641
1425688202.983,79.175964
1425688202.998,52.261993
1425688203.014,19.239323
1425688203.03,-15.584305
1425688203.045,-47.818233
1425688203.061,-74.09321
1425688203.077,-92.69551
1425688203.092,-103.54877
1425688203.108,-107.68608
1425688203.123,-106.56496
1425688203.139,-101.4796
1425688203.155,-93.432625
1425688203.17,-83.21275
1425688203.186,-71.694824
1425688203.202,-59.810013
1425688203.217,-48.50902
1425688203.233,-38.512917
1425688203.248,-30.192574
1425688203.264,-23.644547
1425688203.28,-18.77979
1425688203.295,-15.572119
1425688203.311,-13.997978
1425688203.327,-13.944843
1425688203.342,-15.093388
1425688203.358,-16.819832
1425688203.373,-18.358395
1425688203.389,-18.891876
1425688203.405,-17.719013
1425688203.42,-14.4600725
1425688203.436,-9.1160145
1425688203.452,-2.1295738
1425688203.467,5.7393675
1425688203.483,13.662014
1425688203.498,21.00117
1425688203.514,27.581493
1425688203.53,33.624737
1425688203.545,39.54997
1425688203.561,45.611122
1425688203.577,51.69349
1425688203.592,57.341637
1425688203.608,62.093086
1425688203.623,65.794495
1425688203.639,68.91405
1425688203.655,72.44547
1425688203.67,77.64053
1425688203.686,85.46648
1425688203.702,96.075325
1425688203.717,108.28211
1425688203.733,119.49377
1425688203.748,126.12023
1425688203.764,124.52884
1425688203.78,112.29275
1425688203.795,89.17581
1425688203.811,57.390408
1425688203.827,21.03172
1425688203.842,-15.212128
1425688203.858,-47.343826
1425688203.873,-72.91986
1425688203.889,-91.17615
1425688203.905,-102.53802
1425688203.92,-107.89869
1425688203.936,-108.15712
1425688203.952,-104.08117
1425688203.967,-96.487946
1425688203.983,-86.418236
1425688203.998,-75.18028
1425688204.014,-64.0986
1425688204.03,-54.237473
1425688204.045,-46.114456
1425688204.061,-39.732132
1425688204.077,-34.68367
1425688204.092,-30.597202
1425688204.108,-27.343367
1425688204.123,-25.1328
1425688204.139,-24.232277
1425688204.155,-24.625618
1425688204.17,-25.764002
1425688204.186,-26.634665
1425688204.202,-26.077177
1425688204.217,-23.311548
1425688204.233,-18.202133
1425688204.248,-11.363661
1425688204.264,-3.8023224
1425688204.28,3.4904728
1425688204.295,9.995779
1425688204.311,15.781422
1425688204.327,21.397438
1425688204.342,27.553642
1425688204.358,34.71542
1425688204.373,42.844543
1425688204.389,51.40619
1425688204.405,59.549362
1425688204.42,66.4384
1425688204.436,71.61629
1425688204.452,75.20389
1425688204.467,77.87561
1425688204.483,80.74246
1425688204.498,85.02984
1425688204.514,91.68331
1425688204.53,100.90155
1425688204.545,111.67575
1425688204.561,121.58081
1425688204.577,127.09294
1425688204.592,124.505516
1425688204.608,111.230484
1425688204.624,86.87766
1425688204.639,53.699753
1425688204.655,16.014332
1425688204.67,-21.06899
1425688204.686,-53.165974
1425688204.702,-77.57945
1425688204.717,-93.52005
1425688204.733,-101.653625
1425688204.749,-103.352066
1425688204.764,-100.09133
1425688204.78,-93.16918
1425688204.795,-83.75666
1425688204.811,-72.96564
1425688204.827,-61.90149
1425688204.842,-51.568222
1425688204.858,-42.667007
1425688204.874,-35.574577
1425688204.889,-30.302942
1425688204.905,-26.565552
1425688204.92,-24.053473
1425688204.936,-22.579294
1425688204.952,-22.102175
1425688204.967,-22.63692
1425688204.983,-24.031145
1425688204.999,-25.79835
1425688205.014,-27.114113
1425688205.03,-27.114883
1425688205.045,-25.27129
1425688205.061,-21.648052
1425688205.077,-16.843586
1425688205.092,-11.612682
1425688205.108,-6.489506
1425688205.124,-1.4933271
1425688205.139,3.806429
1425688205.155,9.941923
1425688205.17,17.176838
1425688205.186,25.31288
1425688205.202,33.739353
1425688205.217,41.62252
1425688205.233,48.295677
1425688205.249,53.457317
1425688205.264,57.288715
1425688205.28,60.46377
1425688205.295,63.98545
1425688205.311,68.92604
1425688205.327,76.02196
1425688205.342,85.13898
1425688205.358,94.897545
1425688205.374,102.638596
1425688205.389,105.0022
1425688205.405,98.94308
1425688205.42,82.86572
1425688205.436,57.404324
1425688205.452,25.40138
1425688205.467,-8.856483
1425688205.483,-40.91756
1425688205.499,-67.42664
1425688205.514,-86.7496
1425688205.53,-98.88091
1425688205.545,-104.814606
1425688205.561,-105.7635
1425688205.577,-102.68588
1425688205.592,-96.206154
1425688205.608,-86.90149
1425688205.624,-75.625305
1425688205.639,-63.531456
1425688205.655,-51.9104
1425688205.67,-41.881496
1425688205.686,-34.135113
1425688205.702,-28.81874
1425688205.717,-25.661697
1425688205.733,-24.158607
1425688205.749,-23.735538
1425688205.764,-23.880573
1425688205.78,-24.16125
1425688205.795,-24.275347
1425688205.811,-24.02327
1425688205.827,-23.308666
1425688205.842,-22.057945
1425688205.858,-20.152988
1425688205.874,-17.414324
1425688205.889,-13.579798
1425688205.905,-8.480467
1425688205.92,-2.1098833
1425688205.936,5.2381716
1425688205.952,13.079844
1425688205.967,20.806824
1425688205.983,27.923817
1425688205.999,34.162033
1425688206.014,39.518383
1425688206.03,44.286373
1425688206.045,48.942234
1425688206.061,54.119236
1425688206.077,60.480324
1425688206.092,68.54024
1425688206.108,78.33225
1425688206.124,88.959236
1425688206.139,98.39006
1425688206.155,103.61995
1425688206.17,101.46902
1425688206.186,89.68842
1425688206.202,68.03511
1425688206.217,38.62036
1425688206.233,5.4386616
1425688206.249,-26.921526
1425688206.264,-54.617565
1425688206.28,-75.45079
1425688206.295,-89.05205
1425688206.311,-96.22685
1425688206.327,-98.18792
1425688206.342,-95.91421
1425688206.358,-90.04077
1425688206.374,-81.08271
1425688206.389,-69.713936
1425688206.405,-56.955456
1425688206.42,-44.040924
1425688206.436,-32.249374
1425688206.452,-22.593933
1425688206.467,-15.669049
1425688206.483,-11.562178
1425688206.499,-9.935079
1425688206.514,-10.101392
1425688206.53,-11.272396
1425688206.545,-12.700243
1425688206.561,-13.839155
1425688206.577,-14.4087925
1425688206.592,-14.289608
1425688206.608,-13.471342
1425688206.624,-11.900855
1425688206.639,-9.455244
1425688206.655,-5.9036245
1425688206.67,-1.0034356
1425688206.686,5.3277082
1425688206.702,12.939586
1425688206.717,21.364449
1425688206.733,29.927351
1425688206.749,37.88873
1425688206.764,44.749073
1425688206.78,50.41034
1425688206.795,55.18493
1425688206.811,59.673935
1425688206.827,64.55972
1425688206.842,70.507904
1425688206.858,78.021576
1425688206.874,87.18062
1425688206.889,97.312546
1425688206.905,106.66264
1425688206.92,112.4361
1425688206.936,111.38016
1425688206.952,100.94527
1425688206.967,80.346634
1425688206.983,51.20246
1425688206.999,17.070482
1425688207.014,-17.60862
1425688207.03,-48.871807
1425688207.045,-74.15474
1425688207.061,-92.49712
1425688207.077,-104.09651
1425688207.092,-109.672966
1425688207.108,-110.022415
1425688207.124,-105.94527
1425688207.139,-98.29147
1425688207.155,-88.075874
1425688207.17,-76.40969
1425688207.186,-64.42002
1425688207.202,-53.06591
1425688207.217,-43.123215
1425688207.233,-35.0767
1425688207.249,-29.184828
1425688207.264,-25.414837
1425688207.28,-23.538204
1425688207.296,-23.142496
1425688207.311,-23.712957
1425688207.327,-24.692604
1425688207.342,-25.458391
1425688207.358,-25.372065
1425688207.374,-23.887566
1425688207.389,-20.716108
1425688207.405,-15.922825
1425688207.421,-9.87986
1425688207.436,-3.107533
1425688207.452,4.0224957
1425688207.467,11.37495
1425688207.483,19.05178
1425688207.499,27.136295
1425688207.514,35.493378
1425688207.53,43.71797
1425688207.546,51.24082
1425688207.561,57.602028
1425688207.577,62.671295
1425688207.592,66.72606
1425688207.608,70.45773
1425688207.624,74.79304
1425688207.639,80.718506
1425688207.655,88.95099
1425688207.671,99.50046
1425688207.686,111.19341
1425688207.702,121.48302
1425688207.717,126.82624
1425688207.733,123.64971
1425688207.749,109.620316
1425688207.764,84.69749
1425688207.78,51.350483
1425688207.796,13.923026
1425688207.811,-22.764565
1425688207.827,-54.73601
1425688207.842,-79.66955
1425688207.858,-96.94736
1425688207.874,-107.09936
1425688207.889,-111.129555
1425688207.905,-110.00493
1425688207.921,-104.58905
1425688207.936,-95.75985
1425688207.952,-84.562874
1425688207.967,-72.193924
1425688207.983,-59.86148
1425688207.999,-48.571526
1425688208.014,-38.925117
1425688208.03,-31.119469
1425688208.046,-25.054268
1425688208.061,-20.547647
1425688208.077,-17.463804
1425688208.092,-15.788415
1425688208.108,-15.42921
1425688208.124,-16.091557
1425688208.139,-17.158245
1425688208.155,-17.778008
1425688208.171,-17.106693
1425688208.186,-14.647888
1425688208.202,-10.448315
1425688208.217,-5.091382
1425688208.233,0.62901115
1425688208.249,6.097208
1425688208.264,11.236475
1425688208.28,16.465328
1425688208.296,22.474422
1425688208.311,29.71418
1425688208.327,38.02703
1425688208.342,46.635582
1425688208.358,54.454834
1425688208.374,60.587387
1425688208.389,64.800385
1425688208.405,67.601204
1425688208.421,70.13896
1425688208.436,73.76026
1425688208.452,79.581665
1425688208.467,88.09004
1425688208.483,98.75494
1425688208.499,109.796265
1425688208.514,118.27767
1425688208.53,120.707596
1425688208.546,113.92932
1425688208.561,96.32389
1425688208.577,68.52356
1425688208.592,33.427105
1425688208.608,-4.573601
1425688208.624,-40.846043
1425688208.639,-71.670044
1425688208.655,-94.90527
1425688208.671,-110.00214
1425688208.686,-117.5867
1425688208.702,-118.86989
1425688208.717,-115.206635
1425688208.733,-107.857574
1425688208.749,-97.97745
1425688208.764,-86.573784
1425688208.78,-74.667885
1425688208.796,-63.207466
1425688208.811,-53.031986
1425688208.827,-44.687622
1425688208.842,-38.32359
1425688208.858,-33.73475
1425688208.874,-30.557373
1425688208.889,-28.49456
1425688208.905,-27.456013
1425688208.921,-27.421562
1425688208.936,-28.210861
1425688208.952,-29.254433
1425688208.967,-29.685154
1425688208.983,-28.578938
1425688208.999,-25.456417
1425688209.014,-20.496284
1425688209.03,-14.385101
1425688209.046,-7.9822006
1425688209.061,-1.888298
1425688209.077,3.7848053
1425688209.092,9.312744
1425688209.108,15.067177
1425688209.124,21.202637
1425688209.139,27.532928
1425688209.155,33.615837
1425688209.171,38.975967
1425688209.186,43.323822
1425688209.202,46.72165
1425688209.217,49.64408
1425688209.233,52.956963
1425688209.249,57.666214
1425688209.264,64.66177
1425688209.28,74.178734
1425688209.296,85.31276
1425688209.311,95.80725
1425688209.327,102.36168
1425688209.342,101.47319
1425688209.358,90.63423
1425688209.374,69.31131
1425688209.389,39.326996
1425688209.405,4.4418335
1425688209.421,-30.766907
1425688209.436,-62.172295
1425688209.452,-87.03111
1425688209.467,-104.23569
1425688209.483,-114.01989
1425688209.499,-117.2638
1425688209.514,-115.019394
1425688209.53,-108.27016
1425688209.546,-97.95401
1425688209.561,-85.19201
1425688209.577,-71.32066
1425688209.592,-57.700165
1425688209.608,-45.53755
1425688209.624,-35.637226
1425688209.639,-28.289444
1425688209.655,-23.35308
1425688209.671,-20.43367
1425688209.686,-19.072319
1425688209.702,-18.836536
1425688209.717,-19.358677
1425688209.733,-20.202484
1425688209.749,-20.825699
1425688209.764,-20.68414
1425688209.78,-19.27581
1425688209.796,-16.39502
1425688209.811,-12.175045
1425688209.827,-7.0512505
1425688209.842,-1.559658
1425688209.858,3.9509163
1425688209.874,9.460159
1425688209.889,15.2117
1425688209.905,21.549953
1425688209.921,28.576244
1425688209.936,36.02851
1425688209.952,43.31489
1425688209.968,49.78066
1425688209.983,55.033245
1425688209.999,59.11062
1425688210.014,62.559708
1425688210.03,66.24019
1425688210.046,71.16278
1425688210.061,78.14551
1425688210.077,87.38912
1425688210.092,98.079384
1425688210.108,108.184364
1425688210.124,114.569885
1425688210.139,113.76073
1425688210.155,103.05618
1425688210.171,81.58904
1425688210.186,50.881454
1425688210.202,14.558193
1425688210.218,-22.681389
1425688210.233,-56.41165
1425688210.249,-83.54866
1425688210.264,-102.715195
1425688210.28,-114.089806
1425688210.296,-118.66798
1425688210.311,-117.67642
1425688210.327,-112.18132
1425688210.343,-103.07556
1425688210.358,-91.31698
1425688210.374,-78.05318
1425688210.389,-64.644936
1425688210.405,-52.405373
1425688210.421,-42.260494
1425688210.436,-34.55367
1425688210.452,-29.009514
1425688210.468,-25.110157
1425688210.483,-22.353252
1425688210.499,-20.525837
1425688210.514,-19.610321
1425688210.53,-19.548576
1425688210.546,-19.926086
1425688210.561,-19.946264
1425688210.577,-18.619858
1425688210.593,-15.227127
1425688210.608,-9.641716
1425688210.624,-2.4730754
1425688210.639,5.217158
1425688210.655,12.3947525
1425688210.671,18.473654
1425688210.686,23.55756
1425688210.702,28.320026
1425688210.718,33.60713
1425688210.733,40.023525
1425688210.749,47.52749
1425688210.764,55.471863
1425688210.78,62.797382
1425688210.796,68.52953
1425688210.811,72.18046
1425688210.827,74.01849
1425688210.843,75.02324
1425688210.858,76.635345
1425688210.874,80.30179
1425688210.889,86.94075
1425688210.905,96.36771
1425688210.921,106.93045
1425688210.936,115.56168
1425688210.952,118.3942
1425688210.968,111.93379
1425688210.983,94.31239
1425688210.999,66.14244
1425688211.014,30.53844
1425688211.03,-7.8390684
1425688211.046,-44.076904
1425688211.061,-74.35411
1425688211.077,-96.57584
1425688211.093,-110.317955
1425688211.108,-116.22258
1425688211.124,-115.47824
1425688211.139,-109.39996
1425688211.155,-99.38516
1425688211.171,-86.91925
1425688211.186,-73.526596
1425688211.202,-60.560764
1425688211.218,-49.01126
1425688211.233,-39.378456
1425688211.249,-31.693016
1425688211.264,-25.724535
1425688211.28,-21.125095
1425688211.296,-17.630276
1425688211.311,-15.153826
1425688211.327,-13.72966
1425688211.343,-13.419885
1425688211.358,-14.099449
1425688211.374,-15.343509
1425688211.389,-16.402317
1425688211.405,-16.382664
1425688211.421,-14.531215
1425688211.436,-10.570613
1425688211.452,-4.828545
1425688211.468,1.9247437
1425688211.483,8.745958
1425688211.499,14.964518
1425688211.514,20.361069
1425688211.53,25.18602
1425688211.546,29.901604
1425688211.561,34.831055
1425688211.577,39.983322
1425688211.593,44.958714
1425688211.608,49.268257
1425688211.624,52.597935
1425688211.639,55.13856
1425688211.655,57.65371
1425688211.671,61.335575
1425688211.686,67.32344
1425688211.702,76.23324
1425688211.718,87.648994
1425688211.733,99.864235
1425688211.749,110.02597
1425688211.764,114.666626
1425688211.78,110.69913
1425688211.796,96.38741
1425688211.811,72.038
1425688211.827,40.075684
1425688211.843,4.4419265
1425688211.858,-30.469492
1425688211.874,-60.884846
1425688211.889,-84.36077
1425688211.905,-99.97012
1425688211.921,-107.98747
1425688211.936,-109.367325
1425688211.952,-105.335724
1425688211.968,-97.14785
1425688211.983,-86.055504
1425688211.999,-73.32094
1425688212.014,-60.214428
1425688212.03,-47.87139
1425688212.046,-37.203934
1425688212.061,-28.813707
1425688212.077,-22.908009
1425688212.093,-19.388248
1425688212.108,-17.89831
1425688212.124,-17.951145
1425688212.139,-18.974405
1425688212.155,-20.464407
1425688212.171,-21.891048
1425688212.186,-22.75883
1425688212.202,-22.62707
1425688212.218,-21.235878
1425688212.233,-18.541412
1425688212.249,-14.73188
1425688212.264,-10.142408
1425688212.28,-5.0551853
1425688212.296,0.3920517
1425688212.311,6.220175
1425688212.327,12.464249
1425688212.343,19.016016
1425688212.358,25.530924
1425688212.374,31.496935
1425688212.389,36.48372
1425688212.405,40.336384
1425688212.421,43.326733
1425688212.436,46.024635
1425688212.452,49.199715
1425688212.468,53.612617
1425688212.483,59.902042
1425688212.499,68.248924
1425688212.514,78.090065
1425688212.53,87.74124
1425688212.546,94.46269
1425688212.561,94.97696
1425688212.577,86.5109
1425688212.593,67.93059
1425688212.608,40.42771
1425688212.624,7.338335
1425688212.64,-26.81152
1425688212.655,-57.651375
1425688212.671,-82.10982
1425688212.686,-98.87129
1425688212.702,-108.04689
1425688212.718,-110.59453
1425688212.733,-107.65435
1425688212.749,-100.26011
1425688212.764,-89.34717
1425688212.78,-75.90155
1425688212.796,-61.09857
1425688212.811,-46.29435
1425688212.827,-32.848335
1425688212.843,-21.934326
1425688212.858,-14.282673
1425688212.874,-10.086761
1425688212.89,-8.963179
1425688212.905,-10.166565
1425688212.921,-12.721109
1425688212.936,-15.727926
1425688212.952,-18.403788
1425688212.968,-20.171343
1425688212.983,-20.608753
1425688212.999,-19.517723
1425688213.015,-16.902508
1425688213.03,-13.018639
1425688213.046,-8.265057
1425688213.061,-3.0715122
1425688213.077,2.3075686
1425688213.093,7.8502665
1425688213.108,13.6808815
1425688213.124,19.91655
1425688213.14,26.49995
1425688213.155,33.122604
1425688213.171,39.33763
1425688213.186,44.704
1425688213.202,49.033875
1425688213.218,52.555595
1425688213.233,55.97234
1425688213.249,60.339638
1425688213.265,66.71707
1425688213.28,75.62194
1425688213.296,86.46336
1425688213.311,97.21345
1425688213.327,104.63711
1425688213.343,105.164055
1425688213.358,96.04119
1425688213.374,76.433235
1425688213.39,47.852894
1425688213.405,13.792125
1425688213.421,-21.296047
1425688213.436,-53.2469
1425688213.452,-79.06718
1425688213.468,-97.37824
1425688213.483,-108.1183
1425688213.499,-112.08154
1425688213.515,-110.36749
1425688213.53,-104.104744
1425688213.546,-94.358635
1425688213.561,-82.26584
1425688213.577,-69.04297
1425688213.593,-55.93219
1425688213.608,-44.01645
1425688213.624,-34.03937
1425688213.64,-26.341318
1425688213.655,-20.92126
1425688213.671,-17.57848
1425688213.686,-16.030642
1425688213.702,-15.957536
1425688213.718,-16.88662
1425688213.733,-18.195206
1425688213.749,-19.148903
1425688213.765,-19.05643
1425688213.78,-17.51718
1425688213.796,-14.516049
1425688213.811,-10.348058
1425688213.827,-5.4278727
1425688213.843,-0.07587242
1425688213.858,5.62016
1425688213.874,11.733662
1425688213.89,18.378574
1425688213.905,25.573105
1425688213.921,33.153553
1425688213.936,40.734764
1425688213.952,47.867157
1425688213.968,54.10417
1425688213.983,59.191948
1425688213.999,63.2165
1425688214.015,66.67264
1425688214.03,70.43767
1425688214.046,75.6055
1425688214.061,83.05594
1425688214.077,92.93945
1425688214.093,104.13947
1425688214.108,114.10582
1425688214.124,119.3131
1425688214.14,116.22839
1425688214.155,102.52387
1425688214.171,78.105354
1425688214.186,45.327896
1425688214.202,8.395746
1425688214.218,-27.894608
1425688214.233,-59.415546
1425688214.249,-83.61801
1425688214.265,-99.6564
1425688214.28,-108.00113
1425688214.296,-109.77605
1425688214.311,-106.29669
1425688214.327,-98.79614
1425688214.343,-88.47602
1425688214.358,-76.52223
1425688214.374,-64.152756
1425688214.39,-52.4551
1425688214.405,-42.263855
1425688214.421,-34.02652
1425688214.436,-27.837584
1425688214.452,-23.489384
1425688214.468,-20.70135
1425688214.483,-19.272465
1425688214.499,-19.039412
1425688214.515,-19.861841
1425688214.53,-21.404196
1425688214.546,-23.025644
1425688214.561,-23.926197
1425688214.577,-23.346478
1425688214.593,-20.874968
1425688214.608,-16.62329
1425688214.624,-11.138428
1425688214.64,-5.138138
1425688214.655,0.8763046
1425688214.671,6.7885
1425688214.686,12.852173
1425688214.702,19.415058
1425688214.718,26.652328
1425688214.733,34.35254
1425688214.749,41.980896
1425688214.765,48.94064
1425688214.78,54.775032
1425688214.796,59.47445
1425688214.811,63.446472
1425688214.827,67.50279
1425688214.843,72.66582
1425688214.858,79.92072
1425688214.874,89.734886
1425688214.89,101.55762
1425688214.905,113.48447
1425688214.921,122.33998
1425688214.936,124.39321
1425688214.952,116.54007
1425688214.968,97.49747
1425688214.983,68.39203
1425688214.999,32.678223
1425688215.015,-4.9206734
1425688215.03,-39.723328
1425688215.046,-68.26083
1425688215.061,-88.8513
1425688215.077,-101.41492
1425688215.093,-106.930176
1425688215.108,-106.69331
1425688215.124,-101.94696
1425688215.14,-93.73844
1425688215.155,-83.078606
1425688215.171,-71.06494
1425688215.186,-58.84228
1425688215.202,-47.458584
1425688215.218,-37.600296
1425688215.233,-29.518188
1425688215.249,-23.09189
1425688215.265,-18.079128
1425688215.28,-14.416813
1425688215.296,-12.272287
1425688215.311,-11.927111
1425688215.327,-13.416603
1425688215.343,-16.37838
1425688215.358,-19.913336
1425688215.374,-22.895332
1425688215.39,-24.225653
1425688215.405,-23.190811
1425688215.421,-19.627182
1425688215.436,-13.938791
1425688215.452,-6.922001
1425688215.468,0.49599397
1425688215.483,7.53028
1425688215.499,13.849861
1425688215.515,19.597109
1425688215.53,25.188889
1425688215.546,31.036581
1425688215.562,37.206036
1425688215.577,43.363583
1425688215.593,48.891064
1425688215.608,53.28969
1425688215.624,56.42919
1425688215.64,58.73785
1425688215.655,61.140713
1425688215.671,64.78945
1425688215.687,70.63003
1425688215.702,78.94919
1425688215.718,88.914
1425688215.733,98.4161
1425688215.749,104.27627
1425688215.765,103.11015
1425688215.78,92.39056
1425688215.796,71.475586
1425688215.812,42.03981
1425688215.827,7.622779
1425688215.843,-27.416245
1425688215.858,-59.09354
1425688215.874,-84.712875
1425688215.89,-103.02931
1425688215.905,-114.02425
1425688215.921,-118.31333
1425688215.937,-116.80595
1425688215.952,-110.47268
1425688215.968,-100.387215
1425688215.983,-87.79617
1425688215.999,-74.064865
1425688216.015,-60.521088
1425688216.03,-48.321934
1425688216.046,-38.23632
1425688216.062,-30.622103
1425688216.077,-25.472933
1425688216.093,-22.557371
1425688216.108,-21.512388
1425688216.124,-21.935797
1425688216.14,-23.36671
1425688216.155,-25.23617
1425688216.171,-26.833101
1425688216.187,-27.441038
1425688216.202,-26.458218
1425688216.218,-23.650337
1425688216.233,-19.206238
1425688216.249,-13.665657
1425688216.265,-7.6754475
1425688216.28,-1.7224998
1425688216.296,4.0378532
1425688216.312,9.744564
1425688216.327,15.666492
1425688216.343,21.963593
1425688216.358,28.582638
1425688216.374,35.181343
1425688216.39,41.319954
1425688216.405,46.625008
1425688216.421,51.01483
1425688216.437,54.739975
1425688216.452,58.41733
1425688216.468,62.90782
1425688216.483,69.08481
1425688216.499,77.42937
1425688216.515,87.54428
1425688216.53,97.78777
1425688216.546,105.34152
1425688216.562,106.774345
1425688216.577,99.139946
1425688216.593,81.113594
1425688216.608,53.662678
1425688216.624,19.90424
1425688216.64,-15.796448
1425688216.655,-49.083916
1425688216.671,-76.6914
1425688216.687,-96.94323
1425688216.702,-109.56638
1425688216.718,-115.20242
1425688216.733,-114.81552
1425688216.749,-109.40432
1425688216.765,-100.02548
1425688216.78,-87.85712
1425688216.796,-74.2762
1425688216.812,-60.73289
1425688216.827,-48.482174
1425688216.843,-38.36071
1425688216.858,-30.667213
1425688216.874,-25.21405
1425688216.89,-21.552683
1425688216.905,-19.2422
1425688216.921,-18.001738
1425688216.937,-17.683306
1425688216.952,-18.12193
1425688216.968,-18.954454
1425688216.983,-19.536476
1425688216.999,-19.0658
1425688217.015,-16.870825
1425688217.03,-12.712
1425688217.046,-6.8758755
1425688217.062,-0.1376977
1425688217.077,6.605796
1425688217.093,12.72861
1425688217.108,18.141022
1425688217.124,23.292616
1425688217.14,28.871494
1425688217.155,35.347847
1425688217.171,42.711445
1425688217.187,50.360474
1425688217.202,57.38822
1425688217.218,62.978764
1425688217.233,66.82782
1425688217.249,69.28373
1425688217.265,71.30031
1425688217.28,74.15644
1425688217.296,79.062096
1425688217.312,86.67232
1425688217.327,96.68875
1425688217.343,107.53192
1425688217.358,116.43138
1425688217.374,119.89376
1425688217.39,114.71287
1425688217.405,99.03981
1425688217.421,73.18964
1425688217.437,39.72702
1425688217.452,2.8613734
1425688217.468,-32.786194
1425688217.483,-63.38102
1425688217.499,-86.67524
1425688217.515,-102.11272
1425688217.53,-110.40463
1425688217.546,-112.745636
1425688217.562,-110.34346
1425688217.577,-104.1473
1425688217.593,-94.99782
1425688217.608,-83.78821
1425688217.624,-71.60169
1425688217.64,-59.55619
1425688217.655,-48.649296
1425688217.671,-39.49421
1425688217.687,-32.312454
1425688217.702,-26.99583
1425688217.718,-23.36069
1425688217.733,-21.229836
1425688217.749,-20.487745
1425688217.765,-20.940353
1425688217.78,-22.191072
1425688217.796,-23.556992
1425688217.812,-24.199877
1425688217.827,-23.355791
1425688217.843,-20.575272
1425688217.858,-15.869708
1425688217.874,-9.700552
1425688217.89,-2.7777183
1425688217.905,4.1647654
1425688217.921,10.70864
1425688217.937,16.796272
1425688217.952,22.731468
1425688217.968,28.958374
1425688217.983,35.75248
1425688217.999,43.036476
1425688218.015,50.32136
1425688218.03,56.86538
1425688218.046,62.038998
1425688218.062,65.60114
1425688218.077,67.93927
1425688218.093,70.017365
1425688218.108,73.16028
1425688218.124,78.58628
1425688218.14,86.81778
1425688218.155,97.131386
1425688218.171,107.33414
1425688218.187,114.05397
1425688218.202,113.60309
1425688218.218,103.21391
1425688218.234,82.10515
1425688218.249,51.945053
1425688218.265,16.467922
1425688218.28,-19.649147
1425688218.296,-52.09319
1425688218.312,-77.916794
1425688218.327,-95.87346
1425688218.343,-106.14983
1425688218.359,-109.73726
1425688218.374,-107.84201
1425688218.39,-101.57416
1425688218.405,-91.94238
1425688218.421,-79.97599
1425688218.437,-66.86162
1425688218.452,-53.832863
1425688218.468,-42.014797
1425688218.484,-32.16575
1425688218.499,-24.582617
1425688218.515,-19.14727
1425688218.53,-15.558823
1425688218.546,-13.544977
1425688218.562,-12.97448
1425688218.577,-13.739801
1425688218.593,-15.558495
1425688218.609,-17.849285
1425688218.624,-19.762384
1425688218.64,-20.465042
1425688218.655,-19.428759
1425688218.671,-16.629343
1425688218.687,-12.476788
1425688218.702,-7.617428
1425688218.718,-2.6248283
1425688218.734,2.2453346
1425688218.749,7.056961
1425688218.765,12.107288
1425688218.78,17.685795
1425688218.796,23.877274
1425688218.812,30.442417
1425688218.827,36.862835
1425688218.843,42.54322
1425688218.859,47.073006
1425688218.874,50.449432
1425688218.89,53.17929
1425688218.905,56.230465
1425688218.921,60.784416
1425688218.937,67.80386
1425688218.952,77.50795
1425688218.968,88.92662
1425688218.984,99.72995
1425688218.999,106.51361
1425688219.015,105.76273
1425688219.03,94.93605
1425688219.046,73.53786
1425688219.062,43.406208
1425688219.077,8.365513
1425688219.093,-26.978535
1425688219.109,-58.43706
1425688219.124,-83.229904
1425688219.14,-100.21495
1425688219.155,-109.58609
1425688219.171,-112.27832
1425688219.187,-109.41753
1425688219.202,-102.09561
1425688219.218,-91.4056
1425688219.234,-78.48866
1425688219.249,-64.633026
1425688219.265,-51.13892
1425688219.28,-39.202217
1425688219.296,-29.717926
1425688219.312,-23.162205
1425688219.327,-19.537518
1425688219.343,-18.516937
1425688219.359,-19.518505
1425688219.374,-21.865181
1425688219.39,-24.8685
1425688219.405,-27.79992
1425688219.421,-29.893173
1425688219.437,-30.431152
1425688219.452,-28.932724
1425688219.468,-25.3349
1425688219.484,-20.018776
1425688219.499,-13.70462
1425688219.515,-7.1130676
1425688219.53,-0.6948395
1425688219.546,5.5422363
1425688219.562,11.86338
1425688219.577,18.558807
1425688219.593,25.591469
1425688219.609,32.597015
1425688219.624,38.973938
1425688219.64,44.22915
1425688219.655,48.22499
1425688219.671,51.315063
1425688219.687,54.26478
1425688219.702,58.112396
1425688219.718,63.866425
1425688219.734,72.10474
1425688219.749,82.47523
1425688219.765,93.37708
1425688219.78,102.00121
1425688219.796,104.88752
1425688219.812,98.9521
1425688219.827,82.610985
1425688219.843,56.444138
1425688219.859,23.239044
1425688219.874,-12.808624
1425688219.89,-47.20111
1425688219.905,-76.28666
1425688219.921,-97.8592
1425688219.937,-111.2426
1425688219.952,-116.91178
1425688219.968,-115.96888
1425688219.984,-109.69538
1425688219.999,-99.37032
1425688220.015,-86.25576
1425688220.03,-71.63455
1425688220.046,-56.84014
1425688220.062,-43.15799
1425688220.077,-31.65615
1425688220.093,-23.02797
1425688220.109,-17.470673
1425688220.124,-14.734402
1425688220.14,-14.244411
1425688220.155,-15.292553
1425688220.171,-17.125648
1425688220.187,-19.06939
1425688220.202,-20.51263
1425688220.218,-20.969875
1425688220.234,-20.06746
1425688220.249,-17.68155
1425688220.265,-13.913574
1425688220.28,-9.0702095
1425688220.296,-3.5335083
1425688220.312,2.3983803
1425688220.327,8.628441
1425688220.343,15.203468
1425688220.359,22.296894
1425688220.374,29.939877
1425688220.39,37.924675
1425688220.405,45.759377
1425688220.421,52.854816
1425688220.437,58.6886
1425688220.452,63.106163
1425688220.468,66.38579
1425688220.484,69.27823
1425688220.499,72.85661
1425688220.515,78.23761
1425688220.53,86.14572
1425688220.546,96.37384
1425688220.562,107.30754
1425688220.577,115.92005
1425688220.593,118.3922
1425688220.609,111.2902
1425688220.624,92.84299
1425688220.64,63.88116
1425688220.655,27.747437
1425688220.671,-10.651417
1425688220.687,-46.369175
1425688220.702,-75.696465
1425688220.718,-96.83067
1425688220.734,-109.67324
1425688220.749,-115.165955
1425688220.765,-114.558464
1425688220.78,-109.07445
1425688220.796,-99.872696
1425688220.812,-88.25093
1425688220.827,-75.64681
1425688220.843,-63.564327
1425688220.859,-53.1623
1425688220.874,-45.048546
1425688220.89,-39.177505
1425688220.906,-35.022263
1425688220.921,-31.90831
1425688220.937,-29.38192
1425688220.952,-27.336643
1425688220.968,-25.973854
1425688220.984,-25.433243
1425688220.999,-25.529251
1425688221.015,-25.602314
1425688221.03,-24.684223
1425688221.046,-21.898067
1425688221.062,-16.848373
1425688221.077,-9.899162
1425688221.093,-2.018036
1425688221.109,5.6998825
1425688221.124,12.434216
1425688221.14,18.042233
1425688221.156,23.037819
1425688221.171,28.264912
1425688221.187,34.394608
1425688221.202,41.57748
1425688221.218,49.363396
1425688221.234,56.901844
1425688221.249,63.33015
1425688221.265,68.19258
1425688221.281,71.6409
1425688221.296,74.46198
1425688221.312,77.838135
1425688221.327,83.01113
1425688221.343,90.78616
1425688221.359,101.0724
1425688221.374,112.46207
1425688221.39,122.228516
1425688221.406,126.77652
1425688221.421,122.61947
1425688221.437,107.56508
1425688221.452,81.656876
1425688221.468,47.34622
1425688221.484,8.918114
1425688221.499,-28.735249
1425688221.515,-61.453514
1425688221.531,-86.65867
1425688221.546,-103.57404
1425688221.562,-112.76658
1425688221.577,-115.46298
1425688221.593,-112.9548
1425688221.609,-106.34731
1425688221.624,-96.6543
1425688221.64,-84.981575
1425688221.656,-72.56507
1425688221.671,-60.623047
1425688221.687,-50.10105
1425688221.702,-41.512962
1425688221.718,-34.897484
1425688221.734,-29.989525
1425688221.749,-26.544281
1425688221.765,-24.46289
1425688221.781,-23.800285
1425688221.796,-24.528816
1425688221.812,-26.330406
1425688221.827,-28.444626
1425688221.843,-29.845917
1425688221.859,-29.543762
1425688221.874,-26.985573
1425688221.89,-22.249
1425688221.906,-16.01928
1425688221.921,-9.27697
1425688221.937,-2.8946075
1425688221.952,2.698578
1425688221.968,7.6530304
1425688221.984,12.545067
1425688221.999,18.06305
1425688222.015,24.655998
1425688222.031,32.239594
1425688222.046,40.26625
1425688222.062,47.871246
1425688222.077,54.26644
1425688222.093,59.013367
1425688222.109,62.268486
1425688222.124,64.779144
1425688222.14,67.73397
1425688222.156,72.44824
1425688222.171,79.843636
1425688222.187,89.88246
1425688222.202,101.147835
1425688222.218,110.804855
1425688222.234,115.221886
1425688222.249,110.98939
1425688222.265,96.07634
1425688222.281,70.64266
1425688222.296,37.207375
1425688222.312,-0.08894348
1425688222.327,-36.580795
1425688222.343,-68.30544
1425688222.359,-92.73124
1425688222.374,-109.006905
1425688222.39,-117.53033
1425688222.406,-119.41029
1425688222.421,-115.90391
1425688222.437,-108.1546
1425688222.452,-97.24618
1425688222.468,-84.29647
1425688222.484,-70.57744
1425688222.499,-57.491325
1425688222.515,-46.287445
1425688222.531,-37.81962
1425688222.546,-32.36154
1425688222.562,-29.653946
1425688222.577,-29.08117
1425688222.593,-29.940353
1425688222.609,-31.559158
1425688222.624,-33.339912
1425688222.64,-34.6585
1425688222.656,-34.943817
1425688222.671,-33.743103
1425688222.687,-30.902946
1425688222.702,-26.576767
1425688222.718,-21.176537
1425688222.734,-15.1456375
1425688222.749,-8.732063
1425688222.765,-1.9585037
1425688222.781,5.283264
1425688222.796,13.079529
1425688222.812,21.28836
1425688222.827,29.547737
1425688222.843,37.310318
1425688222.859,44.13095
1425688222.874,49.803757
1425688222.89,54.498337
1425688222.906,58.7603
1425688222.921,63.375664
1425688222.937,69.22389
1425688222.952,77.00293
1425688222.968,86.85432
1425688222.984,97.98259
1425688222.999,108.35317
1425688223.015,114.922615
1425688223.031,114.28679
1425688223.046,103.77082
1425688223.062,82.507805
1425688223.077,52.033745
1425688223.093,16.015526
1425688223.109,-20.734734
1425688223.124,-53.68959
1425688223.14,-79.66771
1425688223.156,-97.37693
1425688223.171,-107.10118
1425688223.187,-110.00227
1425688223.202,-107.46386
1425688223.218,-100.68991
1425688223.234,-90.743904
1425688223.249,-78.70558
1425688223.265,-65.75978
1425688223.281,-53.14554
1425688223.296,-41.932983
1425688223.312,-32.848625
1425688223.327,-26.190887
1425688223.343,-21.912018
1425688223.359,-19.816452
1425688223.374,-19.724777
1425688223.39,-21.433212
1425688223.406,-24.555954
1425688223.421,-28.376297
1425688223.437,-31.820702
1425688223.452,-33.651146
1425688223.468,-32.909386
1425688223.484,-29.21334
1425688223.499,-23.006973
1425688223.515,-15.350647
1425688223.531,-7.512642
1425688223.546,-0.4399948
1425688223.562,5.5674286
1425688223.578,10.874657
1425688223.593,16.219223
1425688223.609,22.307186
1425688223.624,29.378727
1425688223.64,37.14248
1425688223.656,44.906246
1425688223.671,51.88429
1425688223.687,57.517742
1425688223.702,61.72632
1425688223.718,64.91885
1425688223.734,67.99466
1425688223.749,72.096954
1425688223.765,78.34741
1425688223.781,87.352066
1425688223.796,98.610466
1425688223.812,110.15279
1425688223.828,118.612564
1425688223.843,120.02727
1425688223.859,111.14015
1425688223.874,90.684784
1425688223.89,60.114605
1425688223.906,23.290974
1425688223.921,-14.6428795
1425688223.937,-48.86718
1425688223.953,-76.0455
1425688223.968,-94.846344
1425688223.984,-105.57225
1425688223.999,-109.421875
1425688224.015,-107.748085
1425688224.031,-101.75139
1425688224.046,-92.49477
1425688224.062,-81.103775
1425688224.078,-68.83315
1425688224.093,-56.996323
1425688224.109,-46.60568
1425688224.124,-38.20564
1425688224.14,-31.775337
1425688224.156,-26.928833
1425688224.171,-23.23793
1425688224.187,-20.510422
1425688224.203,-18.871796
1425688224.218,-18.55215
1425688224.234,-19.55595
1425688224.249,-21.386944
1425688224.265,-23.07457
1425688224.281,-23.483723
1425688224.296,-21.782272
1425688224.312,-17.839424
1425688224.328,-12.189392
1425688224.343,-5.796116
1425688224.359,0.48870468
1425688224.374,6.263523
1425688224.39,11.71571
1425688224.406,17.37083
1425688224.421,23.74334
1425688224.437,30.978844
1425688224.453,38.76819
1425688224.468,46.480057
1425688224.484,53.459175
1425688224.499,59.292057
1425688224.515,63.99234
1425688224.531,67.98579
1425688224.546,72.03584
1425688224.562,77.07047
1425688224.578,83.967804
1425688224.593,93.131805
1425688224.609,104.07002
1425688224.624,114.99696
1425688224.64,122.94936
1425688224.656,124.38849
1425688224.671,116.336044
1425688224.687,97.49202
1425688224.703,68.9457
1425688224.718,33.98037
1425688224.734,-2.8137627
1425688224.749,-36.920433
1425688224.765,-65.00638
1425688224.781,-85.4509
1425688224.796,-98.19354
1425688224.812,-104.08277
1425688224.828,-104.300354
1425688224.843,-99.92604
1425688224.859,-91.93112
1425688224.874,-81.33475
1425688224.89,-69.31034
1425688224.906,-57.15399
1425688224.921,-46.059216
1425688224.937,-36.9399
1425688224.953,-30.203289
1425688224.968,-25.801727
1425688224.984,-23.364025
1425688224.999,-22.47308
1425688225.015,-22.75932
1425688225.031,-23.964851
1425688225.046,-25.740711
1425688225.062,-27.561302
1425688225.078,-28.671307
1425688225.093,-28.28267
1425688225.109,-25.879814
1425688225.124,-21.486752
1425688225.14,-15.630489
1425688225.156,-9.112774
1425688225.171,-2.6189766
1425688225.187,3.5621605
1425688225.203,9.639259
1425688225.218,16.04742
1425688225.234,23.187996
1425688225.249,31.044125
1425688225.265,39.182526
1425688225.281,46.84372
1425688225.296,53.242104
1425688225.312,57.93309
1425688225.328,61.026535
1425688225.343,63.25312
1425688225.359,65.83903
1425688225.374,70.133354
1425688225.39,77.08452
1425688225.406,86.612564
1425688225.421,97.23809
1425688225.437,106.12825
1425688225.453,109.731155
1425688225.468,104.8535
1425688225.484,89.77636
1425688225.499,64.97821
1425688225.515,33.1194
1425688225.531,-1.7542496
1425688225.546,-35.34877
1425688225.562,-64.21602
1425688225.578,-86.33889
1425688225.593,-101.1446
1425688225.609,-109.03411
1425688225.624,-110.877655
1425688225.64,-107.64048
1425688225.656,-100.28804
1425688225.671,-89.82784
1425688225.687,-77.4624
1425688225.703,-64.53863
1425688225.718,-52.418793
1425688225.734,-42.23719
1425688225.749,-34.69577
1425688225.765,-29.950813
1425688225.781,-27.672653
1425688225.796,-27.197906
1425688225.812,-27.757332
1425688225.828,-28.663803
1425688225.843,-29.39666
1425688225.859,-29.607208
1425688225.874,-29.088417
1425688225.89,-27.727097
1425688225.906,-25.440536
1425688225.921,-22.177711
1425688225.937,-17.899422
1425688225.953,-12.572777
1425688225.968,-6.2105255
1425688225.984,1.0837936
1425688225.999,9.052605
1425688226.015,17.28804
1425688226.031,25.302788
1425688226.046,32.643036
1425688226.062,39.009445
1425688226.078,44.373177
1425688226.093,48.97666
1425688226.109,53.270645
1425688226.124,57.877075
1425688226.14,63.496735
1425688226.156,70.70168
1425688226.171,79.653015
1425688226.187,89.59722
1425688226.203,98.65103
1425688226.218,103.85613
1425688226.234,101.98555
1425688226.249,90.62606
1425688226.265,69.28316
1425688226.281,39.817787
1425688226.296,6.0045776
1425688226.312,-27.612358
1425688226.328,-57.046524
1425688226.343,-79.89413
1425688226.359,-95.400566
1425688226.374,-104.074875
1425688226.39,-106.89612
1425688226.406,-104.76831
1425688226.421,-98.375275
1425688226.437,-88.39565
1425688226.453,-75.82612
1425688226.468,-62.02957
1425688226.484,-48.58481
1425688226.5,-36.937874
1425688226.515,-28.028389
1425688226.531,-22.169434
1425688226.546,-19.100258
1425688226.562,-18.229027
1425688226.578,-18.845459
1425688226.593,-20.339302
1425688226.609,-22.106918
1425688226.625,-23.653046
1425688226.64,-24.478348
1425688226.656,-24.161003
1425688226.671,-22.454292
1425688226.687,-19.339096
1425688226.703,-14.993271
1425688226.718,-9.632774
1425688226.734,-3.3747406
1425688226.75,3.7769165
1425688226.765,11.830856
1425688226.781,20.611778
1425688226.796,29.690544
1425688226.812,38.384415
1425688226.828,46.042046
1425688226.843,52.23049
1425688226.859,56.962997
1425688226.875,60.630394
1425688226.89,63.976776
1425688226.906,67.88203
1425688226.921,73.238495
1425688226.937,80.668915
1425688226.953,90.15966
1425688226.968,100.59845
1425688226.984,109.632614
1425688227,113.95276
1425688227.015,110.2115
1425688227.031,96.22588
1425688227.046,71.95743
1425688227.062,39.76541
1425688227.078,3.7712784
1425688227.093,-31.414742
1425688227.109,-61.88056
1425688227.125,-85.33067
1425688227.14,-101.095795
1425688227.156,-109.70173
1425688227.171,-112.21024
1425688227.187,-109.758896
1425688227.203,-103.36356
1425688227.218,-94.019455
1425688227.234,-82.795044
1425688227.25,-70.848816
1425688227.265,-59.314827
1425688227.281,-49.099083
1425688227.296,-40.700974
1425688227.312,-34.215134
1425688227.328,-29.464104
1425688227.343,-26.1997
1425688227.359,-24.267593
1425688227.375,-23.608559
1425688227.39,-24.046425
1425688227.406,-25.121231
1425688227.421,-25.982178
1425688227.437,-25.62365
1425688227.453,-23.24712
1425688227.468,-18.67912
1425688227.484,-12.462162
1425688227.5,-5.6473465
1425688227.515,0.7540207
1425688227.531,6.209038
1425688227.546,10.957809
1425688227.562,15.748589
1425688227.578,21.432713
1425688227.593,28.39122
1425688227.609,36.34033
1425688227.625,44.40278
1425688227.64,51.561306
1425688227.656,57.086044
1425688227.671,60.947227
1425688227.687,63.773144
1425688227.703,66.70204
1425688227.718,71.04805
1425688227.734,77.872574
1425688227.75,87.56723
1425688227.765,99.43088
1425688227.781,111.41294
1425688227.796,120.24269
1425688227.812,122.10241
1425688227.828,113.77443
1425688227.843,93.83759
1425688227.859,63.45214
1425688227.875,26.223316
1425688227.89,-12.7602005
1425688227.906,-48.498276
1425688227.921,-77.32555
1425688227.937,-97.63081
1425688227.953,-109.63551
1425688227.968,-114.63749
1425688227.984,-114.16704
1425688228,-109.45879
1425688228.015,-101.4146
1425688228.031,-90.889336
1425688228.046,-78.89683
1425688228.062,-66.69893
1425688228.078,-55.52337
1425688228.093,-46.293602
1425688228.109,-39.29809
1425688228.125,-34.26129
1425688228.14,-30.587868
1425688228.156,-27.722202
1425688228.171,-25.426453
1425688228.187,-23.838829
1425688228.203,-23.258907
1425688228.218,-23.760708
1425688228.234,-24.890663
1425688228.25,-25.71164
1425688228.265,-25.066298
1425688228.281,-22.122246
1425688228.296,-16.687529
1425688228.312,-9.424747
1425688228.328,-1.501524
1425688228.343,5.84869
1425688228.359,11.8545685
1425688228.375,16.453257
1425688228.39,20.31561
1425688228.406,24.443975
1425688228.421,29.731672
1425688228.437,36.53094
1425688228.453,44.491226
1425688228.468,52.709095
1425688228.484,60.07643
1425688228.5,65.73552
1425688228.515,69.40083
1425688228.531,71.4588
1425688228.546,72.83452
1425688228.562,74.712074
1425688228.578,78.292725
1425688228.593,84.430466
1425688228.609,93.396126
1425688228.625,104.42143
1425688228.64,115.486725
1425688228.656,123.36638
1425688228.671,124.323685
1425688228.687,115.24068
1425688228.703,94.890305
1425688228.718,64.59126
1425688228.734,28.027342
1425688228.75,-9.875612
1425688228.765,-44.41686
1425688228.781,-72.35709
1425688228.796,-92.34284
1425688228.812,-104.62254
1425688228.828,-110.26445
1425688228.843,-110.49844
1425688228.859,-106.342125
1425688228.875,-98.68956
1425688228.89,-88.52533
1425688228.906,-77.06394
1425688228.921,-65.640366
1425688228.937,-55.47789
1425688228.953,-47.367218
1425688228.968,-41.510063
1425688228.984,-37.53295
1425688229,-34.790436
1425688229.015,-32.703033
1425688229.031,-31.031536
1425688229.046,-29.909142
1425688229.062,-29.641996
1425688229.078,-30.302544
1425688229.093,-31.515337
1425688229.109,-32.413742
1425688229.125,-31.974415
1425688229.14,-29.39792
1425688229.156,-24.501343
1425688229.172,-17.740221
1425688229.187,-10.077585
1425688229.203,-2.53969
1425688229.218,4.1210175
1425688229.234,9.724096
1425688229.25,14.62821
1425688229.265,19.550928
1425688229.281,25.207869
1425688229.297,31.9646
1425688229.312,39.597893
1425688229.328,47.376587
1425688229.343,54.291847
1425688229.359,59.502487
1425688229.375,62.687176
1425688229.39,64.21985
1425688229.406,65.0138
1425688229.422,66.36481
1425688229.437,69.504295
1425688229.453,75.34877
1425688229.468,84.070274
1425688229.484,94.77602
1425688229.5,105.31564
1425688229.515,112.46601
1425688229.531,112.71196
1425688229.547,103.32768
1425688229.562,83.44689
1425688229.578,54.548668
1425688229.593,20.138163
1425688229.609,-15.310669
1425688229.625,-47.678394
1425688229.64,-74.15263
1425688229.656,-93.53092
1425688229.672,-105.90755
1425688229.687,-112.03537
1425688229.703,-112.73752
1425688229.718,-108.73452
1425688229.734,-100.67978
1425688229.75,-89.50807
1425688229.765,-76.55086
1425688229.781,-63.49227
1425688229.797,-52.027264
1425688229.812,-43.362785
1425688229.828,-37.910725
1425688229.843,-35.194237
1425688229.859,-34.198402
1425688229.875,-33.923794
1425688229.89,-33.787308
1425688229.906,-33.798843
1425688229.922,-34.202328
1425688229.937,-35.11139
1425688229.953,-36.124466
1425688229.968,-36.403908
1425688229.984,-34.976353
1425688230,-31.216038
1425688230.015,-25.160936
1425688230.031,-17.528032
1425688230.047,-9.4148445
1425688230.062,-1.904665
1425688230.078,4.3428345
1425688230.093,9.311478
1425688230.109,13.586372
1425688230.125,18.056438
1425688230.14,23.501871
1425688230.156,30.210018
1425688230.172,37.80122
1425688230.187,45.322884
1425688230.203,51.68087
1425688230.218,56.058266
1425688230.234,58.379673
1425688230.25,59.27284
1425688230.265,59.94731
1425688230.281,61.796944
1425688230.297,65.988106
1425688230.312,73.09837
1425688230.328,82.6955
1425688230.343,93.101265
1425688230.359,101.47249
1425688230.375,104.30484
1425688230.39,98.4565
1425688230.406,82.232
1425688230.422,56.226162
1425688230.437,23.345062
1425688230.453,-12.009212
1425688230.468,-45.242126
1425688230.484,-72.777504
1425688230.5,-92.78688
1425688230.515,-105.1002
1425688230.531,-110.65065
1425688230.547,-110.69892
1425688230.562,-106.373055
1425688230.578,-98.58506
1425688230.593,-88.12539
1425688230.609,-75.92717
1425688230.625,-63.1487
1425688230.64,-51.067245
1425688230.656,-40.815086
1425688230.672,-33.08865
1425688230.687,-28.00348
1425688230.703,-25.127342
1425688230.718,-23.775763
1425688230.734,-23.29897
1425688230.75,-23.344955
1425688230.765,-23.834381
1425688230.781,-24.829023
1425688230.797,-26.235113
1425688230.812,-27.668018
1425688230.828,-28.419193
1425688230.843,-27.668768
1425688230.859,-24.796513
1425688230.875,-19.629946
1425688230.89,-12.592983
1425688230.906,-4.6332855
1425688230.922,3.1044216
1425688230.937,9.685135
1425688230.953,14.751913
1425688230.968,18.636097
1425688230.984,22.235136
1425688231,26.579895
1425688231.015,32.356487
1425688231.031,39.5825
1425688231.047,47.62852
1425688231.062,55.43981
1425688231.078,62.020096
1425688231.093,66.79257
1425688231.109,69.8201
1425688231.125,71.74509
1425688231.14,73.589584
1425688231.156,76.52059
1425688231.172,81.562195
1425688231.187,89.261765
1425688231.203,99.31728
1425688231.218,110.17238
1425688231.234,119.05555
1425688231.25,122.4387
1425688231.265,117.03723
1425688231.281,101.01276
1425688231.297,74.80229
1425688231.312,41.20699
1425688231.328,4.604244
1425688231.343,-30.378613
1425688231.359,-60.127617
1425688231.375,-82.73573
1425688231.39,-97.93593
1425688231.406,-106.49927
1425688231.422,-109.461945
1425688231.437,-107.71733
1425688231.453,-101.99382
1425688231.468,-93.103935
1425688231.484,-82.17781
1425688231.5,-70.62183
1425688231.515,-59.86493
1425688231.531,-50.979183
1425688231.547,-44.416702
1425688231.562,-40.04727
1425688231.578,-37.384052
1425688231.593,-35.903336
1425688231.609,-35.217045
1425688231.625,-35.156918
1425688231.64,-35.59996
1425688231.656,-36.394157
1425688231.672,-37.21958
1425688231.687,-37.707546
1425688231.703,-37.441154
1425688231.718,-36.077393
1425688231.734,-33.389027
1425688231.75,-29.297531
1425688231.765,-23.895615
1425688231.781,-17.406841
1425688231.797,-10.191994
1425688231.812,-2.7165565
1425688231.828,4.511463
1425688231.844,11.019951
1425688231.859,16.544937
1425688231.875,21.128502
1425688231.89,25.207909
1425688231.906,29.43357
1425688231.922,34.465675
1425688231.937,40.59652
1425688231.953,47.627357
1425688231.969,54.851563
1425688231.984,61.42302
1425688232,66.66451
1425688232.015,70.423004
1425688232.031,73.0824
1425688232.047,75.48336
1425688232.062,78.671165
1425688232.078,83.6553
1425688232.094,91.18313
1425688232.109,101.332504
1425688232.125,113.127304
1425688232.14,124.29151
1425688232.156,131.47696
1425688232.172,131.07642
1425688232.187,120.366234
1425688232.203,98.65065
1425688232.219,67.683014
1425688232.234,31.308205
1425688232.25,-5.741188
1425688232.265,-39.193222
1425688232.281,-66.26797
1425688232.297,-85.90956
1425688232.312,-98.47878
1425688232.328,-104.965614
1425688232.344,-106.441605
1425688232.359,-103.75779
1425688232.375,-97.67775
1425688232.39,-89.069984
1425688232.406,-78.99438
1425688232.422,-68.602165
1425688232.437,-58.9386
1425688232.453,-50.689537
1425688232.469,-44.102913
1425688232.484,-39.069687
1425688232.5,-35.364037
1425688232.515,-32.81785
1425688232.531,-31.43145
1425688232.547,-31.256721
1425688232.562,-32.24227
1425688232.578,-34.04343
1425688232.594,-36.02443
1425688232.609,-37.38466
1425688232.625,-37.445984
1425688232.64,-35.874725
1425688232.656,-32.768745
1425688232.672,-28.55523
1425688232.687,-23.725052
1425688232.703,-18.621872
1425688232.719,-13.288795
1425688232.734,-7.51873
1425688232.75,-1.1178131
1425688232.765,5.9131775
1425688232.781,13.232834
1425688232.797,20.36119
1425688232.812,26.873795
1425688232.828,32.70819
1425688232.844,38.205193
1425688232.859,43.85955
1425688232.875,50.03016
1425688232.89,56.64984
1425688232.906,63.21714
1425688232.922,69.07293
1425688232.937,73.7279
1425688232.953,77.11166
1425688232.969,79.6241
1425688232.984,81.97694
1425688233,85.04414
1425688233.015,89.711296
1425688233.031,96.60833
1425688233.047,105.76461
1425688233.062,116.12103
1425688233.078,125.27704
1425688233.094,129.7234
1425688233.109,125.81273
1425688233.125,111.05679
1425688233.14,85.21055
1425688233.156,50.622135
1425688233.172,11.628605
1425688233.187,-26.812424
1425688233.203,-60.492077
1425688233.219,-86.88217
1425688233.234,-105.21127
1425688233.25,-116.01007
1425688233.265,-120.37099
1425688233.281,-119.47948
1425688233.297,-114.352104
1425688233.312,-105.932076
1425688233.328,-95.21825
1425688233.344,-83.313896
1425688233.359,-71.32263
1425688233.375,-60.286804
1425688233.39,-50.969727
1425688233.406,-43.77854
1425688233.422,-38.742874
1425688233.437,-35.64405
1425688233.453,-34.09259
1425688233.469,-33.65249
1425688233.484,-33.894608
1425688233.5,-34.45512
1425688233.515,-34.959568
1425688233.531,-35.090313
1425688233.547,-34.551315
1425688233.562,-33.095966
1425688233.578,-30.51442
1425688233.594,-26.702543
1425688233.609,-21.698824
1425688233.625,-15.751983
1425688233.64,-9.239323
1425688233.656,-2.6419277
1425688233.672,3.656664
1425688233.687,9.455254
1425688233.703,14.779837
1425688233.719,19.809444
1425688233.734,24.829796
1425688233.75,30.04574
1425688233.765,35.566284
1425688233.781,41.323986
1425688233.797,47.043854
1425688233.812,52.289276
1425688233.828,56.614
1425688233.844,59.70246
1425688233.859,61.59516
1425688233.875,62.75505
1425688233.89,63.951534
1425688233.906,66.07228
1425688233.922,69.96473
1425688233.937,76.1424
1425688233.953,84.56398
1425688233.969,94.32238
1425688233.984,103.47513
1425688234,109.15773
1425688234.015,108.21591
1425688234.031,98.20238
1425688234.047,78.35053
1425688234.062,50.078487
1425688234.078,16.722656
1425688234.094,-17.51388
1425688234.109,-48.779755
1425688234.125,-74.506065
1425688234.14,-93.677444
1425688234.156,-106.40822
1425688234.172,-113.29954
1425688234.187,-114.941
1425688234.203,-111.7854
1425688234.219,-104.41878
1425688234.234,-93.72635
1425688234.25,-81.06653
1425688234.265,-68.09029
1425688234.281,-56.327763
1425688234.297,-46.86287
1425688234.312,-40.08517
1425688234.328,-35.768417
1425688234.344,-33.31826
1425688234.359,-32.17093
1425688234.375,-32.0142
1425688234.39,-32.819115
1425688234.406,-34.629715
1425688234.422,-37.22497
1425688234.437,-39.96928
1425688234.453,-41.815582
1425688234.469,-41.68432
1425688234.484,-38.858646
1425688234.5,-33.325832
1425688234.516,-25.766068
1425688234.531,-17.335766
1425688234.547,-9.15007
1425688234.562,-1.9361649
1425688234.578,4.2562523
1425688234.594,9.932556
1425688234.609,15.879444
1425688234.625,22.715996
1425688234.64,30.559132
1425688234.656,38.95725
1425688234.672,47.060276
1425688234.687,54.003643
1425688234.703,59.33183
1425688234.719,63.161404
1425688234.734,66.198105
1425688234.75,69.524734
1425688234.766,74.28708
1425688234.781,81.38061
1425688234.797,91.08887
1425688234.812,102.69556
1425688234.828,114.24931
1425688234.844,122.699814
1425688234.859,124.54463
1425688234.875,116.90165
1425688234.891,98.599915
1425688234.906,70.777435
1425688234.922,36.64881
1425688234.937,0.48223114
1425688234.953,-33.600586
1425688234.969,-62.679443
1425688234.984,-85.2448
1425688235,-100.98204
1425688235.016,-110.181946
1425688235.031,-113.380615
1425688235.047,-111.197754
1425688235.062,-104.527435
1425688235.078,-94.59085
1425688235.094,-82.90967
1425688235.109,-71.051476
1425688235.125,-60.27919
1425688235.141,-51.35852
1425688235.156,-44.465603
1425688235.172,-39.323902
1425688235.187,-35.4674
1425688235.203,-32.50372
1425688235.219,-30.327671
1425688235.234,-29.042267
1425688235.25,-28.79887
1425688235.266,-29.47696
1425688235.281,-30.520336
1425688235.297,-30.993095
1425688235.312,-29.938995
1425688235.328,-26.76194
1425688235.344,-21.558052
1425688235.359,-15.001751
1425688235.375,-8.0993805
1425688235.391,-1.6754303
1425688235.406,4.0367546
1425688235.422,9.465717
1425688235.437,15.483276
1425688235.453,22.930305
1425688235.469,32.117867
1425688235.484,42.59175
1425688235.5,53.244377
1425688235.516,62.763878
1425688235.531,70.09864
1425688235.547,75.00477
1425688235.562,78.05265
1425688235.578,80.47205
1425688235.594,83.733925
1425688235.609,89.1477
1425688235.625,97.33595
1425688235.641,107.92528
1425688235.656,119.20609
1425688235.672,128.23734
1425688235.687,131.35822
1425688235.703,125.260414
1425688235.719,108.121254
1425688235.734,80.47664
1425688235.75,45.26452
1425688235.766,6.9639435
1425688235.781,-29.741852
1425688235.797,-61.259407
1425688235.812,-85.71672
1425688235.828,-102.881584
1425688235.844,-113.507484
1425688235.859,-118.59753
1425688235.875,-119.0112
1425688235.891,-115.41775
1425688235.906,-108.486664
1425688235.922,-99.0617
1425688235.937,-88.15246
1425688235.953,-76.7972
1425688235.969,-65.87996
1425688235.984,-55.972816
1425688236,-47.42563
1425688236.016,-40.424637
1425688236.031,-35.15943
1425688236.047,-31.842575
1425688236.062,-30.567513
1425688236.078,-31.137566
1425688236.094,-32.890327
1425688236.109,-34.745583
1425688236.125,-35.49801
1425688236.141,-34.111153
1425688236.156,-30.201324
1425688236.172,-24.06723
1425688236.187,-16.602646
1425688236.203,-8.854477
1425688236.219,-1.5887299
1425688236.234,4.977806
1425688236.25,11.189484
1425688236.266,17.670921
1425688236.281,24.930786
1425688236.297,33.06275
1425688236.312,41.614525
1425688236.328,49.814583
1425688236.344,56.856575
1425688236.359,62.348
1425688236.375,66.451
1425688236.391,69.96485
1425688236.406,74.09395
1425688236.422,80.10665
1425688236.437,88.86153
1425688236.453,100.275024
1425688236.469,112.92781
1425688236.484,124.10424
1425688236.5,130.20457
1425688236.516,127.77712
1425688236.531,114.615074
1425688236.547,90.64722
1425688236.562,58.125572
1425688236.578,21.04956
1425688236.594,-15.986778
1425688236.609,-48.96827
1425688236.625,-75.3376
1425688236.641,-94.1281
1425688236.656,-105.663826
1425688236.672,-110.886154
1425688236.687,-110.88621
1425688236.703,-106.6495
1425688236.719,-99.120834
1425688236.734,-89.31669
1425688236.75,-78.40231
1425688236.766,-67.6195
1425688236.781,-58.042557
1425688236.797,-50.35852
1425688236.812,-44.75585
1425688236.828,-40.97068
1425688236.844,-38.540703
1425688236.859,-37.03338
1425688236.875,-36.23317
1425688236.891,-36.1344
1425688236.906,-36.737045
1425688236.922,-37.77571
1425688236.937,-38.589157
1425688236.953,-38.217644
1425688236.969,-35.757988
1425688236.984,-30.741684
1425688237,-23.434723
1425688237.016,-14.751541
1425688237.031,-5.889694
1425688237.047,2.2017822
1425688237.062,9.205719
1425688237.078,15.49971
1425688237.094,21.846817
1425688237.109,28.949173
1425688237.125,36.992126
1425688237.141,45.52527
1425688237.156,53.678833
1425688237.172,60.50711
1425688237.187,65.48276
1425688237.203,68.71098
1425688237.219,70.907776
1425688237.234,73.28613
1425688237.25,77.18819
1425688237.266,83.75345
1425688237.281,93.39252
1425688237.297,105.40317
1425688237.312,117.695786
1425688237.328,126.98056
1425688237.344,129.50493
1425688237.359,122.211624
1425688237.375,103.83272
1425688237.391,75.5094
1425688237.406,40.551544
1425688237.422,3.481308
1425688237.438,-31.350266
