1430949611.433,0.0
1430949611.448,0.0
1430949611.464,0.0
1430949611.479,0.0
1430949611.495,0.0
1430949611.511,0.0
1430949611.526,0.0
1430949611.542,0.0
1430949611.558,0.0
1430949611.573,0.0022315353
1430949611.589,-0.0045169927
1430949611.604,-0.011265522
1430949611.62,-0.011383951
1430949611.636,0.0011864507
1430949611.651,0.025910312
1430949611.667,0.050634187
1430949611.683,0.051362894
1430949611.698,-0.0014929791
1430949611.714,-0.1302426
1430949611.729,-0.35562757
1430949611.745,-0.6591247
1430949611.761,-1.0095103
1430949611.776,-1.3709826
1430949611.792,-1.7197359
1430949611.808,-2.0551105
1430949611.823,-2.39945
1430949611.839,-2.7866635
1430949611.854,-3.2399073
1430949611.87,-3.796012
1430949611.886,-4.418684
1430949611.901,-5.0592937
1430949611.917,-5.6644096
1430949611.933,-6.2021537
1430949611.948,-6.6808796
1430949611.964,-7.149598
1430949611.979,-7.6782336
1430949611.995,-8.310739
1430949612.011,-9.143657
1430949612.026,-10.089731
1430949612.042,-11.041313
1430949612.058,-11.8842125
1430949612.073,-12.564316
1430949612.089,-13.13563
1430949612.104,-13.760044
1430949612.12,-14.65232
1430949612.136,-15.962056
1430949612.151,-17.914442
1430949612.167,-20.317299
1430949612.183,-22.903854
1430949612.198,-25.37947
1430949612.214,-27.578028
1430949612.229,-29.57246
1430949612.245,-31.675173
1430949612.261,-34.3178
1430949612.276,-37.813618
1430949612.292,-42.541233
1430949612.308,-48.1463
1430949612.323,-54.104755
1430949612.339,-59.83309
1430949612.354,-64.972374
1430949612.37,-69.58293
1430949612.386,-74.14353
1430949612.401,-79.344986
1430949612.417,-85.70726
1430949612.433,-93.76193
1430949612.448,-102.99779
1430949612.464,-112.61757
1430949612.479,-121.73034
1430949612.495,-129.76602
1430949612.511,-136.75102
1430949612.526,-143.30344
1430949612.542,-150.74623
1430949612.558,-157.77356
1430949612.573,-166.64323
1430949612.589,-177.94798
1430949612.604,-191.79102
1430949612.62,-206.96808
1430949612.636,-220.56592
1430949612.651,-228.24644
1430949612.667,-225.36154
1430949612.683,-208.53198
1430949612.698,-176.87024
1430949612.714,-132.76222
1430949612.729,-80.04997
1430949612.745,-23.069275
1430949612.761,34.94339
1430949612.776,92.43695
1430949612.792,149.15695
1430949612.808,205.22772
1430949612.823,260.36963
1430949612.839,313.74133
1430949612.854,363.87396
1430949612.87,409.83353
1430949612.886,450.90775
1430949612.901,486.50244
1430949612.917,515.73865
1430949612.933,537.2274
1430949612.948,549.22
1430949612.964,549.9613
1430949612.979,538.367
1430949612.995,514.2055
1430949613.011,478.674
1430949613.026,433.87952
1430949613.042,382.45126
1430949613.058,327.02106
1430949613.073,269.84186
1430949613.089,212.63379
1430949613.104,156.6594
1430949613.12,102.95233
1430949613.136,52.373596
1430949613.151,5.9046936
1430949613.167,-35.580414
1430949613.183,-71.42584
1430949613.198,-101.35184
1430949613.214,-125.50113
1430949613.229,-144.3797
1430949613.245,-158.69403
1430949613.261,-169.15071
1430949613.276,-176.3711
1430949613.292,-180.75139
1430949613.308,-182.57419
1430949613.323,-182.06863
1430949613.339,-179.5066
1430949613.354,-175.23325
1430949613.37,-169.65286
1430949613.386,-163.17691
1430949613.401,-156.14568
1430949613.417,-148.80681
1430949613.433,-141.29686
1430949613.448,-133.68983
1430949613.464,-126.01962
1430949613.479,-118.33268
1430949613.495,-110.68864
1430949613.511,-103.15572
1430949613.526,-95.80455
1430949613.542,-88.684166
1430949613.558,-81.82744
1430949613.573,-75.24594
1430949613.589,-68.9526
1430949613.604,-62.949085
1430949613.62,-57.247494
1430949613.636,-51.857185
1430949613.651,-46.78282
1430949613.667,-42.02776
1430949613.683,-37.58521
1430949613.698,-33.451748
1430949613.714,-29.613855
1430949613.73,-26.070963
1430949613.745,-22.808779
1430949613.761,-19.824995
1430949613.776,-17.113392
1430949613.792,-14.666497
1430949613.808,-12.47932
1430949613.823,-10.538469
1430949613.839,-8.833674
1430949613.855,-7.3478527
1430949613.87,-6.067689
1430949613.886,-4.9734235
1430949613.901,-4.046258
1430949613.917,-3.2673752
1430949613.933,-2.6211367
1430949613.948,-2.088365
1430949613.964,-1.6507506
1430949613.98,-1.2976913
1430949613.995,-1.0147024
1430949614.011,-0.79105926
1430949614.026,-0.6133206
1430949614.042,-0.47516227
1430949614.058,-0.3684653
1430949614.073,-0.28461677
1430949614.089,-0.22397345
1430949614.105,-0.17647654
1430949614.12,-0.14055526
1430949614.136,-0.11251485
1430949614.151,-0.0926249
1430949614.167,-0.07977182
1430949614.183,-0.06783539
1430949614.198,-0.05929327
1430949614.214,-0.052183747
1430949614.23,-0.046860814
1430949614.245,-0.044131815
1430949614.261,-0.040358156
1430949614.276,-0.039164305
1430949614.292,-0.034330726
1430949614.308,-0.03515649
1430949614.323,-0.03181714
1430949614.339,-0.030750751
1430949614.355,-0.02810505
1430949614.37,-0.029290557
1430949614.386,-0.027453512
1430949614.401,-0.026081413
1430949614.417,-0.023851603
1430949614.433,-0.022989094
1430949614.448,-0.022172749
1430949614.464,-0.022157341
1430949614.48,-0.020828396
1430949614.495,-0.020277172
1430949614.511,-0.01940465
1430949614.526,-0.018795371
1430949614.542,-0.019169807
1430949614.558,-0.017195046
1430949614.573,-0.016264498
1430949614.589,-0.01676847
1430949614.605,-0.016039208
1430949614.62,-0.016356274
1430949614.636,-0.012255222
1430949614.651,-0.0145276785
1430949614.667,-0.013954014
1430949614.683,-0.015068233
1430949614.698,-0.011017576
1430949614.714,-0.0133215785
1430949614.73,-0.012509152
1430949614.745,-0.012784362
1430949614.761,-0.012688324
1430949614.776,-0.012238771
1430949614.792,-0.009582385
1430949614.808,-0.005185157
1430949614.823,-0.0063205212
1430949614.839,-0.011104673
1430949614.855,-0.019091636
1430949614.87,-0.033977687
1430949614.886,-0.034622
1430949614.901,-0.022395566
1430949614.917,0.013784185
1430949614.933,0.06778168
1430949614.948,0.13445653
1430949614.964,0.18903443
1430949614.98,0.23523498
1430949614.995,0.25282
1430949615.011,0.25280946
1430949615.026,0.25242049
1430949615.042,0.2666245
1430949615.058,0.30601478
1430949615.073,0.36476225
1430949615.089,0.44381052
1430949615.105,0.50347054
1430949615.12,0.54604006
1430949615.136,0.55205774
1430949615.151,0.5459124
1430949615.167,0.5587595
1430949615.183,0.6123362
1430949615.198,0.72299373
1430949615.214,0.89283586
1430949615.23,1.0756415
1430949615.245,1.2270542
1430949615.261,1.304472
1430949615.276,1.300458
1430949615.292,1.2434282
1430949615.308,1.2176232
1430949615.323,1.3055286
1430949615.339,1.5501231
1430949615.355,1.9367824
1430949615.37,2.3843546
1430949615.386,2.7643526
1430949615.401,2.97598
1430949615.417,2.9911952
1430949615.433,2.8906603
1430949615.448,2.8502831
1430949615.464,3.037909
1430949615.48,3.5520868
1430949615.495,4.368781
1430949615.511,5.298509
1430949615.526,6.1077356
1430949615.542,6.6062326
1430949615.558,6.743125
1430949615.573,6.664527
1430949615.589,6.658958
1430949615.605,7.0272145
1430949615.62,7.910784
1430949615.636,9.247936
1430949615.651,10.749208
1430949615.667,12.036122
1430949615.683,12.867392
1430949615.698,13.180874
1430949615.714,13.173094
1430949615.73,13.187682
1430949615.745,13.500624
1430949615.761,14.288021
1430949615.776,15.630705
1430949615.792,17.542948
1430949615.808,19.97015
1430949615.823,22.580694
1430949615.839,24.597841
1430949615.855,24.921103
1430949615.87,22.505302
1430949615.886,16.894846
1430949615.901,8.659845
1430949615.917,-0.75704765
1430949615.933,-9.536295
1430949615.948,-16.315502
1430949615.964,-20.64775
1430949615.98,-22.969551
1430949615.995,-24.132626
1430949616.011,-24.826452
1430949616.026,-25.23777
1430949616.042,-25.18458
1430949616.058,-24.595203
1430949616.073,-23.780901
1430949616.089,-23.47018
1430949616.105,-24.424744
1430949616.12,-27.016928
1430949616.136,-30.991428
1430949616.151,-35.579556
1430949616.167,-39.803207
1430949616.183,-42.7783
1430949616.198,-44.110077
1430949616.214,-43.77913
1430949616.23,-42.161514
1430949616.245,-39.811573
1430949616.261,-37.1809
1430949616.276,-34.440903
1430949616.292,-31.476027
1430949616.308,-27.939396
1430949616.323,-23.46836
1430949616.339,-18.058605
1430949616.355,-11.892139
1430949616.37,-5.5106564
1430949616.386,0.418581
1430949616.402,5.42029
1430949616.417,9.351194
1430949616.433,12.45491
1430949616.448,15.065596
1430949616.464,17.45052
1430949616.48,19.59295
1430949616.495,21.236763
1430949616.511,22.006786
1430949616.527,21.683146
1430949616.542,20.38151
1430949616.558,18.506905
1430949616.573,16.555351
1430949616.589,14.922119
1430949616.605,13.793954
1430949616.62,13.123427
1430949616.636,12.726125
1430949616.652,12.422502
1430949616.667,12.051861
1430949616.683,11.627915
1430949616.698,11.161798
1430949616.714,10.72932
1430949616.73,10.383179
1430949616.745,10.19586
1430949616.761,10.249411
1430949616.777,10.611449
1430949616.792,11.28315
1430949616.808,12.1846485
1430949616.823,13.031048
1430949616.839,13.436287
1430949616.855,12.935983
1430949616.87,11.169033
1430949616.886,8.063833
1430949616.902,3.8822637
1430949616.917,-0.80643016
1430949616.933,-5.2667923
1430949616.948,-8.879538
1430949616.964,-11.341527
1430949616.98,-12.697894
1430949616.995,-13.211151
1430949617.011,-13.232886
1430949617.027,-13.014069
1430949617.042,-12.651541
1430949617.058,-12.131718
1430949617.073,-11.398279
1430949617.089,-10.423168
1430949617.105,-9.282334
1430949617.12,-8.086261
1430949617.136,-6.9803686
1430949617.152,-6.098311
1430949617.167,-5.551712
1430949617.183,-5.4176903
1430949617.198,-5.738061
1430949617.214,-6.459116
1430949617.23,-7.4796066
1430949617.245,-8.669276
1430949617.261,-9.852595
1430949617.277,-10.903608
1430949617.292,-11.747252
1430949617.308,-12.378717
1430949617.323,-12.807118
1430949617.339,-13.131189
1430949617.355,-13.336582
1430949617.37,-13.218908
1430949617.386,-12.577679
1430949617.402,-11.290791
1430949617.417,-9.432598
1430949617.433,-7.194519
1430949617.448,-4.841984
1430949617.464,-2.5611897
1430949617.48,-0.5067959
1430949617.495,1.2920055
1430949617.511,2.966259
1430949617.527,4.745432
1430949617.542,6.877968
1430949617.558,9.629915
1430949617.573,13.275896
1430949617.589,17.911875
1430949617.605,23.32478
1430949617.62,28.798767
1430949617.636,33.23754
1430949617.652,35.635666
1430949617.667,35.29067
1430949617.683,31.923882
1430949617.698,25.83694
1430949617.714,17.942959
1430949617.73,9.321503
1430949617.745,1.0289383
1430949617.761,-6.2895355
1430949617.777,-12.412205
1430949617.792,-16.855469
1430949617.808,-19.3392
1430949617.823,-20.203926
1430949617.839,-20.129223
1430949617.855,-19.643425
1430949617.87,-19.252342
1430949617.886,-19.009903
1430949617.902,-19.001942
1430949617.917,-19.353188
1430949617.933,-19.032581
1430949617.948,-17.195011
1430949617.964,-14.213161
1430949617.98,-11.228123
1430949617.995,-9.132286
1430949618.011,-8.734276
1430949618.027,-9.79253
1430949618.042,-12.027454
1430949618.058,-15.159714
1430949618.073,-17.088608
1430949618.089,-16.13343
1430949618.105,-12.816498
1430949618.12,-9.148956
1430949618.136,-6.938431
1430949618.152,-7.6463547
1430949618.167,-10.670677
1430949618.183,-14.744675
1430949618.198,-18.119194
1430949618.214,-16.542488
1430949618.23,-6.5294113
1430949618.245,11.938026
1430949618.261,36.269707
1430949618.277,63.760536
1430949618.292,91.71896
1430949618.308,119.673164
1430949618.323,147.24582
1430949618.339,158.85724
1430949618.355,145.58182
1430949618.37,113.73929
1430949618.386,76.87423
1430949618.402,43.634872
1430949618.417,21.785912
1430949618.433,6.474701
1430949618.448,-4.638359
1430949618.464,-12.599312
1430949618.48,-17.94445
1430949618.495,-20.971603
1430949618.511,-20.799904
1430949618.527,-18.474945
1430949618.542,-16.112167
1430949618.558,-14.929474
1430949618.573,-15.860512
1430949618.589,-18.000713
1430949618.605,-20.817596
1430949618.62,-24.212318
1430949618.636,-26.456543
1430949618.652,-25.911018
1430949618.667,-22.911152
1430949618.683,-19.051807
1430949618.698,-15.614098
1430949618.714,-13.818764
1430949618.73,-13.416061
1430949618.745,-14.144955
1430949618.761,-15.822758
1430949618.777,-17.020996
1430949618.792,-16.295555
1430949618.808,-13.586876
1430949618.823,-9.756554
1430949618.839,-5.6090775
1430949618.855,-2.0199242
1430949618.87,1.03339
1430949618.886,3.547001
1430949618.902,5.5069237
1430949618.917,7.507538
1430949618.933,10.279129
1430949618.948,13.957493
1430949618.964,18.321728
1430949618.98,23.2013
1430949618.995,28.300385
1430949619.011,33.443985
1430949619.027,38.064346
1430949619.042,41.21415
1430949619.058,42.091213
1430949619.074,40.205833
1430949619.089,35.37825
1430949619.105,27.974724
1430949619.12,18.90108
1430949619.136,9.249153
1430949619.152,0.10844517
1430949619.167,-7.828205
1430949619.183,-14.268192
1430949619.198,-19.182606
1430949619.214,-22.607243
1430949619.23,-24.654816
1430949619.245,-25.51436
1430949619.261,-25.511415
1430949619.277,-25.024395
1430949619.292,-24.487331
1430949619.308,-24.144192
1430949619.324,-24.07486
1430949619.339,-24.145233
1430949619.355,-24.136906
1430949619.37,-23.880604
1430949619.386,-23.329391
1430949619.402,-22.596376
1430949619.417,-21.899845
1430949619.433,-21.386776
1430949619.449,-21.001991
1430949619.464,-20.409477
1430949619.48,-19.077404
1430949619.495,-16.462435
1430949619.511,-12.31747
1430949619.527,-6.8070564
1430949619.542,-0.5531368
1430949619.558,5.574766
1430949619.574,10.704437
1430949619.589,14.316217
1430949619.605,16.337591
1430949619.62,17.187798
1430949619.636,17.549515
1430949619.652,18.118692
1430949619.667,19.40559
1430949619.683,21.554985
1430949619.699,24.262402
1430949619.714,26.817774
1430949619.73,28.292198
1430949619.745,27.805414
1430949619.761,24.806871
1430949619.777,19.346931
1430949619.792,11.998379
1430949619.808,3.787815
1430949619.824,-4.168953
1430949619.839,-11.002247
1430949619.855,-16.286522
1430949619.87,-20.0652
1430949619.886,-22.610764
1430949619.902,-24.200638
1430949619.917,-24.96614
1430949619.933,-24.925053
1430949619.949,-24.139206
1430949619.964,-22.825363
1430949619.98,-21.356148
1430949619.995,-20.09991
1430949620.011,-19.296764
1430949620.027,-18.995102
1430949620.042,-19.104752
1430949620.058,-19.523514
1430949620.074,-20.226868
1430949620.089,-21.215675
1430949620.105,-22.536186
1430949620.12,-24.106728
1430949620.136,-25.785568
1430949620.152,-27.354137
1430949620.167,-28.578949
1430949620.183,-29.245121
1430949620.199,-29.114384
1430949620.214,-27.975315
1430949620.23,-25.676071
1430949620.245,-22.1982
1430949620.261,-17.759308
1430949620.277,-12.725788
1430949620.292,-7.572296
1430949620.308,-2.6786575
1430949620.324,1.7502785
1430949620.339,5.775692
1430949620.355,9.665863
1430949620.37,13.75872
1430949620.386,18.253262
1430949620.402,23.024887
1430949620.417,27.522663
1430949620.433,30.842514
1430949620.449,32.01239
1430949620.464,30.329262
1430949620.48,25.625237
1430949620.495,18.386513
1430949620.511,9.55088
1430949620.527,0.23635292
1430949620.542,-8.584709
1430949620.558,-16.200264
1430949620.574,-22.223984
1430949620.589,-26.457016
1430949620.605,-28.824635
1430949620.62,-29.34104
1430949620.636,-28.171974
1430949620.652,-25.63194
1430949620.667,-22.21363
1430949620.683,-18.484629
1430949620.699,-14.897959
1430949620.714,-11.693573
1430949620.73,-8.839857
1430949620.745,-6.1651983
1430949620.761,-3.543827
1430949620.777,-1.132824
1430949620.792,0.6174431
1430949620.808,1.122447
1430949620.824,-0.036785126
1430949620.839,-2.7587476
1430949620.855,-6.4098516
1430949620.87,-9.9111
1430949620.886,-12.242827
1430949620.902,-12.723503
1430949620.917,-11.269237
1430949620.933,-8.208311
1430949620.949,-4.0878854
1430949620.964,0.5820837
1430949620.98,5.4139857
1430949620.995,10.202854
1430949621.011,14.930538
1430949621.027,19.714907
1430949621.042,24.772238
1430949621.058,30.200806
1430949621.074,35.80448
1430949621.089,40.932358
1430949621.105,44.619682
1430949621.12,45.885258
1430949621.136,44.128906
1430949621.152,39.467743
1430949621.167,32.627186
1430949621.183,24.720646
1430949621.199,16.779762
1430949621.214,9.496447
1430949621.23,3.141533
1430949621.245,-2.2848034
1430949621.261,-6.840582
1430949621.277,-10.5262985
1430949621.292,-13.243593
1430949621.308,-14.900936
1430949621.324,-15.496641
1430949621.339,-15.180672
1430949621.355,-14.305555
1430949621.37,-13.291908
1430949621.386,-12.548361
1430949621.402,-12.251669
1430949621.417,-12.342745
1430949621.433,-12.575008
1430949621.449,-12.673351
1430949621.464,-12.452059
1430949621.48,-11.849503
1430949621.495,-10.891636
1430949621.511,-9.504866
1430949621.527,-7.5225086
1430949621.542,-4.729374
1430949621.558,-1.0605316
1430949621.574,3.2467728
1430949621.589,7.684128
1430949621.605,11.635605
1430949621.62,14.702641
1430949621.636,16.923124
1430949621.652,18.8669
1430949621.667,21.309177
1430949621.683,24.857876
1430949621.699,29.543406
1430949621.714,34.744232
1430949621.73,39.288605
1430949621.746,41.889122
1430949621.761,41.607773
1430949621.777,38.13983
1430949621.792,31.984583
1430949621.808,24.165575
1430949621.824,15.882359
1430949621.839,8.108551
1430949621.855,1.3395596
1430949621.87,-4.360632
1430949621.886,-9.18362
1430949621.902,-13.287264
1430949621.917,-16.69441
1430949621.933,-19.26336
1430949621.949,-20.843504
1430949621.964,-21.404991
1430949621.98,-21.09841
1430949621.996,-20.197033
1430949622.011,-18.98143
1430949622.027,-17.614815
1430949622.042,-16.142122
1430949622.058,-14.545111
1430949622.074,-12.833992
1430949622.089,-11.15308
1430949622.105,-9.741436
1430949622.121,-8.892586
1430949622.136,-8.7972355
1430949622.152,-9.464001
1430949622.167,-10.655731
1430949622.183,-11.952137
1430949622.199,-12.936176
1430949622.214,-13.239128
1430949622.23,-12.752964
1430949622.246,-11.584988
1430949622.261,-9.965904
1430949622.277,-8.153734
1430949622.292,-6.3027077
1430949622.308,-4.3949184
1430949622.324,-2.2437115
1430949622.339,0.43072128
1430949622.355,3.878933
1430949622.371,8.200806
1430949622.386,13.257137
1430949622.402,18.668934
1430949622.417,23.85335
1430949622.433,28.094563
1430949622.449,30.652212
1430949622.464,30.8952
1430949622.48,28.454624
1430949622.496,23.39982
1430949622.511,16.285738
1430949622.527,8.046783
1430949622.542,-0.22712517
1430949622.558,-7.611103
1430949622.574,-13.610523
1430949622.589,-18.149605
1430949622.605,-21.391949
1430949622.621,-23.557716
1430949622.636,-24.761337
1430949622.652,-25.02481
1430949622.667,-24.40018
1430949622.683,-23.03188
1430949622.699,-21.220066
1430949622.714,-19.235123
1430949622.73,-17.278992
1430949622.746,-15.489365
1430949622.761,-13.928524
1430949622.777,-12.695641
1430949622.792,-11.960285
1430949622.808,-11.847328
1430949622.824,-12.418983
1430949622.839,-13.5555
1430949622.855,-14.983856
1430949622.871,-16.333
1430949622.886,-17.271282
1430949622.902,-17.54689
1430949622.917,-17.149067
1430949622.933,-16.242416
1430949622.949,-15.165245
1430949622.964,-14.2800865
1430949622.98,-13.766342
1430949622.996,-13.516178
1430949623.011,-13.166916
1430949623.027,-12.230682
1430949623.042,-10.367485
1430949623.058,-7.552021
1430949623.074,-4.112812
1430949623.089,-0.53362274
1430949623.105,2.7830963
1430949623.121,5.7537155
1430949623.136,8.588707
1430949623.152,11.709854
1430949623.167,15.449928
1430949623.183,19.949615
1430949623.199,24.99376
1430949623.214,30.079155
1430949623.23,34.484833
1430949623.246,37.403435
1430949623.261,38.107063
1430949623.277,36.15641
1430949623.292,31.562477
1430949623.308,24.894676
1430949623.324,17.144302
1430949623.339,9.38839
1430949623.355,2.4727173
1430949623.371,-3.2364273
1430949623.386,-7.882309
1430949623.402,-11.791664
1430949623.417,-15.298798
1430949623.433,-18.471428
1430949623.449,-21.168243
1430949623.464,-23.211205
1430949623.48,-24.564735
1430949623.496,-25.35318
1430949623.511,-25.815086
1430949623.527,-26.106674
1430949623.542,-26.24099
1430949623.558,-26.064842
1430949623.574,-25.397438
1430949623.589,-24.181519
1430949623.605,-22.508835
1430949623.621,-20.572762
1430949623.636,-18.590202
1430949623.652,-16.695274
1430949623.667,-14.957893
1430949623.683,-13.351685
1430949623.699,-11.835556
1430949623.714,-10.38559
1430949623.73,-8.959366
1430949623.746,-7.533615
1430949623.761,-6.0713196
1430949623.777,-4.548126
1430949623.792,-2.9354858
1430949623.808,-1.1390076
1430949623.824,0.9369812
1430949623.839,3.39505
1430949623.855,6.2750854
1430949623.871,9.538635
1430949623.886,13.028305
1430949623.902,16.571106
1430949623.917,20.035706
1430949623.933,23.420975
1430949623.949,26.84143
1430949623.964,30.465332
1430949623.98,34.325195
1430949623.996,38.221176
1430949624.011,41.59198
1430949624.027,43.700424
1430949624.042,43.74559
1430949624.058,41.220154
1430949624.074,36.14598
1430949624.089,29.167679
1430949624.105,21.383575
1430949624.121,13.95546
1430949624.136,7.6586456
1430949624.152,2.678238
1430949624.167,-1.3810425
1430949624.183,-5.0813446
1430949624.199,-8.773468
1430949624.214,-12.298584
1430949624.23,-15.03009
1430949624.246,-16.183685
1430949624.261,-15.216629
1430949624.277,-12.153244
1430949624.292,-7.6564484
1430949624.308,-2.7449188
1430949624.324,1.5046082
1430949624.339,4.3660583
1430949624.355,5.567642
1430949624.371,5.2959747
1430949624.386,3.9556274
1430949624.402,1.960968
1430949624.417,-0.4250183
1430949624.433,-3.0045624
1430949624.449,-5.555008
1430949624.464,-7.6438446
1430949624.48,-8.661896
1430949624.496,-7.9994354
1430949624.511,-5.368408
1430949624.527,-0.9560394
1430949624.542,4.547348
1430949624.558,10.254364
1430949624.574,15.362274
1430949624.589,19.45993
1430949624.605,22.510223
1430949624.621,24.78627
1430949624.636,26.60707
1430949624.652,28.29451
1430949624.668,30.06128
1430949624.683,32.167374
1430949624.699,34.889694
1430949624.714,38.41922
1430949624.73,42.721436
1430949624.746,47.325684
1430949624.761,51.41667
1430949624.777,54.000046
1430949624.793,54.200348
1430949624.808,51.55864
1430949624.824,46.16455
1430949624.839,38.618164
1430949624.855,29.825882
1430949624.871,20.84465
1430949624.886,12.582748
1430949624.902,5.7012024
1430949624.918,0.52134705
1430949624.933,-2.8964233
1430949624.949,-4.731018
1430949624.964,-5.257965
1430949624.98,-4.8018036
1430949624.996,-3.7202454
1430949625.011,-2.3777618
1430949625.027,-1.2717133
1430949625.043,-0.9776459
1430949625.058,-2.1055908
1430949625.074,-5.1634674
1430949625.089,-10.28653
1430949625.105,-17.16867
1430949625.121,-25.05481
1430949625.136,-33.002502
1430949625.152,-40.07579
1430949625.168,-45.66902
1430949625.183,-49.579926
1430949625.199,-51.983017
1430949625.214,-53.281937
1430949625.23,-53.856842
1430949625.246,-53.921875
1430949625.261,-53.430115
1430949625.277,-52.134964
1430949625.293,-49.708496
1430949625.308,-45.914566
1430949625.324,-40.686676
1430949625.339,-34.168472
1430949625.355,-26.687332
1430949625.371,-18.622452
1430949625.386,-10.363129
1430949625.402,-2.187439
1430949625.418,5.7259827
1430949625.433,13.330444
1430949625.449,20.629028
1430949625.464,27.569931
1430949625.48,33.951736
1430949625.496,39.330673
1430949625.511,43.120346
1430949625.527,44.695786
1430949625.543,43.69655
1430949625.558,40.189438
1430949625.574,34.682526
1430949625.589,28.00084
1430949625.605,20.983093
1430949625.621,14.301712
1430949625.636,8.349411
1430949625.652,3.2763062
1430949625.668,-0.92276
1430949625.683,-4.325241
1430949625.699,-7.047287
1430949625.714,-9.277237
1430949625.73,-11.220306
1430949625.746,-13.082397
1430949625.761,-14.983307
1430949625.777,-16.906921
1430949625.793,-18.763977
1430949625.808,-20.45021
1430949625.824,-21.930603
1430949625.839,-23.262497
1430949625.855,-24.539581
1430949625.871,-25.779678
1430949625.886,-26.905685
1430949625.902,-27.70958
1430949625.918,-27.966309
1430949625.933,-27.531235
1430949625.949,-26.441223
1430949625.964,-24.83783
1430949625.98,-22.884308
1430949625.996,-20.668198
1430949626.011,-18.110535
1430949626.027,-15.096222
1430949626.043,-11.56929
1430949626.058,-7.646637
1430949626.074,-3.576767
1430949626.089,0.39123535
1430949626.105,4.140213
1430949626.121,7.740494
1430949626.136,11.336578
1430949626.152,15.040421
1430949626.168,18.79602
1430949626.183,22.419632
1430949626.199,25.71585
1430949626.214,28.625534
1430949626.23,31.268082
1430949626.246,33.80902
1430949626.261,36.24005
1430949626.277,38.202652
1430949626.293,39.006287
1430949626.308,37.86241
1430949626.324,34.1951
1430949626.339,27.969406
1430949626.355,19.76944
1430949626.371,10.712158
1430949626.386,2.052536
1430949626.402,-5.1498566
1430949626.418,-10.311539
1430949626.433,-13.40004
1430949626.449,-14.776093
1430949626.464,-14.921936
1430949626.48,-14.25502
1430949626.496,-13.086166
1430949626.511,-11.684204
1430949626.527,-10.352905
1430949626.543,-9.487213
1430949626.558,-9.39064
1430949626.574,-10.158691
1430949626.589,-11.602478
1430949626.605,-13.327942
1430949626.621,-14.93927
1430949626.636,-16.24295
1430949626.652,-17.296799
1430949626.668,-18.303787
1430949626.683,-19.433899
1430949626.699,-20.63443
1430949626.714,-21.670715
1430949626.73,-22.226837
1430949626.746,-22.063034
1430949626.761,-21.12439
1430949626.777,-19.502869
1430949626.793,-17.394348
1430949626.808,-14.903793
1430949626.824,-12.0776825
1430949626.839,-8.863312
1430949626.855,-5.224304
1430949626.871,-1.2237396
1430949626.886,2.9122314
1430949626.902,6.8460693
1430949626.918,10.242584
1430949626.933,12.900192
1430949626.949,14.872467
1430949626.964,16.439621
1430949626.98,18.043442
1430949626.996,20.16652
1430949627.011,23.103638
1430949627.027,26.899628
1430949627.043,31.218689
1430949627.058,35.401825
1430949627.074,38.57045
1430949627.089,39.884354
1430949627.105,38.78293
1430949627.121,35.20694
1430949627.136,29.583633
1430949627.152,22.696152
1430949627.168,15.382462
1430949627.183,8.347626
1430949627.199,2.0640411
1430949627.214,-3.0822754
1430949627.23,-6.748749
1430949627.246,-8.669449
1430949627.261,-8.771317
1430949627.277,-7.301422
1430949627.293,-4.8491974
1430949627.308,-2.1426697
1430949627.324,0.16816711
1430949627.34,1.7305908
1430949627.355,2.4880676
1430949627.371,2.6058044
1430949627.386,2.288971
1430949627.402,1.7315979
1430949627.418,1.0957489
1430949627.433,0.5470581
1430949627.449,0.24108887
1430949627.465,0.26261902
1430949627.48,0.6040802
1430949627.496,1.1577301
1430949627.511,1.8136902
1430949627.527,2.5513153
1430949627.543,3.5006409
1430949627.558,4.862076
1430949627.574,6.820984
1430949627.59,9.484421
1430949627.605,12.825638
1430949627.621,16.738495
1430949627.636,21.05658
1430949627.652,25.632736
1430949627.668,30.326614
1430949627.683,35.103973
1430949627.699,39.948227
1430949627.715,44.82599
1430949627.73,49.659958
1430949627.746,54.29567
1430949627.761,58.55011
1430949627.777,62.2975
1430949627.793,65.50966
1430949627.808,68.20232
1430949627.824,70.30846
1430949627.84,71.56937
1430949627.855,71.47287
1430949627.871,69.430176
1430949627.886,64.969055
1430949627.902,57.99008
1430949627.918,48.879486
1430949627.933,38.434708
1430949627.949,27.54898
1430949627.965,17.00119
1430949627.98,7.223053
1430949627.996,-1.7067719
1430949628.011,-9.8983
1430949628.027,-17.447731
1430949628.043,-24.32116
1430949628.058,-30.380272
1430949628.074,-35.530273
1430949628.09,-39.88508
1430949628.105,-43.743935
1430949628.121,-47.498344
1430949628.136,-51.394234
1430949628.152,-55.37355
1430949628.168,-59.16352
1430949628.183,-62.370186
1430949628.199,-64.79676
1430949628.215,-66.48903
1430949628.23,-67.71691
1430949628.246,-68.75964
1430949628.261,-69.7414
1430949628.277,-70.56169
1430949628.293,-70.97789
1430949628.308,-70.74691
1430949628.324,-69.71153
1430949628.34,-67.86502
1430949628.355,-65.22067
1430949628.371,-61.845036
1430949628.386,-57.795815
1430949628.402,-53.19224
1430949628.418,-48.190975
1430949628.433,-42.9227
1430949628.449,-37.493782
1430949628.465,-31.88168
1430949628.48,-26.024048
1430949628.496,-19.837624
1430949628.511,-13.358234
1430949628.527,-6.7129097
1430949628.543,-0.06777191
1430949628.558,6.5083466
1430949628.574,13.033089
1430949628.59,19.627354
1430949628.605,26.329468
1430949628.621,32.912918
1430949628.636,38.82175
1430949628.652,43.231995
1430949628.668,45.292755
1430949628.683,44.45463
1430949628.699,40.68599
1430949628.715,34.54046
1430949628.73,27.006603
1430949628.746,19.192978
1430949628.761,12.007107
1430949628.777,5.9602585
1430949628.793,1.1213303
1430949628.808,-2.7142563
1430949628.824,-5.7942276
1430949628.84,-8.266163
1430949628.855,-10.106968
1430949628.871,-11.219154
1430949628.886,-11.567059
1430949628.902,-11.260891
1430949628.918,-10.553928
1430949628.933,-9.77565
1430949628.949,-9.245209
1430949628.965,-9.1304245
1430949628.98,-9.498165
1430949628.996,-10.208561
1430949629.011,-11.092651
1430949629.027,-11.950909
1430949629.043,-12.653053
1430949629.058,-13.095207
1430949629.074,-13.253109
1430949629.09,-13.10828
1430949629.105,-12.684113
1430949629.121,-12.020622
1430949629.136,-11.158855
1430949629.152,-10.141464
1430949629.168,-8.970409
1430949629.183,-7.572891
1430949629.199,-5.759651
1430949629.215,-3.3308525
1430949629.23,-0.12068176
1430949629.246,3.8496094
1430949629.261,8.36496
1430949629.277,13.097397
1430949629.293,17.699837
1430949629.308,21.976063
1430949629.324,25.879936
1430949629.34,29.504349
1430949629.355,32.94626
1430949629.371,36.22129
1430949629.386,39.189335
1430949629.402,41.578426
1430949629.418,43.0168
1430949629.433,43.144417
1430949629.449,41.69674
1430949629.465,38.58213
1430949629.48,33.967686
1430949629.496,28.290146
1430949629.511,22.169937
1430949629.527,16.237602
1430949629.543,10.949547
1430949629.558,6.4941025
1430949629.574,2.8083
1430949629.59,-0.18452454
1430949629.605,-2.4264488
1430949629.621,-3.6119003
1430949629.636,-3.3260803
1430949629.652,-1.2533836
1430949629.668,2.5293236
1430949629.683,7.501789
1430949629.699,12.78207
1430949629.715,17.45501
1430949629.73,20.80141
1430949629.746,22.508923
1430949629.761,22.602545
1430949629.777,21.33928
1430949629.793,19.013134
1430949629.808,15.899282
1430949629.824,12.222189
1430949629.84,8.234758
1430949629.855,4.1736145
1430949629.871,0.23639297
1430949629.886,-3.481269
1430949629.902,-6.9998274
1430949629.918,-10.421121
1430949629.933,-13.798851
1430949629.949,-17.07323
1430949629.965,-20.041248
1430949629.98,-22.436752
1430949629.996,-24.013721
1430949630.012,-24.654892
1430949630.027,-24.357813
1430949630.043,-23.218964
1430949630.058,-21.297024
1430949630.074,-18.602705
1430949630.09,-15.071371
1430949630.105,-10.62575
1430949630.121,-5.234421
1430949630.137,1.0825157
1430949630.152,8.235165
1430949630.168,16.03314
1430949630.183,24.08665
1430949630.199,31.710155
1430949630.215,37.972515
1430949630.23,41.800087
1430949630.246,42.32341
1430949630.262,39.20194
1430949630.277,32.788303
1430949630.293,24.012032
1430949630.308,14.085869
1430949630.324,4.0201225
1430949630.34,-5.5154495
1430949630.355,-14.304543
1430949630.371,-22.336895
1430949630.387,-29.62474
1430949630.402,-36.115925
1430949630.418,-41.696136
1430949630.433,-46.29518
1430949630.449,-49.939754
1430949630.465,-52.72183
1430949630.48,-54.76021
1430949630.496,-56.14921
1430949630.512,-56.93303
1430949630.527,-57.06555
1430949630.543,-56.472702
1430949630.558,-55.050175
1430949630.574,-52.79475
1430949630.59,-49.82983
1430949630.605,-46.455833
1430949630.621,-42.987392
1430949630.637,-39.665504
1430949630.652,-36.520237
1430949630.668,-33.444138
1430949630.683,-30.371387
1430949630.699,-27.409557
1430949630.715,-24.822437
1430949630.73,-22.842804
1430949630.746,-21.43435
1430949630.762,-20.195068
1430949630.777,-18.546661
1430949630.793,-16.018875
1430949630.808,-12.474651
1430949630.824,-8.237709
1430949630.84,-3.7559738
1430949630.855,0.59264374
1430949630.871,4.786503
1430949630.887,9.123695
1430949630.902,14.036461
1430949630.918,19.8302
1430949630.933,26.48804
1430949630.949,33.516132
1430949630.965,40.080807
1430949630.98,45.19199
1430949630.996,47.979
1430949631.012,47.952503
1430949631.027,45.173088
1430949631.043,40.16687
1430949631.058,33.64022
1430949631.074,26.259071
1430949631.09,18.452705
1430949631.105,10.467571
1430949631.121,2.5435715
1430949631.137,-4.9020615
1430949631.152,-11.268894
1430949631.168,-15.892151
1430949631.183,-18.328503
1430949631.199,-18.612158
1430949631.215,-17.19718
1430949631.23,-14.829311
1430949631.246,-12.184259
1430949631.262,-9.6923065
1430949631.277,-7.4415646
1430949631.293,-5.362091
1430949631.308,-3.357458
1430949631.324,-1.4745979
1430949631.34,0.1334362
1430949631.355,1.3223839
1430949631.371,2.051033
1430949631.387,2.4361687
1430949631.402,2.7082138
1430949631.418,3.081314
1430949631.433,3.6674213
1430949631.449,4.438057
1430949631.465,5.358158
1430949631.48,6.4368057
1430949631.496,7.8058376
1430949631.512,9.642452
1430949631.527,12.073303
1430949631.543,15.060993
1430949631.558,18.399748
1430949631.574,21.743277
1430949631.59,24.76115
1430949631.605,27.235468
1430949631.621,29.177153
1430949631.637,30.826254
1430949631.652,32.59501
1430949631.668,34.86549
1430949631.683,37.790062
1430949631.699,41.10019
1430949631.715,44.162163
1430949631.73,46.052544
1430949631.746,45.917553
1430949631.762,43.155464
1430949631.777,37.697975
1430949631.793,29.9914
1430949631.808,20.852613
1430949631.824,11.26119
1430949631.84,2.0584164
1430949631.855,-6.137947
1430949631.871,-12.964113
1430949631.887,-18.29218
1430949631.902,-22.151266
1430949631.918,-24.677849
1430949631.933,-26.094563
1430949631.949,-26.690247
1430949631.965,-26.832153
1430949631.98,-26.988865
1430949631.996,-27.608624
1430949632.012,-28.987217
1430949632.027,-31.036049
1430949632.043,-33.389847
1430949632.058,-35.435043
1430949632.074,-36.618332
1430949632.09,-36.63287
1430949632.105,-35.53052
1430949632.121,-33.593834
1430949632.137,-31.186703
1430949632.152,-28.605686
1430949632.168,-26.0587
1430949632.183,-23.68119
1430949632.199,-21.557796
1430949632.215,-19.597923
1430949632.23,-17.502895
1430949632.246,-14.785732
1430949632.262,-11.03796
1430949632.277,-6.1956253
1430949632.293,-0.7290878
1430949632.308,4.530266
1430949632.324,8.724636
1430949632.34,11.340607
1430949632.355,12.388546
1430949632.371,12.415634
1430949632.387,12.17614
1430949632.402,12.369797
1430949632.418,13.494724
1430949632.433,15.706673
1430949632.449,18.849895
1430949632.465,22.48861
1430949632.48,25.902271
1430949632.496,28.215996
1430949632.512,28.66285
1430949632.527,26.870491
1430949632.543,22.936111
1430949632.558,17.434696
1430949632.574,11.259895
1430949632.59,5.3538513
1430949632.605,0.39041138
1430949632.621,-3.3774338
1430949632.637,-6.1495705
1430949632.652,-8.47047
1430949632.668,-11.018562
1430949632.684,-14.274139
1430949632.699,-18.258614
1430949632.715,-22.537289
1430949632.73,-26.45921
1430949632.746,-29.560665
1430949632.762,-31.741837
1430949632.777,-33.323547
1430949632.793,-34.650764
1430949632.808,-35.83818
1430949632.824,-36.718063
1430949632.84,-37.012268
1430949632.855,-36.609077
1430949632.871,-35.65923
1430949632.887,-34.45527
1430949632.902,-33.118187
1430949632.918,-31.470783
1430949632.934,-29.16528
1430949632.949,-25.996998
1430949632.965,-22.052715
1430949632.98,-17.757088
1430949632.996,-13.615112
1430949633.012,-9.947728
1430949633.027,-6.731148
1430949633.043,-3.7531376
1430949633.059,-0.8528886
1430949633.074,1.9807448
1430949633.09,4.664076
1430949633.105,7.163084
1430949633.121,9.59906
1430949633.137,12.190859
1430949633.152,15.147943
1430949633.168,18.510935
1430949633.184,22.137978
1430949633.199,25.743832
1430949633.215,29.082445
1430949633.23,31.956831
1430949633.246,34.318214
1430949633.262,36.100933
1430949633.277,37.179214
1430949633.293,37.249054
1430949633.309,35.888027
1430949633.324,32.723473
1430949633.34,27.643173
1430949633.355,21.026814
1430949633.371,13.728386
1430949633.387,6.8152866
1430949633.402,1.2263222
1430949633.418,-2.6344833
1430949633.434,-4.9498405
1430949633.449,-6.320408
1430949633.465,-7.3429527
1430949633.48,-8.371109
1430949633.496,-9.345383
1430949633.512,-10.039101
1430949633.527,-10.279648
1430949633.543,-10.159027
1430949633.559,-9.987629
1430949633.574,-10.075169
1430949633.59,-10.521652
1430949633.605,-11.120533
1430949633.621,-11.4682045
1430949633.637,-11.147968
1430949633.652,-9.960125
1430949633.668,-7.9487686
1430949633.684,-5.355381
1430949633.699,-2.4385262
1430949633.715,0.6408119
1430949633.73,3.7567368
1430949633.746,6.8498573
1430949633.762,9.763824
1430949633.777,12.341057
1430949633.793,14.41906
1430949633.809,15.964573
1430949633.824,17.072796
1430949633.84,17.91286
1430949633.855,18.612919
1430949633.871,19.192036
1430949633.887,19.571148
1430949633.902,19.698502
1430949633.918,19.730274
1430949633.934,20.029415
1430949633.949,21.099785
1430949633.965,23.361729
1430949633.98,26.875565
1430949633.996,31.212841
1430949634.012,35.486782
1430949634.027,38.587677
1430949634.043,39.52434
1430949634.059,37.739136
1430949634.074,33.219875
1430949634.09,26.513435
1430949634.105,18.434586
1430949634.121,9.870777
1430949634.137,1.5758934
1430949634.152,-5.95343
1430949634.168,-12.441799
1430949634.184,-17.791965
1430949634.199,-21.95655
1430949634.215,-24.917065
1430949634.23,-26.66874
1430949634.246,-27.237965
1430949634.262,-26.823498
1430949634.277,-25.700684
1430949634.293,-24.24411
1430949634.309,-22.820766
1430949634.324,-21.676651
1430949634.34,-20.891846
1430949634.355,-20.340855
1430949634.371,-19.797806
1430949634.387,-19.054497
1430949634.402,-18.061523
1430949634.418,-16.920761
1430949634.434,-15.836178
1430949634.449,-14.999256
1430949634.465,-14.492432
1430949634.48,-14.312027
1430949634.496,-14.332798
1430949634.512,-14.333668
1430949634.527,-14.031227
1430949634.543,-13.106682
1430949634.559,-11.262535
1430949634.574,-8.385262
1430949634.59,-4.6067696
1430949634.605,-0.33654785
1430949634.621,3.8668022
1430949634.637,7.442753
1430949634.652,10.096863
1430949634.668,11.894726
1430949634.684,13.200428
1430949634.699,14.578861
1430949634.715,16.583088
1430949634.73,19.565178
1430949634.746,23.642387
1430949634.762,28.579895
1430949634.777,33.80051
1430949634.793,38.43983
1430949634.809,41.509453
1430949634.824,42.14603
1430949634.84,39.93466
1430949634.855,35.026913
1430949634.871,28.090336
1430949634.887,20.082005
1430949634.902,11.986168
1430949634.918,4.522331
1430949634.934,-1.8507957
1430949634.949,-6.9473763
1430949634.965,-10.723366
1430949634.98,-13.277954
1430949634.996,-14.809158
1430949635.012,-15.613594
1430949635.027,-16.052559
1430949635.043,-16.425346
1430949635.059,-16.88469
1430949635.074,-17.417564
1430949635.09,-17.901253
1430949635.105,-18.222916
1430949635.121,-18.358658
1430949635.137,-18.401176
1430949635.152,-18.525322
1430949635.168,-18.863052
1430949635.184,-19.47197
1430949635.199,-20.270035
1430949635.215,-21.056053
1430949635.23,-21.59182
1430949635.246,-21.656319
1430949635.262,-21.131004
1430949635.277,-20.013557
1430949635.293,-18.402672
1430949635.309,-16.424484
1430949635.324,-14.215645
1430949635.34,-11.838432
1430949635.355,-9.341362
1430949635.371,-6.774521
1430949635.387,-4.2281494
1430949635.402,-1.7592316
1430949635.418,0.5478897
1430949635.434,2.6973877
1430949635.449,4.677208
1430949635.465,6.5048904
1430949635.48,8.196159
1430949635.496,9.818054
1430949635.512,11.507912
1430949635.527,13.517975
1430949635.543,16.150055
1430949635.559,19.65104
1430949635.574,24.06945
1430949635.59,29.12252
1430949635.606,34.15174
1430949635.621,38.226036
1430949635.637,40.35948
1430949635.652,39.818977
1430949635.668,36.356216
1430949635.684,30.28553
1430949635.699,22.404388
1430949635.715,13.750618
1430949635.731,5.333267
1430949635.746,-2.0802078
1430949635.762,-8.088043
1430949635.777,-12.573669
1430949635.793,-15.643509
1430949635.809,-17.466385
1430949635.824,-18.243782
1430949635.84,-18.154335
1430949635.856,-17.405434
1430949635.871,-16.21798
1430949635.887,-14.783287
1430949635.902,-13.303474
1430949635.918,-11.948662
1430949635.934,-10.807564
1430949635.949,-9.951431
1430949635.965,-9.37381
1430949635.981,-9.054665
1430949635.996,-8.918205
1430949636.012,-8.930878
1430949636.027,-9.006989
1430949636.043,-9.074211
1430949636.059,-9.015373
1430949636.074,-8.708923
1430949636.09,-8.053772
1430949636.106,-7.0184326
1430949636.121,-5.6022034
1430949636.137,-3.843155
1430949636.152,-1.7933426
1430949636.168,0.56207275
1430949636.184,3.2552872
1430949636.199,6.335434
1430949636.215,9.84436
1430949636.231,13.742081
1430949636.246,17.958588
1430949636.262,22.336296
1430949636.277,26.700119
1430949636.293,30.81289
1430949636.309,34.495575
1430949636.324,37.618195
1430949636.34,40.17437
1430949636.356,42.21598
1430949636.371,43.786552
1430949636.387,44.746506
1430949636.402,44.75506
1430949636.418,43.288246
1430949636.434,39.883575
1430949636.449,34.389503
1430949636.465,27.083626
1430949636.481,18.633568
1430949636.496,9.895508
1430949636.512,1.6786728
1430949636.527,-5.4201355
1430949636.543,-11.095558
1430949636.559,-15.244217
1430949636.574,-17.931885
1430949636.59,-19.342201
1430949636.606,-19.733368
1430949636.621,-19.445663
1430949636.637,-18.817139
1430949636.652,-18.196175
1430949636.668,-17.836514
1430949636.684,-17.922958
1430949636.699,-18.546795
1430949636.715,-19.698986
1430949636.731,-21.302502
1430949636.746,-23.200592
1430949636.762,-25.21175
1430949636.777,-27.123566
1430949636.793,-28.734165
1430949636.809,-29.834667
1430949636.824,-30.207958
1430949636.84,-29.626358
1430949636.856,-27.95824
1430949636.871,-25.21062
1430949636.887,-21.62666
1430949636.902,-17.600182
1430949636.918,-13.479027
1430949636.934,-9.50832
1430949636.949,-5.7205315
1430949636.965,-2.0851746
1430949636.981,1.3993759
1430949636.996,4.6238594
1430949637.012,7.389351
1430949637.027,9.574749
1430949637.043,11.175388
1430949637.059,12.351807
1430949637.074,13.310822
1430949637.09,14.301365
1430949637.106,15.539017
1430949637.121,17.242912
1430949637.137,19.572018
1430949637.152,22.544209
1430949637.168,25.838367
1430949637.184,28.748306
1430949637.199,30.246857
1430949637.215,29.369274
1430949637.231,25.59169
1430949637.246,19.107635
1430949637.262,10.81192
1430949637.277,1.9882545
1430949637.293,-6.1279526
1430949637.309,-12.718163
1430949637.324,-17.50336
1430949637.34,-20.659409
1430949637.356,-22.611023
1430949637.371,-23.713795
1430949637.387,-24.21857
1430949637.402,-24.190262
1430949637.418,-23.700642
1430949637.434,-22.824883
1430949637.449,-21.724094
1430949637.465,-20.567558
1430949637.481,-19.371468
1430949637.496,-17.980503
1430949637.512,-16.228867
1430949637.527,-14.119778
1430949637.543,-11.894188
1430949637.559,-10.023991
1430949637.574,-8.928608
1430949637.59,-8.696247
1430949637.606,-9.037254
1430949637.621,-9.37764
1430949637.637,-9.236607
1430949637.652,-8.4882965
1430949637.668,-7.4465866
1430949637.684,-6.6085396
1430949637.699,-6.3419037
1430949637.715,-6.647003
1430949637.731,-7.176525
1430949637.746,-7.4306526
1430949637.762,-6.9608383
1430949637.777,-5.520508
1430949637.793,-3.0651054
1430949637.809,0.3107834
1430949637.824,4.4138336
1430949637.84,8.932224
1430949637.856,13.418858
1430949637.871,17.412209
1430949637.887,20.572025
1430949637.902,22.905643
1430949637.918,24.796597
1430949637.934,26.818111
1430949637.949,29.393349
1430949637.965,32.41251
1430949637.981,35.154137
1430949637.996,36.581696
1430949638.012,35.80635
1430949638.027,32.48507
1430949638.043,26.954865
1430949638.059,20.02885
1430949638.074,12.5692215
1430949638.09,5.3068504
1430949638.106,-1.3407097
1430949638.121,-7.1042404
1430949638.137,-11.74836
1430949638.152,-15.067181
1430949638.168,-16.948257
1430949638.184,-17.536808
1430949638.199,-17.155678
1430949638.215,-16.230473
1430949638.231,-15.09214
1430949638.246,-13.878437
1430949638.262,-12.613773
1430949638.278,-11.284428
1430949638.293,-9.97448
1430949638.309,-8.816532
1430949638.324,-7.9317513
1430949638.34,-7.3527985
1430949638.356,-7.0578156
1430949638.371,-7.0064507
1430949638.387,-7.1971474
1430949638.403,-7.6316757
1430949638.418,-8.223194
1430949638.434,-8.786797
1430949638.449,-9.039776
1430949638.465,-8.736267
1430949638.481,-7.7487984
1430949638.496,-6.1390915
1430949638.512,-4.1000824
1430949638.528,-1.8424034
1430949638.543,0.4403305
1430949638.559,2.7178802
1430949638.574,5.031044
1430949638.59,7.502304
1430949638.606,10.245319
1430949638.621,13.332489
1430949638.637,16.743118
1430949638.653,20.41114
1430949638.668,24.27887
1430949638.684,28.302265
1430949638.699,32.512386
1430949638.715,36.89201
1430949638.731,41.27728
1430949638.746,45.190323
1430949638.762,47.857765
1430949638.778,48.398182
1430949638.793,46.131336
1430949638.809,40.91284
1430949638.824,33.170258
1430949638.84,23.886337
1430949638.856,14.171356
1430949638.871,5.0111656
1430949638.887,-2.9702492
1430949638.903,-9.506575
1430949638.918,-14.607956
1430949638.934,-18.395
1430949638.949,-20.983744
1430949638.965,-22.434965
1430949638.981,-22.764385
1430949638.996,-22.010807
1430949639.012,-20.331732
1430949639.028,-17.964611
1430949639.043,-15.244114
1430949639.059,-12.475176
1430949639.074,-9.899469
1430949639.09,-7.63459
1430949639.106,-5.722519
1430949639.121,-4.1934414
1430949639.137,-3.0617962
1430949639.153,-2.374157
1430949639.168,-2.1736164
1430949639.184,-2.4839973
1430949639.199,-3.3476639
1430949639.215,-4.8546877
1430949639.231,-7.1084685
1430949639.246,-10.113829
1430949639.262,-13.628594
1430949639.278,-17.059376
1430949639.293,-19.599289
1430949639.309,-20.515848
1430949639.324,-19.5113
1430949639.34,-16.820715
1430949639.356,-13.103149
1430949639.371,-9.09458
1430949639.387,-5.3193207
1430949639.403,-1.8815908
1430949639.418,1.3831296
1430949639.434,4.8173475
1430949639.449,8.711311
1430949639.465,13.282532
1430949639.481,18.630066
1430949639.496,24.695988
1430949639.512,31.129272
1430949639.528,37.256683
1430949639.543,42.07711
1430949639.559,44.504826
1430949639.574,43.683067
1430949639.59,39.253582
1430949639.606,31.555891
1430949639.621,21.468473
1430949639.637,10.26375
1430949639.653,-0.775404
1430949639.668,-10.615509
1430949639.684,-18.641321
1430949639.699,-24.77526
1430949639.715,-29.31141
1430949639.731,-32.78555
1430949639.746,-35.61089
1430949639.762,-38.028053
1430949639.778,-39.97968
1430949639.793,-41.24343
1430949639.809,-41.556293
1430949639.824,-40.757767
1430949639.84,-38.85065
1430949639.856,-36.0395
1430949639.871,-32.642338
1430949639.887,-29.0812
1430949639.903,-25.830515
1430949639.918,-23.311153
1430949639.934,-21.789991
1430949639.949,-21.289854
1430949639.965,-21.585375
1430949639.981,-22.25345
1430949639.996,-22.798548
1430949640.012,-22.7812
1430949640.028,-21.96974
1430949640.043,-20.386497
1430949640.059,-18.255823
1430949640.074,-15.8968315
1430949640.09,-13.601999
1430949640.106,-11.557041
1430949640.121,-9.786724
1430949640.137,-8.193462
1430949640.153,-6.573759
1430949640.168,-4.690174
1430949640.184,-2.3109226
1430949640.199,0.7088604
1430949640.215,4.3473816
1430949640.231,8.356916
1430949640.246,12.351301
1430949640.262,15.931318
1430949640.278,18.874886
1430949640.293,21.246078
1430949640.309,23.389593
1430949640.324,25.741438
1430949640.34,28.596554
1430949640.356,31.792551
1430949640.371,34.67917
1430949640.387,36.24383
1430949640.403,35.478493
1430949640.418,31.762356
1430949640.434,25.141895
1430949640.449,16.339901
1430949640.465,6.548646
1430949640.481,-2.991068
1430949640.496,-11.276275
1430949640.512,-17.750416
1430949640.528,-22.293688
1430949640.543,-25.119596
1430949640.559,-26.607695
1430949640.574,-27.156097
1430949640.59,-27.092943
1430949640.606,-26.654577
1430949640.621,-25.99186
1430949640.637,-25.195383
1430949640.653,-24.341925
1430949640.668,-23.560083
1430949640.684,-22.964733
1430949640.699,-22.631636
1430949640.715,-22.528084
1430949640.731,-22.533691
1430949640.746,-22.459824
1430949640.762,-22.157345
1430949640.778,-21.543705
1430949640.793,-20.585844
1430949640.809,-19.251774
1430949640.824,-17.478807
1430949640.84,-15.147713
1430949640.856,-12.219948
1430949640.871,-8.755873
1430949640.887,-4.9797745
1430949640.903,-1.1799145
1430949640.918,2.4196796
1430949640.934,5.7397823
1430949640.95,8.848354
1430949640.965,11.929913
1430949640.981,15.107677
1430949640.996,18.431198
1430949641.012,21.833023
1430949641.028,25.229126
1430949641.043,28.555973
1430949641.059,31.746891
1430949641.075,34.67735
1430949641.09,37.197628
1430949641.106,39.17676
1430949641.121,40.648876
1430949641.137,41.88098
1430949641.153,43.32971
1430949641.168,45.38839
1430949641.184,48.17739
1430949641.2,51.294693
1430949641.215,53.905663
1430949641.231,55.016853
1430949641.246,53.82499
1430949641.262,50.0212
1430949641.278,43.85043
1430949641.293,35.95363
1430949641.309,27.14215
1430949641.325,18.186417
1430949641.34,9.680695
1430949641.356,2.0179482
1430949641.371,-4.552513
1430949641.387,-9.933647
1430949641.403,-14.131813
1430949641.418,-17.251953
1430949641.434,-19.437477
1430949641.45,-20.815826
1430949641.465,-21.396969
1430949641.481,-21.131096
1430949641.496,-19.979836
1430949641.512,-18.110786
1430949641.528,-15.95932
1430949641.543,-14.20578
1430949641.559,-13.53125
1430949641.575,-14.292274
1430949641.59,-16.317818
1430949641.606,-18.944221
1430949641.621,-21.233276
1430949641.637,-22.413471
1430949641.653,-22.166824
1430949641.668,-20.653671
1430949641.684,-18.301624
1430949641.7,-15.484444
1430949641.715,-12.289864
1430949641.731,-8.595844
1430949641.746,-4.2641144
1430949641.762,0.57629395
1430949641.778,5.468048
1430949641.793,9.810247
1430949641.809,13.135355
1430949641.825,15.347734
1430949641.84,16.744625
1430949641.856,17.875908
1430949641.871,19.294888
1430949641.887,21.385658
1430949641.903,24.193493
1430949641.918,27.416956
1430949641.934,30.397642
1430949641.95,32.196266
1430949641.965,31.827217
1430949641.981,28.51874
1430949641.996,22.110939
1430949642.012,13.135889
1430949642.028,2.7720852
1430949642.043,-7.5652237
1430949642.059,-16.628365
1430949642.075,-23.676418
1430949642.09,-28.515938
1430949642.106,-31.390923
1430949642.121,-32.677002
1430949642.137,-32.705627
1430949642.153,-31.749945
1430949642.168,-30.012543
1430949642.184,-27.728312
1430949642.2,-25.214167
1430949642.215,-22.739681
1430949642.231,-20.546432
1430949642.246,-18.742634
1430949642.262,-17.334774
1430949642.278,-16.254747
1430949642.293,-15.450306
1430949642.309,-14.839937
1430949642.325,-14.301237
1430949642.34,-13.622229
1430949642.356,-12.530233
1430949642.371,-10.821514
1430949642.387,-8.457476
1430949642.403,-5.6741676
1430949642.418,-2.9674358
1430949642.434,-0.87052345
1430949642.45,0.25948524
1430949642.465,0.41823578
1430949642.481,-0.05103302
1430949642.496,-0.5224991
1430949642.512,-0.37190247
1430949642.528,0.90504646
1430949642.543,3.543377
1430949642.559,7.5197277
1430949642.575,12.535133
1430949642.59,18.143127
1430949642.606,23.80349
1430949642.621,29.00227
1430949642.637,33.412315
1430949642.653,36.96612
1430949642.668,39.848866
1430949642.684,42.331333
1430949642.7,44.51104
1430949642.715,46.115246
1430949642.731,46.460278
1430949642.746,44.70424
1430949642.762,40.18136
1430949642.778,32.824936
1430949642.793,23.27347
1430949642.809,12.696171
1430949642.825,2.3505974
1430949642.84,-6.8038197
1430949642.856,-14.375048
1430949642.871,-20.390154
1430949642.887,-25.01219
1430949642.903,-28.263777
1430949642.918,-29.99124
1430949642.934,-30.047943
1430949642.95,-28.565222
1430949642.965,-26.03479
1430949642.981,-23.22478
1430949642.996,-20.82174
1430949643.012,-19.221706
1430949643.028,-18.386242
1430949643.043,-18.007912
1430949643.059,-17.756021
1430949643.075,-17.438116
1430949643.09,-17.022667
1430949643.106,-16.490143
1430949643.121,-15.667941
1430949643.137,-14.319424
1430949643.153,-12.273516
1430949643.168,-9.678089
1430949643.184,-7.0134583
1430949643.2,-4.8817406
1430949643.215,-3.6648474
1430949643.231,-3.2722607
1430949643.246,-3.1112041
1430949643.262,-2.4648523
1430949643.278,-0.76773167
1430949643.293,2.0933232
1430949643.309,5.803127
1430949643.325,9.834807
1430949643.34,13.765713
1430949643.356,17.426764
1430949643.371,20.895
1430949643.387,24.348917
1430949643.403,27.968155
1430949643.418,31.887196
1430949643.434,36.21202
1430949643.45,40.97458
1430949643.465,46.03469
1430949643.481,50.918037
1430949643.496,54.8084
1430949643.512,56.681236
1430949643.528,55.663677
1430949643.543,51.353634
1430949643.559,43.99622
1430949643.575,34.41365
1430949643.59,23.704723
1430949643.606,12.874333
1430949643.622,2.6819096
1430949643.637,-6.434696
1430949643.653,-14.22654
1430949643.668,-20.542603
1430949643.684,-25.329384
1430949643.7,-28.729988
1430949643.715,-31.066803
1430949643.731,-32.794388
1430949643.746,-34.271446
1430949643.762,-35.666836
1430949643.778,-36.901787
1430949643.793,-37.840492
1430949643.809,-38.439194
1430949643.825,-38.84289
1430949643.84,-39.290527
1430949643.856,-39.91999
1430949643.872,-40.64598
1430949643.887,-41.215893
1430949643.903,-41.333473
1430949643.918,-40.841656
1430949643.934,-39.73916
1430949643.95,-38.145348
1430949643.965,-36.164616
1430949643.981,-33.818924
1430949643.997,-31.059792
1430949644.012,-27.874905
1430949644.028,-24.269175
1430949644.043,-20.28843
1430949644.059,-15.952349
1430949644.075,-11.266029
1430949644.09,-6.20582
1430949644.106,-0.8560848
1430949644.122,4.5404797
1430949644.137,9.623703
1430949644.153,14.004419
1430949644.168,17.415047
1430949644.184,19.855852
1430949644.2,21.602516
1430949644.215,23.134481
1430949644.231,24.953365
1430949644.247,27.363451
1430949644.262,30.288168
1430949644.278,33.310387
1430949644.293,35.733334
1430949644.309,36.87854
1430949644.325,36.227936
1430949644.34,33.565956
1430949644.356,28.966059
1430949644.372,22.75501
1430949644.387,15.482389
1430949644.403,7.840599
1430949644.418,0.578249
1430949644.434,-5.588621
1430949644.45,-10.244053
1430949644.465,-13.297745
1430949644.481,-15.012434
1430949644.497,-15.789991
1430949644.512,-15.956396
1430949644.528,-15.609739
1430949644.543,-14.661177
1430949644.559,-12.990122
1430949644.575,-10.665928
1430949644.59,-8.006815
1430949644.606,-5.4857235
1430949644.622,-3.5049515
1430949644.637,-2.23633
1430949644.653,-1.5236969
1430949644.668,-1.0183792
1430949644.684,-0.32192802
1430949644.7,0.7916584
1430949644.715,2.3876305
1430949644.731,4.3866825
1430949644.747,6.7140503
1430949644.762,9.372244
1430949644.778,12.474106
1430949644.793,16.098179
1430949644.809,20.230854
1430949644.825,24.612963
1430949644.84,28.833097
1430949644.856,32.45472
1430949644.872,35.15925
1430949644.887,36.853416
1430949644.903,37.6894
1430949644.918,37.869225
1430949644.934,37.573845
1430949644.95,36.848534
1430949644.965,35.653133
1430949644.981,33.90128
1430949644.997,31.543186
1430949645.012,28.522854
1430949645.028,24.72771
1430949645.043,19.951149
1430949645.059,13.97002
1430949645.075,6.6833344
1430949645.09,-1.7709274
1430949645.106,-10.978851
1430949645.122,-20.330288
1430949645.137,-29.268093
1430949645.153,-37.417187
1430949645.168,-44.62914
1430949645.184,-50.865143
1430949645.2,-56.058258
1430949645.215,-60.00451
1430949645.231,-62.433983
1430949645.247,-63.134117
1430949645.262,-62.124374
1430949645.278,-59.650757
1430949645.293,-56.183117
1430949645.309,-52.20751
1430949645.325,-48.113804
1430949645.34,-44.08628
1430949645.356,-40.106426
1430949645.372,-36.05702
1430949645.387,-31.829498
1430949645.403,-27.39849
1430949645.418,-22.857666
1430949645.434,-18.37312
1430949645.45,-14.073486
1430949645.465,-10.029427
1430949645.481,-6.204834
1430949645.497,-2.4766808
1430949645.512,1.2766151
1430949645.528,5.1365204
1430949645.543,9.081268
1430949645.559,13.090763
1430949645.575,17.157928
1430949645.59,21.355343
1430949645.606,25.7607
1430949645.622,30.436188
1430949645.637,35.345192
1430949645.653,40.3405
1430949645.668,45.237934
1430949645.684,49.884773
1430949645.7,54.252403
1430949645.715,58.474735
1430949645.731,62.789555
1430949645.747,67.39116
1430949645.762,72.214096
1430949645.778,76.762375
1430949645.793,80.073654
1430949645.809,80.95685
1430949645.825,78.37047
1430949645.84,71.86182
1430949645.856,61.80343
1430949645.872,49.334503
1430949645.887,35.940147
1430949645.903,23.009666
1430949645.918,11.445248
1430949645.934,1.5640488
1430949645.95,-6.740818
1430949645.965,-13.741764
1430949645.981,-19.667202
1430949645.997,-24.63308
1430949646.012,-28.66249
1430949646.028,-31.770714
1430949646.043,-34.003372
1430949646.059,-35.391457
1430949646.075,-35.970665
1430949646.09,-35.760857
1430949646.106,-34.84601
1430949646.122,-33.357613
1430949646.137,-31.538551
1430949646.153,-29.678787
1430949646.168,-28.029137
1430949646.184,-26.763092
1430949646.2,-25.954308
1430949646.215,-25.518768
1430949646.231,-25.2845
1430949646.247,-24.997597
1430949646.262,-24.370209
1430949646.278,-23.093605
1430949646.293,-20.918892
1430949646.309,-17.668732
1430949646.325,-13.30719
1430949646.34,-8.00296
1430949646.356,-2.1386948
1430949646.372,3.775856
1430949646.387,9.243767
1430949646.403,13.8750305
1430949646.418,17.505142
1430949646.434,20.167679
1430949646.45,22.02008
1430949646.465,23.328705
1430949646.481,24.406235
1430949646.497,25.665817
1430949646.512,27.483162
1430949646.528,30.076653
1430949646.544,33.23796
1430949646.559,36.27809
1430949646.575,38.097916
1430949646.59,37.572983
1430949646.606,33.966873
1430949646.622,27.306488
1430949646.637,18.371338
1430949646.653,8.432602
1430949646.669,-1.1432343
1430949646.684,-9.291702
1430949646.7,-15.497986
1430949646.715,-19.776245
1430949646.731,-22.561752
1430949646.747,-24.437286
1430949646.762,-25.932022
1430949646.778,-27.342606
1430949646.794,-28.690552
1430949646.809,-29.798447
1430949646.825,-30.449448
1430949646.84,-30.52446
1430949646.856,-30.103653
1430949646.872,-29.410675
1430949646.887,-28.659805
1430949646.903,-27.986115
1430949646.919,-27.391113
1430949646.934,-26.792862
1430949646.95,-26.121216
1430949646.965,-25.343048
1430949646.981,-24.494522
1430949646.997,-23.617798
1430949647.012,-22.721771
1430949647.028,-21.736282
1430949647.044,-20.562927
1430949647.059,-19.071716
1430949647.075,-17.151123
1430949647.09,-14.745972
1430949647.106,-11.907944
1430949647.122,-8.731384
1430949647.137,-5.3787537
1430949647.153,-1.989563
1430949647.169,1.3565826
1430949647.184,4.6604767
1430949647.2,7.96196
1430949647.215,11.355103
1430949647.231,14.874756
1430949647.247,18.55925
1430949647.262,22.444382
1430949647.278,26.606873
1430949647.294,31.134567
1430949647.309,36.061646
1430949647.325,41.204727
1430949647.34,46.078964
1430949647.356,49.867508
1430949647.372,51.59256
1430949647.387,50.39499
1430949647.403,45.89972
1430949647.419,38.371063
1430949647.434,28.717865
1430949647.45,18.182129
1430949647.465,7.982483
1430949647.481,-1.0266266
1430949647.497,-8.433228
1430949647.512,-14.198944
1430949647.528,-18.449951
1430949647.544,-21.329178
1430949647.559,-22.948013
1430949647.575,-23.45546
1430949647.59,-23.0878
1430949647.606,-22.215027
1430949647.622,-21.24025
1430949647.637,-20.52095
1430949647.653,-20.268784
1430949647.669,-20.524979
1430949647.684,-21.15184
1430949647.7,-21.958542
1430949647.715,-22.714508
1430949647.731,-23.27208
1430949647.747,-23.562881
1430949647.762,-23.60205
1430949647.778,-23.448044
1430949647.794,-23.157013
1430949647.809,-22.735367
1430949647.825,-22.164413
1430949647.84,-21.376678
1430949647.856,-20.302353
1430949647.872,-18.881927
1430949647.887,-17.10881
1430949647.903,-15.014786
1430949647.919,-12.717392
1430949647.934,-10.363235
1430949647.95,-8.117905
1430949647.965,-6.082123
1430949647.981,-4.290497
1430949647.997,-2.64917
1430949648.012,-0.997345
1430949648.028,0.8625641
1430949648.044,3.115631
1430949648.059,5.9064636
1430949648.075,9.300278
1430949648.09,13.20546
1430949648.106,17.345398
1430949648.122,21.1828
1430949648.137,23.99292
1430949648.153,25.002686
1430949648.169,23.605026
1430949648.184,19.612534
1430949648.2,13.333023
1430949648.215,5.5895386
1430949648.231,-2.5486755
1430949648.247,-9.9795685
1430949648.262,-15.881119
1430949648.278,-19.839294
1430949648.294,-21.867966
1430949648.309,-22.265274
1430949648.325,-21.436066
1430949648.34,-19.72232
1430949648.356,-17.345413
1430949648.372,-14.441208
1430949648.387,-11.180405
1430949648.403,-7.79335
1430949648.419,-4.615204
1430949648.434,-1.9236908
1430949648.45,0.10585022
1430949648.465,1.5115662
1430949648.481,2.450348
1430949648.497,3.1898804
1430949648.512,3.8866425
1430949648.528,4.5974426
1430949648.544,5.1943817
1430949648.559,5.5029144
1430949648.575,5.417694
1430949648.59,4.9734955
1430949648.606,4.437088
1430949648.622,4.162323
1430949648.637,4.5135803
1430949648.653,5.664444
1430949648.669,7.530014
1430949648.684,9.831314
1430949648.7,12.146469
1430949648.715,14.205597
1430949648.731,15.898819
1430949648.747,17.35025
1430949648.762,18.745972
1430949648.778,20.293167
1430949648.794,22.077362
1430949648.809,24.118286
1430949648.825,26.43634
1430949648.84,29.043533
1430949648.856,31.925293
1430949648.872,34.859665
1430949648.887,37.32144
1430949648.903,38.488647
1430949648.919,37.44908
1430949648.934,33.469284
1430949648.95,26.317108
1430949648.965,16.368515
1430949648.981,4.5079193
1430949648.997,-8.065048
1430949649.012,-20.253754
1430949649.028,-31.229675
1430949649.044,-40.637497
1430949649.059,-48.40596
1430949649.075,-54.641907
1430949649.09,-59.413162
1430949649.106,-62.67314
1430949649.122,-64.35681
1430949649.137,-64.49971
1430949649.153,-63.3385
1430949649.169,-61.301224
1430949649.184,-58.860886
1430949649.2,-56.337265
1430949649.216,-53.741272
1430949649.231,-50.814606
1430949649.247,-47.210373
1430949649.262,-42.777267
1430949649.278,-37.635483
1430949649.294,-32.172592
1430949649.309,-26.856735
1430949649.325,-22.061035
1430949649.341,-17.886185
1430949649.356,-14.226517
1430949649.372,-10.844818
1430949649.387,-7.4788513
1430949649.403,-3.9470978
1430949649.419,-0.1695404
1430949649.434,3.8259125
1430949649.45,7.843979
1430949649.466,11.570297
1430949649.481,14.619217
1430949649.497,16.661392
1430949649.512,17.514008
1430949649.528,17.300217
1430949649.544,16.400818
1430949649.559,15.419632
1430949649.575,14.970047
1430949649.591,15.4900055
1430949649.606,17.04654
1430949649.622,19.298813
1430949649.637,21.5206
1430949649.653,22.855225
1430949649.669,22.59285
1430949649.684,20.429352
1430949649.7,16.56633
1430949649.716,11.603134
1430949649.731,6.3300323
1430949649.747,1.4548798
1430949649.762,-2.5457306
1430949649.778,-5.47406
1430949649.794,-7.346939
1430949649.809,-8.336914
1430949649.825,-8.726791
1430949649.841,-8.75956
1430949649.856,-8.657974
1430949649.872,-8.515572
1430949649.887,-8.354019
1430949649.903,-8.235985
1430949649.919,-8.392921
1430949649.934,-9.082497
1430949649.95,-10.499596
1430949649.966,-12.550644
1430949649.981,-14.759911
1430949649.997,-16.481682
1430949650.012,-17.122543
1430949650.028,-16.392776
1430949650.044,-14.381271
1430949650.059,-11.322159
1430949650.075,-7.364746
1430949650.091,-2.473854
1430949650.106,3.5055084
1430949650.122,10.645363
1430949650.137,18.733017
1430949650.153,27.289001
1430949650.169,35.646217
1430949650.184,43.132744
1430949650.2,49.147896
1430949650.216,53.262894
1430949650.231,55.21672
1430949650.247,55.085915
1430949650.262,53.35781
1430949650.278,50.91279
1430949650.294,48.87197
1430949650.309,48.181183
1430949650.325,49.23185
1430949650.341,51.67726
1430949650.356,54.537315
1430949650.372,56.543625
1430949650.387,56.58259
1430949650.403,54.03698
1430949650.419,48.86068
1430949650.434,41.49669
1430949650.45,32.58307
1430949650.466,22.729752
1430949650.481,12.425171
1430949650.497,2.048378
1430949650.512,-8.033943
1430949650.528,-17.37954
1430949650.544,-25.5167
1430949650.559,-32.027405
1430949650.575,-36.666115
1430949650.591,-39.42566
1430949650.606,-40.535072
1430949650.622,-40.363052
1430949650.637,-39.33587
1430949650.653,-37.79609
1430949650.669,-35.930664
1430949650.684,-33.755363
1430949650.7,-31.165672
1430949650.716,-28.026314
1430949650.731,-24.328835
1430949650.747,-20.209793
1430949650.762,-15.952522
1430949650.778,-11.926262
1430949650.794,-8.451073
1430949650.809,-5.712509
1430949650.825,-3.699379
1430949650.841,-2.2804184
1430949650.856,-1.2418213
1430949650.872,-0.44177246
1430949650.887,0.21995544
1430949650.903,0.8634567
1430949650.919,1.7171249
1430949650.934,3.2084732
1430949650.95,5.7837753
1430949650.966,9.717407
1430949650.981,14.898521
1430949650.997,20.829788
1430949651.012,26.77481
1430949651.028,32.111794
1430949651.044,36.49318
1430949651.059,39.83126
1430949651.075,41.98236
1430949651.091,42.561607
1430949651.106,40.97254
1430949651.122,36.75924
1430949651.137,30.029564
1430949651.153,21.600197
1430949651.169,12.783775
1430949651.184,4.8007507
1430949651.2,-1.7152023
1430949651.216,-6.831711
1430949651.231,-11.037628
1430949651.247,-14.701813
1430949651.262,-17.800827
1430949651.278,-19.930649
1430949651.294,-20.637352
1430949651.309,-19.77726
1430949651.325,-17.736496
1430949651.341,-15.214111
1430949651.356,-12.925545
1430949651.372,-11.309227
1430949651.387,-10.467941
1430949651.403,-10.212631
1430949651.419,-10.361755
1430949651.434,-10.79908
1430949651.45,-11.496628
1430949651.466,-12.4599
1430949651.481,-13.566513
1430949651.497,-14.525444
1430949651.512,-14.903046
1430949651.528,-14.257721
1430949651.544,-12.3177185
1430949651.559,-9.105881
1430949651.575,-4.9371185
1430949651.591,-0.29257965
1430949651.606,4.3429337
1430949651.622,8.694
1430949651.637,12.711227
1430949651.653,16.564018
1430949651.669,20.52369
1430949651.684,24.942673
1430949651.7,30.113579
1430949651.716,36.148186
1430949651.731,42.853683
1430949651.747,49.63749
1430949651.762,55.504463
1430949651.778,59.253998
1430949651.794,59.82245
1430949651.809,56.686897
1430949651.825,50.026657
1430949651.841,40.78543
1430949651.856,30.279068
1430949651.872,19.783478
1430949651.888,10.086624
1430949651.903,1.4195862
1430949651.919,-6.4205475
1430949651.934,-13.687683
1430949651.95,-20.437225
1430949651.966,-26.393906
1430949651.981,-31.075516
1430949651.997,-34.13095
1430949652.013,-35.574463
1430949652.028,-35.87935
1430949652.044,-35.779022
1430949652.059,-35.912003
1430949652.075,-36.54715
1430949652.091,-37.477936
1430949652.106,-38.213974
1430949652.122,-38.24698
1430949652.138,-37.344635
1430949652.153,-35.560135
1430949652.169,-33.19481
1430949652.184,-30.561783
1430949652.2,-27.835632
1430949652.216,-25.0141
1430949652.231,-21.971695
1430949652.247,-18.554901
1430949652.263,-14.631485
1430949652.278,-10.129181
1430949652.294,-5.0986176
1430949652.309,0.2942047
1430949652.325,5.7103424
1430949652.341,10.776581
1430949652.356,15.178024
1430949652.372,18.855286
1430949652.388,21.981934
1430949652.403,24.93216
1430949652.419,28.117538
1430949652.434,31.873108
1430949652.45,36.378143
1430949652.466,41.668365
1430949652.481,47.59192
1430949652.497,53.74185
1430949652.513,59.37256
1430949652.528,63.44571
1430949652.544,64.81488
1430949652.559,62.645264
1430949652.575,56.760773
1430949652.591,47.823303
1430949652.606,37.103455
1430949652.622,26.058426
1430949652.638,15.847153
1430949652.653,7.076187
1430949652.669,-0.22384644
1430949652.684,-6.339813
1430949652.7,-11.618851
1430949652.716,-16.275787
1430949652.731,-20.335144
1430949652.747,-23.64537
1430949652.763,-26.064713
1430949652.778,-27.514542
1430949652.794,-28.09253
1430949652.809,-27.942444
1430949652.825,-27.254044
1430949652.841,-26.089325
1430949652.856,-24.513794
1430949652.872,-22.684174
1430949652.888,-21.015442
1430949652.903,-20.109482
1430949652.919,-20.524399
1430949652.934,-22.481064
1430949652.95,-25.649765
1430949652.966,-29.279663
1430949652.981,-32.494995
1430949652.997,-34.690506
1430949653.013,-35.723633
1430949653.028,-35.816452
1430949653.044,-35.28134
1430949653.059,-34.293365
1430949653.075,-32.878815
1430949653.091,-30.98648
1430949653.106,-28.702377
1430949653.122,-26.203964
1430949653.138,-23.685364
1430949653.153,-21.179993
1430949653.169,-18.62378
1430949653.184,-15.895523
1430949653.2,-12.985321
1430949653.216,-10.063629
1430949653.231,-7.3311462
1430949653.247,-4.845825
1430949653.263,-2.3933105
1430949653.278,0.5154724
1430949653.294,4.372101
1430949653.309,9.3932495
1430949653.325,15.230499
1430949653.341,20.993988
1430949653.356,25.45102
1430949653.372,27.425842
1430949653.388,26.165436
1430949653.403,21.579468
1430949653.419,14.186218
1430949653.434,4.9381866
1430949653.45,-5.076538
1430949653.466,-14.896927
1430949653.481,-23.810333
1430949653.497,-31.409164
1430949653.513,-37.53009
1430949653.528,-42.15416
1430949653.544,-45.343414
1430949653.559,-47.13173
1430949653.575,-47.544052
1430949653.591,-46.6604
1430949653.606,-44.79541
1430949653.622,-42.426193
1430949653.638,-40.049454
1430949653.653,-37.90277
1430949653.669,-35.80858
1430949653.684,-33.282013
1430949653.7,-29.787994
1430949653.716,-25.11586
1430949653.731,-19.606308
1430949653.747,-14.047913
1430949653.763,-9.30928
1430949653.778,-5.9002533
1430949653.794,-3.7816467
1430949653.809,-2.3827667
1430949653.825,-1.070282
1430949653.841,0.5666504
1430949653.856,2.5887756
1430949653.872,4.807541
1430949653.888,7.0076904
1430949653.903,9.034988
1430949653.919,10.823273
1430949653.934,12.341827
1430949653.95,13.611069
1430949653.966,14.680115
1430949653.981,15.675354
1430949653.997,16.722107
1430949654.013,17.885498
1430949654.028,19.193497
1430949654.044,20.652008
1430949654.059,22.320923
1430949654.075,24.341171
1430949654.091,26.99321
1430949654.106,30.499573
1430949654.122,35.027725
1430949654.138,40.576126
1430949654.153,46.91484
1430949654.169,53.551178
1430949654.184,59.720062
1430949654.2,64.30832
1430949654.216,66.03598
1430949654.231,63.91432
1430949654.247,57.61104
1430949654.263,47.77838
1430949654.278,35.811234
1430949654.294,23.23207
1430949654.309,11.175781
1430949654.325,0.08418274
1430949654.341,-10.0277405
1430949654.356,-19.114365
1430949654.372,-26.727966
1430949654.388,-32.175888
1430949654.403,-34.899704
1430949654.419,-34.97029
1430949654.434,-33.127014
1430949654.45,-30.496506
1430949654.466,-28.1595
1430949654.481,-26.753113
1430949654.497,-26.346344
1430949654.513,-26.668701
1430949654.528,-27.389694
1430949654.544,-28.214966
1430949654.56,-28.891571
1430949654.575,-29.188736
1430949654.591,-28.80008
1430949654.606,-27.592804
1430949654.622,-25.639404
1430949654.638,-23.268478
1430949654.653,-20.950409
1430949654.669,-19.06665
1430949654.684,-17.698563
1430949654.7,-16.734116
1430949654.716,-15.967117
1430949654.731,-15.129044
1430949654.747,-14.01767
1430949654.763,-12.392853
1430949654.778,-9.940613
1430949654.794,-6.40036
1430949654.81,-1.7692108
1430949654.825,3.6179657
1430949654.841,9.115356
1430949654.856,13.903717
1430949654.872,17.547638
1430949654.888,20.06221
1430949654.903,22.003387
1430949654.919,24.145218
1430949654.935,27.12851
1430949654.95,31.220383
1430949654.966,36.27722
1430949654.981,41.77954
1430949654.997,47.033646
1430949655.013,51.35811
1430949655.028,54.12285
1430949655.044,54.857407
1430949655.06,53.27983
1430949655.075,49.407806
1430949655.091,43.48207
1430949655.106,35.991608
1430949655.122,27.565628
1430949655.138,18.84378
1430949655.153,10.441254
1430949655.169,2.8010101
1430949655.185,-3.7446594
1430949655.2,-9.041611
1430949655.216,-13.022247
1430949655.231,-15.699051
1430949655.247,-17.183502
1430949655.263,-17.734467
1430949655.278,-17.748932
1430949655.294,-17.683868
1430949655.31,-17.862793
1430949655.325,-18.338272
1430949655.341,-18.866043
1430949655.356,-19.105995
1430949655.372,-18.753357
1430949655.388,-17.645004
1430949655.403,-15.749283
1430949655.419,-13.099625
1430949655.435,-9.809128
1430949655.45,-6.1617126
1430949655.466,-2.6116028
1430949655.481,0.3730011
1430949655.497,2.5203476
1430949655.513,3.881012
1430949655.528,4.7807465
1430949655.544,5.5675507
1430949655.56,6.391098
1430949655.575,7.1742706
1430949655.591,7.723068
1430949655.606,7.9076843
1430949655.622,7.737076
1430949655.638,7.3720245
1430949655.653,7.1351166
1430949655.669,7.4293213
1430949655.685,8.708817
1430949655.7,11.297394
1430949655.716,15.206787
1430949655.731,19.850616
1430949655.747,24.087646
1430949655.763,26.58754
1430949655.778,26.347458
1430949655.794,23.14299
1430949655.81,17.68303
1430949655.825,11.143753
1430949655.841,4.648407
1430949655.856,-1.1778107
1430949655.872,-6.252823
1430949655.888,-10.851273
1430949655.903,-15.189362
1430949655.919,-19.26648
1430949655.935,-22.82492
1430949655.95,-25.467377
1430949655.966,-26.87642
1430949655.981,-27.00148
1430949655.997,-26.155975
1430949656.013,-24.940521
1430949656.028,-24.001022
1430949656.044,-23.753113
1430949656.06,-24.22194
1430949656.075,-25.00383
1430949656.091,-25.477295
1430949656.106,-25.093658
1430949656.122,-23.615555
1430949656.138,-21.237015
1430949656.153,-18.514511
1430949656.169,-16.057907
1430949656.185,-14.290268
1430949656.2,-13.35054
1430949656.216,-13.06472
1430949656.231,-12.993393
1430949656.247,-12.606209
1430949656.263,-11.456848
1430949656.278,-9.404236
1430949656.294,-6.700363
1430949656.31,-3.7841568
1430949656.325,-1.0977249
1430949656.341,1.1840363
1430949656.356,3.2469406
1430949656.372,5.657158
1430949656.388,9.115631
1430949656.403,14.188347
1430949656.419,21.021538
1430949656.435,29.285736
1430949656.45,38.299347
1430949656.466,47.247726
1430949656.481,55.192375
1430949656.497,61.070885
1430949656.513,63.909264
1430949656.528,63.012444
1430949656.544,58.12171
1430949656.56,49.438118
1430949656.575,37.729034
1430949656.591,24.210052
1430949656.606,10.4066925
1430949656.622,-2.4049454
1430949656.638,-13.857933
1430949656.653,-23.98317
1430949656.669,-33.07699
1430949656.685,-41.310516
1430949656.7,-48.88376
1430949656.716,-55.837082
1430949656.731,-61.896324
1430949656.747,-66.25203
1430949656.763,-68.28275
1430949656.778,-68.59575
1430949656.794,-68.02688
1430949656.81,-67.51915
1430949656.825,-67.718185
1430949656.841,-69.15855
1430949656.856,-72.0061
1430949656.872,-75.78162
1430949656.888,-79.0299
1430949656.903,-80.55793
1430949656.919,-81.12466
1430949656.935,-81.614395
1430949656.95,-82.81458
1430949656.966,-84.59817
1430949656.981,-86.53325
1430949656.997,-87.64888
1430949657.013,-86.48458
1430949657.028,-80.767426
1430949657.044,-68.91023
1430949657.06,-51.947468
1430949657.075,-31.013409
1430949657.091,-7.1258736
1430949657.106,19.461658
1430949657.122,48.312157
1430949657.138,77.58069
1430949657.153,100.0015
1430949657.169,111.0511
1430949657.185,118.920784
1430949657.2,127.09098
1430949657.216,136.93976
1430949657.232,144.35452
1430949657.247,147.73526
1430949657.263,146.15804
1430949657.278,139.43103
1430949657.294,128.2521
1430949657.31,114.72671
1430949657.325,100.87785
1430949657.341,86.67715
1430949657.356,72.174194
1430949657.372,57.453323
1430949657.388,43.18523
1430949657.403,29.706005
1430949657.419,17.338636
1430949657.435,6.6646175
1430949657.45,-1.1038933
1430949657.466,-5.2737274
1430949657.482,-7.2349052
1430949657.497,-8.4853115
1430949657.513,-10.26828
1430949657.528,-12.819973
1430949657.544,-16.064953
1430949657.56,-19.580645
1430949657.575,-22.760597
1430949657.591,-24.86005
1430949657.607,-25.674591
1430949657.622,-26.179363
1430949657.638,-27.07162
1430949657.653,-28.47551
1430949657.669,-29.780407
1430949657.685,-30.483269
1430949657.7,-30.391777
1430949657.716,-29.672642
1430949657.732,-28.511433
1430949657.747,-27.06189
1430949657.763,-25.650406
1430949657.778,-24.143658
1430949657.794,-22.044174
1430949657.81,-18.707027
1430949657.825,-13.893238
1430949657.841,-7.901043
1430949657.857,-1.3767433
1430949657.872,5.0553894
1430949657.888,10.95232
1430949657.903,15.9951515
1430949657.919,20.16241
1430949657.935,23.636963
1430949657.95,26.739166
1430949657.966,29.869858
1430949657.982,33.410904
1430949657.997,37.60531
1430949658.013,42.18325
1430949658.028,46.164467
1430949658.044,47.96535
1430949658.06,46.049614
1430949658.075,39.821377
1430949658.091,29.98053
1430949658.107,18.388618
1430949658.122,7.187565
1430949658.138,-2.2839088
1430949658.153,-9.792156
1430949658.169,-16.003275
1430949658.185,-21.61874
1430949658.2,-26.697636
1430949658.216,-30.607285
1430949658.232,-32.565926
1430949658.247,-32.25615
1430949658.263,-30.180458
1430949658.278,-27.504086
1430949658.294,-25.330868
1430949658.31,-24.163754
1430949658.325,-23.772076
1430949658.341,-23.577263
1430949658.357,-23.108196
1430949658.372,-22.273815
1430949658.388,-21.226696
1430949658.403,-20.156078
1430949658.419,-19.09787
1430949658.435,-17.931545
1430949658.45,-16.519909
1430949658.466,-14.798153
1430949658.482,-12.777676
1430949658.497,-10.4432335
1430949658.513,-7.799366
1430949658.528,-4.7787743
1430949658.544,-1.3612328
1430949658.56,2.3428879
1430949658.575,6.169815
1430949658.591,9.932911
1430949658.607,13.502354
1430949658.622,16.906239
1430949658.638,20.275238
1430949658.653,23.833252
1430949658.669,27.759888
1430949658.685,32.22152
1430949658.7,37.28581
1430949658.716,42.825542
1430949658.732,48.41075
1430949658.747,53.327213
1430949658.763,56.750576
1430949658.778,57.91384
1430949658.794,56.265903
1430949658.81,51.643276
1430949658.825,44.335358
1430949658.841,35.098648
1430949658.857,25.1291
1430949658.872,15.839199
1430949658.888,8.383093
1430949658.903,3.4060326
1430949658.919,0.8134804
1430949658.935,-0.17720985
1430949658.95,-0.73526
1430949658.966,-1.9807014
1430949658.982,-4.588997
1430949658.997,-8.515753
1430949659.013,-12.993458
1430949659.028,-16.880686
1430949659.044,-19.204123
1430949659.06,-19.618301
1430949659.075,-18.683409
1430949659.091,-17.546614
1430949659.107,-17.40172
1430949659.122,-18.808275
1430949659.138,-21.355919
1430949659.153,-23.939066
1430949659.169,-25.625504
1430949659.185,-26.21727
1430949659.2,-26.463688
1430949659.216,-27.474035
1430949659.232,-29.790577
1430949659.247,-32.83059
1430949659.263,-35.09933
1430949659.278,-35.018253
1430949659.294,-31.928707
1430949659.31,-26.399292
1430949659.325,-19.928776
1430949659.341,-14.053744
1430949659.357,-9.550415
1430949659.372,-6.1342463
1430949659.388,-2.8416634
1430949659.403,1.3435745
1430949659.419,7.0092278
1430949659.435,14.12479
1430949659.45,22.210835
1430949659.466,30.659954
1430949659.482,38.837826
1430949659.497,46.06485
1430949659.513,51.624542
1430949659.528,54.819447
1430949659.544,55.093815
1430949659.56,52.28845
1430949659.575,46.66378
1430949659.591,38.816196
1430949659.607,29.506508
1430949659.622,19.553745
1430949659.638,9.754875
1430949659.653,0.88268423
1430949659.669,-6.4537797
1430949659.685,-11.9624195
1430949659.7,-15.769367
1430949659.716,-18.31728
1430949659.732,-20.166397
1430949659.747,-21.66523
1430949659.763,-22.795074
1430949659.778,-23.388096
1430949659.794,-23.405437
1430949659.81,-23.07948
1430949659.825,-22.91256
1430949659.841,-23.359898
1430949659.857,-24.572319
1430949659.872,-26.272226
1430949659.888,-27.878458
1430949659.903,-28.866385
1430949659.919,-29.038658
1430949659.935,-28.619884
1430949659.95,-28.081974
1430949659.966,-27.805773
1430949659.982,-27.783318
1430949659.997,-27.584757
1430949660.013,-26.640108
1430949660.028,-24.542364
1430949660.044,-21.230429
1430949660.06,-16.956158
1430949660.075,-11.998266
1430949660.091,-6.509266
1430949660.107,-0.5872097
1430949660.122,5.5727863
1430949660.138,11.529039
1430949660.154,16.699434
1430949660.169,20.63485
1430949660.185,23.468292
1430949660.2,25.845322
1430949660.216,28.813286
1430949660.232,33.218292
1430949660.247,39.191387
1430949660.263,46.200233
1430949660.279,53.04992
1430949660.294,58.3347
1430949660.31,60.735485
1430949660.325,59.267582
1430949660.341,53.43247
1430949660.357,43.44137
1430949660.372,30.315119
1430949660.388,15.772074
1430949660.404,1.8391647
1430949660.419,-9.768139
1430949660.435,-18.144257
1430949660.45,-23.375607
1430949660.466,-26.346514
1430949660.482,-28.208935
1430949660.497,-29.843582
1430949660.513,-31.518713
1430949660.529,-32.960346
1430949660.544,-33.738037
1430949660.56,-33.656467
1430949660.575,-32.97743
1430949660.591,-32.26664
1430949660.607,-31.996922
1430949660.622,-32.223198
1430949660.638,-32.377983
1430949660.654,-31.631666
1430949660.669,-29.452148
1430949660.685,-25.859608
1430949660.7,-21.623043
1430949660.716,-17.820473
1430949660.732,-15.399197
1430949660.747,-14.687511
1430949660.763,-15.187948
1430949660.779,-15.805677
1430949660.794,-15.290314
1430949660.81,-12.741394
1430949660.825,-7.945343
1430949660.841,-1.4617004
1430949660.857,5.630127
1430949660.872,12.265049
1430949660.888,17.8615
1430949660.904,22.606323
1430949660.919,27.27642
1430949660.935,32.767666
1430949660.95,39.489418
1430949660.966,47.137848
1430949660.982,54.768826
1430949660.997,61.314552
1430949661.013,66.20679
1430949661.029,69.665535
1430949661.044,72.572754
1430949661.06,76.148285
1430949661.075,81.45929
1430949661.091,89.136536
1430949661.107,99.25444
1430949661.122,111.33354
1430949661.138,124.23294
1430949661.154,136.15872
1430949661.169,144.67867
1430949661.185,147.0976
1430949661.2,141.15256
1430949661.216,126.01992
1430949661.232,102.962234
1430949661.247,75.42867
1430949661.263,48.236984
1430949661.279,26.009514
1430949661.294,11.672371
1430949661.31,5.574005
1430949661.325,5.696533
1430949661.341,8.848801
1430949661.357,11.812103
1430949661.372,12.175247
1430949661.388,8.478378
1430949661.404,0.008224487
1430949661.419,-13.324646
1430949661.435,-30.844177
1430949661.45,-50.959366
1430949661.466,-71.18742
1430949661.482,-88.95216
1430949661.497,-102.50723
1430949661.513,-111.7155
1430949661.529,-118.03285
1430949661.544,-123.70441
1430949661.56,-130.6582
1430949661.575,-139.68079
1430949661.591,-150.28088
1430949661.607,-161.1275
1430949661.622,-170.5871
1430949661.638,-177.34927
1430949661.654,-180.6909
1430949661.669,-180.58998
1430949661.685,-177.67487
1430949661.7,-172.9135
1430949661.716,-167.16318
1430949661.732,-160.839
1430949661.747,-153.689
1430949661.763,-144.98334
1430949661.779,-133.97765
1430949661.794,-120.36226
1430949661.81,-104.48758
1430949661.825,-87.20897
1430949661.841,-69.43233
1430949661.857,-51.75644
1430949661.872,-34.410187
1430949661.888,-17.514572
1430949661.904,-1.3926849
1430949661.919,13.399277
1430949661.935,26.34993
1430949661.95,37.403473
1430949661.966,47.25499
1430949661.982,57.01703
1430949661.997,67.74461
1430949662.013,79.62529
1430949662.029,91.678314
1430949662.044,101.92554
1430949662.06,108.19414
1430949662.075,109.081955
1430949662.091,104.67145
1430949662.107,96.56607
1430949662.122,87.249084
1430949662.138,79.15402
1430949662.154,73.71594
1430949662.169,70.93901
1430949662.185,69.510574
1430949662.2,67.4718
1430949662.216,63.013763
1430949662.232,55.18599
1430949662.247,44.09556
1430949662.263,30.680298
1430949662.279,16.22261
1430949662.294,1.8607483
1430949662.31,-11.582329
1430949662.325,-23.407715
1430949662.341,-32.99288
1430949662.357,-39.974007
1430949662.372,-44.56331
1430949662.388,-47.754333
1430949662.404,-50.9942
1430949662.419,-55.405968
1430949662.435,-61.071915
1430949662.45,-66.93706
1430949662.466,-71.305
1430949662.482,-72.86886
1430949662.497,-71.42831
1430949662.513,-67.953094
1430949662.529,-63.85878
1430949662.544,-60.159016
1430949662.56,-56.983387
1430949662.575,-53.76293
1430949662.591,-49.866253
1430949662.607,-45.1232
1430949662.622,-39.881737
1430949662.638,-34.61363
1430949662.654,-29.48193
1430949662.669,-24.206923
1430949662.685,-18.46525
1430949662.7,-12.218241
1430949662.716,-5.872499
1430949662.732,-0.039652705
1430949662.747,4.8228493
1430949662.763,8.721659
1430949662.779,12.217288
1430949662.794,16.089478
1430949662.81,20.95311
1430949662.826,26.914877
1430949662.841,33.529667
1430949662.857,39.975952
1430949662.872,45.289696
1430949662.888,48.629066
1430949662.904,49.448555
1430949662.919,47.51184
1430949662.935,42.907658
1430949662.951,35.997093
1430949662.966,27.420006
1430949662.982,18.020882
1430949662.997,8.791809
1430949663.013,0.749176
1430949663.029,-5.1764297
1430949663.044,-8.33429
1430949663.06,-8.450569
1430949663.076,-5.6837387
1430949663.091,-0.4976883
1430949663.107,6.4663086
1430949663.122,14.6330185
1430949663.138,23.483917
1430949663.154,32.396927
1430949663.169,40.4738
1430949663.185,46.601883
1430949663.201,49.735382
1430949663.216,49.419388
1430949663.232,46.080948
1430949663.247,40.937866
1430949663.263,35.461487
1430949663.279,30.760712
1430949663.294,27.192398
1430949663.31,24.54004
1430949663.326,22.43074
1430949663.341,20.77591
1430949663.357,19.869934
1430949663.372,20.17923
1430949663.388,21.920334
1430949663.404,24.904236
1430949663.419,28.578796
1430949663.435,32.273514
1430949663.451,35.532837
1430949663.466,38.266052
1430949663.482,40.68251
1430949663.497,43.095535
1430949663.513,45.683823
1430949663.529,48.349167
1430949663.544,50.82425
1430949663.56,52.8647
1430949663.576,54.50122
1430949663.591,56.0446
1430949663.607,57.834473
1430949663.622,59.859756
1430949663.638,61.41382
1430949663.654,61.19577
1430949663.669,57.774887
1430949663.685,50.3219
1430949663.701,39.09375
1430949663.716,25.425201
1430949663.732,11.157013
1430949663.747,-2.075943
1430949663.763,-13.362503
1430949663.779,-22.490662
1430949663.794,-29.524933
1430949663.81,-34.384476
1430949663.826,-36.676514
1430949663.841,-35.8714
1430949663.857,-31.757645
1430949663.872,-24.794113
1430949663.888,-16.09822
1430949663.904,-7.2552185
1430949663.919,0.14303589
1430949663.935,4.9259796
1430949663.951,6.4551086
1430949663.966,4.6794586
1430949663.982,0.01927185
1430949663.997,-6.768219
1430949664.013,-14.695206
1430949664.029,-22.679977
1430949664.044,-29.769073
1430949664.06,-35.326324
1430949664.076,-39.07463
1430949664.091,-41.088364
1430949664.107,-41.576996
1430949664.122,-40.65178
1430949664.138,-38.325165
1430949664.154,-34.621414
1430949664.169,-29.742004
1430949664.185,-24.125015
1430949664.201,-18.344559
1430949664.216,-12.763275
1430949664.232,-7.5125504
1430949664.247,-2.4655304
1430949664.263,2.6233597
1430949664.279,7.930832
1430949664.294,13.623871
1430949664.31,19.926277
1430949664.326,27.006615
1430949664.341,34.854424
1430949664.357,43.019325
1430949664.372,50.455063
1430949664.388,55.803482
1430949664.404,57.829224
1430949664.419,55.86965
1430949664.435,50.11641
1430949664.451,41.412056
1430949664.466,30.899063
1430949664.482,19.645065
1430949664.497,8.581917
1430949664.513,-1.3939209
1430949664.529,-9.260094
1430949664.544,-14.062546
1430949664.56,-15.316254
1430949664.576,-13.271896
1430949664.591,-9.0578
1430949664.607,-4.3049545
1430949664.622,-0.4729004
1430949664.638,1.666214
1430949664.654,2.1619797
1430949664.669,1.5304871
1430949664.685,0.2815094
1430949664.701,-1.496788
1430949664.716,-4.04126
1430949664.732,-7.6536713
1430949664.747,-12.362839
1430949664.763,-17.683945
1430949664.779,-22.892197
1430949664.794,-27.34056
1430949664.81,-30.712204
1430949664.826,-33.062332
1430949664.841,-34.577103
1430949664.857,-35.274857
1430949664.872,-34.881516
1430949664.888,-32.925858
1430949664.904,-28.99559
1430949664.919,-23.040192
1430949664.935,-15.468452
1430949664.951,-7.069969
1430949664.966,1.2391357
1430949664.982,8.688313
1430949664.997,14.84428
1430949665.013,19.626766
1430949665.029,23.21135
1430949665.044,25.908756
1430949665.06,28.051418
1430949665.076,29.990543
1430949665.091,32.0992
1430949665.107,34.72287
1430949665.122,38.038494
1430949665.138,41.90806
1430949665.154,45.78207
1430949665.169,48.754482
1430949665.185,49.861076
1430949665.201,48.32406
1430949665.216,43.95267
1430949665.232,37.136547
1430949665.247,28.782394
1430949665.263,19.983404
1430949665.279,11.749645
1430949665.294,4.7220783
1430949665.31,-0.8777046
1430949665.326,-5.1669827
1430949665.341,-8.447649
1430949665.357,-10.996153
1430949665.372,-12.957893
1430949665.388,-14.264062
1430949665.404,-14.802401
1430949665.419,-14.48534
1430949665.435,-13.333921
1430949665.451,-11.5707445
1430949665.466,-9.591306
1430949665.482,-7.880716
1430949665.498,-6.77067
1430949665.513,-6.3652134
1430949665.529,-6.521409
1430949665.544,-7.1109505
1430949665.56,-8.168831
1430949665.576,-9.896463
1430949665.591,-12.529514
1430949665.607,-16.201475
1430949665.622,-20.741678
1430949665.638,-25.692888
1430949665.654,-30.445124
1430949665.669,-34.463947
1430949665.685,-37.611225
1430949665.701,-40.077503
1430949665.716,-42.00203
1430949665.732,-43.286335
1430949665.748,-43.66928
1430949665.763,-42.83642
1430949665.779,-40.79071
1430949665.794,-37.87439
1430949665.81,-34.715424
1430949665.826,-32.374794
1430949665.841,-31.65393
1430949665.857,-32.35648
1430949665.873,-33.171257
1430949665.888,-32.408146
1430949665.904,-28.601372
1430949665.919,-21.557655
1430949665.935,-12.218121
1430949665.951,-2.3798714
1430949665.966,5.240879
1430949665.982,8.303677
1430949665.998,6.575081
1430949666.013,1.9156532
1430949666.029,-3.0498924
1430949666.044,-5.8046684
1430949666.06,-5.478344
1430949666.076,-2.1268692
1430949666.091,3.6894112
1430949666.107,10.214363
1430949666.123,15.642754
1430949666.138,19.91219
1430949666.154,24.397865
1430949666.169,30.232517
1430949666.185,37.97863
1430949666.201,46.28562
1430949666.216,53.65055
1430949666.232,58.799465
1430949666.248,59.213104
1430949666.263,51.961384
1430949666.279,35.997417
1430949666.294,12.331375
1430949666.31,-17.363668
1430949666.326,-50.618004
1430949666.341,-85.987045
1430949666.357,-121.67201
1430949666.373,-146.44418
1430949666.388,-150.64456
1430949666.404,-136.5029
1430949666.419,-115.47424
1430949666.435,-96.659584
1430949666.451,-87.437004
1430949666.466,-82.40807
1430949666.482,-77.98678
1430949666.498,-72.67467
1430949666.513,-66.73781
1430949666.529,-59.51403
1430949666.544,-52.941612
1430949666.56,-47.523155
1430949666.576,-42.150566
1430949666.591,-35.615326
1430949666.607,-26.786959
1430949666.623,-16.364868
1430949666.638,-5.019001
1430949666.654,6.7992554
1430949666.669,17.45524
1430949666.685,24.47514
1430949666.701,26.717587
1430949666.716,24.627625
1430949666.732,19.085785
1430949666.748,11.517654
1430949666.763,2.3580399
1430949666.779,-7.7187424
1430949666.794,-17.813934
1430949666.81,-27.678078
1430949666.826,-37.502335
1430949666.841,-46.508163
1430949666.857,-53.102226
1430949666.873,-55.919052
1430949666.888,-54.149506
1430949666.904,-48.40307
1430949666.919,-39.74231
1430949666.935,-29.219833
1430949666.951,-18.108871
1430949666.966,-7.597824
1430949666.982,1.9185181
1430949666.998,10.895111
1430949667.013,20.0858
1430949667.029,30.0849
1430949667.044,40.71367
1430949667.06,51.319824
1430949667.076,60.785095
1430949667.091,67.82875
1430949667.107,71.53265
1430949667.123,72.08328
1430949667.138,70.732666
1430949667.154,69.20497
1430949667.169,68.888855
1430949667.185,70.19687
1430949667.201,72.58415
1430949667.216,75.09892
1430949667.232,77.01663
1430949667.248,78.24016
1430949667.263,79.27258
1430949667.279,80.78349
1430949667.294,83.04028
1430949667.31,85.76991
1430949667.326,88.324936
1430949667.341,90.18851
1430949667.357,91.24042
1430949667.373,91.78717
1430949667.388,92.231674
1430949667.404,92.78357
1430949667.419,93.33685
1430949667.435,93.609634
1430949667.451,93.374084
1430949667.466,92.59796
1430949667.482,91.314255
1430949667.498,89.45032
1430949667.513,86.63309
1430949667.529,82.23218
1430949667.544,75.58359
1430949667.56,66.34454
1430949667.576,54.659912
1430949667.591,41.234512
1430949667.607,27.083893
1430949667.623,13.34053
1430949667.638,0.8979492
1430949667.654,-9.70314
1430949667.669,-18.35254
1430949667.685,-25.277008
1430949667.701,-30.889145
1430949667.716,-35.612885
1430949667.732,-39.710983
1430949667.748,-43.200684
1430949667.763,-45.891922
1430949667.779,-47.433334
1430949667.794,-47.54933
1430949667.81,-46.143204
1430949667.826,-43.416016
1430949667.841,-39.785492
1430949667.857,-35.808456
1430949667.873,-31.955261
1430949667.888,-28.55156
1430949667.904,-25.693161
1430949667.919,-23.28621
1430949667.935,-21.143112
1430949667.951,-19.025513
1430949667.966,-16.73172
1430949667.982,-14.130859
1430949667.998,-11.245895
1430949668.013,-8.4086
1430949668.029,-6.203064
1430949668.044,-5.3364716
1430949668.06,-6.2440643
1430949668.076,-8.765137
1430949668.091,-11.978043
1430949668.107,-14.5364685
1430949668.123,-15.165382
1430949668.138,-13.331474
1430949668.154,-9.427292
1430949668.17,-4.626053
1430949668.185,-0.25193787
1430949668.201,2.7674866
1430949668.216,4.2407
1430949668.232,4.668068
1430949668.248,4.9482956
1430949668.263,5.957222
1430949668.279,8.261162
1430949668.294,12.003441
1430949668.31,16.825974
1430949668.326,21.941994
1430949668.341,26.257889
1430949668.357,28.53994
1430949668.373,27.825264
1430949668.388,23.667488
1430949668.404,16.377655
1430949668.42,6.95282
1430949668.435,-3.2541428
1430949668.451,-12.953751
1430949668.466,-21.30452
1430949668.482,-28.073242
1430949668.498,-33.478813
1430949668.513,-37.972664
1430949668.529,-41.89367
1430949668.545,-45.342377
1430949668.56,-48.192017
1430949668.576,-50.25236
1430949668.591,-51.456028
1430949668.607,-51.882336
1430949668.623,-51.724407
1430949668.638,-51.15939
1430949668.654,-50.239346
1430949668.67,-48.916557
1430949668.685,-47.138935
1430949668.701,-44.90286
1430949668.716,-42.376587
1430949668.732,-39.90168
1430949668.748,-37.892994
1430949668.763,-36.68034
1430949668.779,-36.340847
1430949668.795,-36.611584
1430949668.81,-36.953316
1430949668.826,-36.773766
1430949668.841,-35.62312
1430949668.857,-33.430347
1430949668.873,-30.421963
1430949668.888,-27.002052
1430949668.904,-23.470165
1430949668.92,-19.918297
1430949668.935,-16.201149
1430949668.951,-12.115585
1430949668.966,-7.5356216
1430949668.982,-2.5290756
1430949668.998,2.7513657
1430949669.013,8.141594
1430949669.029,13.592468
1430949669.045,19.101295
1430949669.06,24.689568
1430949669.076,30.32331
1430949669.091,35.93873
1430949669.107,41.468697
1430949669.123,46.943283
1430949669.138,52.43576
1430949669.154,57.98416
1430949669.17,63.427628
1430949669.185,68.280136
1430949669.201,71.75265
1430949669.216,72.936905
1430949669.232,71.109375
1430949669.248,66.02733
1430949669.263,58.067192
1430949669.279,48.152344
1430949669.295,37.45157
1430949669.31,27.068886
1430949669.326,17.72448
1430949669.341,9.742058
1430949669.357,3.0768967
1430949669.373,-2.4354858
1430949669.388,-6.984886
1430949669.404,-10.661354
1430949669.42,-13.537064
1430949669.435,-15.673134
1430949669.451,-17.19484
1430949669.466,-18.263786
1430949669.482,-19.097443
1430949669.498,-19.866074
1430949669.513,-20.69677
1430949669.529,-21.586563
1430949669.545,-22.431877
1430949669.56,-23.053398
1430949669.576,-23.276123
1430949669.591,-22.984665
1430949669.607,-22.212906
1430949669.623,-21.14273
1430949669.638,-20.06398
1430949669.654,-19.267761
1430949669.67,-18.894325
1430949669.685,-18.833649
1430949669.701,-18.804543
1430949669.716,-18.415596
1430949669.732,-17.395958
1430949669.748,-15.687874
1430949669.763,-13.494614
1430949669.779,-11.147057
1430949669.795,-8.9717865
1430949669.81,-7.1353073
1430949669.826,-5.585655
1430949669.841,-4.160843
1430949669.857,-2.6901855
1430949669.873,-1.1244736
1430949669.888,0.4878769
1430949669.904,2.040451
1430949669.92,3.4763947
1430949669.935,4.8356094
1430949669.951,6.2040253
1430949669.966,7.683777
1430949669.982,9.313797
1430949669.998,11.134651
1430949670.013,13.173889
1430949670.029,15.502731
1430949670.045,18.144829
1430949670.06,21.007423
1430949670.076,23.76744
1430949670.091,25.8582
1430949670.107,26.573837
1430949670.123,25.324944
1430949670.138,21.831253
1430949670.154,16.256462
1430949670.17,9.154457
1430949670.185,1.3236694
1430949670.201,-6.4262543
1430949670.216,-13.404495
1430949670.232,-19.148567
1430949670.248,-23.443665
1430949670.263,-26.296616
1430949670.279,-27.879784
1430949670.295,-28.45771
1430949670.31,-28.315613
1430949670.326,-27.697556
1430949670.341,-26.721169
1430949670.357,-25.430168
1430949670.373,-23.755539
1430949670.388,-21.628792
1430949670.404,-19.041557
1430949670.42,-16.152588
1430949670.435,-13.269417
1430949670.451,-10.840965
1430949670.466,-9.252769
1430949670.482,-8.736748
1430949670.498,-9.203583
1430949670.513,-10.277779
1430949670.529,-11.421127
1430949670.545,-12.121979
1430949670.56,-12.081146
1430949670.576,-11.263718
1430949670.591,-9.865364
1430949670.607,-8.192268
1430949670.623,-6.5024567
1430949670.638,-4.9689026
1430949670.654,-3.5784378
1430949670.67,-2.2360382
1430949670.685,-0.7342453
1430949670.701,1.0711441
1430949670.716,3.221527
1430949670.732,5.576889
1430949670.748,7.889496
1430949670.763,9.909523
1430949670.779,11.50309
1430949670.795,12.787193
1430949670.81,14.059349
1430949670.826,15.722374
1430949670.841,18.115784
1430949670.857,21.315262
1430949670.873,25.04161
1430949670.888,28.658165
1430949670.904,31.363182
1430949670.92,32.362953
1430949670.935,31.172241
1430949670.951,27.72628
1430949670.966,22.442528
1430949670.982,16.02713
1430949670.998,9.340134
1430949671.013,3.1020355
1430949671.029,-2.16745
1430949671.045,-6.233261
1430949671.06,-9.077324
1430949671.076,-10.810608
1430949671.092,-11.625946
1430949671.107,-11.712891
1430949671.123,-11.271866
1430949671.138,-10.505127
1430949671.154,-9.615326
1430949671.17,-8.771271
1430949671.185,-8.100662
1430949671.201,-7.6307526
1430949671.217,-7.275879
1430949671.232,-6.949478
1430949671.248,-6.56456
1430949671.263,-6.174835
1430949671.279,-5.9057007
1430949671.295,-5.918274
1430949671.31,-6.295517
1430949671.326,-6.990341
1430949671.342,-7.8073883
1430949671.357,-8.501892
1430949671.373,-8.839035
1430949671.388,-8.708054
1430949671.404,-8.046768
1430949671.42,-6.891815
1430949671.435,-5.2829895
1430949671.451,-3.2527313
1430949671.467,-0.82302856
1430949671.482,1.9673767
1430949671.498,5.0426483
1430949671.513,8.232025
1430949671.529,11.345947
1430949671.545,14.153839
1430949671.56,16.543427
1430949671.576,18.528748
1430949671.592,20.325455
1430949671.607,22.244766
1430949671.623,24.581955
1430949671.638,27.416183
1430949671.654,30.508102
1430949671.67,33.283554
1430949671.685,34.990814
1430949671.701,34.88124
1430949671.717,32.49771
1430949671.732,27.817703
1430949671.748,21.327042
1430949671.763,13.865936
1430949671.779,6.394745
1430949671.795,-0.26376343
1430949671.81,-5.6629944
1430949671.826,-9.734985
1430949671.842,-12.699371
1430949671.857,-14.861588
1430949671.873,-16.43341
1430949671.888,-17.481567
1430949671.904,-17.927612
1430949671.92,-17.74437
1430949671.935,-17.01442
1430949671.951,-15.993927
1430949671.967,-14.9830475
1430949671.982,-14.248322
1430949671.998,-13.855545
1430949672.013,-13.746048
1430949672.029,-13.749664
1430949672.045,-13.72905
1430949672.06,-13.592712
1430949672.076,-13.289612
1430949672.092,-12.7854
1430949672.107,-12.043762
1430949672.123,-11.065521
1430949672.138,-9.8962555
1430949672.154,-8.649078
1430949672.17,-7.4677887
1430949672.185,-6.466812
1430949672.201,-5.707428
1430949672.217,-5.131119
1430949672.232,-4.6035004
1430949672.248,-3.8677368
1430949672.263,-2.6591492
1430949672.279,-0.7398071
1430949672.295,1.9380493
1430949672.31,5.2034454
1430949672.326,8.708679
1430949672.342,12.037918
1430949672.357,14.957092
1430949672.373,17.484009
1430949672.388,19.911423
1430949672.404,22.64096
1430949672.42,25.957474
1430949672.435,29.84056
1430949672.451,33.910553
1430949672.467,37.536392
1430949672.482,39.94252
1430949672.498,40.489365
1430949672.513,38.790894
1430949672.529,34.928284
1430949672.545,29.348434
1430949672.56,22.825104
1430949672.576,16.195541
1430949672.592,10.161438
1430949672.607,5.1318817
1430949672.623,1.2200165
1430949672.638,-1.6453094
1430949672.654,-3.6414185
1430949672.67,-4.9622803
1430949672.685,-5.8076477
1430949672.701,-6.403427
1430949672.717,-6.9349213
1430949672.732,-7.5492554
1430949672.748,-8.278397
1430949672.763,-9.113876
1430949672.779,-9.983353
1430949672.795,-10.873962
1430949672.81,-11.824036
1430949672.826,-12.843506
1430949672.842,-13.925369
1430949672.857,-15.001846
1430949672.873,-15.982193
1430949672.888,-16.810455
1430949672.904,-17.430801
1430949672.92,-17.79834
1430949672.935,-17.83133
1430949672.951,-17.452637
1430949672.967,-16.588089
1430949672.982,-15.244659
1430949672.998,-13.492676
1430949673.013,-11.446243
1430949673.029,-9.173645
1430949673.045,-6.7260437
1430949673.06,-4.1353455
1430949673.076,-1.5675659
1430949673.092,0.68611145
1430949673.107,2.234726
1430949673.123,2.8021393
1430949673.138,2.3670502
1430949673.154,1.3014221
1430949673.17,0.23616028
1430949673.185,-0.14378357
1430949673.201,0.56755066
1430949673.217,2.3091888
1430949673.232,4.5444794
1430949673.248,6.4813538
1430949673.263,7.3517456
1430949673.279,6.7418823
1430949673.295,4.67099
1430949673.31,1.5879059
1430949673.326,-1.8585815
1430949673.342,-4.9678955
1430949673.357,-7.1580353
1430949673.373,-7.956665
1430949673.388,-7.129471
1430949673.404,-4.61528
1430949673.42,-0.58839417
1430949673.435,4.5972595
1430949673.451,10.4785
1430949673.467,16.6848
1430949673.482,23.056137
1430949673.498,29.649506
1430949673.513,36.745148
1430949673.529,44.58264
1430949673.545,53.108
1430949673.56,61.81424
1430949673.576,69.70725
1430949673.592,75.502625
1430949673.607,77.87051
1430949673.623,75.75554
1430949673.638,68.60162
1430949673.654,56.551308
1430949673.67,40.399094
1430949673.685,21.542755
1430949673.701,1.6735306
1430949673.717,-17.578552
1430949673.732,-34.967155
1430949673.748,-49.845062
1430949673.764,-62.1288
1430949673.779,-72.092545
1430949673.795,-80.04268
1430949673.81,-85.97101
1430949673.826,-89.46531
1430949673.842,-89.80618
1430949673.857,-86.316505
1430949673.873,-78.63908
1430949673.889,-67.060455
1430949673.904,-52.45584
1430949673.92,-36.16156
1430949673.935,-19.684967
1430949673.951,-4.500244
1430949673.967,8.156738
1430949673.982,17.412643
1430949673.998,22.699745
1430949674.014,23.928726
1430949674.029,21.483582
1430949674.045,16.226059
1430949674.06,9.349274
1430949674.076,2.0209656
1430949674.092,-4.912636
1430949674.107,-11.0989685
1430949674.123,-16.561089
1430949674.139,-21.36795
1430949674.154,-25.278831
1430949674.17,-27.810562
1430949674.185,-28.449242
1430949674.201,-27.210213
1430949674.217,-24.883034
1430949674.232,-22.933716
1430949674.248,-22.856339
1430949674.264,-25.437271
1430949674.279,-30.29351
1430949674.295,-35.88508
1430949674.31,-40.170937
1430949674.326,-41.47609
1430949674.342,-39.230453
1430949674.357,-34.263298
1430949674.373,-28.39656
1430949674.389,-23.708992
1430949674.404,-21.61052
1430949674.42,-22.290115
1430949674.435,-24.626877
1430949674.451,-26.696426
1430949674.467,-26.57576
1430949674.482,-23.10579
1430949674.498,-16.286728
1430949674.514,-7.069763
1430949674.529,3.2360535
1430949674.545,13.717133
1430949674.56,24.29953
1430949674.576,35.648376
1430949674.592,48.717194
1430949674.607,64.1382
1430949674.623,81.823
1430949674.639,100.9176
1430949674.654,120.12425
1430949674.67,138.02617
1430949674.685,153.48615
1430949674.701,165.7025
1430949674.717,174.19083
1430949674.732,178.53906
1430949674.748,178.31837
1430949674.764,173.01039
1430949674.779,162.19002
1430949674.795,145.71591
1430949674.81,123.947655
1430949674.826,97.82694
1430949674.842,68.73318
1430949674.857,38.120018
1430949674.873,7.2082977
1430949674.889,-23.181793
1430949674.904,-52.394722
1430949674.92,-79.573135
1430949674.935,-103.37133
1430949674.951,-122.190865
1430949674.967,-134.7756
1430949674.982,-140.93173
1430949674.998,-141.80481
1430949675.014,-139.49777
1430949675.029,-136.10207
1430949675.045,-132.74622
1430949675.06,-129.06714
1430949675.076,-123.49831
1430949675.092,-114.15728
1430949675.107,-99.86542
1430949675.123,-80.7592
1430949675.139,-58.287262
1430949675.154,-34.658127
1430949675.17,-12.13253
1430949675.185,7.5037537
1430949675.201,23.123482
1430949675.217,34.216164
1430949675.232,40.700592
1430949675.248,42.760406
1430949675.264,40.793434
1430949675.279,35.522057
1430949675.295,27.986565
1430949675.31,19.543114
1430949675.326,11.549828
1430949675.342,5.0535126
1430949675.357,0.50927734
1430949675.373,-2.0929985
1430949675.389,-2.8512993
1430949675.404,-1.4939117
1430949675.42,2.8818855
1430949675.435,11.521988
1430949675.451,25.410572
1430949675.467,44.571083
1430949675.482,67.686325
1430949675.498,92.26137
1430949675.514,115.32324
1430949675.529,134.40591
1430949675.545,148.16118
1430949675.56,156.6083
1430949675.576,160.64581
1430949675.592,161.4017
1430949675.607,159.51268
1430949675.623,155.00443
1430949675.639,147.36938
1430949675.654,136.10725
1430949675.67,121.202
1430949675.685,103.33718
1430949675.701,83.73009
1430949675.717,63.578636
1430949675.732,43.699146
1430949675.748,24.228685
1430949675.764,4.9011726
1430949675.779,-14.762154
1430949675.795,-35.11356
1430949675.81,-55.973495
1430949675.826,-76.535324
1430949675.842,-95.64938
1430949675.857,-112.380585
1430949675.873,-126.26512
1430949675.889,-137.65823
1430949675.904,-147.30441
1430949675.92,-156.3966
1430949675.935,-166.30566
1430949675.951,-178.05283
1430949675.967,-191.66656
1430949675.982,-206.11124
1430949675.998,-219.36499
1430949676.014,-228.55911
1430949676.029,-230.78632
1430949676.045,-223.65234
1430949676.06,-206.69449
1430949676.076,-181.8909
1430949676.092,-152.91403
1430949676.107,-123.80971
1430949676.123,-97.937195
1430949676.139,-77.39947
1430949676.154,-62.258232
1430949676.17,-51.06183
1430949676.185,-40.753998
1430949676.201,-28.335487
1430949676.217,-12.138367
1430949676.232,7.8297195
1430949676.248,30.204956
1430949676.264,52.491333
1430949676.279,71.943985
1430949676.295,88.340324
1430949676.31,99.663956
1430949676.326,106.70549
1430949676.342,112.74018
1430949676.357,119.64279
1430949676.373,126.502625
1430949676.389,131.40552
1430949676.404,134.49619
1430949676.42,135.52412
1430949676.436,135.08675
1430949676.451,133.6482
1430949676.467,131.73328
1430949676.482,129.1159
1430949676.498,125.03065
1430949676.514,117.08787
1430949676.529,105.31652
1430949676.545,90.7842
1430949676.561,74.71303
1430949676.576,58.382736
1430949676.592,42.45208
1430949676.607,27.35382
1430949676.623,13.01709
1430949676.639,-0.97520447
1430949676.654,-14.618263
1430949676.67,-26.86113
1430949676.686,-36.30336
1430949676.701,-42.04753
1430949676.717,-43.877167
1430949676.732,-42.731293
1430949676.748,-40.089546
1430949676.764,-37.585686
1430949676.779,-36.421356
1430949676.795,-36.830933
1430949676.811,-37.920204
1430949676.826,-38.653915
1430949676.842,-38.612885
1430949676.857,-37.919434
1430949676.873,-37.089638
1430949676.889,-36.433113
1430949676.904,-35.812187
1430949676.92,-34.73716
1430949676.936,-32.56617
1430949676.951,-28.798897
1430949676.967,-23.65696
1430949676.982,-18.223885
1430949676.998,-13.973358
1430949677.014,-12.276176
1430949677.029,-13.749542
1430949677.045,-18.100563
1430949677.061,-24.270966
1430949677.076,-30.953316
1430949677.092,-36.974678
1430949677.107,-41.856667
1430949677.123,-45.763977
1430949677.139,-49.140907
1430949677.154,-52.29165
1430949677.17,-55.17562
1430949677.186,-57.40486
1430949677.201,-58.52999
1430949677.217,-58.258934
1430949677.232,-56.55349
1430949677.248,-53.664078
1430949677.264,-50.033173
1430949677.279,-46.168755
1430949677.295,-42.58805
1430949677.311,-39.66559
1430949677.326,-37.55166
1430949677.342,-36.10161
1430949677.357,-35.007477
1430949677.373,-33.8506
1430949677.389,-32.292343
1430949677.404,-30.145401
1430949677.42,-27.358276
1430949677.436,-23.971123
1430949677.451,-20.141083
1430949677.467,-16.152771
1430949677.482,-12.395065
1430949677.498,-9.1493225
1430949677.514,-6.476204
1430949677.529,-4.036682
1430949677.545,-1.1949081
1430949677.561,2.746933
1430949677.576,8.142921
1430949677.592,14.851868
1430949677.607,22.277615
1430949677.623,29.690563
1430949677.639,36.518528
1430949677.654,42.54367
1430949677.67,47.729954
1430949677.686,51.936924
1430949677.701,54.70398
1430949677.717,55.256805
1430949677.732,52.823605
1430949677.748,47.03452
1430949677.764,38.270454
1430949677.779,27.630718
1430949677.795,16.596447
1430949677.811,6.48258
1430949677.826,-2.0333014
1430949677.842,-8.885513
1430949677.857,-14.464237
1430949677.873,-19.09178
1430949677.889,-22.810848
1430949677.904,-25.453957
1430949677.92,-26.969769
1430949677.936,-27.661772
1430949677.951,-28.136892
1430949677.967,-29.02125
1430949677.982,-30.5532
1430949677.998,-32.440815
1430949678.014,-34.066963
1430949678.029,-34.831436
1430949678.045,-34.510166
1430949678.061,-33.349907
1430949678.076,-31.956219
1430949678.092,-30.964207
1430949678.107,-30.877136
1430949678.123,-31.943459
1430949678.139,-34.10372
1430949678.154,-36.800568
1430949678.17,-38.9494
1430949678.186,-38.96673
1430949678.201,-35.406326
1430949678.217,-27.53807
1430949678.232,-15.765205
1430949678.248,-1.5508575
1430949678.264,13.178543
1430949678.279,26.877914
1430949678.295,39.006905
1430949678.311,50.04426
1430949678.326,60.962532
1430949678.342,72.228
1430949678.357,83.28484
1430949678.373,92.86226
1430949678.389,99.665504
1430949678.404,103.04717
1430949678.42,103.358505
1430949678.436,101.64845
1430949678.451,99.080444
1430949678.467,96.49725
1430949678.482,93.582275
1430949678.498,89.32921
1430949678.514,82.928696
1430949678.529,74.48811
1430949678.545,64.925095
1430949678.561,55.51419
1430949678.576,47.232437
1430949678.592,40.404816
1430949678.607,35.22551
1430949678.623,30.879913
1430949678.639,26.32669
1430949678.654,21.309464
1430949678.67,16.529633
1430949678.686,13.034439
1430949678.701,11.4770355
1430949678.717,11.852325
1430949678.732,13.681152
1430949678.748,17.31372
1430949678.764,22.312393
1430949678.779,28.1232
1430949678.795,34.94243
1430949678.811,43.55709
1430949678.826,54.333168
1430949678.842,66.49451
1430949678.857,78.280136
1430949678.873,87.67171
1430949678.889,94.34067
1430949678.904,97.24514
1430949678.92,95.24946
1430949678.936,88.03906
1430949678.951,76.204155
1430949678.967,60.46546
1430949678.982,41.284004
1430949678.998,19.21685
1430949679.014,-10.894104
1430949679.029,-44.589325
1430949679.045,-73.62029
1430949679.061,-94.00796
1430949679.076,-107.75218
1430949679.092,-117.95891
1430949679.108,-125.340546
1430949679.123,-128.0925
1430949679.139,-123.74456
1430949679.154,-113.56272
1430949679.17,-97.12094
1430949679.186,-77.98486
1430949679.201,-61.794956
1430949679.217,-52.99853
1430949679.232,-52.902462
1430949679.248,-60.002132
1430949679.264,-71.530594
1430949679.279,-85.08229
1430949679.295,-97.59787
1430949679.311,-106.21841
1430949679.326,-110.69023
1430949679.342,-112.099
1430949679.358,-111.039764
1430949679.373,-106.964264
1430949679.389,-98.811646
1430949679.404,-86.04393
1430949679.42,-69.31196
1430949679.436,-50.716644
1430949679.451,-32.69619
1430949679.467,-18.437057
1430949679.483,-10.031231
1430949679.498,-7.1900826
1430949679.514,-7.7347107
1430949679.529,-9.066673
1430949679.545,-9.631638
1430949679.561,-9.105263
1430949679.576,-8.366665
1430949679.592,-8.623547
1430949679.608,-11.286133
1430949679.623,-17.06746
1430949679.639,-25.474228
1430949679.654,-35.282486
1430949679.67,-44.86891
1430949679.686,-52.406906
1430949679.701,-55.301025
1430949679.717,-51.71727
1430949679.733,-41.619125
1430949679.748,-26.840286
1430949679.764,-10.022469
1430949679.779,6.877266
1430949679.795,22.398636
1430949679.811,35.680115
1430949679.826,46.4317
1430949679.842,56.16391
1430949679.858,65.701004
1430949679.873,73.94597
1430949679.889,79.13826
1430949679.904,80.360794
1430949679.92,79.223434
1430949679.936,77.83008
1430949679.951,78.16168
1430949679.967,81.6416
1430949679.983,91.05968
1430949679.998,106.63257
1430949680.014,124.30794
1430949680.029,138.1703
1430949680.045,143.4366
1430949680.061,139.61314
1430949680.076,127.4518
1430949680.092,108.2375
1430949680.108,84.12259
1430949680.123,61.524857
1430949680.139,46.690445
1430949680.154,42.671585
1430949680.17,49.909424
1430949680.186,66.65979
1430949680.201,90.991974
1430949680.217,117.28294
1430949680.233,138.19514
1430949680.248,128.1872
1430949680.264,79.47882
1430949680.279,11.872269
1430949680.295,-46.41986
1430949680.311,-76.48976
1430949680.326,-88.47514
1430949680.342,-91.72249
1430949680.358,-92.08414
1430949680.373,-93.6875
1430949680.389,-96.63025
1430949680.404,-96.09509
1430949680.42,-88.72896
1430949680.436,-76.066666
1430949680.451,-62.481598
1430949680.467,-51.98384
1430949680.483,-44.33068
1430949680.498,-38.84326
1430949680.514,-35.23729
1430949680.529,-33.31633
1430949680.545,-30.558594
1430949680.561,-25.432129
1430949680.576,-19.283157
1430949680.592,-14.792664
1430949680.608,-13.977936
1430949680.623,-15.510506
1430949680.639,-17.685425
1430949680.654,-19.105019
1430949680.67,-18.850922
1430949680.686,-15.6747055
1430949680.701,-10.345627
1430949680.717,-6.108116
1430949680.733,-6.259506
1430949680.748,-11.733696
1430949680.764,-19.450638
1430949680.779,-25.497307
1430949680.795,-27.297089
1430949680.811,-24.670624
1430949680.826,-18.963982
1430949680.842,-12.74044
1430949680.858,-8.681107
1430949680.873,-8.161697
1430949680.889,-10.700325
1430949680.904,-14.190598
1430949680.92,-16.82866
1430949680.936,-17.774994
1430949680.951,-16.955788
1430949680.967,-14.462776
1430949680.983,-10.715614
1430949680.998,-6.4527283
1430949681.014,-2.3388824
1430949681.029,1.378746
1430949681.045,5.0727615
1430949681.061,9.311363
1430949681.076,14.431702
1430949681.092,20.3629
1430949681.108,26.666222
1430949681.123,32.82232
1430949681.139,38.526833
1430949681.154,43.753365
1430949681.17,48.595245
1430949681.186,53.140648
1430949681.201,57.238388
1430949681.217,60.66958
1430949681.233,63.343803
1430949681.248,65.44775
1430949681.264,67.41154
1430949681.279,69.58414
1430949681.295,71.851204
1430949681.311,73.44504
1430949681.326,73.12057
1430949681.342,69.713524
1430949681.358,62.729553
1430949681.373,52.682915
1430949681.389,41.003937
1430949681.404,29.496056
1430949681.42,19.673462
1430949681.436,12.314163
1430949681.451,7.399399
1430949681.467,4.465523
1430949681.483,3.0850601
1430949681.498,3.2317123
1430949681.514,5.14695
1430949681.529,9.006447
1430949681.545,14.522446
1430949681.561,20.90142
1430949681.576,27.058998
1430949681.592,32.10987
1430949681.608,35.709126
1430949681.623,38.10469
1430949681.639,39.859627
1430949681.654,41.463055
1430949681.67,43.039486
1430949681.686,44.44229
1430949681.701,45.383533
1430949681.717,45.63788
1430949681.733,45.034435
1430949681.748,43.419342
1430949681.764,40.480072
1430949681.779,35.88291
1430949681.795,29.478842
1430949681.811,21.541798
1430949681.826,12.85795
1430949681.842,4.430874
1430949681.858,-3.0057297
1430949681.873,-9.358154
1430949681.889,-15.195881
1430949681.904,-21.346802
1430949681.92,-28.336899
1430949681.936,-35.987152
1430949681.951,-43.536972
1430949681.967,-50.023674
1430949681.983,-54.81939
1430949681.998,-57.77063
1430949682.014,-59.011482
1430949682.03,-58.655823
1430949682.045,-56.670113
1430949682.061,-53.05474
1430949682.076,-48.19657
1430949682.092,-43.11608
1430949682.108,-39.28427
1430949682.123,-38.036194
1430949682.139,-39.982224
1430949682.155,-44.710968
1430949682.17,-51.057602
1430949682.186,-57.630386
1430949682.201,-63.395493
1430949682.217,-67.86238
1430949682.233,-71.01732
1430949682.248,-72.94835
1430949682.264,-73.656265
1430949682.28,-73.111206
1430949682.295,-71.295944
1430949682.311,-68.3949
1430949682.326,-64.816284
1430949682.342,-61.029938
1430949682.358,-57.413895
1430949682.373,-54.10466
1430949682.389,-51.031372
1430949682.405,-48.038895
1430949682.42,-45.105194
1430949682.436,-42.35028
1430949682.451,-40.080948
1430949682.467,-38.540833
1430949682.483,-37.879837
1430949682.498,-38.114685
1430949682.514,-39.25534
1430949682.53,-41.312622
1430949682.545,-44.244064
1430949682.561,-47.79825
1430949682.576,-51.52899
1430949682.592,-54.76355
1430949682.608,-56.79425
1430949682.623,-57.207947
1430949682.639,-56.12056
1430949682.655,-54.139618
1430949682.67,-51.92537
1430949682.686,-49.7686
1430949682.701,-47.35222
1430949682.717,-43.96959
1430949682.733,-38.892456
1430949682.748,-31.650452
1430949682.764,-22.156372
1430949682.78,-10.628769
1430949682.795,2.6082306
1430949682.811,17.197906
1430949682.826,32.60457
1430949682.842,48.004646
1430949682.858,62.047928
1430949682.873,73.232315
1430949682.889,80.41629
1430949682.905,83.307304
1430949682.92,82.486435
1430949682.936,79.19639
1430949682.951,74.84981
1430949682.967,70.55648
1430949682.983,66.88064
1430949682.998,63.5102
1430949683.014,59.955307
1430949683.03,56.211594
1430949683.045,52.760162
1430949683.061,50.121727
1430949683.076,48.442917
1430949683.092,47.591805
1430949683.108,47.020157
1430949683.123,46.19152
1430949683.139,43.935287
1430949683.155,39.51844
1430949683.17,33.41639
1430949683.186,26.944267
1430949683.201,21.249214
1430949683.217,16.819176
1430949683.233,13.92205
1430949683.248,12.445343
1430949683.264,12.4088745
1430949683.28,12.41478
1430949683.295,11.1903305
1430949683.311,8.905891
1430949683.326,6.8300514
1430949683.342,6.0917473
1430949683.358,6.8940887
1430949683.373,9.109631
1430949683.389,11.644051
1430949683.405,13.419434
1430949683.42,11.541718
1430949683.436,3.523552
1430949683.451,-10.938393
1430949683.467,-30.415478
1430949683.483,-53.21922
1430949683.498,-78.282715
1430949683.514,-104.20219
1430949683.53,-129.94911
1430949683.545,-142.43567
1430949683.561,-132.56409
1430949683.576,-104.714775
1430949683.592,-72.870834
1430949683.608,-47.64664
1430949683.623,-31.163723
1430949683.639,-23.2809
1430949683.655,-17.521946
1430949683.67,-10.972706
1430949683.686,-3.7500763
1430949683.701,0.03591919
1430949683.717,-4.1398735
1430949683.733,-15.236938
1430949683.748,-29.760971
1430949683.764,-42.679733
1430949683.78,-49.484684
1430949683.795,-46.813187
1430949683.811,-34.0422
1430949683.826,-12.30294
1430949683.842,14.502621
1430949683.858,41.656597
1430949683.873,65.40057
1430949683.889,82.88254
1430949683.905,92.01026
1430949683.92,91.584114
1430949683.936,82.742775
1430949683.951,68.45712
1430949683.967,53.360638
1430949683.983,41.040817
1430949683.998,33.376175
1430949684.014,30.631416
1430949684.03,31.645493
1430949684.045,34.51957
1430949684.061,37.297325
1430949684.076,38.953205
1430949684.092,38.889652
1430949684.108,37.05534
1430949684.123,33.169407
1430949684.139,27.207092
1430949684.155,19.960701
1430949684.17,12.874987
1430949684.186,7.694766
1430949684.201,5.6199884
1430949684.217,7.0556507
1430949684.233,11.175993
1430949684.248,16.290926
1430949684.264,20.147808
1430949684.28,20.77126
1430949684.295,17.370361
1430949684.311,10.668585
1430949684.326,2.7278209
1430949684.342,-3.7813234
1430949684.358,-6.601539
1430949684.373,-4.984228
1430949684.389,0.071581006
1430949684.405,6.209193
1430949684.42,10.730408
1430949684.436,11.775226
1430949684.451,8.914413
1430949684.467,3.0551584
1430949684.483,-4.27633
1430949684.498,-11.767002
1430949684.514,-18.781116
1430949684.53,-25.281548
1430949684.545,-31.426321
1430949684.561,-37.157097
1430949684.576,-42.080696
1430949684.592,-45.621483
1430949684.608,-47.398712
1430949684.623,-47.442173
1430949684.639,-46.20239
1430949684.655,-44.35771
1430949684.67,-42.546043
1430949684.686,-41.057518
1430949684.702,-39.88712
1430949684.717,-38.84095
1430949684.733,-37.71006
1430949684.748,-36.361736
1430949684.764,-34.74253
1430949684.78,-32.713448
1430949684.795,-30.070282
1430949684.811,-26.495731
1430949684.827,-21.74491
1430949684.842,-15.632981
1430949684.858,-8.133374
1430949684.873,0.67597675
1430949684.889,10.661451
1430949684.905,21.542358
1430949684.92,32.74351
1430949684.936,43.378376
1430949684.952,52.367867
1430949684.967,58.7929
1430949684.983,62.260452
1430949684.998,63.062748
1430949685.014,62.152863
1430949685.03,60.828995
1430949685.045,60.272385
1430949685.061,61.227295
1430949685.077,63.695675
1430949685.092,67.008675
1430949685.108,70.06688
1430949685.123,71.63627
1430949685.139,70.72905
1430949685.155,66.93706
1430949685.17,60.591156
1430949685.186,52.67692
1430949685.202,44.388092
1430949685.217,36.68874
1430949685.233,29.877792
1430949685.248,23.614618
1430949685.264,17.183342
1430949685.28,9.927829
1430949685.295,1.6761227
1430949685.311,-6.9867344
1430949685.327,-15.020705
1430949685.342,-21.37804
1430949685.358,-25.457378
1430949685.373,-27.302588
1430949685.389,-27.379332
1430949685.405,-26.263077
1430949685.42,-24.641214
1430949685.436,-22.96444
1430949685.452,-21.3397
1430949685.467,-19.673376
1430949685.483,-18.160408
1430949685.498,-17.28582
1430949685.514,-17.652634
1430949685.53,-19.453802
1430949685.545,-22.403854
1430949685.561,-26.275152
1430949685.577,-30.963072
1430949685.592,-36.165245
1430949685.608,-41.293358
1430949685.623,-45.79104
1430949685.639,-49.07104
1430949685.655,-50.549778
1430949685.67,-49.531372
1430949685.686,-45.48
1430949685.702,-39.22383
1430949685.717,-32.464363
1430949685.733,-26.468048
1430949685.748,-21.520306
1430949685.764,-17.598265
1430949685.78,-14.583115
1430949685.795,-12.573063
1430949685.811,-11.373142
1430949685.827,-10.216206
1430949685.842,-8.950623
1430949685.858,-7.7865105
1430949685.873,-6.685951
1430949685.889,-6.0149803
1430949685.905,-7.481735
1430949685.92,-13.285286
1430949685.936,-24.538227
1430949685.952,-39.556816
1430949685.967,-48.96371
