1426787105.059,0.0
1426787105.074,0.0
1426787105.09,0.0
1426787105.105,0.0
1426787105.121,0.0
1426787105.137,0.0
1426787105.152,0.0
1426787105.168,0.0
1426787105.184,0.0
1426787105.199,0.0022315353
1426787105.215,-0.0045169927
1426787105.23,-0.011265522
1426787105.246,-0.011383951
1426787105.262,0.0011864507
1426787105.277,0.025910312
1426787105.293,0.050634187
1426787105.309,0.051362894
1426787105.324,-0.0014929791
1426787105.34,-0.1302426
1426787105.355,-0.35562757
1426787105.371,-0.6591247
1426787105.387,-1.0095103
1426787105.402,-1.3709826
1426787105.418,-1.7197359
1426787105.434,-2.0551105
1426787105.449,-2.39945
1426787105.465,-2.7866635
1426787105.48,-3.2399073
1426787105.496,-3.796012
1426787105.512,-4.418684
1426787105.527,-5.0592937
1426787105.543,-5.6644096
1426787105.559,-6.2021537
1426787105.574,-6.6808796
1426787105.59,-7.149598
1426787105.605,-7.6782336
1426787105.621,-8.310739
1426787105.637,-9.143657
1426787105.652,-10.089731
1426787105.668,-11.041313
1426787105.684,-11.8842125
1426787105.699,-12.564316
1426787105.715,-13.13563
1426787105.73,-13.760044
1426787105.746,-14.65232
1426787105.762,-15.962056
1426787105.777,-17.914442
1426787105.793,-20.317299
1426787105.809,-22.903854
1426787105.824,-25.37947
1426787105.84,-27.578028
1426787105.855,-29.57246
1426787105.871,-31.675173
1426787105.887,-34.3178
1426787105.902,-37.813618
1426787105.918,-42.541233
1426787105.934,-48.1463
1426787105.949,-54.104755
1426787105.965,-59.83309
1426787105.98,-64.972374
1426787105.996,-69.58293
1426787106.012,-74.14353
1426787106.027,-79.344986
1426787106.043,-85.70726
1426787106.059,-93.76193
1426787106.074,-102.99779
1426787106.09,-112.61757
1426787106.105,-121.73034
1426787106.121,-129.76602
1426787106.137,-136.75102
1426787106.152,-143.30344
1426787106.168,-150.74623
1426787106.184,-157.77356
1426787106.199,-166.64323
1426787106.215,-177.94798
1426787106.23,-191.79102
1426787106.246,-206.96808
1426787106.262,-220.56592
1426787106.277,-228.24644
1426787106.293,-225.36154
1426787106.309,-208.53198
1426787106.324,-176.87024
1426787106.34,-132.76222
1426787106.355,-80.04997
1426787106.371,-23.069275
1426787106.387,34.94339
1426787106.402,92.43695
1426787106.418,149.15695
1426787106.434,205.22772
1426787106.449,260.36963
1426787106.465,313.74133
1426787106.48,363.87396
1426787106.496,409.83353
1426787106.512,450.90775
1426787106.527,486.50244
1426787106.543,515.73865
1426787106.559,537.2274
1426787106.574,549.22
1426787106.59,549.9613
1426787106.606,538.367
1426787106.621,514.2055
1426787106.637,478.674
1426787106.652,433.87952
1426787106.668,382.45126
1426787106.684,327.02106
1426787106.699,269.84186
1426787106.715,212.63379
1426787106.731,156.6594
1426787106.746,102.95233
1426787106.762,52.373596
1426787106.777,5.9046936
1426787106.793,-35.580414
1426787106.809,-71.42584
1426787106.824,-101.35184
1426787106.84,-125.50113
1426787106.856,-144.3797
1426787106.871,-158.69403
1426787106.887,-169.15071
1426787106.902,-176.3711
1426787106.918,-180.75139
1426787106.934,-182.57419
1426787106.949,-182.06863
1426787106.965,-179.5066
1426787106.981,-175.23325
1426787106.996,-169.65286
1426787107.012,-163.17691
1426787107.027,-156.14568
1426787107.043,-148.80681
1426787107.059,-141.29686
1426787107.074,-133.68983
1426787107.09,-126.01962
1426787107.106,-118.33268
1426787107.121,-110.68864
1426787107.137,-103.15572
1426787107.152,-95.80455
1426787107.168,-88.684166
1426787107.184,-81.82744
1426787107.199,-75.24594
1426787107.215,-68.9526
1426787107.231,-62.949085
1426787107.246,-57.247494
1426787107.262,-51.857185
1426787107.277,-46.78282
1426787107.293,-42.02776
1426787107.309,-37.58521
1426787107.324,-33.451748
1426787107.34,-29.613855
1426787107.356,-26.070963
1426787107.371,-22.808779
1426787107.387,-19.824995
1426787107.402,-17.113392
1426787107.418,-14.666497
1426787107.434,-12.47932
1426787107.449,-10.538469
1426787107.465,-8.833674
1426787107.481,-7.3478527
1426787107.496,-6.067689
1426787107.512,-4.9734235
1426787107.527,-4.046258
1426787107.543,-3.2673752
1426787107.559,-2.6211367
1426787107.574,-2.088365
1426787107.59,-1.6507506
1426787107.606,-1.2976913
1426787107.621,-1.0147024
1426787107.637,-0.79105926
1426787107.652,-0.6133206
1426787107.668,-0.47516227
1426787107.684,-0.3684653
1426787107.699,-0.28461677
1426787107.715,-0.22397345
1426787107.731,-0.17647654
1426787107.746,-0.14055526
1426787107.762,-0.11251485
1426787107.777,-0.0926249
1426787107.793,-0.07977182
1426787107.809,-0.06783539
1426787107.824,-0.05929327
1426787107.84,-0.052183747
1426787107.856,-0.046811372
1426787107.871,-0.043964505
1426787107.887,-0.040008634
1426787107.902,-0.03856206
1426787107.918,-0.03341824
1426787107.934,-0.033992678
1426787107.949,-0.030619442
1426787107.965,-0.030036718
1426787107.981,-0.028703213
1426787107.996,-0.032509
1426787108.012,-0.035151184
1426787108.027,-0.040658355
1426787108.043,-0.048127323
1426787108.059,-0.06013459
1426787108.074,-0.07555628
1426787108.09,-0.09516123
1426787108.106,-0.11661631
1426787108.121,-0.14151612
1426787108.137,-0.16848037
1426787108.152,-0.19728622
1426787108.168,-0.22806078
1426787108.184,-0.2568159
1426787108.199,-0.2865464
1426787108.215,-0.31754917
1426787108.231,-0.34731293
1426787108.246,-0.37867987
1426787108.262,-0.4067611
1426787108.277,-0.4434992
1426787108.293,-0.48064178
1426787108.309,-0.5238915
1426787108.324,-0.56697416
1426787108.34,-0.62200254
1426787108.356,-0.6801762
1426787108.371,-0.7464565
1426787108.387,-0.8205931
1426787108.402,-0.9035926
1426787108.418,-0.9952637
1426787108.434,-1.0957147
1426787108.449,-1.2113516
1426787108.465,-1.3384674
1426787108.481,-1.477288
1426787108.496,-1.6367831
1426787108.512,-1.8049546
1426787108.527,-1.9935768
1426787108.543,-2.1977654
1426787108.559,-2.4251
1426787108.574,-2.6712198
1426787108.59,-2.9478397
1426787108.606,-3.2381263
1426787108.621,-3.558375
1426787108.637,-3.9050841
1426787108.652,-4.2770576
1426787108.668,-4.677027
1426787108.684,-5.104166
1426787108.699,-5.567876
1426787108.715,-6.05309
1426787108.731,-6.5819535
1426787108.746,-7.134988
1426787108.762,-7.7289433
1426787108.777,-8.354441
1426787108.793,-9.008651
1426787108.809,-9.699367
1426787108.824,-10.433965
1426787108.84,-11.211387
1426787108.856,-12.038649
1426787108.871,-12.913566
1426787108.887,-13.834437
1426787108.902,-14.7833185
1426787108.918,-15.743437
1426787108.934,-16.647768
1426787108.949,-17.425312
1426787108.965,-17.965702
1426787108.981,-18.152653
1426787108.996,-17.872093
1426787109.012,-17.061726
1426787109.027,-15.677713
1426787109.043,-13.739443
1426787109.059,-11.299345
1426787109.074,-8.445753
1426787109.09,-5.3117027
1426787109.106,-1.9908772
1426787109.121,1.3198605
1426787109.137,4.4188404
1426787109.152,7.1124706
1426787109.168,9.24017
1426787109.184,10.67197
1426787109.199,11.358177
1426787109.215,11.363438
1426787109.231,10.848907
1426787109.246,10.019146
1426787109.262,9.137596
1426787109.278,8.4087715
1426787109.293,7.924988
1426787109.309,7.742653
1426787109.324,7.7771378
1426787109.34,7.9397774
1426787109.356,8.178593
1426787109.371,8.509842
1426787109.387,8.998028
1426787109.402,9.714504
1426787109.418,10.655354
1426787109.434,11.725384
1426787109.449,12.689156
1426787109.465,13.2835655
1426787109.481,13.335739
1426787109.496,12.850143
1426787109.512,12.110443
1426787109.528,11.501255
1426787109.543,11.442406
1426787109.559,12.1283
1426787109.574,13.454113
1426787109.59,15.043198
1426787109.606,16.393192
1426787109.621,17.111965
1426787109.637,17.138023
1426787109.653,16.832878
1426787109.668,16.795738
1426787109.684,17.671078
1426787109.699,19.709469
1426787109.715,22.736721
1426787109.731,26.126389
1426787109.746,29.142529
1426787109.762,31.202488
1426787109.778,32.17062
1426787109.793,32.410206
1426787109.809,32.60724
1426787109.824,33.534225
1426787109.84,35.77611
1426787109.856,39.765476
1426787109.871,45.663055
1426787109.887,52.94234
1426787109.903,60.129814
1426787109.918,64.856964
1426787109.934,64.45558
1426787109.949,56.934437
1426787109.965,42.05781
1426787109.981,21.56451
1426787109.996,-1.1141014
1426787110.012,-22.189056
1426787110.028,-38.880608
1426787110.043,-50.219322
1426787110.059,-56.909615
1426787110.074,-60.496346
1426787110.09,-62.552395
1426787110.106,-63.050926
1426787110.121,-62.033237
1426787110.137,-59.543602
1426787110.153,-55.86104
1426787110.168,-51.587967
1426787110.184,-47.37802
1426787110.199,-43.55603
1426787110.215,-39.9002
1426787110.231,-35.758347
1426787110.246,-30.312094
1426787110.262,-23.22309
1426787110.278,-14.722408
1426787110.293,-5.5772314
1426787110.309,3.1664188
1426787110.324,10.6055155
1426787110.34,16.382872
1426787110.356,20.809034
1426787110.371,24.672451
1426787110.387,28.94084
1426787110.403,34.24016
1426787110.418,40.790314
1426787110.434,48.38328
1426787110.449,56.39849
1426787110.465,64.016815
1426787110.481,70.51297
1426787110.496,75.43248
1426787110.512,78.75362
1426787110.528,80.888916
1426787110.543,82.26659
1426787110.559,83.03633
1426787110.574,82.73628
1426787110.59,80.24328
1426787110.606,74.19327
1426787110.621,63.641663
1426787110.637,48.66575
1426787110.653,30.435242
1426787110.668,10.90733
1426787110.684,-7.9161606
1426787110.699,-24.496712
1426787110.715,-38.11473
1426787110.731,-48.70716
1426787110.746,-56.560463
1426787110.762,-61.951683
1426787110.778,-65.086395
1426787110.793,-66.13917
1426787110.809,-65.35598
1426787110.824,-63.153427
1426787110.84,-60.078026
1426787110.856,-56.704773
1426787110.871,-53.536118
1426787110.887,-50.916428
1426787110.903,-49.062645
1426787110.918,-48.047264
1426787110.934,-47.874413
1426787110.949,-48.49273
1426787110.965,-49.867256
1426787110.981,-51.894928
1426787110.996,-54.36016
1426787111.012,-56.92315
1426787111.028,-59.10441
1426787111.043,-60.42334
1426787111.059,-60.50097
1426787111.074,-59.140503
1426787111.09,-56.36171
1426787111.106,-52.34526
1426787111.121,-47.382797
1426787111.137,-41.749268
1426787111.153,-35.672134
1426787111.168,-29.28968
1426787111.184,-22.69889
1426787111.199,-15.963867
1426787111.215,-9.181915
1426787111.231,-2.473755
1426787111.246,4.030945
1426787111.262,10.286797
1426787111.278,16.382805
1426787111.293,22.49376
1426787111.309,28.755852
1426787111.324,35.185524
1426787111.34,41.54825
1426787111.356,47.501396
1426787111.371,52.703293
1426787111.387,57.11152
1426787111.403,61.02761
1426787111.418,65.1009
1426787111.434,70.09492
1426787111.449,76.63631
1426787111.465,84.94558
1426787111.481,94.67257
1426787111.496,104.80824
1426787111.512,113.778854
1426787111.528,119.63638
1426787111.543,120.53017
1426787111.559,115.15761
1426787111.574,103.205
1426787111.59,85.57004
1426787111.606,64.145004
1426787111.621,41.327698
1426787111.637,19.424606
1426787111.653,0.10926819
1426787111.668,-15.742081
1426787111.684,-27.944183
1426787111.699,-36.642303
1426787111.715,-42.08525
1426787111.731,-44.447052
1426787111.746,-43.92273
1426787111.762,-40.771225
1426787111.778,-35.399094
1426787111.793,-28.299118
1426787111.809,-20.005722
1426787111.824,-11.013321
1426787111.84,-1.8343048
1426787111.856,7.029785
1426787111.871,15.046036
1426787111.887,21.780472
1426787111.903,27.016281
1426787111.918,30.88086
1426787111.934,33.82524
1426787111.95,36.50844
1426787111.965,39.57109
1426787111.981,43.474884
1426787111.996,48.43634
1426787112.012,54.543945
1426787112.028,61.849762
1426787112.043,70.43936
1426787112.059,80.33621
1426787112.074,91.35742
1426787112.09,102.99005
1426787112.106,114.4823
1426787112.121,125.05148
1426787112.137,134.14218
1426787112.153,141.50699
1426787112.168,147.10501
1426787112.184,150.80908
1426787112.2,152.25464
1426787112.215,150.77689
1426787112.231,145.81403
1426787112.246,137.17297
1426787112.262,125.19302
1426787112.278,110.52759
1426787112.293,93.73981
1426787112.309,74.95993
1426787112.325,53.95639
1426787112.34,30.487213
1426787112.356,4.8229065
1426787112.371,-22.083649
1426787112.387,-48.712463
1426787112.403,-73.47534
1426787112.418,-95.24072
1426787112.434,-113.67828
1426787112.45,-129.17712
1426787112.465,-142.54651
1426787112.481,-154.71716
1426787112.496,-166.55133
1426787112.512,-178.60785
1426787112.528,-191.1723
1426787112.543,-204.15912
1426787112.559,-217.20184
1426787112.575,-229.86389
1426787112.59,-242.01013
1426787112.606,-254.04608
1426787112.621,-266.93524
1426787112.637,-281.89764
1426787112.653,-299.8103
1426787112.668,-320.662
1426787112.684,-343.2422
1426787112.7,-365.23926
1426787112.715,-383.8781
1426787112.731,-396.65747
1426787112.746,-401.98462
1426787112.762,-399.40918
1426787112.778,-389.37744
1426787112.793,-372.5735
1426787112.809,-349.44006
1426787112.825,-319.96033
1426787112.84,-284.1457
1426787112.856,-242.57782
1426787112.871,-196.95117
1426787112.887,-149.84033
1426787112.903,-103.950806
1426787112.918,-61.196716
1426787112.934,-22.222626
1426787112.95,13.30072
1426787112.965,45.826294
1426787112.981,75.17807
1426787112.996,100.33725
1426787113.012,120.09082
1426787113.028,133.83261
1426787113.043,142.08926
1426787113.059,146.27832
1426787113.075,147.78787
1426787113.09,147.1589
1426787113.106,143.96292
1426787113.121,137.57352
1426787113.137,128.34113
1426787113.153,118.235596
1426787113.168,110.57312
1426787113.184,108.69235
1426787113.2,114.39899
1426787113.215,127.042206
1426787113.231,143.74683
1426787113.246,160.6459
1426787113.262,174.49213
1426787113.278,183.71997
1426787113.293,188.60388
1426787113.309,190.52606
1426787113.325,191.0113
1426787113.34,191.02798
1426787113.356,190.84567
1426787113.371,190.37692
1426787113.387,189.58331
1426787113.403,188.66289
1426787113.418,187.84746
1426787113.434,186.98093
1426787113.45,185.23947
1426787113.465,181.11073
1426787113.481,172.76639
1426787113.496,158.7009
1426787113.512,138.5062
1426787113.528,113.31719
1426787113.543,85.74068
1426787113.559,59.179382
1426787113.575,36.713448
1426787113.59,20.031212
1426787113.606,8.850769
1426787113.621,1.2230606
1426787113.637,-5.5304794
1426787113.653,-13.581436
1426787113.668,-23.756874
1426787113.684,-35.462456
1426787113.7,-47.147133
1426787113.715,-57.10824
1426787113.731,-63.97194
1426787113.746,-66.97057
1426787113.762,-65.852264
1426787113.778,-60.969
1426787113.793,-53.352966
1426787113.809,-44.82094
1426787113.825,-37.764366
1426787113.84,-34.49144
1426787113.856,-36.48133
1426787113.871,-43.81225
1426787113.887,-55.191643
1426787113.903,-68.44767
1426787113.918,-81.21256
1426787113.934,-91.43417
1426787113.95,-97.63983
1426787113.965,-98.98894
1426787113.981,-95.36047
1426787113.996,-87.53791
1426787114.012,-77.249565
1426787114.028,-66.913826
1426787114.043,-58.982613
1426787114.059,-55.132706
1426787114.075,-55.62755
1426787114.09,-59.17462
1426787114.106,-63.31942
1426787114.121,-65.22836
1426787114.137,-62.568367
1426787114.153,-54.127785
1426787114.168,-40.071228
1426787114.184,-21.747223
1426787114.2,-1.2062607
1426787114.215,19.518524
1426787114.231,38.942436
1426787114.246,56.432503
1426787114.262,72.158424
1426787114.278,86.613144
1426787114.293,100.16359
1426787114.309,112.67124
1426787114.325,123.39291
1426787114.34,131.18527
1426787114.356,134.83917
1426787114.371,133.38722
1426787114.387,126.402115
1426787114.403,114.01922
1426787114.418,96.99294
1426787114.434,76.53107
1426787114.45,54.168716
1426787114.465,31.542187
1426787114.481,10.203079
1426787114.496,-8.615845
1426787114.512,-24.110096
1426787114.528,-35.957863
1426787114.543,-44.32876
1426787114.559,-49.76938
1426787114.575,-53.02086
1426787114.59,-54.86226
1426787114.606,-55.910004
1426787114.621,-56.549297
1426787114.637,-56.910652
1426787114.653,-56.950615
1426787114.668,-56.5711
1426787114.684,-55.706184
1426787114.7,-54.382698
1426787114.715,-52.807796
1426787114.731,-51.246452
1426787114.746,-50.00473
1426787114.762,-49.262875
1426787114.778,-49.038258
1426787114.793,-49.097706
1426787114.809,-49.076286
1426787114.825,-48.558105
1426787114.84,-47.243305
1426787114.856,-44.99737
1426787114.872,-41.88609
1426787114.887,-38.043453
1426787114.903,-33.652153
1426787114.918,-28.817097
1426787114.934,-23.624657
1426787114.95,-18.154448
1426787114.965,-12.535339
1426787114.981,-6.8972893
1426787114.997,-1.3342705
1426787115.012,4.1639366
1426787115.028,9.729847
1426787115.043,15.546673
1426787115.059,21.704254
1426787115.075,28.144882
1426787115.09,34.575203
1426787115.106,40.59904
1426787115.122,45.86492
1426787115.137,50.29398
1426787115.153,54.133614
1426787115.168,57.93376
1426787115.184,62.37198
1426787115.2,68.02167
1426787115.215,75.09686
1426787115.231,83.28197
1426787115.247,91.652245
1426787115.262,98.81473
1426787115.278,103.15877
1426787115.293,103.23558
1426787115.309,98.14088
1426787115.325,87.8274
1426787115.34,73.11297
1426787115.356,55.515
1426787115.372,36.84942
1426787115.387,18.861092
1426787115.403,2.8619385
1426787115.418,-10.368889
1426787115.434,-20.56018
1426787115.45,-27.804367
1426787115.465,-32.411934
1426787115.481,-34.766106
1426787115.497,-35.26747
1426787115.512,-34.2872
1426787115.528,-32.183403
1426787115.543,-29.282227
1426787115.559,-25.952522
1426787115.575,-22.564384
1426787115.59,-19.49588
1426787115.606,-17.067413
1426787115.622,-15.504822
1426787115.637,-14.910843
1426787115.653,-15.2438965
1426787115.668,-16.390137
1426787115.684,-18.186172
1426787115.7,-20.41674
1426787115.715,-22.840324
1426787115.731,-25.135056
1426787115.747,-26.99218
1426787115.762,-28.148903
1426787115.778,-28.44629
1426787115.793,-27.85955
1426787115.809,-26.477425
1426787115.825,-24.394234
1426787115.84,-21.642456
1426787115.856,-18.11699
1426787115.872,-13.642593
1426787115.887,-8.060898
1426787115.903,-1.3836823
1426787115.918,6.158722
1426787115.934,14.078911
1426787115.95,21.82312
1426787115.965,28.88144
1426787115.981,34.998886
1426787115.997,40.23488
1426787116.012,44.988052
1426787116.028,49.84691
1426787116.043,55.45517
1426787116.059,62.210052
1426787116.075,70.07848
1426787116.09,78.40189
1426787116.106,85.91664
1426787116.122,91.00413
1426787116.137,92.087
1426787116.153,88.12071
1426787116.168,78.888824
1426787116.184,65.098114
1426787116.2,48.12551
1426787116.215,29.611275
1426787116.231,11.1512375
1426787116.247,-5.976166
1426787116.262,-20.84224
1426787116.278,-32.810913
1426787116.293,-41.480034
1426787116.309,-46.734512
1426787116.325,-48.732643
1426787116.34,-47.964767
1426787116.356,-45.070923
1426787116.372,-40.74933
1426787116.387,-35.580162
1426787116.403,-29.988228
1426787116.418,-24.288406
1426787116.434,-18.832458
1426787116.45,-14.026604
1426787116.465,-10.310356
1426787116.481,-8.027695
1426787116.497,-7.2992706
1426787116.512,-7.970352
1426787116.528,-9.658203
1426787116.543,-11.873253
1426787116.559,-14.145027
1426787116.575,-16.079239
1426787116.59,-17.38337
1426787116.606,-17.811325
1426787116.622,-17.145287
1426787116.637,-15.215588
1426787116.653,-11.987762
1426787116.668,-7.616852
1426787116.684,-2.474865
1426787116.7,2.9635544
1426787116.715,8.223911
1426787116.731,13.032127
1426787116.747,17.37336
1426787116.762,21.464314
1426787116.778,25.61335
1426787116.793,30.008698
1426787116.809,34.62188
1426787116.825,39.161247
1426787116.84,43.20237
1426787116.856,46.40895
1426787116.872,48.645477
1426787116.887,50.1174
1426787116.903,51.318443
1426787116.918,52.875237
1426787116.934,55.293064
1426787116.95,58.73569
1426787116.965,62.91623
1426787116.981,67.10467
1426787116.997,70.291565
1426787117.012,71.458725
1426787117.028,69.83068
1426787117.043,64.99263
1426787117.059,56.927826
1426787117.075,45.981495
1426787117.09,32.76033
1426787117.106,18.07849
1426787117.122,2.8741302
1426787117.137,-11.870228
1426787117.153,-25.26613
1426787117.168,-36.642395
1426787117.184,-45.571877
1426787117.2,-51.93835
1426787117.215,-55.84772
1426787117.231,-57.524807
1426787117.247,-57.30269
1426787117.262,-55.52866
1426787117.278,-52.54049
1426787117.293,-48.673763
1426787117.309,-44.28247
1426787117.325,-39.710083
1426787117.34,-35.332207
1426787117.356,-31.512703
1426787117.372,-28.572487
1426787117.387,-26.703812
1426787117.403,-25.921806
1426787117.418,-26.047844
1426787117.434,-26.801514
1426787117.45,-27.899803
1426787117.465,-29.159996
1426787117.481,-30.477905
1426787117.497,-31.752625
1426787117.512,-32.76075
1426787117.528,-33.135498
1426787117.544,-32.449738
1426787117.559,-30.419579
1426787117.575,-27.04049
1426787117.59,-22.646202
1426787117.606,-17.781616
1426787117.622,-13.01606
1426787117.637,-8.741425
1426787117.653,-5.0361786
1426787117.669,-1.7745361
1426787117.684,1.2867279
1426787117.7,4.314163
1426787117.715,7.3657837
1426787117.731,10.3806305
1426787117.747,13.275574
1426787117.762,16.02536
1426787117.778,18.690613
1426787117.794,21.405167
1426787117.809,24.316132
1426787117.825,27.54692
1426787117.84,31.14746
1426787117.856,35.12271
1426787117.872,39.33908
1426787117.887,43.530014
1426787117.903,47.184174
1426787117.919,49.5587
1426787117.934,49.735764
1426787117.95,46.86171
1426787117.965,40.521194
1426787117.981,30.909622
1426787117.997,18.914368
1426787118.012,5.9324036
1426787118.028,-6.605728
1426787118.044,-17.590286
1426787118.059,-26.5345
1426787118.075,-33.541534
1426787118.09,-39.06566
1426787118.106,-43.580734
1426787118.122,-47.315582
1426787118.137,-50.26242
1426787118.153,-52.27562
1426787118.169,-53.2547
1426787118.184,-53.262756
1426787118.2,-52.52858
1426787118.215,-51.3237
1426787118.231,-49.91873
1426787118.247,-48.55313
1426787118.262,-47.5269
1426787118.278,-47.286865
1426787118.294,-48.352875
1426787118.309,-51.134445
1426787118.325,-55.70746
1426787118.34,-61.655533
1426787118.356,-68.11418
1426787118.372,-74.098206
1426787118.387,-78.81665
1426787118.403,-82.07596
1426787118.419,-84.2722
1426787118.434,-86.2146
1426787118.45,-88.750244
1426787118.465,-92.321945
1426787118.481,-96.75937
1426787118.497,-101.39824
1426787118.512,-105.32065
1426787118.528,-107.858185
1426787118.544,-108.91991
1426787118.559,-109.10968
1426787118.575,-109.485344
1426787118.59,-111.1226
1426787118.606,-114.647736
1426787118.622,-119.94168
1426787118.637,-126.15489
1426787118.653,-132.13988
1426787118.669,-136.91086
1426787118.684,-140.11092
1426787118.7,-142.10669
1426787118.715,-143.85999
1426787118.731,-146.72101
1426787118.747,-152.22685
1426787118.762,-161.97577
1426787118.778,-177.38727
1426787118.794,-199.09943
1426787118.809,-226.28683
1426787118.825,-256.21454
1426787118.84,-284.4887
1426787118.856,-306.23004
1426787118.872,-317.5932
1426787118.887,-317.0024
1426787118.903,-305.4742
1426787118.919,-285.685
1426787118.934,-260.4388
1426787118.95,-231.4888
1426787118.965,-199.46042
1426787118.981,-164.73108
1426787118.997,-128.72842
1426787119.012,-94.12744
1426787119.028,-63.970276
1426787119.044,-39.97345
1426787119.059,-21.24945
1426787119.075,-4.3476257
1426787119.09,15.224762
1426787119.106,40.729248
1426787119.122,72.67944
1426787119.137,108.68805
1426787119.153,144.68512
1426787119.169,176.89838
1426787119.184,203.13507
1426787119.2,223.0553
1426787119.215,237.45557
1426787119.231,247.24512
1426787119.247,252.9032
1426787119.262,254.6123
1426787119.278,252.71466
1426787119.294,248.08478
1426787119.309,242.00836
1426787119.325,235.79797
1426787119.34,230.33002
1426787119.356,225.76343
1426787119.372,221.67963
1426787119.387,217.47345
1426787119.403,212.64038
1426787119.419,206.97827
1426787119.434,200.64258
1426787119.45,194.13037
1426787119.465,188.20935
1426787119.481,183.80737
1426787119.497,181.6377
1426787119.512,181.9248
1426787119.528,184.1571
1426787119.544,187.22034
1426787119.559,189.81897
1426787119.575,190.953
1426787119.59,190.1903
1426787119.606,187.3872
1426787119.622,182.2085
1426787119.637,173.73999
1426787119.653,160.55237
1426787119.669,141.3341
1426787119.684,115.64819
1426787119.7,84.47839
1426787119.715,50.049194
1426787119.731,15.243286
1426787119.747,-17.311646
1426787119.762,-45.6604
1426787119.778,-68.6532
1426787119.794,-85.64282
1426787119.809,-96.27966
1426787119.825,-100.50549
1426787119.84,-98.72424
1426787119.856,-91.866455
1426787119.872,-81.089355
1426787119.887,-67.19885
1426787119.903,-50.159546
1426787119.919,-29.24231
1426787119.934,-3.9279785
1426787119.95,24.957031
1426787119.965,54.567993
1426787119.981,80.45068
1426787119.997,97.94287
1426787120.012,104.0896
1426787120.028,98.84033
1426787120.044,85.04309
1426787120.059,67.19763
1426787120.075,49.63086
1426787120.09,35.19751
1426787120.106,24.87024
1426787120.122,18.225098
1426787120.137,14.258911
1426787120.153,11.972778
1426787120.169,10.5859375
1426787120.184,9.523682
1426787120.2,8.438721
1426787120.216,7.2615967
1426787120.231,6.4224854
1426787120.247,6.6032715
1426787120.262,8.532471
1426787120.278,12.498413
1426787120.294,18.279663
1426787120.309,25.240845
1426787120.325,32.660034
1426787120.34,39.985107
1426787120.356,46.94458
1426787120.372,53.36499
1426787120.387,59.034546
1426787120.403,63.693604
1426787120.419,67.16882
1426787120.434,69.53674
1426787120.45,71.22241
1426787120.466,72.81506
1426787120.481,74.92493
1426787120.497,77.95935
1426787120.512,82.09326
1426787120.528,87.32092
1426787120.544,93.488525
1426787120.559,100.20862
1426787120.575,106.828125
1426787120.591,112.26367
1426787120.606,115.14563
1426787120.622,114.0813
1426787120.637,108.06201
1426787120.653,96.7655
1426787120.669,80.72937
1426787120.684,61.212524
1426787120.7,39.96521
1426787120.716,18.807007
1426787120.731,-0.68774414
1426787120.747,-17.4458
1426787120.762,-30.837402
1426787120.778,-40.738403
1426787120.794,-47.302246
1426787120.809,-50.920044
1426787120.825,-52.094727
1426787120.841,-51.424683
1426787120.856,-49.52124
1426787120.872,-46.9541
1426787120.887,-44.20874
1426787120.903,-41.66382
1426787120.919,-39.556274
1426787120.934,-38.123413
1426787120.95,-37.509155
1426787120.966,-37.8479
1426787120.981,-39.152466
1426787120.997,-41.25476
1426787121.012,-43.78064
1426787121.028,-46.256348
1426787121.044,-48.136597
1426787121.059,-49.001465
1426787121.075,-48.641113
1426787121.091,-47.034668
1426787121.106,-44.310303
1426787121.122,-40.656494
1426787121.137,-36.24878
1426787121.153,-31.273804
1426787121.169,-25.901978
1426787121.184,-20.361694
1426787121.2,-14.893311
1426787121.216,-9.67395
1426787121.231,-4.6968994
1426787121.247,0.24157715
1426787121.262,5.543335
1426787121.278,11.538208
1426787121.294,18.333435
1426787121.309,25.691162
1426787121.325,33.135803
1426787121.341,40.13568
1426787121.356,46.366394
1426787121.372,51.890747
1426787121.387,57.121887
1426787121.403,62.668213
1426787121.419,69.138794
1426787121.434,76.93152
1426787121.45,86.18652
1426787121.466,96.67908
1426787121.481,107.789734
1426787121.497,118.41382
1426787121.512,126.990295
1426787121.528,131.77094
1426787121.544,131.19794
1426787121.559,124.4317
1426787121.575,111.73242
1426787121.591,94.49982
1426787121.606,74.874695
1426787121.622,55.215454
1426787121.637,37.45453
1426787121.653,22.768188
1426787121.669,11.560791
1426787121.684,3.6253662
1426787121.7,-1.4968872
1426787121.716,-4.3724365
1426787121.731,-5.628174
1426787121.747,-5.899292
1426787121.762,-5.772522
1426787121.778,-5.7053223
1426787121.794,-5.8863525
1426787121.809,-6.343811
1426787121.825,-7.131897
1426787121.841,-8.6432495
1426787121.856,-11.697449
1426787121.872,-17.297852
1426787121.887,-26.072327
1426787121.903,-37.894714
1426787121.919,-51.766174
1426787121.934,-66.19586
1426787121.95,-79.80078
1426787121.966,-91.76288
1426787121.981,-101.95807
1426787121.997,-110.69165
1426787122.012,-118.35681
1426787122.028,-125.16669
1426787122.044,-131.17084
1426787122.059,-136.49774
1426787122.075,-141.53918
1426787122.091,-147.02014
1426787122.106,-153.71332
1426787122.122,-162.1272
1426787122.137,-172.05829
1426787122.153,-182.4408
1426787122.169,-191.50677
1426787122.184,-197.19867
1426787122.2,-197.7182
1426787122.216,-191.99603
1426787122.231,-180.008
1426787122.247,-162.66608
1426787122.262,-141.45642
1426787122.278,-118.07062
1426787122.294,-94.01074
1426787122.309,-70.46112
1426787122.325,-48.3183
1426787122.341,-28.236694
1426787122.356,-10.649536
1426787122.372,4.2440186
1426787122.387,16.577148
1426787122.403,26.79132
1426787122.419,35.602417
1426787122.434,43.816345
1426787122.45,52.080383
1426787122.466,60.666626
1426787122.481,69.420044
1426787122.497,77.9884
1426787122.512,86.161316
1426787122.528,94.124146
1426787122.544,102.40662
1426787122.559,111.30829
1426787122.575,120.30896
1426787122.591,127.68298
1426787122.606,130.919
1426787122.622,127.73108
1426787122.637,117.411255
1426787122.653,101.51953
1426787122.669,83.54883
1426787122.684,67.49164
1426787122.7,56.149902
1426787122.716,49.963318
1426787122.731,47.037964
1426787122.747,44.01184
1426787122.762,37.481873
1426787122.778,25.216736
1426787122.794,6.7440186
1426787122.809,-16.625488
1426787122.825,-42.26776
1426787122.841,-66.86401
1426787122.856,-87.00989
1426787122.872,-99.94147
1426787122.888,-104.1012
1426787122.903,-99.694885
1426787122.919,-88.84128
1426787122.934,-75.300476
1426787122.95,-63.589966
1426787122.966,-57.69055
1426787122.981,-59.79596
1426787122.997,-69.4079
1426787123.012,-83.33603
1426787123.028,-96.539246
1426787123.044,-103.74002
1426787123.059,-101.22229
1426787123.075,-88.01721
1426787123.091,-66.09827
1426787123.106,-39.3909
1426787123.122,-12.356537
1426787123.138,11.513306
1426787123.153,30.35904
1426787123.169,43.96527
1426787123.184,53.198517
1426787123.2,59.405396
1426787123.216,63.84326
1426787123.231,67.5824
1426787123.247,71.36459
1426787123.263,75.66983
1426787123.278,80.648315
1426787123.294,86.15857
1426787123.309,91.80621
1426787123.325,97.087036
1426787123.341,101.55966
1426787123.356,104.99164
1426787123.372,107.454285
1426787123.388,109.30295
1426787123.403,111.036865
1426787123.419,113.14798
1426787123.434,115.99802
1426787123.45,119.71176
1426787123.466,124.29434
1426787123.481,129.67874
1426787123.497,135.81747
1426787123.513,142.61923
1426787123.528,149.71283
1426787123.544,156.21579
1426787123.559,160.59702
1426787123.575,160.94473
1426787123.591,155.414
1426787123.606,142.92981
1426787123.622,123.60559
1426787123.638,98.83075
1426787123.653,70.91037
1426787123.669,42.470917
1426787123.684,15.7977295
1426787123.7,-7.4926453
1426787123.716,-26.59262
1426787123.731,-41.305145
1426787123.747,-51.842102
1426787123.763,-58.648773
1426787123.778,-62.317993
1426787123.794,-63.56842
1426787123.809,-63.212143
1426787123.825,-62.095306
1426787123.841,-61.002396
1426787123.856,-60.493713
1426787123.872,-60.94362
1426787123.888,-62.47548
1426787123.903,-65.0715
1426787123.919,-68.63045
1426787123.934,-73.04387
1426787123.95,-78.194046
1426787123.966,-83.88835
1426787123.981,-89.78937
1426787123.997,-95.37302
1426787124.013,-100.017654
1426787124.028,-103.05838
1426787124.044,-104.066315
1426787124.059,-102.88751
1426787124.075,-99.69966
1426787124.091,-94.96853
1426787124.106,-89.28699
1426787124.122,-83.22344
1426787124.138,-77.17313
1426787124.153,-71.30708
1426787124.169,-65.55083
1426787124.184,-59.71162
1426787124.2,-53.56103
1426787124.216,-47.030964
1426787124.231,-40.22433
1426787124.247,-33.419426
1426787124.263,-26.917349
1426787124.278,-20.890308
1426787124.294,-15.320102
1426787124.309,-9.990431
1426787124.325,-4.60763
1426787124.341,1.0499496
1426787124.356,7.072592
1426787124.372,13.413834
1426787124.388,19.969143
1426787124.403,26.627724
1426787124.419,33.300926
1426787124.434,39.938343
1426787124.45,46.544273
1426787124.466,53.189705
1426787124.481,60.163536
1426787124.497,67.94233
1426787124.513,77.01866
1426787124.528,87.59561
1426787124.544,99.153915
1426787124.559,110.22282
1426787124.575,118.58225
1426787124.591,121.76554
1426787124.606,117.863304
1426787124.622,106.1246
1426787124.638,87.28079
1426787124.653,63.286057
1426787124.669,36.779343
1426787124.684,10.382217
1426787124.7,-13.762634
1426787124.716,-34.268097
1426787124.731,-50.437653
1426787124.747,-62.127228
1426787124.763,-69.568405
1426787124.778,-73.19696
1426787124.794,-73.63913
1426787124.809,-71.63847
1426787124.825,-68.03218
1426787124.841,-63.646698
1426787124.856,-59.24385
1426787124.872,-55.40068
1426787124.888,-52.46083
1426787124.903,-50.544266
1426787124.919,-49.587738
1426787124.934,-49.499084
1426787124.95,-50.228394
1426787124.966,-51.792206
1426787124.981,-54.20636
1426787124.997,-57.355988
1426787125.013,-60.86197
1426787125.028,-64.12546
1426787125.044,-66.44537
1426787125.059,-67.28168
1426787125.075,-66.401276
1426787125.091,-63.929626
1426787125.106,-60.219543
1426787125.122,-55.682983
1426787125.138,-50.60797
1426787125.153,-45.15399
1426787125.169,-39.379425
1426787125.184,-33.32849
1426787125.2,-27.068054
1426787125.216,-20.691925
1426787125.231,-14.205414
1426787125.247,-7.5346375
1426787125.263,-0.58026123
1426787125.278,6.657257
1426787125.294,14.003815
1426787125.309,21.104431
1426787125.325,27.569733
1426787125.341,33.24417
1426787125.356,38.344086
1426787125.372,43.53763
1426787125.388,49.753693
1426787125.403,57.739594
1426787125.419,67.66617
1426787125.434,78.744446
1426787125.45,89.19571
1426787125.466,96.63837
1426787125.481,98.78494
1426787125.497,94.16812
1426787125.513,82.674194
1426787125.528,65.53818
1426787125.544,44.96808
1426787125.559,23.421417
1426787125.575,2.9553528
1426787125.591,-15.154694
1426787125.606,-30.426392
1426787125.622,-42.758453
1426787125.638,-52.182434
1426787125.653,-58.602936
1426787125.669,-61.762512
1426787125.684,-61.639618
1426787125.7,-58.51581
1426787125.716,-53.083313
1426787125.731,-46.372437
1426787125.747,-39.590363
1426787125.763,-33.92926
1426787125.778,-30.41455
1426787125.794,-29.687866
1426787125.81,-31.869568
1426787125.825,-36.569366
1426787125.841,-43.056152
1426787125.856,-50.423523
1426787125.872,-57.92752
1426787125.888,-65.026886
1426787125.903,-71.38168
1426787125.919,-76.69873
1426787125.935,-80.70868
1426787125.95,-83.077545
1426787125.966,-83.51611
1426787125.981,-81.76419
1426787125.997,-77.556946
1426787126.013,-70.66162
1426787126.028,-61.032684
1426787126.044,-49.12616
1426787126.06,-36.188507
1426787126.075,-24.146027
1426787126.091,-15.061676
1426787126.106,-10.1736145
1426787126.122,-9.200531
1426787126.138,-10.3172
1426787126.153,-11.104126
1426787126.169,-9.493408
1426787126.185,-4.8049927
1426787126.2,2.134613
1426787126.216,9.725525
1426787126.231,16.710358
1426787126.247,23.05368
1426787126.263,30.04602
1426787126.278,39.42978
1426787126.294,52.345
1426787126.31,68.31439
1426787126.325,85.21735
1426787126.341,99.95062
1426787126.356,109.63202
1426787126.372,112.53082
1426787126.388,108.50882
1426787126.403,98.78882
1426787126.419,85.38916
1426787126.435,70.29602
1426787126.45,54.990234
1426787126.466,40.276
1426787126.481,26.419983
1426787126.497,13.558594
1426787126.513,1.9401245
1426787126.528,-7.9328613
1426787126.544,-15.47406
1426787126.56,-20.320862
1426787126.575,-22.531494
1426787126.591,-22.677917
1426787126.606,-21.640625
1426787126.622,-20.373901
1426787126.638,-19.347717
1426787126.653,-18.667114
1426787126.669,-18.173645
1426787126.685,-17.782593
1426787126.7,-17.715271
1426787126.716,-18.518066
1426787126.731,-20.763428
1426787126.747,-24.784546
1426787126.763,-30.392761
1426787126.778,-36.98181
1426787126.794,-43.538757
1426787126.81,-49.010193
1426787126.825,-52.543762
1426787126.841,-53.68335
1426787126.856,-52.447998
1426787126.872,-49.27478
1426787126.888,-44.757446
1426787126.903,-39.50885
1426787126.919,-33.89862
1426787126.935,-27.995728
1426787126.95,-21.621582
1426787126.966,-14.450195
1426787126.981,-6.2285767
1426787126.997,3.0647583
1426787127.013,13.161682
1426787127.028,23.4917
1426787127.044,33.376526
1426787127.06,42.215088
1426787127.075,49.720825
1426787127.091,56.049133
1426787127.106,61.81494
1426787127.122,67.897766
1426787127.138,75.216
1426787127.153,84.35211
1426787127.169,95.22656
1426787127.185,106.88629
1426787127.2,117.54779
1426787127.216,124.86725
1426787127.231,126.50177
1426787127.247,120.794495
1426787127.263,107.350525
1426787127.278,87.22577
1426787127.294,62.68457
1426787127.31,36.518066
1426787127.325,11.3602295
1426787127.341,-10.893066
1426787127.356,-29.269592
1426787127.372,-43.566772
1426787127.388,-53.968567
1426787127.403,-60.838623
1426787127.419,-64.56372
1426787127.435,-65.631836
1426787127.45,-64.63733
1426787127.466,-62.32605
1426787127.481,-59.425415
1426787127.497,-56.513123
1426787127.513,-53.909973
1426787127.528,-51.76294
1426787127.544,-50.14325
1426787127.56,-49.205444
1426787127.575,-49.231384
1426787127.591,-50.548157
1426787127.606,-53.337646
1426787127.622,-57.493042
1426787127.638,-62.477478
1426787127.653,-67.45624
1426787127.669,-71.43817
1426787127.685,-73.617065
1426787127.7,-73.55542
1426787127.716,-71.2865
1426787127.731,-67.2262
1426787127.747,-61.968018
1426787127.763,-56.03174
1426787127.778,-49.803406
1426787127.794,-43.451782
1426787127.81,-37.007813
1426787127.825,-30.438416
1426787127.841,-23.632446
1426787127.856,-16.497742
1426787127.872,-8.967712
1426787127.888,-1.1189575
1426787127.903,6.800476
1426787127.919,14.421936
1426787127.935,21.333923
1426787127.95,27.310791
1426787127.966,32.430176
1426787127.981,37.156372
1426787127.997,42.20697
1426787128.013,48.382385
1426787128.028,56.24414
1426787128.044,65.8432
1426787128.06,76.41058
1426787128.075,86.37463
1426787128.091,93.51416
1426787128.106,95.523254
1426787128.122,90.654724
1426787128.138,78.35687
1426787128.153,59.458984
1426787128.169,36.004395
1426787128.185,10.600586
1426787128.2,-14.2547
1426787128.216,-36.767273
1426787128.231,-55.93976
1426787128.247,-71.473145
1426787128.263,-83.45068
1426787128.278,-92.0896
1426787128.294,-97.703186
1426787128.31,-100.73346
1426787128.325,-101.81506
1426787128.341,-101.72534
1426787128.356,-101.27594
1426787128.372,-101.07788
1426787128.388,-101.53052
1426787128.403,-102.83008
1426787128.419,-105.129944
1426787128.435,-108.65399
1426787128.45,-113.737305
1426787128.466,-120.76459
1426787128.482,-129.88275
1426787128.497,-140.79065
1426787128.513,-152.59216
1426787128.528,-163.91235
1426787128.544,-173.21777
1426787128.56,-179.33295
1426787128.575,-181.7829
1426787128.591,-180.98022
1426787128.607,-177.94421
1426787128.622,-173.81244
1426787128.638,-169.3363
1426787128.653,-164.66553
1426787128.669,-159.4397
1426787128.685,-153.1123
1426787128.7,-145.2417
1426787128.716,-135.64331
1426787128.732,-124.26044
1426787128.747,-111.10004
1426787128.763,-96.188965
1426787128.778,-79.72336
1426787128.794,-62.113495
1426787128.81,-44.001587
1426787128.825,-26.016052
1426787128.841,-8.487732
1426787128.857,8.683716
1426787128.872,25.912048
1426787128.888,43.644318
1426787128.903,61.977173
1426787128.919,80.48132
1426787128.935,98.28888
1426787128.95,114.505035
1426787128.966,128.48795
1426787128.982,140.06003
1426787128.997,149.32349
1426787129.013,156.36356
1426787129.028,160.9071
1426787129.044,162.28122
1426787129.06,159.6783
1426787129.075,152.67548
1426787129.091,141.6537
1426787129.107,127.9447
1426787129.122,113.49638
1426787129.138,100.28139
1426787129.153,89.64145
1426787129.169,81.97141
1426787129.185,76.78008
1426787129.2,73.14046
1426787129.216,70.2066
1426787129.232,67.615326
1426787129.247,65.46445
1426787129.263,64.14763
1426787129.278,63.890224
1426787129.294,64.4861
1426787129.31,65.18265
1426787129.325,64.91396
1426787129.341,62.68182
1426787129.357,57.97689
1426787129.372,50.949352
1426787129.388,42.404243
1426787129.403,33.483498
1426787129.419,25.376778
1426787129.435,18.989143
1426787129.45,14.905319
1426787129.466,13.341682
1426787129.482,14.241402
1426787129.497,17.314133
1426787129.513,22.06401
1426787129.528,27.778587
1426787129.544,33.52176
1426787129.56,38.173203
1426787129.575,40.60614
1426787129.591,39.917793
1426787129.607,35.787308
1426787129.622,28.732712
1426787129.638,20.131142
1426787129.653,11.9015045
1426787129.669,5.891075
1426787129.685,3.222763
1426787129.7,3.994751
1426787129.716,7.269699
1426787129.732,11.612839
1426787129.747,15.6716
1426787129.763,18.605484
1426787129.778,20.096176
1426787129.794,20.20282
1426787129.81,19.161057
1426787129.825,17.389267
1426787129.841,15.501282
1426787129.857,14.299149
1426787129.872,14.466034
1426787129.888,16.189545
1426787129.903,18.843933
1426787129.919,21.122177
1426787129.935,21.414993
1426787129.95,18.454453
1426787129.966,11.685455
1426787129.982,1.3833771
1426787129.997,-11.555481
1426787130.013,-25.896194
1426787130.028,-40.32187
1426787130.044,-53.568466
1426787130.06,-64.5697
1426787130.075,-72.55858
1426787130.091,-77.28847
1426787130.107,-79.111725
1426787130.122,-78.82893
1426787130.138,-77.35239
1426787130.153,-75.24228
1426787130.169,-72.512085
1426787130.185,-68.76279
1426787130.2,-63.44449
1426787130.216,-56.278107
1426787130.232,-47.55435
1426787130.247,-38.06012
1426787130.263,-28.844604
1426787130.278,-20.842102
1426787130.294,-14.506897
1426787130.31,-9.670044
1426787130.325,-5.6137695
1426787130.341,-1.4385681
1426787130.357,3.6002502
1426787130.372,9.705017
1426787130.388,16.535187
1426787130.403,23.371246
1426787130.419,29.462524
1426787130.435,34.35257
1426787130.45,38.065765
1426787130.466,40.927216
1426787130.482,43.354523
1426787130.497,45.58487
1426787130.513,47.59262
1426787130.528,49.242157
1426787130.544,50.44272
1426787130.56,51.324585
1426787130.575,52.163788
1426787130.591,53.26483
1426787130.607,54.82251
1426787130.622,56.89383
1426787130.638,59.48703
1426787130.653,62.55667
1426787130.669,65.96063
1426787130.685,69.31058
1426787130.7,71.8931
1426787130.716,72.82474
1426787130.732,71.36078
1426787130.747,67.23712
1426787130.763,60.815857
1426787130.778,52.952698
1426787130.794,44.619812
1426787130.81,36.536133
1426787130.825,29.038818
1426787130.841,22.164612
1426787130.857,15.981995
1426787130.872,10.756714
1426787130.888,6.9710083
1426787130.903,5.1321106
1426787130.919,5.501465
1426787130.935,7.8773193
1426787130.95,11.624786
1426787130.966,15.783508
1426787130.982,19.361237
1426787130.997,21.552399
1426787131.013,21.957
1426787131.028,20.626984
1426787131.044,17.98288
1426787131.06,14.628052
1426787131.075,11.093231
1426787131.091,7.664673
1426787131.107,4.3733215
1426787131.122,1.0753174
1426787131.138,-2.3324585
1426787131.154,-5.760254
1426787131.169,-8.896118
1426787131.185,-11.278809
1426787131.2,-12.493164
1426787131.216,-12.34613
1426787131.232,-10.869873
1426787131.247,-8.292236
1426787131.263,-4.8704224
1426787131.278,-0.8048401
1426787131.294,3.8440552
1426787131.31,9.060944
1426787131.325,14.817108
1426787131.341,20.942413
1426787131.357,27.18222
1426787131.372,33.264893
1426787131.388,38.949127
1426787131.404,44.041046
1426787131.419,48.29837
1426787131.435,51.362457
1426787131.45,52.74817
1426787131.466,51.951996
1426787131.482,48.71884
1426787131.497,43.203186
1426787131.513,36.01288
1426787131.529,28.015106
1426787131.544,20.065643
1426787131.56,12.737335
1426787131.575,6.2435303
1426787131.591,0.5053711
1426787131.607,-4.631317
1426787131.622,-9.264343
1426787131.638,-13.354614
1426787131.654,-16.729431
1426787131.669,-19.197174
1426787131.685,-20.586823
1426787131.7,-20.75882
1426787131.716,-19.680878
1426787131.732,-17.451752
1426787131.747,-14.387543
1426787131.763,-10.994446
1426787131.779,-7.9660034
1426787131.794,-5.9415894
1426787131.81,-5.3280945
1426787131.825,-6.1254272
1426787131.841,-7.993103
1426787131.857,-10.341431
1426787131.872,-12.596222
1426787131.888,-14.350739
1426787131.904,-15.434174
1426787131.919,-15.846588
1426787131.935,-15.6510315
1426787131.95,-14.927826
1426787131.966,-13.733002
1426787131.982,-12.106506
1426787131.997,-10.10672
1426787132.013,-7.7335815
1426787132.029,-4.964691
1426787132.044,-1.7385864
1426787132.06,1.9971619
1426787132.075,6.218628
1426787132.091,10.841248
1426787132.107,15.762482
1426787132.122,20.904541
1426787132.138,26.231232
1426787132.154,31.690704
1426787132.169,37.06967
1426787132.185,41.88748
1426787132.2,45.43158
1426787132.216,46.89975
1426787132.232,45.663147
1426787132.247,41.480103
1426787132.263,34.604797
1426787132.279,25.723602
1426787132.294,15.763397
1426787132.31,5.670288
1426787132.325,-3.7465515
1426787132.341,-11.926147
1426787132.357,-18.564056
1426787132.372,-23.490906
1426787132.388,-26.662811
1426787132.404,-28.12387
1426787132.419,-28.006653
1426787132.435,-26.561981
1426787132.45,-24.156036
1426787132.466,-21.201416
1426787132.482,-18.070404
1426787132.497,-15.008667
1426787132.513,-12.139923
1426787132.529,-9.507141
1426787132.544,-7.1697083
1426787132.56,-5.2843323
1426787132.575,-4.1029053
1426787132.591,-3.8991394
1426787132.607,-4.796173
1426787132.622,-6.6698303
1426787132.638,-9.091248
1426787132.654,-11.478638
1426787132.669,-13.187622
1426787132.685,-13.808624
1426787132.7,-13.16217
1426787132.716,-11.401398
1426787132.732,-8.856659
1426787132.747,-5.9301147
1426787132.763,-2.9273987
1426787132.779,-0.018920898
1426787132.794,2.7792053
1426787132.81,5.5576477
1426787132.825,8.503815
1426787132.841,11.839722
1426787132.857,15.777954
1426787132.872,20.487366
1426787132.888,25.982208
1426787132.904,32.07434
1426787132.919,38.237854
1426787132.935,43.674774
1426787132.95,47.46457
1426787132.966,48.69992
1426787132.982,46.85135
1426787132.997,41.8544
1426787133.013,34.193237
1426787133.029,24.698486
1426787133.044,14.3367
1426787133.06,3.9492188
1426787133.075,-5.8546143
1426787133.091,-14.70578
1426787133.107,-22.373962
1426787133.122,-28.649353
1426787133.138,-33.34012
1426787133.154,-36.324677
1426787133.169,-37.632355
1426787133.185,-37.511017
1426787133.2,-36.348755
1426787133.216,-34.585663
1426787133.232,-32.568268
1426787133.247,-30.527084
1426787133.263,-28.594269
1426787133.279,-26.889389
1426787133.294,-25.538986
1426787133.31,-24.734833
1426787133.325,-24.597946
1426787133.341,-25.142487
1426787133.357,-26.202545
1426787133.372,-27.445358
1426787133.388,-28.514343
1426787133.404,-29.086304
1426787133.419,-28.994461
1426787133.435,-28.228958
1426787133.45,-26.87642
1426787133.466,-25.068329
1426787133.482,-22.864304
1426787133.497,-20.24646
1426787133.513,-17.082214
1426787133.529,-13.260803
1426787133.544,-8.712448
1426787133.56,-3.5442352
1426787133.575,2.0193176
1426787133.591,7.7124634
1426787133.607,13.353104
1426787133.622,18.92807
1426787133.638,24.59285
1426787133.654,30.597672
1426787133.669,37.124664
1426787133.685,44.1606
1426787133.7,51.415787
1426787133.716,58.323364
1426787133.732,64.099106
1426787133.747,67.89517
1426787133.763,68.95264
1426787133.779,66.73767
1426787133.794,61.087357
1426787133.81,52.259476
1426787133.826,40.92694
1426787133.841,28.065094
1426787133.857,14.786774
1426787133.872,2.1352692
1426787133.888,-9.082916
1426787133.904,-18.345352
1426787133.919,-25.492004
1426787133.935,-30.650696
1426787133.95,-34.122787
1426787133.966,-36.3114
1426787133.982,-37.56044
1426787133.997,-38.159424
1426787134.013,-38.24063
1426787134.029,-37.90158
1426787134.044,-37.21692
1426787134.06,-36.334183
1426787134.076,-35.464874
1426787134.091,-34.865906
1426787134.107,-34.735565
1426787134.122,-35.141342
1426787134.138,-35.960495
1426787134.154,-36.962036
1426787134.169,-37.876495
1426787134.185,-38.46039
1426787134.201,-38.54219
1426787134.216,-38.02353
1426787134.232,-36.839447
1426787134.247,-34.97075
1426787134.263,-32.442535
1426787134.279,-29.385086
1426787134.294,-26.021881
1426787134.31,-22.619354
1426787134.326,-19.418915
1426787134.341,-16.532272
1426787134.357,-13.868408
1426787134.372,-11.138901
1426787134.388,-7.9613953
1426787134.404,-4.019623
1426787134.419,0.7531433
1426787134.435,6.119812
1426787134.451,11.636887
1426787134.466,16.810242
1426787134.482,21.337112
1426787134.497,25.242172
1426787134.513,28.828735
1426787134.529,32.5085
1426787134.544,36.65715
1426787134.56,41.43892
1426787134.576,46.82051
1426787134.591,52.580948
1426787134.607,58.32254
1426787134.622,63.49243
1426787134.638,67.372086
1426787134.654,69.160904
1426787134.669,68.123886
1426787134.685,63.81041
1426787134.701,56.260513
1426787134.716,46.043777
1426787134.732,34.170135
1426787134.747,21.794212
1426787134.763,9.982994
1426787134.779,-0.53196716
1426787134.794,-9.429733
1426787134.81,-16.712944
1426787134.826,-22.523369
1426787134.841,-27.010544
1426787134.857,-30.259682
1426787134.872,-32.34851
1426787134.888,-33.45082
1426787134.904,-33.876038
1426787134.919,-34.06211
1426787134.935,-34.411392
1426787134.951,-35.22225
1426787134.966,-36.54344
1426787134.982,-38.305428
1426787134.997,-40.30918
1426787135.013,-42.3489
1426787135.029,-44.25892
1426787135.044,-45.871727
1426787135.06,-47.05268
1426787135.076,-47.69142
1426787135.091,-47.733635
1426787135.107,-47.154335
1426787135.122,-45.959282
1426787135.138,-44.138092
1426787135.154,-41.66452
1426787135.169,-38.557686
1426787135.185,-34.939972
1426787135.201,-31.041565
1426787135.216,-27.12516
1426787135.232,-23.411339
1426787135.247,-19.975273
1426787135.263,-16.71067
1426787135.279,-13.432709
1426787135.294,-9.948311
1426787135.31,-6.170189
1426787135.326,-2.1067123
1426787135.341,2.13443
1426787135.357,6.4756393
1426787135.372,10.839195
1426787135.388,15.216606
1426787135.404,19.5867
1426787135.419,23.878708
1426787135.435,27.973465
1426787135.451,31.778381
1426787135.466,35.32122
1426787135.482,38.782402
1426787135.497,42.521294
1426787135.513,46.88263
1426787135.529,52.005608
1426787135.544,57.595955
1426787135.56,62.883003
1426787135.576,66.76301
1426787135.591,68.076996
1426787135.607,66.00798
1426787135.622,60.313423
1426787135.638,51.395386
1426787135.654,40.138626
1426787135.669,27.66275
1426787135.685,15.028679
1426787135.701,3.063202
1426787135.716,-7.6763763
1426787135.732,-16.889626
1426787135.747,-24.3908
1426787135.763,-30.107079
1426787135.779,-34.05484
1426787135.794,-36.397865
1426787135.81,-37.449844
1426787135.826,-37.67729
1426787135.841,-37.583
1426787135.857,-37.561226
1426787135.872,-37.839516
1426787135.888,-38.412346
1426787135.904,-39.111618
1426787135.919,-39.751022
1426787135.935,-40.25129
1426787135.951,-40.653854
1426787135.966,-41.082664
1426787135.982,-41.639587
1426787135.997,-42.304367
1426787136.013,-42.950935
1426787136.029,-43.31756
1426787136.044,-43.13952
1426787136.06,-42.18515
1426787136.076,-40.330956
1426787136.091,-37.567253
1426787136.107,-34.028572
1426787136.122,-29.957825
1426787136.138,-25.675377
1426787136.154,-21.465515
1426787136.169,-17.521866
1426787136.185,-13.861511
1426787136.201,-10.384689
1426787136.216,-6.9601593
1426787136.232,-3.50766
1426787136.247,-0.06437683
1426787136.263,3.2382507
1426787136.279,6.2553253
1426787136.294,8.906097
1426787136.31,11.203262
1426787136.326,13.223587
1426787136.341,15.07634
1426787136.357,16.895737
1426787136.372,18.89679
1426787136.388,21.379807
1426787136.404,24.731644
1426787136.419,29.282364
1426787136.435,35.128998
1426787136.451,41.9653
1426787136.466,49.072372
1426787136.482,55.459106
1426787136.497,60.106735
1426787136.513,62.192825
1426787136.529,61.197754
1426787136.544,56.944214
1426787136.56,49.536835
1426787136.576,39.365448
1426787136.591,27.108643
1426787136.607,13.780945
1426787136.622,0.64476013
1426787136.638,-11.010025
1426787136.654,-20.109146
1426787136.669,-26.105515
1426787136.685,-29.038605
1426787136.701,-29.45848
1426787136.716,-28.186752
1426787136.732,-26.018692
1426787136.748,-23.54567
1426787136.763,-21.062347
1426787136.779,-18.654373
1426787136.794,-16.319214
1426787136.81,-14.117859
1426787136.826,-12.119598
1426787136.841,-10.451508
1426787136.857,-9.185898
1426787136.873,-8.330261
1426787136.888,-7.8466034
1426787136.904,-7.7011566
1426787136.919,-7.8815765
1426787136.935,-8.423325
1426787136.951,-9.310654
1426787136.966,-10.434662
1426787136.982,-11.569977
1426787136.998,-12.414902
1426787137.013,-12.684113
1426787137.029,-12.213806
1426787137.044,-11.031494
1426787137.06,-9.327774
1426787137.076,-7.361038
1426787137.091,-5.3390656
1426787137.107,-3.303772
1426787137.123,-1.1366577
1426787137.138,1.3942413
1426787137.154,4.4752045
1426787137.169,8.133896
1426787137.185,12.184219
1426787137.201,16.325974
1426787137.216,20.217407
1426787137.232,23.695053
1426787137.248,26.802597
1426787137.263,29.75682
1426787137.279,32.799835
1426787137.294,36.034958
1426787137.31,39.338806
1426787137.326,42.313614
1426787137.341,44.44626
1426787137.357,45.201584
1426787137.373,44.152878
1426787137.388,41.070633
1426787137.404,35.92566
1426787137.419,28.953445
1426787137.435,20.589386
1426787137.451,11.44368
1426787137.466,2.168335
1426787137.482,-6.597
1426787137.498,-14.350342
1426787137.513,-20.788483
1426787137.529,-25.766144
1426787137.544,-29.293945
1426787137.56,-31.463898
1426787137.576,-32.42218
1426787137.591,-32.366867
1426787137.607,-31.573105
1426787137.623,-30.343842
1426787137.638,-28.994232
1426787137.654,-27.798218
1426787137.669,-26.91658
1426787137.685,-26.472458
1426787137.701,-26.48082
1426787137.716,-26.877121
1426787137.732,-27.551422
1426787137.748,-28.335846
1426787137.763,-29.034958
1426787137.779,-29.456375
1426787137.794,-29.480942
1426787137.81,-29.036026
1426787137.826,-28.105103
1426787137.841,-26.705154
1426787137.857,-24.810028
1426787137.873,-22.34143
1426787137.888,-19.181213
1426787137.904,-15.297424
1426787137.919,-10.781097
1426787137.935,-5.909027
1426787137.951,-1.1122742
1426787137.966,3.1626587
1426787137.982,6.5979614
1426787137.998,9.151489
1426787138.013,11.038849
1426787138.029,12.646362
1426787138.044,14.380524
1426787138.06,16.475464
1426787138.076,18.960632
1426787138.091,21.653198
1426787138.107,24.306183
1426787138.123,26.733887
1426787138.138,28.87558
1426787138.154,30.842957
1426787138.169,32.82498
1426787138.185,35.009003
1426787138.201,37.492676
1426787138.216,40.24942
1426787138.232,43.13852
1426787138.248,45.88446
1426787138.263,48.081024
1426787138.279,49.270813
1426787138.294,48.966553
1426787138.31,46.74362
1426787138.326,42.40323
1426787138.341,36.05188
1426787138.357,28.132294
1426787138.373,19.36679
1426787138.388,10.586212
1426787138.404,2.5152893
1426787138.419,-4.4031067
1426787138.435,-10.04892
1426787138.451,-14.519775
1426787138.466,-17.988953
1426787138.482,-20.571533
1426787138.498,-22.262848
1426787138.513,-23.016693
1426787138.529,-22.858032
1426787138.544,-21.981934
1426787138.56,-20.715576
1426787138.576,-19.435455
1426787138.591,-18.456238
1426787138.607,-17.918213
1426787138.623,-17.811157
1426787138.638,-18.05371
1426787138.654,-18.564209
1426787138.669,-19.324158
1426787138.685,-20.362946
1426787138.701,-21.66391
1426787138.716,-23.13916
1426787138.732,-24.575653
1426787138.748,-25.688354
1426787138.763,-26.189087
1426787138.779,-25.929443
1426787138.794,-24.910309
1426787138.81,-23.331451
1426787138.826,-21.454102
1426787138.841,-19.492401
1426787138.857,-17.510376
1426787138.873,-15.387604
1426787138.888,-12.947571
1426787138.904,-10.101135
1426787138.919,-6.9039
1426787138.935,-3.5898743
1426787138.951,-0.45892334
1426787138.966,2.339447
1426787138.982,4.8606567
1426787138.998,7.3356934
1426787139.013,10.086151
1426787139.029,13.28009
1426787139.044,16.842987
1426787139.06,20.488647
1426787139.076,23.87558
1426787139.091,26.776459
1426787139.107,29.200714
1426787139.123,31.420105
1426787139.138,33.84137
1426787139.154,36.83072
1426787139.169,40.520752
1426787139.185,44.735138
1426787139.201,49.014313
1426787139.216,52.646088
1426787139.232,54.897217
1426787139.248,55.1416
1426787139.263,53.064453
1426787139.279,48.702026
1426787139.294,42.442627
1426787139.31,34.86911
1426787139.326,26.635376
1426787139.341,18.300629
1426787139.357,10.31665
1426787139.373,2.9940186
1426787139.388,-3.4015503
1426787139.404,-8.662903
1426787139.42,-12.657318
1426787139.435,-15.395752
1426787139.451,-17.041107
1426787139.466,-17.897736
1426787139.482,-18.247437
1426787139.498,-18.313232
1426787139.513,-18.191193
1426787139.529,-17.883331
1426787139.545,-17.445618
1426787139.56,-16.97522
1426787139.576,-16.652283
1426787139.591,-16.678955
1426787139.607,-17.13089
1426787139.623,-17.98587
1426787139.638,-19.03894
1426787139.654,-20.056824
1426787139.67,-20.81482
1426787139.685,-21.219055
1426787139.701,-21.264801
1426787139.716,-21.029022
1426787139.732,-20.582336
1426787139.748,-19.961487
1426787139.763,-19.16397
1426787139.779,-18.142212
1426787139.795,-16.85608
1426787139.81,-15.260132
1426787139.826,-13.300049
1426787139.841,-10.935089
1426787139.857,-8.10788
1426787139.873,-4.842621
1426787139.888,-1.2240906
1426787139.904,2.536255
1426787139.92,6.2030945
1426787139.935,9.559662
1426787139.951,12.479248
1426787139.966,14.886017
1426787139.982,16.812653
1426787139.998,18.367249
1426787140.013,19.694855
1426787140.029,20.99411
1426787140.045,22.448456
1426787140.06,24.187958
1426787140.076,26.224854
1426787140.091,28.456787
1426787140.107,30.712341
1426787140.123,32.777832
1426787140.138,34.416718
1426787140.154,35.360474
1426787140.17,35.254333
1426787140.185,33.6597
1426787140.201,30.231323
1426787140.216,24.828766
1426787140.232,17.699951
1426787140.248,9.487366
1426787140.263,1.0467224
1426787140.279,-6.7803955
1426787140.295,-13.391724
1426787140.31,-18.512726
1426787140.326,-22.130798
1426787140.341,-24.40921
1426787140.357,-25.542603
1426787140.373,-25.690155
1426787140.388,-24.956024
1426787140.404,-23.473114
1426787140.42,-21.412567
1426787140.435,-18.976654
1426787140.451,-16.44046
1426787140.466,-14.071838
1426787140.482,-12.096191
1426787140.498,-10.645721
1426787140.513,-9.762512
1426787140.529,-9.406403
1426787140.545,-9.45343
1426787140.56,-9.764832
1426787140.576,-10.203003
1426787140.591,-10.634277
1426787140.607,-10.891083
1426787140.623,-10.778015
1426787140.638,-10.096161
1426787140.654,-8.725464
1426787140.67,-6.6777954
1426787140.685,-4.15213
1426787140.701,-1.4671631
1426787140.716,1.0593567
1426787140.732,3.2407227
1426787140.748,5.1062927
1426787140.763,6.881256
1426787140.779,8.838043
1426787140.795,11.187927
1426787140.81,13.932129
1426787140.826,16.933258
1426787140.841,20.02649
1426787140.857,23.178406
1426787140.873,26.557312
1426787140.888,30.460663
1426787140.904,35.115234
1426787140.92,40.46231
1426787140.935,46.065002
1426787140.951,51.12845
1426787140.966,54.670288
1426787140.982,55.839813
1426787140.998,54.14917
1426787141.013,49.582977
1426787141.029,42.571716
1426787141.045,33.83618
1426787141.06,24.193085
1426787141.076,14.38797
1426787141.091,5.019867
1426787141.107,-3.4349365
1426787141.123,-10.612152
1426787141.138,-16.233002
1426787141.154,-20.14972
1426787141.17,-22.40094
1426787141.185,-23.23169
1426787141.201,-23.054657
1426787141.216,-22.353638
1426787141.232,-21.534363
1426787141.248,-20.842743
1426787141.263,-20.30603
1426787141.279,-19.870865
1426787141.295,-19.429382
1426787141.31,-18.976791
1426787141.326,-18.594696
1426787141.341,-18.440353
1426787141.357,-18.614761
1426787141.373,-19.111115
1426787141.388,-19.751648
1426787141.404,-20.260498
1426787141.42,-20.34137
1426787141.435,-19.800766
1426787141.451,-18.60875
1426787141.466,-16.915787
1426787141.482,-14.892731
1426787141.498,-12.677048
1426787141.513,-10.310394
1426787141.529,-7.733383
1426787141.545,-4.8481293
1426787141.56,-1.645874
1426787141.576,1.8244934
1426787141.591,5.4254913
1426787141.607,9.054916
1426787141.623,12.643524
1426787141.638,16.255432
1426787141.654,19.979095
1426787141.67,23.955841
1426787141.685,28.291946
1426787141.701,33.093018
1426787141.716,38.411987
1426787141.732,44.223053
1426787141.748,50.3459
1426787141.763,56.363052
1426787141.779,61.602768
1426787141.795,65.23085
1426787141.81,66.387085
1426787141.826,64.49078
1426787141.841,59.339615
1426787141.857,51.259155
1426787141.873,41.03952
1426787141.888,29.745743
1426787141.904,18.412735
1426787141.92,7.8398895
1426787141.935,-1.5422668
1426787141.951,-9.616257
1426787141.966,-16.416428
1426787141.982,-21.941101
1426787141.998,-26.089737
1426787142.013,-28.74083
1426787142.029,-29.888779
1426787142.045,-29.752365
1426787142.06,-28.79692
1426787142.076,-27.613129
1426787142.092,-26.740784
1426787142.107,-26.481812
1426787142.123,-26.916718
1426787142.138,-27.917374
1426787142.154,-29.325317
1426787142.17,-30.996765
1426787142.185,-32.84871
1426787142.201,-34.793243
1426787142.217,-36.722725
1426787142.232,-38.407654
1426787142.248,-39.54873
1426787142.263,-39.835335
1426787142.279,-39.02516
1426787142.295,-37.071342
1426787142.31,-34.140587
1426787142.326,-30.56076
1426787142.342,-26.690422
1426787142.357,-22.722336
1426787142.373,-18.639565
1426787142.388,-14.202484
1426787142.404,-9.170982
1426787142.42,-3.486679
1426787142.435,2.62426
1426787142.451,8.713661
1426787142.467,14.3032
1426787142.482,19.145683
1426787142.498,23.324112
1426787142.513,27.243164
1426787142.529,31.367329
1426787142.545,36.071648
1426787142.56,41.498287
1426787142.576,47.49921
1426787142.592,53.74813
1426787142.607,59.751827
1426787142.623,64.88375
1426787142.638,68.38798
1426787142.654,69.45784
1426787142.67,67.43239
1426787142.685,61.96791
1426787142.701,53.279602
1426787142.717,42.046288
1426787142.732,29.343718
1426787142.748,16.31041
1426787142.763,3.9386578
1426787142.779,-7.074321
1426787142.795,-16.34697
1426787142.81,-23.680626
1426787142.826,-29.010624
1426787142.842,-32.366577
1426787142.857,-33.87744
1426787142.873,-33.842983
1426787142.888,-32.71431
1426787142.904,-30.982203
1426787142.92,-29.146488
1426787142.935,-27.548609
1426787142.951,-26.39157
1426787142.967,-25.748363
1426787142.982,-25.631031
1426787142.998,-26.057909
1426787143.013,-27.009491
1426787143.029,-28.415031
1426787143.045,-30.090054
1426787143.06,-31.736717
1426787143.076,-33.010464
1426787143.092,-33.603508
1426787143.107,-33.35882
1426787143.123,-32.251953
1426787143.138,-30.42389
1426787143.154,-28.027935
1426787143.17,-25.18055
1426787143.185,-21.933182
1426787143.201,-18.208061
1426787143.217,-13.9515
1426787143.232,-9.125954
1426787143.248,-3.802826
1426787143.263,1.8771362
1426787143.279,7.708832
1426787143.295,13.47467
1426787143.31,19.039215
1426787143.326,24.407074
1426787143.342,29.696663
1426787143.357,35.16855
1426787143.373,41.118317
1426787143.388,47.727882
1426787143.404,54.900475
1426787143.42,62.12435
1426787143.435,68.471
1426787143.451,72.761246
1426787143.467,73.81064
1426787143.482,70.87056
1426787143.498,63.803787
1426787143.513,53.240356
1426787143.529,40.34227
1426787143.545,26.490295
1426787143.56,12.965897
1426787143.576,0.65133667
1426787143.592,-9.995087
1426787143.607,-18.811615
1426787143.623,-25.772919
1426787143.638,-30.873535
1426787143.654,-34.107513
1426787143.67,-35.56848
1426787143.685,-35.5262
1426787143.701,-34.386536
1426787143.717,-32.633972
1426787143.732,-30.674194
1426787143.748,-28.811111
1426787143.763,-27.20784
1426787143.779,-25.996948
1426787143.795,-25.315857
1426787143.81,-25.350693
1426787143.826,-26.219498
1426787143.842,-27.91716
1426787143.857,-30.22409
1426787143.873,-32.733093
1426787143.888,-34.924393
1426787143.904,-36.306305
1426787143.92,-36.566742
1426787143.935,-35.623352
1426787143.951,-33.64676
1426787143.967,-30.97548
1426787143.982,-27.925919
1426787143.998,-24.66864
1426787144.013,-21.142242
1426787144.029,-17.093506
1426787144.045,-12.267654
1426787144.06,-6.524399
1426787144.076,0.01676941
1426787144.092,7.027725
1426787144.107,14.139313
1426787144.123,21.016998
1426787144.138,27.536469
1426787144.154,33.750732
1426787144.17,39.86975
1426787144.185,46.19998
1426787144.201,53.08893
1426787144.217,60.77765
1426787144.232,69.296326
1426787144.248,78.25192
1426787144.263,86.759796
1426787144.279,93.52536
1426787144.295,97.1416
1426787144.31,96.473694
1426787144.326,91.01779
1426787144.342,81.05304
1426787144.357,67.53989
1426787144.373,51.78073
1426787144.388,35.152466
1426787144.404,18.818909
1426787144.42,3.6296692
1426787144.435,-9.869202
1426787144.451,-21.329407
1426787144.467,-30.622253
1426787144.482,-37.70404
1426787144.498,-42.677124
1426787144.513,-45.77014
1426787144.529,-47.292694
1426787144.545,-47.65854
1426787144.56,-47.3136
1426787144.576,-46.721375
1426787144.592,-46.279694
1426787144.607,-46.249847
1426787144.623,-46.76535
1426787144.638,-47.839874
1426787144.654,-49.44638
1426787144.67,-51.58722
1426787144.685,-54.273438
1426787144.701,-57.432983
1426787144.717,-60.852356
1426787144.732,-64.14197
1426787144.748,-66.803986
1426787144.764,-68.34427
1426787144.779,-68.434784
1426787144.795,-67.01221
1426787144.81,-64.25635
1426787144.826,-60.512543
1426787144.842,-56.205536
1426787144.857,-51.70175
1426787144.873,-47.20703
1426787144.888,-42.806274
1426787144.904,-38.42984
1426787144.92,-33.952576
1426787144.935,-29.308014
1426787144.951,-24.500824
1426787144.967,-19.683807
1426787144.982,-15.032318
1426787144.998,-10.621613
1426787145.014,-6.345886
1426787145.029,-1.9615173
1426787145.045,2.8147888
1426787145.06,8.110382
1426787145.076,13.825165
1426787145.092,19.60202
1426787145.107,25.09262
1426787145.123,30.075317
1426787145.139,34.61969
1426787145.154,39.026855
1426787145.17,43.709686
1426787145.185,49.007202
1426787145.201,55.172424
1426787145.217,62.338013
1426787145.232,70.576294
1426787145.248,79.770996
1426787145.264,89.47513
1426787145.279,98.77112
1426787145.295,106.315704
1426787145.31,110.59268
1426787145.326,110.38843
1426787145.342,105.14563
1426787145.357,95.11337
1426787145.373,81.30167
1426787145.389,65.13013
1426787145.404,48.07251
1426787145.42,31.350891
1426787145.435,15.790283
1426787145.451,1.9287109
1426787145.467,-10.046936
1426787145.482,-19.9245
1426787145.498,-27.6297
1426787145.514,-33.075806
1426787145.529,-36.26361
1426787145.545,-37.333862
1426787145.56,-36.688965
1426787145.576,-34.92206
1426787145.592,-32.837708
1426787145.607,-31.317688
1426787145.623,-31.18097
1426787145.639,-33.04236
1426787145.654,-37.229736
1426787145.67,-43.666077
1426787145.685,-51.854187
1426787145.701,-60.907837
1426787145.717,-69.733765
1426787145.732,-77.17651
1426787145.748,-82.28198
1426787145.764,-84.44739
1426787145.779,-83.5766
1426787145.795,-80.04443
1426787145.81,-74.684204
1426787145.826,-68.43262
1426787145.842,-62.2135
1426787145.857,-56.60144
1426787145.873,-51.734375
1426787145.889,-47.405457
1426787145.904,-43.268066
1426787145.92,-39.011658
1426787145.935,-34.37726
1426787145.951,-29.073975
1426787145.967,-22.970703
1426787145.982,-15.958862
1426787145.998,-8.269104
1426787146.014,-0.4451294
1426787146.029,6.7454834
1426787146.045,12.679321
1426787146.06,17.155334
1426787146.076,20.5719
1426787146.092,23.741333
1426787146.107,27.558655
1426787146.123,32.661255
1426787146.139,39.23474
1426787146.154,47.07422
1426787146.17,55.704224
1426787146.185,64.46619
1426787146.201,72.51416
1426787146.217,78.792725
1426787146.232,82.116516
1426787146.248,81.45923
1426787146.264,76.29486
1426787146.279,66.80304
1426787146.295,53.88318
1426787146.31,38.79181
1426787146.326,22.98352
1426787146.342,7.621643
1426787146.357,-6.487854
1426787146.373,-18.89392
1426787146.389,-29.409851
1426787146.404,-38.018066
1426787146.42,-44.794495
1426787146.435,-49.89331
1426787146.451,-53.518677
1426787146.467,-55.90216
1426787146.482,-57.2536
1426787146.498,-57.70044
1426787146.514,-57.339783
1426787146.529,-56.348938
1426787146.545,-55.017517
1426787146.56,-53.78595
1426787146.576,-53.113525
1426787146.592,-53.332886
1426787146.607,-54.48224
1426787146.623,-56.3172
1426787146.639,-58.39514
1426787146.654,-60.25403
1426787146.67,-61.507446
1426787146.685,-61.950745
1426787146.701,-61.485046
1426787146.717,-60.13983
1426787146.732,-57.990417
1426787146.748,-55.16864
1426787146.764,-51.83905
1426787146.779,-48.157227
1426787146.795,-44.231384
1426787146.81,-40.10736
1426787146.826,-35.788452
1426787146.842,-31.269348
1426787146.857,-26.61261
1426787146.873,-21.90747
1426787146.889,-17.242126
1426787146.904,-12.666626
1426787146.92,-8.132751
1426787146.935,-3.5812988
1426787146.951,1.0843506
1426787146.967,5.866455
1426787146.982,10.729309
1426787146.998,15.591675
1426787147.014,20.425415
1426787147.029,25.264954
1426787147.045,30.225403
1426787147.06,35.411194
1426787147.076,40.8739
1426787147.092,46.573547
1426787147.107,52.463196
1426787147.123,58.57483
1426787147.139,65.13977
1426787147.154,72.44269
1426787147.17,80.58081
1426787147.185,89.20416
1426787147.201,97.3819
1426787147.217,103.66577
1426787147.232,106.494446
1426787147.248,104.69934
1426787147.264,97.90399
1426787147.279,86.60242
1426787147.295,71.93536
1426787147.31,55.31604
1426787147.326,38.030457
1426787147.342,21.06488
1426787147.357,5.111511
1426787147.373,-9.303284
1426787147.389,-21.692749
1426787147.404,-31.666931
1426787147.42,-38.993835
1426787147.435,-43.72467
1426787147.451,-46.195618
1426787147.467,-46.969604
1426787147.482,-46.69684
1426787147.498,-45.951416
1426787147.514,-45.200195
1426787147.529,-44.757874
1426787147.545,-44.8313
1426787147.56,-45.59619
1426787147.576,-47.145874
1426787147.592,-49.494263
1426787147.607,-52.500366
1426787147.623,-55.868042
1426787147.639,-59.13733
1426787147.654,-61.82666
1426787147.67,-63.51526
1426787147.686,-64.00775
1426787147.701,-63.299927
1426787147.717,-61.579346
1426787147.732,-59.104187
1426787147.748,-56.119324
1426787147.764,-52.758728
1426787147.779,-49.057007
1426787147.795,-45.029785
1426787147.811,-40.691833
1426787147.826,-36.097473
1426787147.842,-31.340881
1426787147.857,-26.47052
1426787147.873,-21.515076
1426787147.889,-16.448303
1426787147.904,-11.284241
1426787147.92,-6.053528
1426787147.936,-0.8432617
1426787147.951,4.2938843
1426787147.967,9.3688965
1426787147.982,14.472229
1426787147.998,19.685242
1426787148.014,25.016113
1426787148.029,30.380615
1426787148.045,35.643677
1426787148.061,40.698486
1426787148.076,45.56839
1426787148.092,50.453613
1426787148.107,55.667877
1426787148.123,61.510895
1426787148.139,68.17554
1426787148.154,75.50311
1426787148.17,82.92444
1426787148.186,89.42728
1426787148.201,93.77228
1426787148.217,94.72797
1426787148.232,91.47815
1426787148.248,83.81311
1426787148.264,72.287415
1426787148.279,58.012268
1426787148.295,42.378326
1426787148.311,26.729431
1426787148.326,12.107117
1426787148.342,-0.798584
1426787148.357,-11.62323
1426787148.373,-20.188538
1426787148.389,-26.43982
1426787148.404,-30.424194
1426787148.42,-32.315918
1426787148.436,-32.500153
1426787148.451,-31.497406
1426787148.467,-29.962646
1426787148.482,-28.513641
1426787148.498,-27.595398
1426787148.514,-27.42575
1426787148.529,-28.0094
1426787148.545,-29.231537
1426787148.561,-30.99121
1426787148.576,-33.199158
1426787148.592,-35.827087
1426787148.607,-38.81079
1426787148.623,-41.942963
1426787148.639,-44.845917
1426787148.654,-47.058838
1426787148.67,-48.125336
1426787148.686,-47.775146
1426787148.701,-45.99698
1426787148.717,-43.04486
1426787148.732,-39.32367
1426787148.748,-35.25171
1426787148.764,-31.075104
1426787148.779,-26.86905
1426787148.795,-22.519257
1426787148.811,-17.88443
1426787148.826,-12.874298
1426787148.842,-7.5260925
1426787148.857,-1.9772034
1426787148.873,3.6273193
1426787148.889,9.17453
1426787148.904,14.597168
1426787148.92,19.894989
1426787148.936,25.04718
1426787148.951,30.058105
1426787148.967,34.97873
1426787148.982,39.959747
1426787148.998,45.277557
1426787149.014,51.25992
1426787149.029,58.09082
1426787149.045,65.62442
1426787149.061,73.177124
1426787149.076,79.64996
1426787149.092,83.74454
1426787149.107,84.32303
1426787149.123,80.70068
1426787149.139,72.85275
1426787149.154,61.343506
1426787149.17,47.19211
1426787149.186,31.616425
1426787149.201,15.85025
1426787149.217,0.97683716
1426787149.232,-12.183807
1426787149.248,-23.075195
1426787149.264,-31.398438
1426787149.279,-37.108337
1426787149.295,-40.330627
1426787149.311,-41.337006
1426787149.326,-40.52011
1426787149.342,-38.365967
1426787149.357,-35.45468
1426787149.373,-32.394012
1426787149.389,-29.734802
1426787149.404,-27.861816
1426787149.42,-26.94278
1426787149.436,-26.955353
1426787149.451,-27.769592
1426787149.467,-29.220947
1426787149.482,-31.191498
1426787149.498,-33.515106
1426787149.514,-35.94803
1426787149.529,-38.107147
1426787149.545,-39.54959
1426787149.561,-39.92273
1426787149.576,-39.07364
1426787149.592,-37.1257
1426787149.607,-34.385742
1426787149.623,-31.206177
1426787149.639,-27.790985
1426787149.654,-24.175415
1426787149.67,-20.247223
1426787149.686,-15.943207
1426787149.701,-11.300812
1426787149.717,-6.4905396
1426787149.732,-1.7260742
1426787149.748,2.8494263
1426787149.764,7.2521667
1426787149.779,11.610504
1426787149.795,16.06192
1426787149.811,20.685883
1426787149.826,25.442627
1426787149.842,30.213776
1426787149.857,34.86844
1426787149.873,39.318634
1426787149.889,43.573822
1426787149.904,47.731964
1426787149.92,51.974823
1426787149.936,56.594086
1426787149.951,61.89792
1426787149.967,68.1817
1426787149.982,75.53305
1426787149.998,83.64731
1426787150.014,91.7504
1426787150.029,98.646515
1426787150.045,102.92786
1426787150.061,103.34384
1426787150.076,99.10614
1426787150.092,90.120544
1426787150.107,76.98575
1426787150.123,60.86841
1426787150.139,43.24356
1426787150.154,25.573914
1426787150.17,9.114349
1426787150.186,-5.3046265
1426787150.201,-17.270782
1426787150.217,-26.738007
1426787150.232,-33.932404
1426787150.248,-39.219116
1426787150.264,-42.964233
1426787150.279,-45.51123
1426787150.295,-47.149536
1426787150.311,-48.164215
1426787150.326,-48.821808
1426787150.342,-49.39383
1426787150.358,-50.06845
1426787150.373,-50.96765
1426787150.389,-52.104065
1426787150.404,-53.39563
1426787150.42,-54.766754
1426787150.436,-56.149292
1426787150.451,-57.529877
1426787150.467,-58.88614
1426787150.483,-60.13379
1426787150.498,-61.105865
1426787150.514,-61.54138
1426787150.529,-61.15851
1426787150.545,-59.75067
1426787150.561,-57.28705
1426787150.576,-53.92502
1426787150.592,-49.98346
1426787150.608,-45.8078
1426787150.623,-41.64691
1426787150.639,-37.57318
1426787150.654,-33.53369
1426787150.67,-29.35379
1426787150.686,-24.928436
1426787150.701,-20.296356
1426787150.717,-15.594635
1426787150.733,-11.069397
1426787150.748,-6.9189453
1426787150.764,-3.194107
1426787150.779,0.23074341
1426787150.795,3.630371
1426787150.811,7.2812347
1426787150.826,11.3615265
1426787150.842,15.87114
1426787150.858,20.623886
1426787150.873,25.3349
1426787150.889,29.768967
1426787150.904,33.81732
1426787150.92,37.562103
1426787150.936,41.26477
1426787150.951,45.309616
1426787150.967,50.09427
1426787150.983,55.910446
1426787150.998,62.799973
1426787151.014,70.4187
1426787151.029,78.004166
1426787151.045,84.40303
1426787151.061,88.31993
1426787151.076,88.61366
1426787151.092,84.59065
1426787151.108,76.26109
1426787151.123,64.32242
1426787151.139,50.07582
1426787151.154,35.04564
1426787151.17,20.69339
1426787151.186,8.058731
1426787151.201,-2.3419495
1426787151.217,-10.50528
1426787151.233,-16.695236
1426787151.248,-21.243652
1426787151.264,-24.401367
1426787151.279,-26.302444
1426787151.295,-27.040543
1426787151.311,-26.792755
1426787151.326,-25.867172
1426787151.342,-24.694794
1426787151.358,-23.753952
1426787151.373,-23.396103
1426787151.389,-23.784607
1426787151.404,-24.902756
1426787151.42,-26.579788
1426787151.436,-28.656952
1426787151.451,-30.97667
1426787151.467,-33.46138
1426787151.483,-35.99449
1426787151.498,-38.39969
1426787151.514,-40.36876
1426787151.529,-41.501297
1426787151.545,-41.435028
1426787151.561,-40.021133
1426787151.576,-37.38623
1426787151.592,-33.91484
1426787151.608,-30.05986
1426787151.623,-26.169418
1426787151.639,-22.290466
1426787151.654,-18.22667
1426787151.67,-13.670502
1426787151.686,-8.456055
1426787151.701,-2.6266632
1426787151.717,3.5012207
1426787151.733,9.572998
1426787151.748,15.278702
1426787151.764,20.531784
1426787151.779,25.398163
1426787151.795,30.0896
1426787151.811,34.82408
1426787151.826,39.831467
1426787151.842,45.318527
1426787151.858,51.394257
1426787151.873,58.002853
1426787151.889,64.82077
1426787151.904,71.18814
1426787151.92,76.18695
1426787151.936,78.78722
1426787151.951,78.15692
1426787151.967,73.81517
1426787151.983,65.81847
1426787151.998,54.716827
1426787152.014,41.47708
1426787152.029,27.212952
1426787152.045,13.038681
1426787152.061,-0.17524719
1426787152.076,-11.811813
1426787152.092,-21.554077
1426787152.108,-29.247284
1426787152.123,-34.825775
1426787152.139,-38.277878
1426787152.154,-39.68518
1426787152.17,-39.265137
1426787152.186,-37.445633
1426787152.201,-34.812088
1426787152.217,-32.076508
1426787152.233,-29.881424
1426787152.248,-28.721436
1426787152.264,-28.778046
1426787152.279,-29.971558
1426787152.295,-31.963593
1426787152.311,-34.320313
1426787152.326,-36.618484
1426787152.342,-38.56076
1426787152.358,-39.942184
1426787152.373,-40.721924
1426787152.389,-40.88492
1426787152.404,-40.457855
1426787152.42,-39.42859
1426787152.436,-37.828606
1426787152.451,-35.689415
1426787152.467,-33.070374
1426787152.483,-30.063202
1426787152.498,-26.746758
1426787152.514,-23.20089
1426787152.529,-19.494171
1426787152.545,-15.654373
1426787152.561,-11.694588
1426787152.576,-7.5726013
1426787152.592,-3.2688675
1426787152.608,1.2160339
1426787152.623,5.8016586
1426787152.639,10.396545
1426787152.654,14.927689
1426787152.67,19.414383
1426787152.686,23.961952
1426787152.701,28.766167
1426787152.717,34.003563
1426787152.733,39.79383
1426787152.748,46.172897
1426787152.764,53.119606
1426787152.779,60.513733
1426787152.795,68.1138
1426787152.811,75.50379
1426787152.826,81.98626
1426787152.842,86.682045
1426787152.858,88.68952
1426787152.873,87.33379
1426787152.889,82.39114
1426787152.904,74.14116
1426787152.92,63.27984
1426787152.936,50.704018
1426787152.951,37.282455
1426787152.967,23.731743
1426787152.983,10.606827
1426787152.998,-1.6439133
1426787153.014,-12.601509
1426787153.03,-21.852516
1426787153.045,-29.082367
1426787153.061,-34.10575
1426787153.076,-36.990852
1426787153.092,-38.030907
1426787153.108,-37.7257
1426787153.123,-36.67707
1426787153.139,-35.45672
1426787153.155,-34.570335
1426787153.17,-34.35032
1426787153.186,-34.98471
1426787153.201,-36.523422
1426787153.217,-38.89981
1426787153.233,-41.916237
1426787153.248,-45.299072
1426787153.264,-48.627655
1426787153.28,-51.44037
1426787153.295,-53.302307
1426787153.311,-53.896484
1426787153.326,-53.12021
1426787153.342,-51.107666
1426787153.358,-48.20337
1426787153.373,-44.835304
1426787153.389,-41.397453
1426787153.405,-38.10933
1426787153.42,-34.97618
1426787153.436,-31.869148
1426787153.451,-28.592796
1426787153.467,-25.041443
1426787153.483,-21.22686
1426787153.498,-17.275368
1426787153.514,-13.353725
1426787153.53,-9.558186
1426787153.545,-5.8824425
1426787153.561,-2.251648
1426787153.576,1.4519234
1426787153.592,5.3300056
1426787153.608,9.443195
1426787153.623,13.8014145
1426787153.639,18.389248
1426787153.655,23.133526
1426787153.67,27.92353
1426787153.686,32.638794
1426787153.701,37.1835
1426787153.717,41.579338
1426787153.733,46.0003
1426787153.748,50.75265
1426787153.764,56.16526
1426787153.78,62.45491
1426787153.795,69.563614
1426787153.811,76.95946
1426787153.826,83.693146
1426787153.842,88.51012
1426787153.858,90.16818
1426787153.873,87.76425
1426787153.889,81.04578
1426787153.905,70.479095
1426787153.92,57.1363
1426787153.936,42.39939
1426787153.951,27.591015
1426787153.967,13.7125225
1426787153.983,1.3443356
1426787153.998,-9.243248
1426787154.014,-17.968662
1426787154.03,-24.798866
1426787154.045,-29.71285
1426787154.061,-32.792587
1426787154.076,-34.22486
1426787154.092,-34.35055
1426787154.108,-33.593292
1426787154.123,-32.382652
1426787154.139,-31.045834
1426787154.155,-29.832561
1426787154.17,-28.903055
1426787154.186,-28.38076
1426787154.201,-28.361834
1426787154.217,-28.90946
1426787154.233,-30.042524
1426787154.248,-31.65116
1426787154.264,-33.558685
1426787154.28,-35.50091
1426787154.295,-37.19129
1426787154.311,-38.355816
1426787154.326,-38.79033
1426787154.342,-38.398445
1426787154.358,-37.19391
1426787154.373,-35.26934
1426787154.389,-32.757244
1426787154.405,-29.77129
1426787154.42,-26.388384
1426787154.436,-22.690826
1426787154.451,-18.803976
1426787154.467,-14.872551
1426787154.483,-11.077564
1426787154.498,-7.510104
1426787154.514,-4.129428
1426787154.53,-0.7905483
1426787154.545,2.698904
1426787154.561,6.43227
1426787154.576,10.374076
1426787154.592,14.392991
1426787154.608,18.36273
1426787154.623,22.278091
1426787154.639,26.307724
1426787154.655,30.72331
1426787154.67,35.82328
1426787154.686,41.793686
1426787154.701,48.66253
1426787154.717,56.207615
1426787154.733,63.90255
1426787154.748,70.919685
1426787154.764,76.21317
1426787154.78,78.70618
1426787154.795,77.589165
1426787154.811,72.5526
1426787154.826,63.90349
1426787154.842,52.464928
1426787154.858,39.37388
1426787154.873,25.797544
1426787154.889,12.716084
1426787154.905,0.840446
1426787154.92,-9.337148
1426787154.936,-17.540758
1426787154.951,-23.627943
1426787154.967,-27.660149
1426787154.983,-29.86166
1426787154.998,-30.614641
1426787155.014,-30.372068
1426787155.03,-29.623198
1426787155.045,-28.73937
1426787155.061,-28.026205
1426787155.076,-27.686146
1426787155.092,-27.86432
1426787155.108,-28.612822
1426787155.123,-29.957798
1426787155.139,-31.826706
1426787155.155,-34.072838
1426787155.17,-36.46176
1426787155.186,-38.695755
1426787155.201,-40.47295
1426787155.217,-41.571995
1426787155.233,-41.87398
1426787155.248,-41.369835
1426787155.264,-40.09867
1426787155.28,-38.124905
1426787155.295,-35.46674
1426787155.311,-32.142822
1426787155.326,-28.18147
1426787155.342,-23.712887
1426787155.358,-18.924953
1426787155.373,-14.068789
1426787155.389,-9.314827
1426787155.405,-4.7161617
1426787155.42,-0.19700766
1426787155.436,4.4187937
1426787155.451,9.287119
1426787155.467,14.435736
1426787155.483,19.738146
1426787155.498,24.968523
1426787155.514,29.919607
1426787155.53,34.496338
1426787155.545,38.841022
1426787155.561,43.226856
1426787155.576,48.014908
1426787155.592,53.441494
1426787155.608,59.55486
1426787155.623,66.11528
1426787155.639,72.65064
1426787155.655,78.49078
1426787155.67,82.86736
1426787155.686,85.0256
1426787155.702,84.34363
1426787155.717,80.4115
1426787155.733,73.1426
1426787155.748,62.821285
1426787155.764,50.102936
1426787155.78,35.916702
1426787155.795,21.30769
1426787155.811,7.255601
1426787155.826,-5.508898
1426787155.842,-16.588251
1426787155.858,-25.819687
1426787155.873,-33.228207
1426787155.889,-38.85311
1426787155.905,-42.74333
1426787155.92,-44.99121
1426787155.936,-45.794807
1426787155.952,-45.504677
1426787155.967,-44.58731
1426787155.983,-43.56029
1426787155.998,-42.83007
1426787156.014,-42.619858
1426787156.03,-43.002552
1426787156.045,-43.900215
1426787156.061,-45.188587
1426787156.077,-46.709587
1426787156.092,-48.29342
1426787156.108,-49.73816
1426787156.123,-50.818233
1426787156.139,-51.317703
1426787156.155,-51.07488
1426787156.17,-49.997406
1426787156.186,-48.116722
1426787156.202,-45.510986
1426787156.217,-42.283863
1426787156.233,-38.549557
1426787156.248,-34.418865
1426787156.264,-30.020603
1426787156.28,-25.475395
1426787156.295,-20.885921
1426787156.311,-16.275581
1426787156.327,-11.586151
1426787156.342,-6.7423553
1426787156.358,-1.7020135
1426787156.373,3.451057
1426787156.389,8.565435
1426787156.405,13.518658
1426787156.42,18.255955
1426787156.436,22.841105
1426787156.452,27.40755
1426787156.467,32.08878
1426787156.483,36.993538
1426787156.498,42.179813
1426787156.514,47.737297
1426787156.53,53.76002
1426787156.545,60.296062
1426787156.561,67.14587
1426787156.577,73.77426
1426787156.592,79.258316
1426787156.608,82.476265
1426787156.623,82.405464
1426787156.639,78.44673
1426787156.655,70.62868
1426787156.67,59.641407
1426787156.686,46.59063
1426787156.702,32.70739
1426787156.717,19.037651
1426787156.733,6.314353
1426787156.748,-5.064292
1426787156.764,-14.8674965
1426787156.78,-22.883873
1426787156.795,-28.87256
1426787156.811,-32.655922
1426787156.827,-34.25933
1426787156.842,-34.04776
1426787156.858,-32.655224
1426787156.873,-30.820333
1426787156.889,-29.127445
1426787156.905,-27.839815
1426787156.92,-26.935202
1426787156.936,-26.294165
1426787156.952,-25.864225
1426787156.967,-25.80017
1426787156.983,-26.365818
1426787156.998,-27.762354
1426787157.014,-29.929785
1426787157.03,-32.52576
1426787157.045,-34.95575
1426787157.061,-36.653667
1426787157.077,-37.23055
1426787157.092,-36.58741
1426787157.108,-34.877205
1426787157.123,-32.399147
1426787157.139,-29.465635
1426787157.155,-26.295263
1426787157.17,-22.979809
1426787157.186,-19.455511
1426787157.202,-15.579763
1426787157.217,-11.179149
1426787157.233,-6.1426563
1426787157.248,-0.5167606
1426787157.264,5.5732374
1426787157.28,11.844381
1426787157.295,18.04367
1426787157.311,23.90465
1426787157.327,29.322117
1426787157.342,34.327023
1426787157.358,39.14479
1426787157.373,44.123447
1426787157.389,49.660084
1426787157.405,56.07054
1426787157.42,63.364086
1426787157.436,71.118515
1426787157.452,78.465034
1426787157.467,84.19797
1426787157.483,87.10043
1426787157.498,86.23227
1426787157.514,81.235825
1426787157.53,72.34068
1426787157.545,60.310844
1426787157.561,46.18318
1426787157.577,31.106615
1426787157.592,16.13135
1426787157.608,2.1573687
1426787157.623,-10.131813
1426787157.639,-20.290573
1426787157.655,-28.131031
1426787157.67,-33.698654
1426787157.686,-37.254673
1426787157.702,-39.16254
1426787157.717,-39.80333
1426787157.733,-39.525917
1426787157.748,-38.657303
1426787157.764,-37.504734
1426787157.78,-36.41707
1426787157.795,-35.71517
1426787157.811,-35.654808
1426787157.827,-36.38482
1426787157.842,-37.944885
1426787157.858,-40.202522
1426787157.873,-42.966667
1426787157.889,-45.928368
1426787157.905,-48.70888
1426787157.92,-50.87798
1426787157.936,-52.023514
1426787157.952,-51.85101
1426787157.967,-50.294262
1426787157.983,-47.533546
1426787157.998,-43.929432
1426787158.014,-39.86466
1426787158.03,-35.63476
1426787158.045,-31.33855
1426787158.061,-26.988968
1426787158.077,-22.528011
1426787158.092,-17.966072
1426787158.108,-13.356098
1426787158.123,-8.785801
1426787158.139,-4.287613
1426787158.155,0.1955185
1426787158.17,4.8165817
1426787158.186,9.723343
1426787158.202,14.978287
1426787158.217,20.498882
1426787158.233,26.070637
1426787158.248,31.429241
1426787158.264,36.431995
1426787158.28,41.12757
1426787158.295,45.862885
1426787158.311,51.108097
1426787158.327,57.335815
1426787158.342,64.75082
1426787158.358,73.126114
1426787158.374,81.72551
1426787158.389,89.439865
1426787158.405,95.01703
1426787158.42,97.309906
1426787158.436,95.528755
1426787158.452,89.40398
1426787158.467,79.19086
1426787158.483,65.62225
1426787158.498,49.736805
1426787158.514,32.7362
1426787158.53,15.780636
1426787158.545,-0.08333588
1426787158.561,-14.067982
1426787158.577,-25.6474
1426787158.592,-34.64233
1426787158.608,-41.116783
1426787158.624,-45.3569
1426787158.639,-47.740906
1426787158.655,-48.66703
1426787158.67,-48.49134
1426787158.686,-47.528736
1426787158.702,-46.089397
1426787158.717,-44.521965
1426787158.733,-43.203476
1426787158.749,-42.519363
1426787158.764,-42.749752
1426787158.78,-44.00356
1426787158.795,-46.14382
1426787158.811,-48.840645
1426787158.827,-51.642677
1426787158.842,-54.100227
1426787158.858,-55.866226
1426787158.874,-56.698563
1426787158.889,-56.499985
1426787158.905,-55.278366
1426787158.92,-53.100967
1426787158.936,-50.105682
1426787158.952,-46.474586
1426787158.967,-42.406532
1426787158.983,-38.07193
1426787158.999,-33.578888
1426787159.014,-28.986008
1426787159.03,-24.316086
1426787159.045,-19.546349
1426787159.061,-14.662693
1426787159.077,-9.644726
1426787159.092,-4.495346
1426787159.108,0.7425461
1426787159.124,5.9632874
1426787159.139,11.039444
1426787159.155,15.884956
1426787159.17,20.519138
1426787159.186,25.049557
1426787159.202,29.626583
1426787159.217,34.340878
1426787159.233,39.149
1426787159.249,43.989994
1426787159.264,48.86479
1426787159.28,53.9728
1426787159.295,59.65578
1426787159.311,66.19391
1426787159.327,73.51697
1426787159.342,80.95713
1426787159.358,87.29732
1426787159.374,91.05003
1426787159.389,90.95529
1426787159.405,86.400894
1426787159.42,77.566444
1426787159.436,65.360916
1426787159.452,51.068295
1426787159.467,35.935616
1426787159.483,20.979473
1426787159.499,6.8947067
1426787159.514,-5.782242
1426787159.53,-16.64172
1426787159.545,-25.338013
1426787159.561,-31.670338
1426787159.577,-35.670822
1426787159.592,-37.6036
1426787159.608,-37.95283
1426787159.624,-37.26156
1426787159.639,-36.029594
1426787159.655,-34.678986
1426787159.67,-33.502724
1426787159.686,-32.734055
1426787159.702,-32.542694
1426787159.717,-33.02967
1426787159.733,-34.250877
1426787159.749,-36.170303
1426787159.764,-38.646523
1426787159.78,-41.43186
1426787159.795,-44.136635
1426787159.811,-46.29593
1426787159.827,-47.41638
1426787159.842,-47.177193
1426787159.858,-45.490295
1426787159.874,-42.56127
1426787159.889,-38.851456
1426787159.905,-34.862076
1426787159.92,-30.969551
1426787159.936,-27.305565
1426787159.952,-23.689308
1426787159.967,-19.784363
1426787159.983,-15.221809
1426787159.999,-9.845573
1426787160.014,-3.7275314
1426787160.03,2.838745
1426787160.045,9.476631
1426787160.061,15.844711
1426787160.077,21.78569
1426787160.092,27.28894
1426787160.108,32.506752
1426787160.124,37.614098
1426787160.139,42.84733
1426787160.155,48.42797
1426787160.17,54.57794
1426787160.186,61.43113
1426787160.202,68.89304
1426787160.217,76.48303
1426787160.233,83.27827
1426787160.249,88.02689
1426787160.264,89.45672
1426787160.28,86.65408
1426787160.295,79.37008
1426787160.311,68.073044
1426787160.327,53.8431
1426787160.342,38.045074
1426787160.358,21.974777
1426787160.374,6.6843414
1426787160.389,-7.109619
1426787160.405,-18.975159
1426787160.42,-28.6698
1426787160.436,-36.070175
1426787160.452,-41.185272
1426787160.467,-44.184387
1426787160.483,-45.397537
1426787160.499,-45.293015
1426787160.514,-44.392212
1426787160.53,-43.18049
1426787160.545,-42.056084
1426787160.561,-41.28887
1426787160.577,-41.05046
1426787160.592,-41.468636
1426787160.608,-42.61277
1426787160.624,-44.472626
1426787160.639,-46.93392
1426787160.655,-49.7481
1426787160.67,-52.546654
1426787160.686,-54.902626
1426787160.702,-56.426537
1426787160.717,-56.83822
1426787160.733,-56.01387
1426787160.749,-54.007706
1426787160.764,-51.01149
1426787160.78,-47.315437
1426787160.795,-43.201935
1426787160.811,-38.87091
1426787160.827,-34.447083
1426787160.842,-29.977684
1426787160.858,-25.46801
1426787160.874,-20.917953
1426787160.889,-16.375656
1426787160.905,-11.870071
1426787160.92,-7.422905
1426787160.936,-3.0026703
1426787160.952,1.4574814
1426787160.967,6.057884
1426787160.983,10.84874
1426787160.999,15.818138
1426787161.014,20.89431
1426787161.03,25.947273
1426787161.045,30.901802
1426787161.061,35.681427
1426787161.077,40.34162
1426787161.092,44.9405
1426787161.108,49.579697
1426787161.124,54.402405
1426787161.139,59.602455
1426787161.155,65.40122
1426787161.17,71.98547
1426787161.186,79.34529
1426787161.202,87.05938
1426787161.217,94.23144
1426787161.233,99.59681
1426787161.249,101.73151
1426787161.264,99.525154
1426787161.28,92.519646
1426787161.296,81.04394
1426787161.311,66.19722
1426787161.327,49.512894
1426787161.342,32.54077
1426787161.358,16.535896
1426787161.374,2.2640839
1426787161.389,-9.990555
1426787161.405,-20.256546
1426787161.421,-28.65493
1426787161.436,-35.25332
1426787161.452,-40.054466
1426787161.467,-43.095955
1426787161.483,-44.54602
1426787161.499,-44.808052
1426787161.514,-44.399292
1426787161.53,-43.898155
1426787161.546,-43.727196
1426787161.561,-44.1148
1426787161.577,-45.104538
1426787161.592,-46.65045
1426787161.608,-48.697395
1426787161.624,-51.20073
1426787161.639,-54.067833
1426787161.655,-57.102142
1426787161.671,-60.02121
1426787161.686,-62.45662
1426787161.702,-64.03397
1426787161.717,-64.45437
1426787161.733,-63.53969
1426787161.749,-61.276726
1426787161.764,-57.836502
1426787161.78,-53.56305
1426787161.796,-48.898003
1426787161.811,-44.223717
1426787161.827,-39.736526
1426787161.842,-35.41107
1426787161.858,-31.046967
1426787161.874,-26.430946
1426787161.889,-21.478584
1426787161.905,-16.301605
1426787161.921,-11.130295
1426787161.936,-6.221504
1426787161.952,-1.6947937
1426787161.967,2.498024
1426787161.983,6.518738
1426787161.999,10.525993
1426787162.014,14.6325
1426787162.03,18.844406
1426787162.046,23.11612
1426787162.061,27.397606
1426787162.077,31.655762
1426787162.092,35.91108
1426787162.108,40.258507
1426787162.124,44.830418
1426787162.139,49.82696
1426787162.155,55.467915
1426787162.171,61.891552
1426787162.186,69.05278
1426787162.202,76.58422
1426787162.217,83.7352
1426787162.233,89.42836
1426787162.249,92.45285
1426787162.264,91.788025
1426787162.28,86.86966
1426787162.296,77.80705
1426787162.311,65.3768
1426787162.327,50.857872
1426787162.342,35.665287
1426787162.358,21.04147
1426787162.374,7.8292427
1426787162.389,-3.553814
1426787162.405,-13.021923
1426787162.421,-20.611698
1426787162.436,-26.383316
1426787162.452,-30.37421
1426787162.467,-32.692005
1426787162.483,-33.557487
1426787162.499,-33.375504
1426787162.514,-32.604828
1426787162.53,-31.696182
1426787162.546,-30.937012
1426787162.561,-30.470692
1426787162.577,-30.339737
1426787162.592,-30.597572
1426787162.608,-31.348114
1426787162.624,-32.71348
1426787162.639,-34.713757
1426787162.655,-37.215813
1426787162.671,-39.860767
1426787162.686,-42.192978
1426787162.702,-43.727356
1426787162.717,-44.07949
1426787162.733,-43.0706
1426787162.749,-40.76972
1426787162.764,-37.440376
1426787162.78,-33.479042
1426787162.796,-29.27251
1426787162.811,-25.043228
1426787162.827,-20.797699
1426787162.842,-16.351261
1426787162.858,-11.4466095
1426787162.874,-5.934128
1426787162.889,0.14641571
1426787162.905,6.5561333
1426787162.921,12.955208
1426787162.936,19.07117
1426787162.952,24.803955
1426787162.967,30.213367
1426787162.983,35.507347
1426787162.999,40.926506
1426787163.014,46.70927
1426787163.03,53.011616
1426787163.046,59.836315
1426787163.061,66.88395
1426787163.077,73.52106
1426787163.092,78.76846
1426787163.108,81.49797
1426787163.124,80.68385
1426787163.139,75.754395
1426787163.155,66.75927
1426787163.171,54.42216
1426787163.186,39.939903
1426787163.202,24.705856
1426787163.217,9.979782
1426787163.233,-3.2882996
1426787163.249,-14.554932
1426787163.264,-23.619099
1426787163.28,-30.552467
1426787163.296,-35.50631
1426787163.311,-38.675117
1426787163.327,-40.216045
1426787163.342,-40.32135
1426787163.358,-39.265
1426787163.374,-37.48889
1426787163.389,-35.541412
1426787163.405,-33.984108
1426787163.421,-33.229828
1426787163.436,-33.43461
1426787163.452,-34.485085
1426787163.467,-36.117844
1426787163.483,-38.053078
1426787163.499,-40.109886
1426787163.514,-42.15461
1426787163.53,-44.036606
1426787163.546,-45.487053
1426787163.561,-46.164413
1426787163.577,-45.720566
1426787163.592,-43.971436
1426787163.608,-40.978584
1426787163.624,-37.009216
1426787163.639,-32.428505
1426787163.655,-27.59861
1426787163.671,-22.741058
1426787163.686,-17.948372
1426787163.702,-13.154274
1426787163.717,-8.251091
1426787163.733,-3.121067
1426787163.749,2.310341
1426787163.764,8.036083
1426787163.78,13.977695
1426787163.796,19.98758
1426787163.811,25.923134
1426787163.827,31.701096
1426787163.842,37.27426
1426787163.858,42.69324
1426787163.874,48.045094
1426787163.889,53.51494
1426787163.905,59.3659
1426787163.921,65.91321
1426787163.936,73.33984
1426787163.952,81.518715
1426787163.968,89.84502
1426787163.983,97.2293
1426787163.999,102.281586
1426787164.014,103.703896
1426787164.03,100.65115
1426787164.046,92.95761
1426787164.061,81.19187
1426787164.077,66.457504
1426787164.093,50.11557
1426787164.108,33.495926
1426787164.124,17.675629
1426787164.139,3.4037628
1426787164.155,-8.901833
1426787164.171,-19.058464
1426787164.186,-27.077957
1426787164.202,-33.000885
1426787164.218,-36.98429
1426787164.233,-39.229286
1426787164.249,-40.07773
1426787164.264,-39.996307
1426787164.28,-39.528244
1426787164.296,-39.202713
1426787164.311,-39.40383
1426787164.327,-40.316055
1426787164.343,-41.92971
1426787164.358,-44.072945
1426787164.374,-46.56797
1426787164.389,-49.229904
1426787164.405,-51.929405
1426787164.421,-54.53087
1426787164.436,-56.864586
1426787164.452,-58.65657
1426787164.468,-59.61364
1426787164.483,-59.474403
1426787164.499,-58.167458
1426787164.514,-55.809235
1426787164.53,-52.72506
1426787164.546,-49.314117
1426787164.561,-45.84874
1426787164.577,-42.391922
1426787164.593,-38.791054
1426787164.608,-34.787697
1426787164.624,-30.2239
1426787164.639,-25.142555
1426787164.655,-19.85582
1426787164.671,-14.780571
1426787164.686,-10.290886
1426787164.702,-6.4476776
1426787164.718,-3.050087
1426787164.733,0.35326385
1426787164.749,4.20208
1426787164.764,8.786667
1426787164.78,14.107681
1426787164.796,19.940735
1426787164.811,25.971817
1426787164.827,31.943611
1426787164.843,37.799103
1426787164.858,43.7034
1426787164.874,49.959602
1426787164.889,56.929176
1426787164.905,64.88969
1426787164.921,73.97539
1426787164.936,84.0203
1426787164.952,94.485756
1426787164.968,104.38531
1426787164.983,112.36111
1426787164.999,116.82776
1426787165.014,116.47023
1426787165.03,110.5447
1426787165.046,99.1867
1426787165.061,83.39958
1426787165.077,64.80269
1426787165.093,45.170563
1426787165.108,26.059982
1426787165.124,8.57515
1426787165.139,-6.6850433
1426787165.155,-19.536957
1426787165.171,-30.059357
1426787165.186,-38.462418
1426787165.202,-44.937347
1426787165.218,-49.639206
1426787165.233,-52.62651
1426787165.249,-53.99945
1426787165.264,-53.972717
1426787165.28,-52.98416
1426787165.296,-51.628586
1426787165.311,-50.55121
1426787165.327,-50.212204
1426787165.343,-50.779144
1426787165.358,-52.102005
1426787165.374,-53.859756
1426787165.389,-55.722504
1426787165.405,-57.411697
1426787165.421,-58.771667
1426787165.436,-59.632904
1426787165.452,-59.76013
1426787165.468,-58.897797
1426787165.483,-56.829742
1426787165.499,-53.550186
1426787165.514,-49.20668
1426787165.53,-44.154755
1426787165.546,-38.774567
1426787165.561,-33.386215
1426787165.577,-28.107086
1426787165.593,-22.91156
1426787165.608,-17.646759
1426787165.624,-12.216736
1426787165.639,-6.587982
1426787165.655,-0.87323
1426787165.671,4.7899323
1426787165.686,10.293442
1426787165.702,15.660141
1426787165.718,21.02835
1426787165.733,26.541885
1426787165.749,32.25319
1426787165.764,38.09929
1426787165.78,43.88762
1426787165.796,49.518707
1426787165.811,55.039032
1426787165.827,60.786606
1426787165.843,67.27727
1426787165.858,75.0318
1426787165.874,84.24536
1426787165.889,94.53546
1426787165.905,104.83856
1426787165.921,113.50009
1426787165.936,118.60655
1426787165.952,118.53795
1426787165.968,112.40643
1426787165.983,100.35492
1426787165.999,83.51378
1426787166.014,63.661224
1426787166.03,42.761017
1426787166.046,22.502197
1426787166.061,4.080246
1426787166.077,-11.792664
1426787166.093,-24.780151
1426787166.108,-34.764145
1426787166.124,-41.79312
1426787166.139,-46.08766
1426787166.155,-48.082855
1426787166.171,-48.321533
1426787166.186,-47.472534
1426787166.202,-46.171097
1426787166.218,-44.9442
1426787166.233,-44.163116
1426787166.249,-44.118668
1426787166.264,-44.943024
1426787166.28,-46.700073
1426787166.296,-49.30681
1426787166.311,-52.553497
1426787166.327,-56.084152
1426787166.343,-59.455643
1426787166.358,-62.177887
1426787166.374,-63.873505
1426787166.389,-64.2984
1426787166.405,-63.357666
1426787166.421,-61.05014
1426787166.436,-57.476654
1426787166.452,-52.75644
1426787166.468,-47.063873
1426787166.483,-40.673004
1426787166.499,-33.89621
1426787166.514,-27.081696
1426787166.53,-20.47293
1426787166.546,-14.139374
1426787166.561,-7.966278
1426787166.577,-1.729126
1426787166.593,4.793518
1426787166.608,11.6970825
1426787166.624,18.858032
1426787166.64,26.014893
1426787166.655,32.815582
1426787166.671,39.019867
1426787166.686,44.653503
1426787166.702,50.031036
1426787166.718,55.787506
1426787166.733,62.665436
1426787166.749,71.23334
1426787166.764,81.56604
1426787166.78,93.02823
1426787166.796,104.23935
1426787166.811,113.27487
1426787166.827,118.14743
1426787166.843,117.30832
1426787166.858,110.06317
1426787166.874,96.78552
1426787166.89,78.729095
1426787166.905,57.702118
1426787166.921,35.636322
1426787166.936,14.217682
1426787166.952,-5.289215
1426787166.968,-22.068085
1426787166.983,-35.685272
1426787166.999,-45.97351
1426787167.015,-53.02234
1426787167.03,-57.17105
1426787167.046,-58.97415
1426787167.061,-59.148285
1426787167.077,-58.419617
1426787167.093,-57.425293
1426787167.108,-56.608124
1426787167.124,-56.24991
1426787167.14,-56.50894
1426787167.155,-57.519043
1426787167.171,-59.37372
1426787167.186,-62.121094
1426787167.202,-65.672485
1426787167.218,-69.790924
1426787167.233,-74.06317
1426787167.249,-78.03784
1426787167.265,-81.29077
1426787167.28,-83.52994
1426787167.296,-84.58844
1426787167.311,-84.42929
1426787167.327,-83.12503
1426787167.343,-80.81067
1426787167.358,-77.67282
1426787167.374,-73.929016
1426787167.39,-69.75427
1426787167.405,-65.26047
1426787167.421,-60.517334
1426787167.436,-55.534943
1426787167.452,-50.363678
1426787167.468,-45.08423
1426787167.483,-39.789093
1426787167.499,-34.595367
1426787167.515,-29.542358
1426787167.53,-24.646942
1426787167.546,-19.86496
1426787167.561,-15.180969
1426787167.577,-10.588409
1426787167.593,-6.1324463
1426787167.608,-1.8331909
1426787167.624,2.31781
1426787167.64,6.3935547
1426787167.655,10.532654
1426787167.671,14.9079895
1426787167.686,19.686401
1426787167.702,25.020233
1426787167.718,31.02002
1426787167.733,37.73587
1426787167.749,45.088013
1426787167.765,52.876984
1426787167.78,60.811096
1426787167.796,68.58176
1426787167.811,76.006805
1426787167.827,83.196686
1426787167.843,90.54639
1426787167.858,98.645355
1426787167.874,107.93741
1426787167.89,118.4223
1426787167.905,129.33447
1426787167.921,139.15216
1426787167.936,145.86667
1426787167.952,147.50723
1426787167.968,142.70181
1426787167.983,131.14386
1426787167.999,113.65033
1426787168.015,91.982574
1426787168.03,68.3306
1426787168.046,44.81244
1426787168.061,23.07074
1426787168.077,4.101898
1426787168.093,-11.692108
1426787168.108,-24.306671
1426787168.124,-33.945007
1426787168.14,-40.87863
1426787168.155,-45.473785
1426787168.171,-48.18878
1426787168.186,-49.608612
1426787168.202,-50.341797
1426787168.218,-50.949768
1426787168.233,-51.819702
1426787168.249,-53.152863
1426787168.265,-55.038757
1426787168.28,-57.532898
1426787168.296,-60.670746
1426787168.311,-64.47565
1426787168.327,-68.87964
1426787168.343,-73.64087
1426787168.358,-78.3537
1426787168.374,-82.54462
1426787168.39,-85.72101
1426787168.405,-87.540955
1426787168.421,-87.82257
1426787168.436,-86.61606
1426787168.452,-84.11398
1426787168.468,-80.64841
1426787168.483,-76.53085
1426787168.499,-72.06833
1426787168.515,-67.42651
1426787168.53,-62.663208
1426787168.546,-57.769775
1426787168.561,-52.734283
1426787168.577,-47.6239
1426787168.593,-42.603394
1426787168.608,-37.891327
1426787168.624,-33.71768
1426787168.64,-30.209015
1426787168.655,-27.330078
1426787168.671,-24.86972
1426787168.686,-22.50122
1426787168.702,-19.852814
1426787168.718,-16.651794
1426787168.733,-12.788574
1426787168.749,-8.368225
1426787168.765,-3.6047974
1426787168.78,1.2345581
1426787168.796,6.004059
1426787168.811,10.742462
1426787168.827,15.661957
1426787168.843,21.027588
1426787168.858,27.071136
1426787168.874,33.798553
1426787168.89,40.989502
1426787168.905,48.289795
1426787168.921,55.34427
1426787168.936,61.983307
1426787168.952,68.34415
1426787168.968,74.87073
1426787168.983,82.15161
1426787168.999,90.62927
1426787169.015,100.29352
1426787169.03,110.45166
1426787169.046,119.77493
1426787169.061,126.4361
1426787169.077,128.63498
1426787169.093,125.076965
1426787169.108,115.364685
1426787169.124,100.13034
1426787169.14,80.848755
1426787169.155,59.45865
1426787169.171,37.913727
1426787169.186,17.852814
1426787169.202,0.3895874
1426787169.218,-13.883972
1426787169.233,-24.839783
1426787169.249,-32.677017
1426787169.265,-37.830658
1426787169.28,-40.856873
1426787169.296,-42.357147
1426787169.312,-42.880463
1426787169.327,-42.869446
1426787169.343,-42.64682
1426787169.358,-42.410355
1426787169.374,-42.309784
1426787169.39,-42.494293
1426787169.405,-43.156555
1426787169.421,-44.517014
1426787169.436,-46.757324
1426787169.452,-49.9438
1426787169.468,-53.9346
1426787169.483,-58.360184
1426787169.499,-62.645493
1426787169.515,-66.1243
1426787169.53,-68.240265
1426787169.546,-68.651535
1426787169.562,-67.36853
1426787169.577,-64.67612
1426787169.593,-61.03026
1426787169.608,-56.877563
1426787169.624,-52.513626
1426787169.64,-48.00676
1426787169.655,-43.220505
1426787169.671,-37.9666
1426787169.687,-32.125122
1426787169.702,-25.775253
1426787169.718,-19.200256
1426787169.733,-12.810791
1426787169.749,-6.982254
1426787169.765,-1.9097595
1426787169.78,2.472702
1426787169.796,6.4477997
1426787169.812,10.418182
1426787169.827,14.7209015
1426787169.843,19.50064
1426787169.858,24.681046
1426787169.874,30.021378
1426787169.89,35.283585
1426787169.905,40.351532
1426787169.921,45.332245
1426787169.937,50.5204
1426787169.952,56.279953
1426787169.968,62.932144
1426787169.983,70.59291
1426787169.999,78.99747
1426787170.015,87.42087
1426787170.03,94.62288
1426787170.046,99.04915
1426787170.062,99.117905
1426787170.077,93.72095
1426787170.093,82.648026
1426787170.108,66.75226
1426787170.124,47.808624
1426787170.14,28.018036
1426787170.155,9.397079
1426787170.171,-6.7058563
1426787170.187,-19.793732
1426787170.202,-29.989426
1426787170.218,-37.72763
1426787170.233,-43.377457
1426787170.249,-47.134476
1426787170.265,-49.06642
1426787170.28,-49.322037
1426787170.296,-48.241302
1426787170.312,-46.418808
1426787170.327,-44.526108
1426787170.343,-43.123093
1426787170.358,-42.512726
1426787170.374,-42.74173
1426787170.39,-43.677124
1426787170.405,-45.16884
1426787170.421,-47.143845
1426787170.437,-49.615433
1426787170.452,-52.529083
1426787170.468,-55.668823
1426787170.483,-58.564575
1426787170.499,-60.62175
1426787170.515,-61.3118
1426787170.53,-60.415718
1426787170.546,-58.114853
1426787170.562,-54.94809
1426787170.577,-51.554214
1426787170.593,-48.385727
1426787170.608,-45.54013
1426787170.624,-42.792877
1426787170.64,-39.737724
1426787170.655,-36.062164
1426787170.671,-31.68251
1426787170.687,-26.817047
1426787170.702,-21.853378
1426787170.718,-17.21074
1426787170.733,-13.139458
1426787170.749,-9.692932
1426787170.765,-6.6927185
1426787170.78,-3.906334
1426787170.796,-1.1012268
1426787170.812,1.819931
1426787170.827,4.82983
1426787170.843,7.8359375
1426787170.858,10.77528
1426787170.874,13.704552
1426787170.89,16.790134
1426787170.905,20.218039
1426787170.921,24.111721
1426787170.937,28.419682
1426787170.952,32.993446
1426787170.968,37.623215
1426787170.983,42.21585
1426787170.999,46.804626
1426787171.015,51.551037
1426787171.03,56.65847
1426787171.046,62.30994
1426787171.062,68.63408
1426787171.077,75.675446
1426787171.093,83.40921
1426787171.108,91.64742
1426787171.124,99.9542
1426787171.14,107.533745
1426787171.155,113.26236
1426787171.171,115.78905
1426787171.187,113.95412
1426787171.202,107.10773
1426787171.218,95.376465
1426787171.233,79.755005
1426787171.249,61.827446
1426787171.265,43.426727
1426787171.28,26.114162
1426787171.296,10.953941
1426787171.312,-1.6730766
1426787171.327,-11.874649
1426787171.343,-20.010502
1426787171.358,-26.399353
1426787171.374,-31.181252
1426787171.39,-34.371006
1426787171.405,-36.002846
1426787171.421,-36.286842
1426787171.437,-35.66947
1426787171.452,-34.761856
1426787171.468,-34.19226
1426787171.483,-34.398853
1426787171.499,-35.564255
1426787171.515,-37.603436
1426787171.53,-40.28865
1426787171.546,-43.35443
1426787171.562,-46.625202
1426787171.577,-49.943584
1426787171.593,-53.166363
1426787171.608,-56.01657
1426787171.624,-58.172325
1426787171.64,-59.257103
1426787171.655,-58.993324
1426787171.671,-57.355278
1426787171.687,-54.554703
1426787171.702,-50.956696
1426787171.718,-46.936264
1426787171.733,-42.73658
1426787171.749,-38.390633
1426787171.765,-33.80477
1426787171.78,-28.967262
1426787171.796,-23.966156
1426787171.812,-19.033417
1426787171.827,-14.402489
1426787171.843,-10.223312
1426787171.858,-6.4658966
1426787171.874,-2.9680252
1426787171.89,0.47304535
1426787171.905,3.9851532
1426787171.921,7.6232834
1426787171.937,11.398109
1426787171.952,15.330475
1426787171.968,19.44175
1426787171.983,23.812065
1426787171.999,28.479233
1426787172.015,33.41326
1426787172.03,38.54725
1426787172.046,43.76213
1426787172.062,48.997955
1426787172.077,54.277832
1426787172.093,59.760864
1426787172.108,65.76761
1426787172.124,72.61006
1426787172.14,80.40451
1426787172.155,88.81708
1426787172.171,96.952484
1426787172.187,103.4406
1426787172.202,106.77084
1426787172.218,105.72032
1426787172.234,99.742355
1426787172.249,89.11661
1426787172.265,74.857864
1426787172.28,58.369125
1426787172.296,41.100754
1426787172.312,24.327774
1426787172.327,8.969345
1426787172.343,-4.3525543
1426787172.359,-15.270706
1426787172.374,-23.62181
1426787172.39,-29.385727
1426787172.405,-32.77034
1426787172.421,-34.17009
1426787172.437,-34.076385
1426787172.452,-33.064804
1426787172.468,-31.652649
1426787172.484,-30.2173
1426787172.499,-29.067444
1426787172.515,-28.435043
1426787172.53,-28.512909
1426787172.546,-29.462112
1426787172.562,-31.339355
1426787172.577,-34.055283
1426787172.593,-37.355713
1426787172.609,-40.807816
1426787172.624,-43.929245
1426787172.64,-46.279785
1426787172.655,-47.57724
1426787172.671,-47.724823
1426787172.687,-46.79367
1426787172.702,-44.91121
1426787172.718,-42.216812
1426787172.734,-38.789642
1426787172.749,-34.6904
1426787172.765,-30.028244
1426787172.78,-24.993729
1426787172.796,-19.86116
1426787172.812,-14.888077
1426787172.827,-10.209686
1426787172.843,-5.7630157
1426787172.859,-1.2841797
1426787172.874,3.554062
1426787172.89,8.97261
1426787172.905,14.956329
1426787172.921,21.212326
1426787172.937,27.342407
1426787172.952,32.993484
1426787172.968,38.03691
1426787172.984,42.654984
1426787172.999,47.294846
1426787173.015,52.508194
1426787173.03,58.729904
1426787173.046,66.08807
1426787173.062,74.25629
1426787173.077,82.4492
1426787173.093,89.472534
1426787173.109,93.94806
1426787173.124,94.62572
1426787173.14,90.68581
1426787173.155,81.95282
1426787173.171,68.98192
1426787173.187,52.959778
1426787173.202,35.41603
1426787173.218,17.890488
1426787173.234,1.7071533
1426787173.249,-12.203247
1426787173.265,-23.29454
1426787173.28,-31.397415
1426787173.296,-36.6304
1426787173.312,-39.357056
1426787173.327,-40.05403
1426787173.343,-39.31169
1426787173.359,-37.66028
1426787173.374,-35.60447
1426787173.39,-33.54914
1426787173.405,-31.836502
1426787173.421,-30.788498
1426787173.437,-30.693901
1426787173.452,-31.721718
1426787173.468,-33.90371
1426787173.484,-37.059692
1426787173.499,-40.79162
1426787173.515,-44.60871
1426787173.53,-48.00892
1426787173.546,-50.617798
1426787173.562,-52.23301
1426787173.577,-52.802277
1426787173.593,-52.37303
1426787173.609,-51.00434
1426787173.624,-48.71717
1426787173.64,-45.46324
1426787173.655,-41.24408
1426787173.671,-36.14856
1426787173.687,-30.421059
1426787173.702,-24.360504
1426787173.718,-18.303444
1426787173.734,-12.456146
1426787173.749,-6.8867416
1426787173.765,-1.4875793
1426787173.78,3.920662
1426787173.796,9.535828
1426787173.812,15.447845
1426787173.827,21.634453
1426787173.843,27.930733
1426787173.859,34.1307
1426787173.874,40.067154
1426787173.89,45.70112
1426787173.905,51.164375
1426787173.921,56.716316
1426787173.937,62.693924
1426787173.952,69.41824
1426787173.968,77.10176
1426787173.984,85.78154
1426787173.999,95.20675
1426787174.015,104.71849
1426787174.03,113.20243
1426787174.046,119.1429
1426787174.062,120.92426
1426787174.077,117.29614
1426787174.093,107.8174
1426787174.109,93.10051
1426787174.124,74.69338
1426787174.14,54.659645
1426787174.155,34.951576
1426787174.171,17.040321
1426787174.187,1.6339417
1426787174.202,-11.132797
1426787174.218,-21.481056
1426787174.234,-29.678497
1426787174.249,-35.899208
1426787174.265,-40.155426
1426787174.28,-42.535988
1426787174.296,-43.27102
1426787174.312,-42.838676
1426787174.327,-41.914585
1426787174.343,-41.19497
1426787174.359,-41.23688
1426787174.374,-42.29087
1426787174.39,-44.343246
1426787174.405,-47.187065
1426787174.421,-50.594955
1426787174.437,-54.390083
1426787174.452,-58.40783
1426787174.468,-62.409203
1426787174.484,-66.00153
1426787174.499,-68.663376
1426787174.515,-69.92282
1426787174.53,-69.546295
1426787174.546,-67.6194
1426787174.562,-64.50473
1426787174.577,-60.63771
1426787174.593,-56.34391
1426787174.609,-51.71658
1426787174.624,-46.646133
1426787174.64,-40.96308
1426787174.655,-34.600166
1426787174.671,-27.691963
1426787174.687,-20.51785
1426787174.702,-13.408404
1426787174.718,-6.6231227
1426787174.734,-0.1972543
1426787174.749,5.941882
1426787174.765,11.996127
1426787174.78,18.116718
1426787174.796,24.377611
1426787174.812,30.686832
1426787174.827,36.864914
1426787174.843,42.717262
1426787174.859,48.16608
1426787174.874,53.31245
1426787174.89,58.53177
1426787174.906,64.36567
1426787174.921,71.40407
1426787174.937,80.002815
1426787174.952,90.075134
1426787174.968,100.86638
1426787174.984,110.9494
1426787174.999,118.47427
1426787175.015,121.60292
1426787175.031,119.000694
1426787175.046,110.24002
1426787175.062,95.95177
1426787175.077,77.62651
1426787175.093,57.213417
1426787175.109,36.64157
1426787175.124,17.468933
1426787175.14,0.691658
1426787175.156,-13.217571
1426787175.171,-24.189919
1426787175.187,-32.413254
1426787175.202,-38.156395
1426787175.218,-41.790077
1426787175.234,-43.685425
1426787175.249,-44.279358
1426787175.265,-44.029068
1426787175.281,-43.42798
1426787175.296,-42.963654
1426787175.312,-43.062958
1426787175.327,-43.99987
1426787175.343,-45.87944
1426787175.359,-48.605225
1426787175.374,-51.94384
1426787175.39,-55.585564
1426787175.406,-59.20617
1426787175.421,-62.49649
1426787175.437,-65.219734
1426787175.452,-67.132965
1426787175.468,-68.00597
1426787175.484,-67.61276
1426787175.499,-65.77379
1426787175.515,-62.40149
1426787175.531,-57.605743
1426787175.546,-51.654175
1426787175.562,-44.97101
1426787175.577,-38.032364
1426787175.593,-31.196243
1426787175.609,-24.627823
1426787175.624,-18.241653
1426787175.64,-11.813553
1426787175.656,-5.1422577
1426787175.671,1.8515167
1426787175.687,8.995636
1426787175.702,15.966339
1426787175.718,22.42746
1426787175.734,28.214783
1426787175.749,33.40222
1426787175.765,38.32672
1426787175.781,43.45288
1426787175.796,49.303802
1426787175.812,56.265747
1426787175.827,64.5997
1426787175.843,74.299164
1426787175.859,84.97063
1426787175.874,95.71889
1426787175.89,105.065186
1426787175.906,111.151184
1426787175.921,112.12764
1426787175.937,106.692276
1426787175.952,94.60947
1426787175.968,76.88121
1426787175.984,55.498566
1426787175.999,32.9256
1426787176.015,11.440399
1426787176.031,-7.390213
1426787176.046,-22.818375
1426787176.062,-34.799744
1426787176.077,-43.657883
1426787176.093,-49.828827
1426787176.109,-53.670807
1426787176.124,-55.52191
1426787176.14,-55.75174
1426787176.156,-54.8703
1426787176.171,-53.509964
1426787176.187,-52.3154
1426787176.202,-51.83336
1426787176.218,-52.395233
1426787176.234,-54.09677
1426787176.249,-56.797638
1426787176.265,-60.214874
1426787176.281,-64.02466
1426787176.296,-67.87018
1426787176.312,-71.45474
1426787176.327,-74.50702
1426787176.343,-76.76602
1426787176.359,-78.01291
1426787176.374,-78.052734
1426787176.39,-76.775024
1426787176.406,-74.1499
1426787176.421,-70.259796
1426787176.437,-65.32449
1426787176.452,-59.68509
1426787176.468,-53.725037
1426787176.484,-47.829163
1426787176.499,-42.254395
1426787176.515,-37.06314
1426787176.531,-32.17804
1426787176.546,-27.4357
1426787176.562,-22.725769
1426787176.577,-18.020233
1426787176.593,-13.411652
1426787176.609,-9.02478
1426787176.624,-4.942444
1426787176.64,-1.1465759
1426787176.656,2.5031128
1426787176.671,6.188568
1426787176.687,10.116791
1426787176.702,14.435364
1426787176.718,19.221832
1426787176.734,24.497925
1426787176.749,30.242035
1426787176.765,36.41214
1426787176.781,42.946075
1426787176.796,49.810913
1426787176.812,56.95273
1426787176.827,64.317566
1426787176.843,71.90057
1426787176.859,79.80859
1426787176.874,88.26526
1426787176.89,97.59766
1426787176.906,108.01373
1426787176.921,119.31958
1426787176.937,130.6517
1426787176.952,140.42117
1426787176.968,146.57474
1426787176.984,147.16687
1426787176.999,140.97177
1426787177.015,127.96414
1426787177.031,109.31378
1426787177.046,87.0116
1426787177.062,63.265625
1426787177.077,39.945282
1426787177.093,18.315582
1426787177.109,-0.90338135
1426787177.124,-17.352234
1426787177.14,-30.804535
1426787177.156,-41.16742
1426787177.171,-48.497864
1426787177.187,-53.15439
1426787177.202,-55.76941
1426787177.218,-57.12021
1426787177.234,-57.94867
1426787177.249,-58.80716
1426787177.265,-59.979095
1426787177.281,-61.563843
1426787177.296,-63.58203
1426787177.312,-66.08499
1426787177.327,-69.158325
1426787177.343,-72.85547
1426787177.359,-77.103516
1426787177.374,-81.63904
1426787177.39,-85.96948
1426787177.406,-89.51605
1426787177.421,-91.76425
1426787177.437,-92.39389
1426787177.452,-91.3909
1426787177.468,-88.97336
1426787177.484,-85.51538
1426787177.499,-81.38043
1426787177.515,-76.82822
1426787177.531,-71.95972
1426787177.546,-66.80023
1426787177.562,-61.33548
1426787177.578,-55.64325
1426787177.593,-49.897644
1426787177.609,-44.35855
1426787177.624,-39.31949
1426787177.64,-34.938446
1426787177.656,-31.231476
1426787177.671,-28.015656
1426787177.687,-25.03061
1426787177.702,-22.010712
1426787177.718,-18.792572
1426787177.734,-15.300598
1426787177.749,-11.546051
1426787177.765,-7.57489
1426787177.781,-3.4335327
1426787177.796,0.8569031
1426787177.812,5.2822266
1426787177.828,9.864288
1426787177.843,14.697723
1426787177.859,19.922333
1426787177.874,25.678864
1426787177.89,32.047333
1426787177.906,38.947052
1426787177.921,46.13913
1426787177.937,53.291016
1426787177.953,60.165375
1426787177.968,66.77304
1426787177.984,73.444855
1426787177.999,80.74591
1426787178.015,89.2341
1426787178.031,99.11691
1426787178.046,109.97711
1426787178.062,120.593994
1426787178.078,129.11337
1426787178.093,133.43268
1426787178.109,131.83908
1426787178.124,123.49362
1426787178.14,108.80853
1426787178.156,89.31317
1426787178.171,67.239075
1426787178.187,44.87372
1426787178.203,24.045776
1426787178.218,5.8691406
1426787178.234,-9.217926
1426787178.249,-21.20279
1426787178.265,-30.248322
1426787178.281,-36.592773
1426787178.296,-40.532135
1426787178.312,-42.50122
1426787178.328,-43.079346
1426787178.343,-42.966003
1426787178.359,-42.809174
1426787178.374,-43.110016
1426787178.39,-44.13498
1426787178.406,-45.961548
1426787178.421,-48.510864
1426787178.437,-51.6709
1426787178.453,-55.296295
1426787178.468,-59.22003
1426787178.484,-63.22867
1426787178.499,-67.02948
1426787178.515,-70.25989
1426787178.531,-72.54739
1426787178.546,-73.586914
1426787178.562,-73.230804
1426787178.578,-71.51434
1426787178.593,-68.64917
1426787178.609,-64.87448
1426787178.624,-60.42456
1426787178.64,-55.420013
1426787178.656,-49.89496
1426787178.671,-43.845
1426787178.687,-37.319824
1426787178.703,-30.491547
1426787178.718,-23.626678
1426787178.734,-17.026703
1426787178.749,-10.912537
1426787178.765,-5.28421
1426787178.781,0.05545044
1426787178.796,5.441284
1426787178.812,11.125641
1426787178.828,17.205658
1426787178.843,23.501434
1426787178.859,29.732788
1426787178.874,35.62091
1426787178.89,41.136444
1426787178.906,46.489014
1426787178.921,52.11972
1426787178.937,58.569153
1426787178.953,66.277954
1426787178.968,75.47751
1426787178.984,85.94379
1426787178.999,96.88733
1426787179.015,106.95236
1426787179.031,114.304504
1426787179.046,117.0506
1426787179.062,113.71188
1426787179.078,103.73193
1426787179.093,87.73065
1426787179.109,67.41409
1426787179.124,45.08142
1426787179.14,23.0419
1426787179.156,3.039917
1426787179.171,-13.966492
1426787179.187,-27.72998
1426787179.203,-38.46161
1426787179.218,-46.47873
1426787179.234,-52.04602
1426787179.249,-55.379486
1426787179.265,-56.732056
1426787179.281,-56.5101
1426787179.296,-55.24585
1426787179.312,-53.549133
1426787179.328,-51.93329
1426787179.343,-50.787445
1426787179.359,-50.36496
1426787179.374,-50.81418
1426787179.39,-52.21997
1426787179.406,-54.57544
1426787179.421,-57.762695
1426787179.437,-61.4989
1426787179.453,-65.38608
1426787179.468,-68.9794
1426787179.484,-71.861206
1426787179.499,-73.71704
1426787179.515,-74.31906
1426787179.531,-73.559784
1426787179.546,-71.44159
1426787179.562,-68.13251
1426787179.578,-63.94275
1426787179.593,-59.289764
1426787179.609,-54.528656
1426787179.624,-49.856506
1426787179.64,-45.230927
1426787179.656,-40.418213
1426787179.671,-35.147858
1426787179.687,-29.295685
1426787179.703,-22.983978
1426787179.718,-16.58371
1426787179.734,-10.532898
1426787179.749,-5.1426086
1426787179.765,-0.4295349
1426787179.781,3.8981323
1426787179.796,8.333282
1426787179.812,13.343231
