1433809475.344,0.0
1433809475.359,0.0
1433809475.375,0.0
1433809475.391,0.0
1433809475.406,0.0
1433809475.422,0.0
1433809475.438,0.0
1433809475.453,0.0
1433809475.469,0.0
1433809475.484,0.0022315353
1433809475.5,-0.0045169927
1433809475.516,-0.011265522
1433809475.531,-0.011383951
1433809475.547,0.0011864507
1433809475.563,0.025910312
1433809475.578,0.050634187
1433809475.594,0.051362894
1433809475.609,-0.0014929791
1433809475.625,-0.1302426
1433809475.641,-0.35562757
1433809475.656,-0.6591247
1433809475.672,-1.0095103
1433809475.688,-1.3709826
1433809475.703,-1.7197359
1433809475.719,-2.0551105
1433809475.734,-2.39945
1433809475.75,-2.7866635
1433809475.766,-3.2399073
1433809475.781,-3.796012
1433809475.797,-4.418684
1433809475.813,-5.0592937
1433809475.828,-5.6644096
1433809475.844,-6.2021537
1433809475.859,-6.6808796
1433809475.875,-7.149598
1433809475.891,-7.6782336
1433809475.906,-8.310739
1433809475.922,-9.143657
1433809475.938,-10.089731
1433809475.953,-11.041313
1433809475.969,-11.8842125
1433809475.984,-12.564316
1433809476,-13.13563
1433809476.016,-13.760044
1433809476.031,-14.65232
1433809476.047,-15.962056
1433809476.063,-17.914442
1433809476.078,-20.317299
1433809476.094,-22.903854
1433809476.109,-25.37947
1433809476.125,-27.578028
1433809476.141,-29.57246
1433809476.156,-31.675173
1433809476.172,-34.3178
1433809476.188,-37.813618
1433809476.203,-42.541233
1433809476.219,-48.1463
1433809476.234,-54.104755
1433809476.25,-59.83309
1433809476.266,-64.972374
1433809476.281,-69.58293
1433809476.297,-74.14353
1433809476.313,-79.344986
1433809476.328,-85.70726
1433809476.344,-93.76193
1433809476.359,-102.99779
1433809476.375,-112.61757
1433809476.391,-121.73034
1433809476.406,-129.76602
1433809476.422,-136.75102
1433809476.438,-143.30344
1433809476.453,-150.74623
1433809476.469,-157.77353
1433809476.484,-166.6432
1433809476.5,-177.94807
1433809476.516,-191.79153
1433809476.531,-206.96931
1433809476.547,-220.56773
1433809476.563,-228.248
1433809476.578,-225.3613
1433809476.594,-208.52884
1433809476.609,-176.86514
1433809476.625,-132.75938
1433809476.641,-80.05589
1433809476.656,-23.088928
1433809476.672,34.912323
1433809476.688,92.408295
1433809476.703,149.15594
1433809476.719,205.2844
1433809476.734,260.50787
1433809476.75,313.96844
1433809476.766,364.1761
1433809476.781,410.18015
1433809476.797,451.26477
1433809476.813,486.8474
1433809476.828,516.0716
1433809476.844,537.57104
1433809476.859,549.6094
1433809476.875,550.42664
1433809476.891,538.91833
1433809476.906,514.82544
1433809476.922,479.32355
1433809476.938,434.5175
1433809476.953,383.05798
1433809476.969,327.61566
1433809476.984,270.48303
1433809477,213.40012
1433809477.016,157.61462
1433809477.031,104.11133
1433809477.047,53.68701
1433809477.063,7.275238
1433809477.078,-34.249542
1433809477.094,-70.170685
1433809477.109,-100.10446
1433809477.125,-124.09311
1433809477.141,-142.59567
1433809477.156,-156.362
1433809477.172,-166.22752
1433809477.188,-172.97868
1433809477.203,-177.13547
1433809477.219,-178.98965
1433809477.234,-178.64178
1433809477.25,-176.13765
1433809477.266,-171.60109
1433809477.281,-165.32727
1433809477.297,-157.8026
1433809477.313,-149.61299
1433809477.328,-141.32268
1433809477.344,-133.30722
1433809477.36,-125.67029
1433809477.375,-118.231636
1433809477.391,-110.65642
1433809477.406,-102.63579
1433809477.422,-94.05936
1433809477.438,-85.11612
1433809477.453,-76.234406
1433809477.469,-67.89371
1433809477.485,-60.428577
1433809477.5,-53.900352
1433809477.516,-48.079704
1433809477.531,-42.58869
1433809477.547,-37.062897
1433809477.563,-31.208807
1433809477.578,-24.812925
1433809477.594,-17.760628
1433809477.61,-10.244277
1433809477.625,-2.9745555
1433809477.641,2.7226543
1433809477.656,5.1745534
1433809477.672,3.0667741
1433809477.688,-3.8218136
1433809477.703,-14.224648
1433809477.719,-25.690163
1433809477.735,-35.4672
1433809477.75,-41.582848
1433809477.766,-43.499725
1433809477.781,-42.026733
1433809477.797,-38.642715
1433809477.813,-34.671883
1433809477.828,-30.844719
1433809477.844,-27.33889
1433809477.86,-24.151196
1433809477.875,-21.395096
1433809477.891,-19.316437
1433809477.906,-18.05687
1433809477.922,-17.429237
1433809477.938,-16.915054
1433809477.953,-15.865116
1433809477.969,-13.792496
1433809477.985,-10.6061325
1433809478,-6.722084
1433809478.016,-2.923294
1433809478.031,-0.13328552
1433809478.047,0.9181938
1433809478.063,-0.005935669
1433809478.078,-2.5638847
1433809478.094,-5.904503
1433809478.11,-9.094395
1433809478.125,-11.480835
1433809478.141,-12.931984
1433809478.156,-13.764656
1433809478.172,-14.364494
1433809478.188,-14.802475
1433809478.203,-14.709656
1433809478.219,-13.545551
1433809478.235,-11.048889
1433809478.25,-7.570839
1433809478.266,-4.0401306
1433809478.281,-1.5267296
1433809478.297,-0.74552155
1433809478.313,-1.6901131
1433809478.328,-3.7162437
1433809478.344,-5.852844
1433809478.36,-7.2605057
1433809478.375,-7.436245
1433809478.391,-6.301323
1433809478.406,-4.1028557
1433809478.422,-1.295147
1433809478.438,1.587265
1433809478.453,4.027157
1433809478.469,5.65905
1433809478.485,6.3390694
1433809478.5,6.1660347
1433809478.516,5.440262
1433809478.531,4.482033
1433809478.547,3.4894524
1433809478.563,2.4894981
1433809478.578,1.3773537
1433809478.594,0.08476639
1433809478.61,-1.3441582
1433809478.625,-2.6726284
1433809478.641,-3.60783
1433809478.656,-3.8594532
1433809478.672,-3.301777
1433809478.688,-1.9973373
1433809478.703,-0.22439575
1433809478.719,1.6598701
1433809478.735,3.3000317
1433809478.75,4.4721565
1433809478.766,5.108614
1433809478.781,5.29661
1433809478.797,5.1327057
1433809478.813,4.683716
1433809478.828,3.893299
1433809478.844,2.7131271
1433809478.86,1.1477013
1433809478.875,-0.64860916
1433809478.891,-2.4010048
1433809478.906,-3.7667656
1433809478.922,-4.491831
1433809478.938,-4.466303
1433809478.953,-3.8621407
1433809478.969,-3.061676
1433809478.985,-2.6231804
1433809479,-3.0663853
1433809479.016,-4.715947
1433809479.031,-7.5179405
1433809479.047,-11.071419
1433809479.063,-14.684723
1433809479.078,-17.663134
1433809479.094,-19.489536
1433809479.11,-19.994207
1433809479.125,-19.303795
1433809479.141,-17.770124
1433809479.156,-15.748466
1433809479.172,-13.514337
1433809479.188,-11.1756315
1433809479.203,-8.711904
1433809479.219,-6.071179
1433809479.235,-3.1454167
1433809479.25,0.028239965
1433809479.266,3.3147671
1433809479.281,6.5084743
1433809479.297,9.41085
1433809479.313,11.938462
1433809479.328,14.087395
1433809479.344,15.937993
1433809479.36,17.535236
1433809479.375,18.882507
1433809479.391,19.926222
1433809479.406,20.683258
1433809479.422,21.25481
1433809479.438,21.768627
1433809479.453,22.215672
1433809479.469,22.363167
1433809479.485,21.796452
1433809479.5,20.148388
1433809479.516,17.338749
1433809479.531,13.7401
1433809479.547,10.054741
1433809479.563,7.0503273
1433809479.578,5.226721
1433809479.594,4.688159
1433809479.61,5.163477
1433809479.625,6.2667274
1433809479.641,7.651778
1433809479.656,9.173015
1433809479.672,10.768086
1433809479.688,12.364761
1433809479.703,13.733538
1433809479.719,14.585117
1433809479.735,14.619438
1433809479.75,13.704339
1433809479.766,11.931424
1433809479.781,9.596532
1433809479.797,7.096485
1433809479.813,4.8392954
1433809479.828,3.1008158
1433809479.844,1.9905052
1433809479.86,1.4233885
1433809479.875,1.2165756
1433809479.891,1.1701975
1433809479.906,1.2001572
1433809479.922,1.2976971
1433809479.938,1.4647274
1433809479.953,1.5554781
1433809479.969,1.2361808
1433809479.985,0.06129074
1433809480,-2.3009062
1433809480.016,-5.8493953
1433809480.032,-10.109608
1433809480.047,-14.253845
1433809480.063,-17.400711
1433809480.078,-18.948498
1433809480.094,-18.784784
1433809480.11,-17.22824
1433809480.125,-14.802633
1433809480.141,-12.019797
1433809480.157,-9.188733
1433809480.172,-6.464922
1433809480.188,-3.8802483
1433809480.203,-1.4832729
1433809480.219,0.7170941
1433809480.235,2.5966167
1433809480.25,4.104068
1433809480.266,5.2578707
1433809480.282,6.1192737
1433809480.297,6.7665186
1433809480.313,7.2644396
1433809480.328,7.7133236
1433809480.344,8.285492
1433809480.36,9.19898
1433809480.375,10.655338
1433809480.391,12.768452
1433809480.407,15.4827385
1433809480.422,18.55815
1433809480.438,21.589657
1433809480.453,24.06686
1433809480.469,25.43981
1433809480.485,25.189686
1433809480.5,22.92971
1433809480.516,18.528818
1433809480.532,12.227231
1433809480.547,4.6375227
1433809480.563,-3.3878565
1433809480.578,-10.9689665
1433809480.594,-17.404636
1433809480.61,-22.28848
1433809480.625,-25.51675
1433809480.641,-27.17828
1433809480.657,-27.43969
1433809480.672,-26.485374
1433809480.688,-24.513
1433809480.703,-21.787312
1433809480.719,-18.667603
1433809480.735,-15.5457325
1433809480.75,-12.79472
1433809480.766,-10.64287
1433809480.782,-9.12694
1433809480.797,-8.07753
1433809480.813,-7.1822376
1433809480.828,-6.1021557
1433809480.844,-4.6166515
1433809480.86,-2.6746788
1433809480.875,-0.38487053
1433809480.891,2.1121063
1433809480.907,4.7724476
1433809480.922,7.69792
1433809480.938,10.994986
1433809480.953,14.566193
1433809480.969,17.89089
1433809480.985,20.070316
1433809481,20.136965
1433809481.016,17.491362
1433809481.032,12.246637
1433809481.047,5.2966595
1433809481.063,-2.026144
1433809481.078,-8.439861
1433809481.094,-13.184555
1433809481.11,-16.11225
1433809481.125,-17.548485
1433809481.141,-17.895021
1433809481.157,-17.402687
1433809481.172,-16.091915
1433809481.188,-13.94927
1433809481.203,-11.101135
1433809481.219,-7.925125
1433809481.235,-4.9223137
1433809481.25,-2.523964
1433809481.266,-0.901577
1433809481.282,0.06791878
1433809481.297,0.7094383
1433809481.313,1.359848
1433809481.328,2.2318401
1433809481.344,3.3621979
1433809481.36,4.6782055
1433809481.375,6.1069584
1433809481.391,7.7052956
1433809481.407,9.66291
1433809481.422,12.2591
1433809481.438,15.64817
1433809481.453,19.724815
1433809481.469,23.972208
1433809481.485,27.528393
1433809481.5,29.382706
1433809481.516,28.709799
1433809481.532,25.166338
1433809481.547,19.019627
1433809481.563,11.081697
1433809481.578,2.4566994
1433809481.594,-5.7991104
1433809481.61,-12.896465
1433809481.625,-18.42858
1433809481.641,-22.300259
1433809481.657,-24.664036
1433809481.672,-25.759365
1433809481.688,-25.886227
1433809481.703,-25.34991
1433809481.719,-24.449806
1433809481.735,-23.423794
1433809481.75,-22.414524
1433809481.766,-21.438147
1433809481.782,-20.457815
1433809481.797,-19.435724
1433809481.813,-18.42448
1433809481.828,-17.56024
1433809481.844,-16.999298
1433809481.86,-16.791204
1433809481.875,-16.826218
1433809481.891,-16.77007
1433809481.907,-16.172436
1433809481.922,-14.577436
1433809481.938,-11.728016
1433809481.953,-7.681711
1433809481.969,-2.8999596
1433809481.985,1.8272552
1433809482,5.529169
1433809482.016,7.3499794
1433809482.032,6.7921486
1433809482.047,3.8846264
1433809482.063,-0.8577976
1433809482.078,-6.5976124
1433809482.094,-12.465544
1433809482.11,-17.75315
1433809482.125,-22.013296
1433809482.141,-25.009888
1433809482.157,-26.658192
1433809482.172,-26.938095
1433809482.188,-25.897629
1433809482.203,-23.623337
1433809482.219,-20.253624
1433809482.235,-15.94452
1433809482.25,-10.88385
1433809482.266,-5.270434
1433809482.282,0.63020897
1433809482.297,6.5219717
1433809482.313,12.0926695
1433809482.328,17.075262
1433809482.344,21.25024
1433809482.36,24.463596
1433809482.375,26.582825
1433809482.391,27.531864
1433809482.407,27.329058
1433809482.422,26.129284
1433809482.438,24.238459
1433809482.453,22.114876
1433809482.469,20.313047
1433809482.485,19.394844
1433809482.5,19.78331
1433809482.516,21.574688
1433809482.532,24.306522
1433809482.547,26.937756
1433809482.563,28.06463
1433809482.578,26.43476
1433809482.594,21.537422
1433809482.61,13.972654
1433809482.625,5.263592
1433809482.641,-2.7402458
1433809482.657,-8.748718
1433809482.672,-12.589382
1433809482.688,-15.220905
1433809482.704,-18.14246
1433809482.719,-22.614773
1433809482.735,-29.00121
1433809482.75,-36.628872
1433809482.766,-44.050766
1433809482.782,-49.61406
1433809482.797,-51.94014
1433809482.813,-50.2823
1433809482.829,-44.589012
1433809482.844,-35.460583
1433809482.86,-23.955364
1433809482.875,-11.362232
1433809482.891,1.0937576
1433809482.907,12.436714
1433809482.922,22.08192
1433809482.938,29.769997
1433809482.954,35.483547
1433809482.969,39.365536
1433809482.985,41.744633
1433809483,43.155598
1433809483.016,44.31891
1433809483.032,45.917156
1433809483.047,48.265186
1433809483.063,51.05031
1433809483.079,53.343166
1433809483.094,53.90718
1433809483.11,51.756184
1433809483.125,46.597122
1433809483.141,39.02435
1433809483.157,30.276596
1433809483.172,21.759197
1433809483.188,14.535263
1433809483.204,9.091755
1433809483.219,5.3660965
1433809483.235,3.0356483
1433809483.25,1.7643166
1433809483.266,1.3777657
1433809483.282,1.7935677
1433809483.297,2.9183578
1433809483.313,4.5162277
1433809483.329,6.23827
1433809483.344,7.692543
1433809483.36,8.6261635
1433809483.375,8.995417
1433809483.391,8.983578
1433809483.407,8.862665
1433809483.422,8.874733
1433809483.438,9.097975
1433809483.454,9.475315
1433809483.469,9.869978
1433809483.485,10.233814
1433809483.5,10.682123
1433809483.516,11.504164
1433809483.532,13.0742855
1433809483.547,15.683526
1433809483.563,19.382233
1433809483.579,23.877136
1433809483.594,28.516308
1433809483.61,32.419296
1433809483.625,34.66112
1433809483.641,34.541656
1433809483.657,31.757254
1433809483.672,26.53303
1433809483.688,19.573376
1433809483.704,11.861718
1433809483.719,4.397314
1433809483.735,-2.0560398
1433809483.75,-7.1391163
1433809483.766,-10.853506
1433809483.782,-13.398113
1433809483.797,-14.992266
1433809483.813,-15.77569
1433809483.829,-15.779247
1433809483.844,-15.068783
1433809483.86,-13.802746
1433809483.875,-12.270664
1433809483.891,-10.777454
1433809483.907,-9.572491
1433809483.922,-8.728874
1433809483.938,-8.286575
1433809483.954,-8.312939
1433809483.969,-8.961761
1433809483.985,-10.369713
1433809484,-12.458496
1433809484.016,-14.787338
1433809484.032,-16.599342
1433809484.047,-17.051369
1433809484.063,-15.564232
1433809484.079,-12.076836
1433809484.094,-7.1309586
1433809484.11,-1.6818924
1433809484.125,3.1739807
1433809484.141,6.5178986
1433809484.157,7.757698
1433809484.172,6.724098
1433809484.188,3.6154861
1433809484.204,-1.0670624
1433809484.219,-6.645157
1433809484.235,-12.373085
1433809484.25,-17.618645
1433809484.266,-21.982712
1433809484.282,-25.379974
1433809484.297,-27.960243
1433809484.313,-29.999992
1433809484.329,-31.732025
1433809484.344,-33.25167
1433809484.36,-34.490784
1433809484.375,-35.257866
1433809484.391,-35.315346
1433809484.407,-34.523033
1433809484.422,-32.855957
1433809484.438,-30.464691
1433809484.454,-27.624985
1433809484.469,-24.701653
1433809484.485,-22.042381
1433809484.5,-19.91745
1433809484.516,-18.433556
1433809484.532,-17.529152
1433809484.547,-16.992668
1433809484.563,-16.496964
1433809484.579,-15.656052
1433809484.594,-14.100861
1433809484.61,-11.5336
1433809484.625,-7.790436
1433809484.641,-2.8871613
1433809484.657,2.92202
1433809484.672,9.150322
1433809484.688,15.085442
1433809484.704,19.906425
1433809484.719,22.818855
1433809484.735,23.251595
1433809484.75,21.004211
1433809484.766,16.367905
1433809484.782,10.042107
1433809484.797,2.9734268
1433809484.813,-3.9066544
1433809484.829,-9.91655
1433809484.844,-14.702904
1433809484.86,-18.162582
1433809484.875,-20.303825
1433809484.891,-21.100845
1433809484.907,-20.52208
1433809484.922,-18.6539
1433809484.938,-15.848381
1433809484.954,-12.705948
1433809484.969,-9.949326
1433809484.985,-8.119545
1433809485,-7.3756332
1433809485.016,-7.4553757
1433809485.032,-7.833145
1433809485.047,-7.9740295
1433809485.063,-7.5785294
1433809485.079,-6.6435776
1433809485.094,-5.4068832
1433809485.11,-4.146843
1433809485.125,-3.0309982
1433809485.141,-2.0163956
1433809485.157,-0.8846512
1433809485.172,0.66036224
1433809485.188,2.8595505
1433809485.204,5.78701
1433809485.219,9.282669
1433809485.235,12.921494
1433809485.25,16.059418
1433809485.266,17.976486
1433809485.282,18.033928
1433809485.297,15.9109955
1433809485.313,11.707336
1433809485.329,5.963745
1433809485.344,-0.5068741
1433809485.36,-6.8397827
1433809485.376,-12.34803
1433809485.391,-16.622932
1433809485.407,-19.514786
1433809485.422,-21.033585
1433809485.438,-21.273308
1433809485.454,-20.367844
1433809485.469,-18.556458
1433809485.485,-16.172928
1433809485.5,-13.639679
1433809485.516,-11.356262
1433809485.532,-9.618576
1433809485.547,-8.540268
1433809485.563,-8.079079
1433809485.579,-8.054108
1433809485.594,-8.2285385
1433809485.61,-8.369759
1433809485.626,-8.321526
1433809485.641,-8.037315
1433809485.657,-7.5642166
1433809485.672,-6.9577103
1433809485.688,-6.165428
1433809485.704,-4.9575424
1433809485.719,-2.9450836
1433809485.735,0.24713898
1433809485.751,4.7224503
1433809485.766,10.1456375
1433809485.782,15.660774
1433809485.797,20.119667
1433809485.813,22.412186
1433809485.829,21.870438
1433809485.844,18.508488
1433809485.86,13.035549
1433809485.876,6.5850067
1433809485.891,0.34127808
1433809485.907,-4.8425865
1433809485.922,-8.596401
1433809485.938,-11.009258
1433809485.954,-12.376076
1433809485.969,-12.967278
1433809485.985,-12.859623
1433809486.001,-11.992432
1433809486.016,-10.325172
1433809486.032,-7.998749
1433809486.047,-5.3728447
1433809486.063,-2.9080048
1433809486.079,-0.9687195
1433809486.094,0.32421494
1433809486.11,1.1197243
1433809486.126,1.7116203
1433809486.141,2.3811417
1433809486.157,3.2420692
1433809486.172,4.2783966
1433809486.188,5.401022
1433809486.204,6.610073
1433809486.219,8.040724
1433809486.235,9.92734
1433809486.251,12.472193
1433809486.266,15.746233
1433809486.282,19.57708
1433809486.297,23.593315
1433809486.313,27.269428
1433809486.329,30.014109
1433809486.344,31.260292
1433809486.36,30.58649
1433809486.376,27.810913
1433809486.391,23.091457
1433809486.407,16.929134
1433809486.422,10.073018
1433809486.438,3.3198738
1433809486.454,-2.678422
1433809486.469,-7.5623302
1433809486.485,-11.226355
1433809486.501,-13.732645
1433809486.516,-15.148821
1433809486.532,-15.503103
1433809486.547,-14.8280525
1433809486.563,-13.25022
1433809486.579,-11.059227
1433809486.594,-8.671772
1433809486.61,-6.495906
1433809486.626,-4.795472
1433809486.641,-3.6071873
1433809486.657,-2.8005166
1433809486.672,-2.1364908
1433809486.688,-1.4288433
1433809486.704,-0.6090634
1433809486.719,0.26443815
1433809486.735,1.1050692
1433809486.751,1.8852992
1433809486.766,2.7534604
1433809486.782,4.0539007
1433809486.797,6.2301626
1433809486.813,9.625087
1433809486.829,14.228458
1433809486.844,19.502083
1433809486.86,24.438557
1433809486.876,27.813421
1433809486.891,28.62645
1433809486.907,26.446743
1433809486.922,21.57113
1433809486.938,14.857703
1433809486.954,7.40442
1433809486.969,0.19029331
1433809486.985,-6.1007757
1433809487.001,-11.105061
1433809487.016,-14.62741
1433809487.032,-16.561298
1433809487.047,-16.89267
1433809487.063,-15.781461
1433809487.079,-13.614428
1433809487.094,-10.974827
1433809487.11,-8.443563
1433809487.126,-6.416914
1433809487.141,-4.987257
1433809487.157,-4.007448
1433809487.172,-3.2466564
1433809487.188,-2.5718307
1433809487.204,-2.0074234
1433809487.219,-1.7005692
1433809487.235,-1.7468338
1433809487.251,-2.0804234
1433809487.266,-2.4322453
1433809487.282,-2.3908176
1433809487.297,-1.5335464
1433809487.313,0.4407673
1433809487.329,3.6451893
1433809487.344,7.929945
1433809487.36,12.874695
1433809487.376,17.764957
1433809487.391,21.700377
1433809487.407,23.768452
1433809487.422,23.311096
1433809487.438,20.142668
1433809487.454,14.673473
1433809487.469,7.8122005
1433809487.485,0.73389435
1433809487.501,-5.4758396
1433809487.516,-10.087326
1433809487.532,-12.863087
1433809487.547,-13.979311
1433809487.563,-13.884361
1433809487.579,-13.032927
1433809487.594,-11.773113
1433809487.61,-10.283268
1433809487.626,-8.642727
1433809487.641,-6.887663
1433809487.657,-5.103548
1433809487.672,-3.4008617
1433809487.688,-1.8947659
1433809487.704,-0.64406395
1433809487.719,0.37161064
1433809487.735,1.2568855
1433809487.751,2.1216908
1433809487.766,3.0770302
1433809487.782,4.1782074
1433809487.797,5.4666843
1433809487.813,6.965231
1433809487.829,8.745935
1433809487.844,10.9072
1433809487.86,13.565243
1433809487.876,16.762741
1433809487.891,20.345346
1433809487.907,23.87997
1433809487.922,26.66357
1433809487.938,27.875118
1433809487.954,26.888456
1433809487.969,23.501812
1433809487.985,18.092972
1433809488.001,11.517063
1433809488.016,4.8433933
1433809488.032,-1.0269737
1433809488.048,-5.554247
1433809488.063,-8.656664
1433809488.079,-10.533237
1433809488.094,-11.481789
1433809488.11,-11.711287
1433809488.126,-11.337326
1433809488.141,-10.415373
1433809488.157,-9.045633
1433809488.172,-7.3965435
1433809488.188,-5.6686764
1433809488.204,-4.010584
1433809488.219,-2.4803867
1433809488.235,-1.0110283
1433809488.251,0.4816513
1433809488.266,2.061182
1433809488.282,3.7227192
1433809488.298,5.39884
1433809488.313,6.9867096
1433809488.329,8.445143
1433809488.344,9.811844
1433809488.36,11.26479
1433809488.376,13.062805
1433809488.391,15.50058
1433809488.407,18.762348
1433809488.423,22.770315
1433809488.438,27.06251
1433809488.454,30.847824
1433809488.469,33.18395
1433809488.485,33.303688
1433809488.501,30.893518
1433809488.516,26.249409
1433809488.532,20.120914
1433809488.548,13.470552
1433809488.563,7.1103325
1433809488.579,1.5361547
1433809488.594,-3.0716822
1433809488.61,-6.679147
1433809488.626,-9.259375
1433809488.641,-10.716291
1433809488.657,-10.965725
1433809488.673,-10.058677
1433809488.688,-8.268035
1433809488.704,-6.057604
1433809488.719,-3.9476032
1433809488.735,-2.3320236
1433809488.751,-1.3984728
1433809488.766,-1.0971022
1433809488.782,-1.2025166
1433809488.798,-1.4076967
1433809488.813,-1.421133
1433809488.829,-0.9996643
1433809488.844,-0.011005402
1433809488.86,1.5832386
1433809488.876,3.6950588
1433809488.891,6.214445
1433809488.907,9.031147
1433809488.923,12.153133
1433809488.938,15.670647
1433809488.954,19.676193
1433809488.969,24.101986
1433809488.985,28.56282
1433809489.001,32.34138
1433809489.016,34.56994
1433809489.032,34.510147
1433809489.048,31.88327
1433809489.063,26.986813
1433809489.079,20.596981
1433809489.094,13.665829
1433809489.11,7.0352135
1433809489.126,1.2249756
1433809489.141,-3.5449524
1433809489.157,-7.215599
1433809489.173,-9.743469
1433809489.188,-11.0533905
1433809489.204,-11.093536
1433809489.219,-9.9640045
1433809489.235,-7.9854813
1433809489.251,-5.6538086
1433809489.266,-3.4925842
1433809489.282,-1.8604584
1433809489.298,-0.814003
1433809489.313,-0.15486145
1433809489.329,0.45397186
1433809489.344,1.286789
1433809489.36,2.4206543
1433809489.376,3.718254
1433809489.391,4.940445
1433809489.407,5.863762
1433809489.423,6.4467316
1433809489.438,6.832672
1433809489.454,7.3280487
1433809489.469,8.277527
1433809489.485,9.973312
1433809489.501,12.535889
1433809489.516,15.859726
1433809489.532,19.515717
1433809489.548,22.794357
1433809489.563,24.813614
1433809489.579,24.77855
1433809489.594,22.223724
1433809489.61,17.218216
1433809489.626,10.363739
1433809489.641,2.5631104
1433809489.657,-5.2666016
1433809489.673,-12.421127
1433809489.688,-18.53592
1433809489.704,-23.458206
1433809489.719,-27.129852
1433809489.735,-29.45105
1433809489.751,-30.360794
1433809489.766,-29.90834
1433809489.782,-28.406158
1433809489.798,-26.37381
1433809489.813,-24.419937
1433809489.829,-23.015915
1433809489.844,-22.33493
1433809489.86,-22.220581
1433809489.876,-22.316788
1433809489.891,-22.23555
1433809489.907,-21.764206
1433809489.923,-20.884491
1433809489.938,-19.749786
1433809489.954,-18.526077
1433809489.969,-17.310226
1433809489.985,-16.060959
1433809490.001,-14.635986
1433809490.016,-12.80069
1433809490.032,-10.326157
1433809490.048,-6.998001
1433809490.063,-2.774002
1433809490.079,2.1486206
1433809490.094,7.200897
1433809490.11,11.489014
1433809490.126,13.999741
1433809490.141,13.937668
1433809490.157,11.031158
1433809490.173,5.702179
1433809490.188,-1.084137
1433809490.204,-8.146759
1433809490.219,-14.520111
1433809490.235,-19.671906
1433809490.251,-23.53009
1433809490.266,-26.249023
1433809490.282,-27.99292
1433809490.298,-28.797485
1433809490.313,-28.628387
1433809490.329,-27.502472
1433809490.344,-25.637177
1433809490.36,-23.40274
1433809490.376,-21.22757
1433809490.391,-19.41394
1433809490.407,-18.032623
1433809490.423,-16.929047
1433809490.438,-15.853149
1433809490.454,-14.593903
1433809490.469,-13.085114
1433809490.485,-11.408112
1433809490.501,-9.733917
1433809490.516,-8.19635
1433809490.532,-6.81958
1433809490.548,-5.443695
1433809490.563,-3.774414
1433809490.579,-1.4564819
1433809490.594,1.7838745
1433809490.61,6.001007
1433809490.626,10.906525
1433809490.641,15.869385
1433809490.657,20.00589
1433809490.673,22.43396
1433809490.688,22.527985
1433809490.704,20.145294
1433809490.719,15.629944
1433809490.735,9.708923
1433809490.751,3.2060852
1433809490.766,-3.1520996
1433809490.782,-8.866425
1433809490.798,-13.636078
1433809490.813,-17.293915
1433809490.829,-19.724243
1433809490.844,-20.875
1433809490.86,-20.761322
1433809490.876,-19.523224
1433809490.891,-17.433136
1433809490.907,-14.882904
1433809490.923,-12.286682
1433809490.938,-10.022919
1433809490.954,-8.303375
1433809490.97,-7.1493835
1433809490.985,-6.384552
1433809491.001,-5.727234
1433809491.016,-4.910675
1433809491.032,-3.8214722
1433809491.048,-2.5254211
1433809491.063,-1.1824951
1433809491.079,0.09689331
1433809491.095,1.3759155
1433809491.11,2.9277344
1433809491.126,5.1063538
1433809491.141,8.214294
1433809491.157,12.3046875
1433809491.173,17.112793
1433809491.188,22.037903
1433809491.204,26.271332
1433809491.22,28.921448
1433809491.235,29.269379
1433809491.251,26.96222
1433809491.266,22.16394
1433809491.282,15.513184
1433809491.298,7.9664917
1433809491.313,0.48739624
1433809491.329,-6.160431
1433809491.345,-11.56192
1433809491.36,-15.60498
1433809491.376,-18.339142
1433809491.391,-19.83429
1433809491.407,-20.153534
1433809491.423,-19.393951
1433809491.438,-17.790283
1433809491.454,-15.737122
1433809491.47,-13.72406
1433809491.485,-12.130157
1433809491.501,-11.131805
1433809491.516,-10.6189575
1433809491.532,-10.294373
1433809491.548,-9.826996
1433809491.563,-9.011871
1433809491.579,-7.82135
1433809491.595,-6.3957825
1433809491.61,-4.9069824
1433809491.626,-3.4717102
1433809491.641,-2.086975
1433809491.657,-0.6347351
1433809491.673,1.0732727
1433809491.688,3.245575
1433809491.704,6.083191
1433809491.72,9.69574
1433809491.735,13.980499
1433809491.751,18.488647
1433809491.766,22.42978
1433809491.782,24.819366
1433809491.798,24.798645
1433809491.813,21.9469
1433809491.829,16.509155
1433809491.845,9.325623
1433809491.86,1.5447083
1433809491.876,-5.7880554
1433809491.891,-12.004242
1433809491.907,-16.902283
1433809491.923,-20.61377
1433809491.938,-23.329681
1433809491.954,-25.14035
1433809491.97,-26.053772
1433809491.985,-26.056152
1433809492.001,-25.284668
1433809492.016,-24.029724
1433809492.032,-22.658966
1433809492.048,-21.43518
1433809492.063,-20.433655
1433809492.079,-19.516632
1433809492.095,-18.489594
1433809492.11,-17.236877
1433809492.126,-15.830231
1433809492.141,-14.469421
1433809492.157,-13.370911
1433809492.173,-12.595459
1433809492.188,-12.012451
1433809492.204,-11.33136
1433809492.22,-10.212372
1433809492.235,-8.385254
1433809492.251,-5.7537537
1433809492.266,-2.4014587
1433809492.282,1.3847046
1433809492.298,5.1506653
1433809492.313,8.32016
1433809492.329,10.297943
1433809492.345,10.583252
1433809492.36,8.922028
1433809492.376,5.3770447
1433809492.391,0.33551025
1433809492.407,-5.584442
1433809492.423,-11.687256
1433809492.438,-17.358002
1433809492.454,-22.134125
1433809492.47,-25.752228
1433809492.485,-28.098297
1433809492.501,-29.175415
1433809492.516,-29.048462
1433809492.532,-27.862701
1433809492.548,-25.825684
1433809492.563,-23.215714
1433809492.579,-20.383987
1433809492.595,-17.70288
1433809492.61,-15.475754
1433809492.626,-13.885239
1433809492.641,-12.929443
1433809492.657,-12.419342
1433809492.673,-12.038483
1433809492.688,-11.449326
1433809492.704,-10.3703
1433809492.72,-8.638245
1433809492.735,-6.199936
1433809492.751,-3.0965729
1433809492.766,0.60713196
1433809492.782,4.79924
1433809492.798,9.336166
1433809492.813,13.964249
1433809492.829,18.32306
1433809492.845,21.923676
1433809492.86,24.25122
1433809492.876,24.83052
1433809492.891,23.377823
1433809492.907,19.885986
1433809492.923,14.699417
1433809492.938,8.457031
1433809492.954,1.9699249
1433809492.97,-3.9918365
1433809492.985,-8.887238
1433809493.001,-12.514465
1433809493.016,-14.929382
1433809493.032,-16.332184
1433809493.048,-16.862732
1433809493.063,-16.5719
1433809493.079,-15.437225
1433809493.095,-13.545517
1433809493.11,-11.115204
1433809493.126,-8.536133
1433809493.141,-6.2296295
1433809493.157,-4.5023804
1433809493.173,-3.4275665
1433809493.188,-2.8721008
1433809493.204,-2.5707397
1433809493.22,-2.263977
1433809493.235,-1.774765
1433809493.251,-1.0296631
1433809493.266,7.9345703E-4
1433809493.282,1.3512726
1433809493.298,3.1483688
1433809493.313,5.555336
1433809493.329,8.738235
1433809493.345,12.682312
1433809493.36,17.09468
1433809493.376,21.302475
1433809493.391,24.402344
1433809493.407,25.513115
1433809493.423,24.099014
1433809493.438,20.204735
1433809493.454,14.454063
1433809493.47,7.809456
1433809493.485,1.2564316
1433809493.501,-4.523796
1433809493.516,-9.222504
1433809493.532,-12.805511
1433809493.548,-15.309792
1433809493.563,-16.714561
1433809493.579,-16.915192
1433809493.595,-15.91507
1433809493.61,-13.884056
1433809493.626,-11.235218
1433809493.642,-8.474247
1433809493.657,-6.0507545
1433809493.673,-4.204731
1433809493.688,-2.9405632
1433809493.704,-2.0817413
1433809493.72,-1.4035988
1433809493.735,-0.73228836
1433809493.751,-0.0026893616
1433809493.767,0.7889805
1433809493.782,1.6328087
1433809493.798,2.6068993
1433809493.813,3.8646297
1433809493.829,5.6169033
1433809493.845,8.031794
1433809493.86,11.178235
1433809493.876,14.929896
1433809493.892,18.97771
1433809493.907,22.816156
1433809493.923,25.847088
1433809493.938,27.466846
1433809493.954,27.236042
1433809493.97,24.969585
1433809493.985,20.846798
1433809494.001,15.383087
1433809494.017,9.317106
1433809494.032,3.4132805
1433809494.048,-1.7005978
1433809494.063,-5.683819
1433809494.079,-8.451199
1433809494.095,-10.09824
1433809494.11,-10.7727585
1433809494.126,-10.603367
1433809494.142,-9.666615
1433809494.157,-8.05508
1433809494.173,-5.9208527
1433809494.188,-3.5300026
1433809494.204,-1.200203
1433809494.22,0.7763977
1433809494.235,2.2542763
1433809494.251,3.2635117
1433809494.267,3.991127
1433809494.282,4.6304474
1433809494.298,5.25708
1433809494.313,5.782303
1433809494.329,6.0245895
1433809494.345,5.879921
1433809494.36,5.4874954
1433809494.376,5.288101
1433809494.392,5.915184
1433809494.407,7.9119186
1433809494.423,11.475273
1433809494.438,16.244865
1433809494.454,21.36576
1433809494.47,25.714027
1433809494.485,28.279037
1433809494.501,28.442337
1433809494.517,26.165474
1433809494.532,21.894608
1433809494.548,16.377632
1433809494.563,10.411217
1433809494.579,4.685051
1433809494.595,-0.31748962
1433809494.61,-4.241867
1433809494.626,-6.887375
1433809494.642,-8.177536
1433809494.657,-8.202019
1433809494.673,-7.2014313
1433809494.688,-5.5543823
1433809494.704,-3.6585999
1433809494.72,-1.8508072
1433809494.735,-0.32510376
1433809494.751,0.85206604
1433809494.767,1.7242126
1433809494.782,2.3474426
1433809494.798,2.7668915
1433809494.813,2.9664612
1433809494.829,2.907959
1433809494.845,2.5833435
1433809494.86,2.084961
1433809494.876,1.6333771
1433809494.892,1.5831757
1433809494.907,2.3072052
1433809494.923,4.102936
1433809494.938,7.0647736
1433809494.954,11.03093
1433809494.97,15.554428
1433809494.985,19.96843
1433809495.001,23.479874
1433809495.017,25.362106
1433809495.032,25.12532
1433809495.048,22.706253
1433809495.063,18.487152
1433809495.079,13.237122
1433809495.095,7.833359
1433809495.11,3.0088348
1433809495.126,-0.83299255
1433809495.142,-3.6272888
1433809495.157,-5.549225
1433809495.173,-6.796509
1433809495.188,-7.491272
1433809495.204,-7.638138
1433809495.22,-7.2218018
1433809495.235,-6.2625275
1433809495.251,-4.9106293
1433809495.267,-3.3874054
1433809495.282,-1.9551086
1433809495.298,-0.8404541
1433809495.313,-0.19194031
1433809495.329,-0.03175354
1433809495.345,-0.27366638
1433809495.36,-0.73979187
1433809495.376,-1.2372742
1433809495.392,-1.6083374
1433809495.407,-1.7812805
1433809495.423,-1.7234955
1433809495.438,-1.398941
1433809495.454,-0.7079468
1433809495.47,0.508255
1433809495.485,2.4117126
1433809495.501,5.0397644
1433809495.517,8.246262
1433809495.532,11.62088
1433809495.548,14.55838
1433809495.563,16.348053
1433809495.579,16.394043
1433809495.595,14.401169
1433809495.61,10.482285
1433809495.626,5.141083
1433809495.642,-0.8754883
1433809495.657,-6.813568
1433809495.673,-12.095657
1433809495.688,-16.408463
1433809495.704,-19.627335
1433809495.72,-21.709702
1433809495.735,-22.596893
1433809495.751,-22.252457
1433809495.767,-20.761826
1433809495.782,-18.419983
1433809495.798,-15.708084
1433809495.813,-13.169662
1433809495.829,-11.190369
1433809495.845,-9.890289
1433809495.86,-9.089813
1433809495.876,-8.460999
1433809495.892,-7.6618195
1433809495.907,-6.491806
1433809495.923,-4.933182
1433809495.938,-3.1201935
1433809495.954,-1.2695923
1433809495.97,0.4192505
1433809495.985,1.8747711
1433809496.001,3.1664581
1433809496.017,4.5351257
1433809496.032,6.306473
1433809496.048,8.788391
1433809496.063,12.075607
1433809496.079,15.9198
1433809496.095,19.701874
1433809496.11,22.533707
1433809496.126,23.54216
1433809496.142,22.187576
1433809496.157,18.459183
1433809496.173,12.9357605
1433809496.188,6.5487213
1433809496.204,0.28440857
1433809496.22,-5.1363373
1433809496.235,-9.367142
1433809496.251,-12.370575
1433809496.267,-14.230133
1433809496.282,-14.973618
1433809496.298,-14.568451
1433809496.314,-13.030121
1433809496.329,-10.573853
1433809496.345,-7.7012634
1433809496.36,-5.0354004
1433809496.376,-3.1406555
1433809496.392,-2.2627563
1433809496.407,-2.2355957
1433809496.423,-2.589569
1433809496.438,-2.7713928
1433809496.454,-2.4230042
1433809496.47,-1.5391846
1433809496.485,-0.44232178
1433809496.501,0.44924927
1433809496.517,0.86312866
1433809496.532,0.90045166
1433809496.548,1.0067139
1433809496.564,1.7909851
1433809496.579,3.7202454
1433809496.595,6.885376
1433809496.61,10.914429
1433809496.626,15.099152
1433809496.642,18.59253
1433809496.657,20.63266
1433809496.673,20.727325
1433809496.689,18.707764
1433809496.704,14.763245
1433809496.72,9.390686
1433809496.735,3.3347168
1433809496.751,-2.5569763
1433809496.767,-7.5054016
1433809496.782,-10.976746
1433809496.798,-12.802582
1433809496.814,-13.126373
1433809496.829,-12.305695
1433809496.845,-10.740997
1433809496.86,-8.770264
1433809496.876,-6.65213
1433809496.892,-4.6073
1433809496.907,-2.798523
1433809496.923,-1.3415833
1433809496.939,-0.25549316
1433809496.954,0.5438843
1433809496.97,1.1942444
1433809496.985,1.8174438
1433809497.001,2.4599
1433809497.017,3.0801086
1433809497.032,3.6071777
1433809497.048,4.032196
1433809497.064,4.471222
1433809497.079,5.1894836
1433809497.095,6.514496
1433809497.11,8.7146
1433809497.126,11.848999
1433809497.142,15.64975
1433809497.157,19.488434
1433809497.173,22.478546
1433809497.189,23.689758
1433809497.204,22.46634
1433809497.22,18.691223
1433809497.235,12.896912
1433809497.251,6.0968323
1433809497.267,-0.51501465
1433809497.282,-5.956085
1433809497.298,-9.696594
1433809497.314,-11.677368
1433809497.329,-12.178345
1433809497.345,-11.611145
1433809497.36,-10.353363
1433809497.376,-8.716003
1433809497.392,-6.9544983
1433809497.407,-5.276825
1433809497.423,-3.8104858
1433809497.439,-2.5794067
1433809497.454,-1.4938354
1433809497.47,-0.4382019
1433809497.485,0.64019775
1433809497.501,1.6497192
1433809497.517,2.4274597
1433809497.532,2.8295288
1433809497.548,2.8811035
1433809497.564,2.798706
1433809497.579,2.9588928
1433809497.595,3.7597961
1433809497.61,5.530548
1433809497.626,8.443237
1433809497.642,12.487427
1433809497.657,17.420776
1433809497.673,22.69226
1433809497.689,27.404633
1433809497.704,30.424103
1433809497.72,30.656586
1433809497.735,27.51175
1433809497.751,21.239075
1433809497.767,12.992371
1433809497.782,4.465088
1433809497.798,-2.701233
1433809497.814,-7.4959717
1433809497.829,-9.74115
1433809497.845,-9.90332
1433809497.86,-8.652649
1433809497.876,-6.5242615
1433809497.892,-3.8007202
1433809497.907,-0.71206665
1433809497.923,2.377655
1433809497.939,4.9312134
1433809497.954,6.427307
1433809497.97,6.648834
1433809497.985,5.8195496
1433809498.001,4.532837
1433809498.017,3.4338684
1433809498.032,2.9314575
1433809498.048,3.0801086
1433809498.064,3.6553345
1433809498.079,4.3555603
1433809498.095,4.979828
1433809498.11,5.5161743
1433809498.126,6.1157227
1433809498.142,7.0217896
1433809498.157,8.518097
1433809498.173,10.839661
1433809498.189,14.027893
1433809498.204,17.798492
1433809498.22,21.480194
1433809498.235,24.1185
1433809498.251,24.79123
1433809498.267,22.94638
1433809498.282,18.661743
1433809498.298,12.658417
1433809498.314,6.028839
1433809498.329,-0.1697998
1433809498.345,-5.2441406
1433809498.36,-9.010437
1433809498.376,-11.636627
1433809498.392,-13.3776245
1433809498.407,-14.367798
1433809498.423,-14.563446
1433809498.439,-13.865356
1433809498.454,-12.294891
1433809498.47,-10.091278
1433809498.485,-7.6672363
1433809498.501,-5.423645
1433809498.517,-3.6047363
1433809498.532,-2.1898499
1433809498.548,-1.0029907
1433809498.564,0.18292236
1433809498.579,1.4449158
1433809498.595,2.6722412
1433809498.61,3.628601
1433809498.626,4.154022
1433809498.642,4.2914124
1433809498.657,4.4173584
1433809498.673,5.11145
1433809498.689,6.9465027
1433809498.704,10.181519
1433809498.72,14.574768
1433809498.735,19.34848
1433809498.751,23.427551
1433809498.767,25.779724
1433809498.782,25.756561
1433809498.798,23.295502
1433809498.814,18.890991
1433809498.829,13.366333
1433809498.845,7.5964355
1433809498.86,2.2320557
1433809498.876,-2.3320923
1433809498.892,-5.9356995
1433809498.907,-8.48938
1433809498.923,-9.932953
1433809498.939,-10.22287
1433809498.954,-9.433502
1433809498.97,-7.8246155
1433809498.986,-5.851288
1433809499.001,-4.031311
1433809499.017,-2.7869873
1433809499.032,-2.2608948
1433809499.048,-2.2876587
1433809499.064,-2.4878845
1433809499.079,-2.4751587
1433809499.095,-2.0349426
1433809499.11,-1.229065
1433809499.126,-0.28396606
1433809499.142,0.54629517
1433809499.157,1.214447
1433809499.173,1.9091797
1433809499.189,3.0092773
1433809499.204,4.8799744
1433809499.22,7.743042
1433809499.236,11.541443
1433809499.251,15.942078
1433809499.267,20.369415
1433809499.282,24.126343
1433809499.298,26.472076
1433809499.314,26.807709
1433809499.329,24.823639
1433809499.345,20.623535
1433809499.361,14.73941
1433809499.376,7.984436
1433809499.392,1.2185669
1433809499.407,-4.9136963
1433809499.423,-10.103058
1433809499.439,-14.309631
1433809499.454,-17.600342
1433809499.47,-19.94513
1433809499.486,-21.187775
1433809499.501,-21.101166
1433809499.517,-19.634308
1433809499.532,-17.011444
1433809499.548,-13.769394
1433809499.564,-10.570862
1433809499.579,-7.9394836
1433809499.595,-6.0508575
1433809499.611,-4.705475
1433809499.626,-3.4523315
1433809499.642,-1.8900452
1433809499.657,0.14878845
1433809499.673,2.4945526
1433809499.689,4.7700653
1433809499.704,6.605362
1433809499.72,7.864807
1433809499.736,8.721527
1433809499.751,9.586304
1433809499.767,10.892563
1433809499.782,12.941025
1433809499.798,15.736679
1433809499.814,19.014267
1433809499.829,22.271011
1433809499.845,24.904282
1433809499.861,26.30574
1433809499.876,26.002197
1433809499.892,23.770508
1433809499.907,19.705704
1433809499.923,14.219345
1433809499.939,7.942383
1433809499.954,1.5392609
1433809499.97,-4.4240723
1433809499.986,-9.588181
1433809500.001,-13.779312
1433809500.017,-16.95256
1433809500.032,-19.098068
1433809500.048,-20.239319
1433809500.064,-20.440765
1433809500.079,-19.870712
1433809500.095,-18.782974
1433809500.111,-17.523926
1433809500.126,-16.396942
1433809500.142,-15.650345
1433809500.157,-15.331024
1433809500.173,-15.321045
1433809500.189,-15.331192
1433809500.204,-15.032959
1433809500.22,-14.159622
1433809500.236,-12.68251
1433809500.251,-10.793381
1433809500.267,-8.860565
1433809500.282,-7.2336884
1433809500.298,-6.0559845
1433809500.314,-5.154068
1433809500.329,-4.1544037
1433809500.345,-2.6039429
1433809500.361,-0.20092773
1433809500.376,3.1004028
1433809500.392,7.038376
1433809500.407,11.109268
1433809500.423,14.6306305
1433809500.439,16.9142
1433809500.454,17.40738
1433809500.47,15.854553
1433809500.486,12.412628
1433809500.501,7.639488
1433809500.517,2.3483353
1433809500.532,-2.624321
1433809500.548,-6.6673126
1433809500.564,-9.5278015
1433809500.579,-11.291122
1433809500.595,-12.187584
1433809500.611,-12.45388
1433809500.626,-12.223633
1433809500.642,-11.593216
1433809500.657,-10.688919
1433809500.673,-9.753914
1433809500.689,-9.074219
1433809500.704,-8.886192
1433809500.72,-9.216042
1433809500.736,-9.877213
1433809500.751,-10.538414
1433809500.767,-10.895439
1433809500.782,-10.794083
1433809500.798,-10.301338
1433809500.814,-9.543434
1433809500.829,-8.623619
1433809500.845,-7.493904
1433809500.861,-5.9976807
1433809500.876,-3.9381104
1433809500.892,-1.1975632
1433809500.907,2.2223816
1433809500.923,6.2007065
1433809500.939,10.57225
1433809500.954,15.143333
1433809500.97,19.69535
1433809500.986,23.899979
1433809501.001,27.291344
1433809501.017,29.286552
1433809501.032,29.336983
1433809501.048,27.129868
1433809501.064,22.814125
1433809501.079,16.993439
1433809501.095,10.611244
1433809501.111,4.6390953
1433809501.126,-0.22700882
1433809501.142,-3.748619
1433809501.157,-6.0969963
1433809501.173,-7.660221
1433809501.189,-8.786655
1433809501.204,-9.617031
1433809501.22,-10.081715
1433809501.236,-10.039154
1433809501.251,-9.421028
1433809501.267,-8.381016
1433809501.282,-7.2305984
1433809501.298,-6.32555
1433809501.314,-5.851555
1433809501.329,-5.7532845
1433809501.345,-5.7250443
1433809501.361,-5.418831
1433809501.376,-4.6282005
1433809501.392,-3.4377365
1433809501.407,-2.1686897
1433809501.423,-1.2126827
1433809501.439,-0.76384926
1433809501.454,-0.7157078
1433809501.47,-0.6636524
1433809501.486,-0.10285759
1433809501.501,1.3804855
1433809501.517,3.9732914
1433809501.532,7.619504
1433809501.548,11.987626
1433809501.564,16.528318
1433809501.579,20.47962
1433809501.595,22.996773
1433809501.611,23.334213
1433809501.626,21.13974
1433809501.642,16.592293
1433809501.657,10.403269
1433809501.673,3.5734243
1433809501.689,-2.933032
1433809501.704,-8.480766
1433809501.72,-12.818243
1433809501.736,-15.997634
1433809501.751,-18.156895
1433809501.767,-19.378708
1433809501.782,-19.656845
1433809501.798,-19.027557
1433809501.814,-17.627876
1433809501.829,-15.80003
1433809501.845,-13.964594
1433809501.861,-12.501282
1433809501.876,-11.549673
1433809501.892,-10.982243
1433809501.908,-10.451336
1433809501.923,-9.618385
1433809501.939,-8.351223
1433809501.954,-6.826626
1433809501.97,-5.4369583
1433809501.986,-4.5467186
1433809502.001,-4.228878
1433809502.017,-4.161331
1433809502.033,-3.7269745
1433809502.048,-2.3369522
1433809502.064,0.3031845
1433809502.079,4.0265045
1433809502.095,8.352226
1433809502.111,12.699547
1433809502.126,16.656921
1433809502.142,19.985493
1433809502.158,22.505554
1433809502.173,23.887272
1433809502.189,23.633026
1433809502.204,21.23106
1433809502.22,16.49955
1433809502.236,9.81501
1433809502.251,2.1010742
1433809502.267,-5.481743
1433809502.283,-11.987343
1433809502.298,-16.982468
1433809502.314,-20.557106
1433809502.329,-23.110397
1433809502.345,-24.983849
1433809502.361,-26.280426
1433809502.376,-26.872208
1433809502.392,-26.599686
1433809502.408,-25.437363
1433809502.423,-23.620445
1433809502.439,-21.521187
1433809502.454,-19.540916
1433809502.47,-17.920815
1433809502.486,-16.701546
1433809502.501,-15.730202
1433809502.517,-14.764252
1433809502.533,-13.606567
1433809502.548,-12.185158
1433809502.564,-10.595169
1433809502.579,-9.023262
1433809502.595,-7.630684
1433809502.611,-6.4258194
1433809502.626,-5.1929092
1433809502.642,-3.5713806
1433809502.658,-1.1653976
1433809502.673,2.2699509
1433809502.689,6.759796
1433809502.704,12.049545
1433809502.72,17.614838
1433809502.736,22.685013
1433809502.751,26.309555
1433809502.767,27.539665
1433809502.783,25.706413
1433809502.798,20.68911
1433809502.814,13.059807
1433809502.829,3.9428406
1433809502.845,-5.305275
1433809502.861,-13.528358
1433809502.876,-20.048386
1433809502.892,-24.744087
1433809502.908,-27.842857
1433809502.923,-29.714912
1433809502.939,-30.648201
1433809502.954,-30.855942
1433809502.97,-30.489517
1433809502.986,-29.753235
1433809503.001,-28.925827
1433809503.017,-28.32454
1433809503.033,-28.22245
1433809503.048,-28.784447
1433809503.064,-29.979546
1433809503.079,-31.584236
1433809503.095,-33.205086
1433809503.111,-34.37121
1433809503.126,-34.666153
1433809503.142,-33.884407
1433809503.158,-32.04779
1433809503.173,-29.444527
1433809503.189,-26.47931
1433809503.204,-23.525177
1433809503.22,-20.77134
1433809503.236,-18.178406
1433809503.251,-15.511513
1433809503.267,-12.499741
1433809503.283,-8.961304
1433809503.298,-4.9291916
1433809503.314,-0.64471436
1433809503.329,3.4962997
1433809503.345,7.080368
1433809503.361,9.757324
1433809503.376,11.326881
1433809503.392,11.677216
1433809503.408,10.797874
1433809503.423,8.72924
1433809503.439,5.644623
1433809503.454,1.8531036
1433809503.47,-2.1786423
1433809503.486,-5.935524
1433809503.501,-8.979946
1433809503.517,-11.034725
1433809503.533,-11.949173
1433809503.548,-11.67767
1433809503.564,-10.189991
1433809503.579,-7.5866814
1433809503.595,-4.2256317
1433809503.611,-0.8184891
1433809503.626,1.6875191
1433809503.642,2.4282913
1433809503.658,1.0940762
1433809503.673,-1.8842564
1433809503.689,-5.421154
1433809503.704,-8.300753
1433809503.72,-9.743034
1433809503.736,-9.762049
1433809503.751,-9.036172
1433809503.767,-8.484155
1433809503.783,-8.660099
1433809503.798,-9.501403
1433809503.814,-10.420635
1433809503.829,-10.759839
1433809503.845,-10.199793
1433809503.861,-8.953944
1433809503.876,-7.5853405
1433809503.892,-6.711334
1433809503.908,-6.688236
1433809503.923,-7.539631
1433809503.939,-9.044643
1433809503.954,-10.957184
1433809503.97,-13.100307
1433809503.986,-15.41404
1433809504.001,-17.846973
1433809504.017,-20.296566
1433809504.033,-22.519833
1433809504.048,-24.17229
1433809504.064,-24.844707
1433809504.079,-24.212666
1433809504.095,-22.100533
1433809504.111,-18.564682
1433809504.126,-13.911629
1433809504.142,-8.643745
1433809504.158,-3.2900314
1433809504.173,1.720604
1433809504.189,6.2033463
1433809504.204,10.167091
1433809504.22,13.709625
1433809504.236,16.89022
1433809504.251,19.704147
1433809504.267,22.068932
1433809504.283,23.920883
1433809504.298,25.226433
1433809504.314,26.024597
1433809504.329,26.425697
1433809504.345,26.683456
1433809504.361,27.168503
1433809504.376,28.3154
1433809504.392,30.412819
1433809504.408,33.420425
1433809504.423,36.91559
1433809504.439,40.252563
1433809504.454,42.884552
1433809504.47,44.655197
1433809504.486,45.850067
1433809504.501,46.976913
1433809504.517,48.354523
1433809504.533,49.82448
1433809504.548,50.753418
1433809504.564,50.406097
1433809504.58,48.361633
1433809504.595,44.78488
1433809504.611,40.368378
1433809504.626,35.990067
1433809504.642,32.284576
1433809504.658,29.451279
1433809504.673,27.267761
1433809504.689,25.403534
1433809504.705,23.64244
1433809504.72,22.05368
1433809504.736,20.867142
1433809504.751,20.301605
1433809504.767,20.338516
1433809504.783,20.696808
1433809504.798,20.941391
1433809504.814,20.746292
1433809504.83,20.021805
1433809504.845,18.966888
1433809504.861,17.884415
1433809504.876,17.015472
1433809504.892,16.361755
1433809504.908,15.733765
1433809504.923,14.886658
1433809504.939,13.705261
1433809504.955,12.282333
1433809504.97,10.934433
1433809504.986,10.038757
1433809505.001,9.927658
1433809505.017,10.759537
1433809505.033,12.49382
1433809505.048,14.820084
1433809505.064,17.20897
1433809505.08,18.939362
1433809505.095,19.262665
1433809505.111,17.607971
1433809505.126,13.845497
1433809505.142,8.378105
1433809505.158,2.0894165
1433809505.173,-3.9832535
1433809505.189,-9.013168
1433809505.205,-12.678703
1433809505.22,-15.159782
1433809505.236,-16.8918
1433809505.251,-18.221527
1433809505.267,-19.233582
1433809505.283,-19.829742
1433809505.298,-20.018517
1433809505.314,-20.108711
1433809505.33,-20.654495
1433809505.345,-22.079361
1433809505.361,-24.292725
1433809505.376,-26.50113
1433809505.392,-27.51802
1433809505.408,-26.30098
1433809505.423,-22.490036
1433809505.439,-16.549454
1433809505.455,-9.493675
1433809505.47,-2.3615189
1433809505.486,4.1660614
1433809505.501,9.86438
1433809505.517,14.773735
1433809505.533,18.972961
1433809505.548,22.434334
1433809505.564,25.099625
1433809505.58,26.96688
1433809505.595,28.097095
1433809505.611,28.526539
1433809505.626,28.176144
1433809505.642,26.794708
1433809505.658,24.112652
1433809505.673,19.9991
1433809505.689,14.607594
1433809505.705,8.382309
1433809505.72,1.9709206
1433809505.736,-3.989231
1433809505.751,-8.979866
1433809505.767,-12.700848
1433809505.783,-15.066692
1433809505.798,-16.179771
1433809505.814,-16.238232
1433809505.83,-15.468868
1433809505.845,-14.063383
1433809505.861,-12.162422
1433809505.876,-9.89966
1433809505.892,-7.441515
1433809505.908,-4.9897976
1433809505.923,-2.7717
1433809505.939,-0.9435978
1433809505.955,0.44172192
1433809505.97,1.4852486
1433809505.986,2.3685894
1433809506.001,3.3369904
1433809506.017,4.604865
1433809506.033,6.328452
1433809506.048,8.56382
1433809506.064,11.273537
1433809506.08,14.286281
1433809506.095,17.316246
1433809506.111,19.90265
1433809506.126,21.504707
1433809506.142,21.571335
1433809506.158,19.734222
1433809506.173,15.96697
1433809506.189,10.65943
1433809506.205,4.533222
1433809506.22,-1.5429573
1433809506.236,-6.8263893
1433809506.251,-10.875942
1433809506.267,-13.613483
1433809506.283,-15.219357
1433809506.298,-15.957066
1433809506.314,-16.04573
1433809506.33,-15.591301
1433809506.345,-14.602737
1433809506.361,-13.084282
1433809506.376,-11.079308
1433809506.392,-8.732063
1433809506.408,-6.268898
1433809506.423,-4.003006
1433809506.439,-2.2318878
1433809506.455,-1.1821213
1433809506.47,-0.85074615
1433809506.486,-1.0179672
1433809506.501,-1.2548447
1433809506.517,-1.0795593
1433809506.533,-0.08370972
1433809506.548,1.9236298
1433809506.564,4.924011
1433809506.58,8.655174
1433809506.595,12.68177
1433809506.611,16.402489
1433809506.626,19.138184
1433809506.642,20.196472
1433809506.658,19.077965
1433809506.673,15.6473465
1433809506.689,10.280327
1433809506.705,3.7936935
1433809506.72,-2.7711182
1433809506.736,-8.490082
1433809506.751,-12.822975
1433809506.767,-15.738884
1433809506.783,-17.558823
1433809506.798,-18.706642
1433809506.814,-19.459625
1433809506.83,-19.82721
1433809506.845,-19.617203
1433809506.861,-18.608215
1433809506.876,-16.730957
1433809506.892,-14.203369
1433809506.908,-11.443787
1433809506.923,-8.964981
1433809506.939,-7.146942
1433809506.955,-6.1345825
1433809506.97,-5.786194
1433809506.986,-5.7764435
1433809507.001,-5.703491
1433809507.017,-5.2261047
1433809507.033,-4.1192474
1433809507.048,-2.2469482
1433809507.064,0.46209717
1433809507.08,4.0457764
1433809507.095,8.420044
1433809507.111,13.232117
1433809507.126,17.810532
1433809507.142,21.221344
1433809507.158,22.551147
1433809507.173,21.18988
1433809507.189,17.13205
1433809507.205,10.942032
1433809507.22,3.6168365
1433809507.236,-3.797104
1433809507.252,-10.446442
1433809507.267,-15.850815
1433809507.283,-19.82927
1433809507.298,-22.417847
1433809507.314,-23.726913
1433809507.33,-23.932938
1433809507.345,-23.291428
1433809507.361,-22.116928
1433809507.377,-20.74585
1433809507.392,-19.447098
1433809507.408,-18.329514
1433809507.423,-17.375565
1433809507.439,-16.484238
1433809507.455,-15.573975
1433809507.47,-14.6163025
1433809507.486,-13.670456
1433809507.502,-12.79538
1433809507.517,-12.007431
1433809507.533,-11.203018
1433809507.548,-10.186127
1433809507.564,-8.692413
1433809507.58,-6.482147
1433809507.595,-3.406784
1433809507.611,0.5023651
1433809507.627,4.973465
1433809507.642,9.47316
1433809507.658,13.277603
1433809507.673,15.595428
1433809507.689,15.830032
1433809507.705,13.727203
1433809507.72,9.540176
1433809507.736,3.9277039
1433809507.752,-2.2177277
1433809507.767,-8.072189
1433809507.783,-13.052856
1433809507.798,-16.922134
1433809507.814,-19.671097
1433809507.83,-21.368256
1433809507.845,-22.061264
1433809507.861,-21.759354
1433809507.877,-20.520157
1433809507.892,-18.559357
1433809507.908,-16.255905
1433809507.923,-14.066895
1433809507.939,-12.359009
1433809507.955,-11.2771
1433809507.97,-10.700195
1433809507.986,-10.33844
1433809508.002,-9.886414
1433809508.017,-9.164429
1433809508.033,-8.14212
1433809508.048,-6.879059
1433809508.064,-5.4203796
1433809508.08,-3.7138977
1433809508.095,-1.6242065
1433809508.111,1.0097961
1433809508.127,4.2825623
1433809508.142,8.15863
1433809508.158,12.42453
1433809508.173,16.688202
1433809508.189,20.400513
1433809508.205,22.891388
1433809508.22,23.494934
1433809508.236,21.705688
1433809508.252,17.409088
1433809508.267,10.996338
1433809508.283,3.3745422
1433809508.298,-4.282135
1433809508.314,-10.830627
1433809508.33,-15.506866
1433809508.345,-18.096619
1433809508.361,-18.919067
1433809508.377,-18.599121
1433809508.392,-17.82605
1433809508.408,-17.0997
1433809508.423,-16.665222
1433809508.439,-16.5029
1433809508.455,-16.469421
1433809508.47,-16.45169
1433809508.486,-16.516174
1433809508.502,-16.902771
1433809508.517,-17.989105
1433809508.533,-20.127167
1433809508.548,-23.464813
1433809508.564,-27.85022
1433809508.58,-32.802307
1433809508.595,-37.57187
1433809508.611,-41.275635
1433809508.627,-42.999832
1433809508.642,-41.996735
1433809508.658,-37.94745
1433809508.673,-31.275116
1433809508.689,-23.334213
1433809508.705,-16.324997
1433809508.72,-12.703659
1433809508.736,-14.356888
1433809508.752,-21.828415
1433809508.767,-34.00476
1433809508.783,-48.492905
1433809508.798,-62.57318
1433809508.814,-74.12523
1433809508.83,-82.18999
1433809508.845,-86.83217
1433809508.861,-88.58208
1433809508.877,-87.81116
1433809508.892,-84.52774
1433809508.908,-78.581924
1433809508.923,-70.124115
1433809508.939,-59.815903
1433809508.955,-48.70204
1433809508.97,-37.724747
1433809508.986,-27.230469
1433809509.002,-16.821442
1433809509.017,-5.702286
1433809509.033,6.7921295
1433809509.048,20.703323
1433809509.064,35.385742
1433809509.08,49.814713
1433809509.095,63.041428
1433809509.111,74.47554
1433809509.127,83.921814
1433809509.142,91.41313
1433809509.158,97.08528
1433809509.173,101.18327
1433809509.189,104.17461
1433809509.205,106.67558
1433809509.22,109.27316
1433809509.236,112.188034
1433809509.252,115.05233
1433809509.267,117.04729
1433809509.283,117.27526
1433809509.298,115.099335
1433809509.314,110.28123
1433809509.33,102.768135
1433809509.345,92.430115
1433809509.361,79.04097
1433809509.377,62.62358
1433809509.392,43.824394
1433809509.408,24.067635
1433809509.423,5.121338
1433809509.439,-11.51754
1433809509.455,-25.105621
1433809509.47,-35.652344
1433809509.486,-43.4467
1433809509.502,-48.582336
1433809509.517,-50.947823
1433809509.533,-50.632935
1433809509.548,-48.397217
1433809509.564,-45.64646
1433809509.58,-43.776352
1433809509.595,-43.269073
1433809509.611,-43.326134
1433809509.627,-42.307594
1433809509.642,-38.86682
1433809509.658,-32.94509
1433809509.673,-25.956474
1433809509.689,-19.959396
1433809509.705,-16.42987
1433809509.72,-15.4010315
1433809509.736,-15.590782
1433809509.752,-15.31768
1433809509.767,-13.499886
1433809509.783,-10.165009
1433809509.798,-6.2155457
1433809509.814,-2.7229233
1433809509.83,-0.35596466
1433809509.845,0.73880005
1433809509.861,0.6640701
1433809509.877,-0.49726868
1433809509.892,-2.8042068
1433809509.908,-6.237694
1433809509.924,-10.5271225
1433809509.939,-15.050331
1433809509.955,-18.964523
1433809509.97,-21.473503
1433809509.986,-22.053032
1433809510.002,-20.577843
1433809510.017,-17.295845
1433809510.033,-12.778809
1433809510.048,-7.8125305
1433809510.064,-3.1858597
1433809510.08,0.49814606
1433809510.095,3.0409393
1433809510.111,4.6814346
1433809510.127,5.9900284
1433809510.142,7.5794525
1433809510.158,9.859131
1433809510.174,12.837807
1433809510.189,16.163689
1433809510.205,19.293823
1433809510.22,21.725922
1433809510.236,23.184715
1433809510.252,23.715302
1433809510.267,23.655537
1433809510.283,23.532928
1433809510.299,23.877678
1433809510.314,25.049343
1433809510.33,27.067444
1433809510.345,29.613888
1433809510.361,32.063046
1433809510.377,33.71448
1433809510.392,33.98125
1433809510.408,32.546246
1433809510.424,29.389248
1433809510.439,24.731964
1433809510.455,18.896542
1433809510.47,12.222511
1433809510.486,5.0075226
1433809510.502,-2.452816
1433809510.517,-9.790916
1433809510.533,-16.535435
1433809510.549,-22.175575
1433809510.564,-26.279633
1433809510.58,-28.682617
1433809510.595,-29.50753
1433809510.611,-29.140831
1433809510.627,-28.013683
1433809510.642,-26.414806
1433809510.658,-24.386364
1433809510.674,-21.807331
1433809510.689,-18.558308
1433809510.705,-14.745441
1433809510.72,-10.731766
1433809510.736,-7.067795
1433809510.752,-4.237503
1433809510.767,-2.4918556
1433809510.783,-1.7232933
1433809510.799,-1.5351639
1433809510.814,-1.358757
1433809510.83,-0.607605
1433809510.845,1.2193031
1433809510.861,4.4310417
1433809510.877,8.999134
1433809510.892,14.453705
1433809510.908,19.848076
1433809510.924,23.967781
1433809510.939,25.682796
1433809510.955,24.361988
1433809510.97,20.19524
1433809510.986,14.1446
1433809511.002,7.6550255
1433809511.017,2.098545
1433809511.033,-1.6395607
1433809511.049,-3.3892212
1433809511.064,-3.527525
1433809511.08,-2.6942577
1433809511.095,-1.4458828
1433809511.111,-0.12740707
1433809511.127,1.1169033
1433809511.142,2.1779308
1433809511.158,2.913803
1433809511.174,3.1742516
1433809511.189,2.9093819
1433809511.205,2.2568455
1433809511.22,1.5369034
1433809511.236,1.1026859
1433809511.252,1.1848984
1433809511.267,1.753582
1433809511.283,2.5653229
1433809511.299,3.2931976
1433809511.314,3.7078342
1433809511.33,3.7659225
1433809511.345,3.6564617
1433809511.361,3.7002354
1433809511.377,4.257559
1433809511.392,5.556265
1433809511.408,7.5515785
1433809511.424,9.862606
1433809511.439,11.847057
1433809511.455,12.77807
1433809511.47,12.119041
1433809511.486,9.715099
1433809511.502,5.8589687
1433809511.517,1.1637192
1433809511.533,-3.6598568
1433809511.549,-8.06019
1433809511.564,-11.718437
1433809511.58,-14.581993
1433809511.595,-16.696543
1433809511.611,-18.11403
1433809511.627,-18.8161
1433809511.642,-18.763588
1433809511.658,-17.93073
1433809511.674,-16.375576
1433809511.689,-14.256615
1433809511.705,-11.804506
1433809511.72,-9.281475
1433809511.736,-6.9342213
1433809511.752,-4.917656
1433809511.767,-3.298953
1433809511.783,-2.033805
1433809511.799,-1.0373735
1433809511.814,-0.20748615
1433809511.83,0.50610447
1433809511.845,1.159996
1433809511.861,1.8196344
1433809511.877,2.668397
1433809511.892,3.9766912
1433809511.908,6.0137854
1433809511.924,8.868477
1433809511.939,12.279226
1433809511.955,15.570556
1433809511.97,17.843681
1433809511.986,18.28046
1433809512.002,16.519333
1433809512.017,12.813512
1433809512.033,7.9439363
1433809512.049,2.871482
1433809512.064,-1.58741
1433809512.08,-5.0308614
1433809512.095,-7.432273
1433809512.111,-8.969931
1433809512.127,-9.799301
1433809512.142,-9.984503
1433809512.158,-9.516374
1433809512.174,-8.442305
1433809512.189,-6.9499655
1433809512.205,-5.357174
1433809512.22,-4.014053
1433809512.236,-3.173218
1433809512.252,-2.895372
1433809512.267,-3.0474188
1433809512.283,-3.3717303
1433809512.299,-3.57763
1433809512.314,-3.443436
1433809512.33,-2.8943443
1433809512.345,-1.9913354
1433809512.361,-0.9092498
1433809512.377,0.16907573
1433809512.392,1.1659234
1433809512.408,2.1415844
1433809512.424,3.2791882
1433809512.439,4.796462
1433809512.455,6.7686605
1433809512.47,9.061502
1433809512.486,11.302574
1433809512.502,12.989222
1433809512.517,13.652741
1433809512.533,13.028683
1433809512.549,11.113514
1433809512.564,8.196842
1433809512.58,4.7054796
1433809512.595,1.1056004
1433809512.611,-2.2438335
1433809512.627,-5.1189976
1433809512.642,-7.4275703
1433809512.658,-9.151181
1433809512.674,-10.291924
1433809512.689,-10.842126
1433809512.705,-10.802776
1433809512.72,-10.232487
1433809512.736,-9.270439
1433809512.752,-8.121509
1433809512.767,-6.9992085
1433809512.783,-6.043458
1433809512.799,-5.282098
1433809512.814,-4.625658
1433809512.83,-3.9583015
1433809512.846,-3.206112
1433809512.861,-2.4147892
1433809512.877,-1.7049007
1433809512.892,-1.1676884
1433809512.908,-0.76350975
1433809512.924,-0.2863922
1433809512.939,0.59039307
1433809512.955,2.1469383
1433809512.971,4.4841537
1433809512.986,7.444109
1433809513.002,10.62788
1433809513.017,13.506126
1433809513.033,15.569689
1433809513.049,16.436838
1433809513.064,15.941418
1433809513.08,14.109093
1433809513.096,11.171999
1433809513.111,7.479244
1433809513.127,3.4879723
1433809513.142,-0.3318653
1433809513.158,-3.57156
1433809513.174,-5.959276
1433809513.189,-7.4155216
1433809513.205,-8.03475
1433809513.221,-8.031294
1433809513.236,-7.649639
1433809513.252,-7.096945
1433809513.267,-6.529312
1433809513.283,-6.0020924
1433809513.299,-5.505905
1433809513.314,-4.972828
1433809513.33,-4.330971
1433809513.346,-3.509945
1433809513.361,-2.542324
1433809513.377,-1.5423393
1433809513.392,-0.71380234
1433809513.408,-0.22964096
1433809513.424,-0.14445877
1433809513.439,-0.3070755
1433809513.455,-0.42045593
1433809513.471,-0.14673996
1433809513.486,0.757061
1433809513.502,2.3851929
1433809513.517,4.6657715
1433809513.533,7.433365
1433809513.549,10.403412
1433809513.564,13.180634
1433809513.58,15.234188
1433809513.596,16.021278
1433809513.611,15.1565895
1433809513.627,12.628574
1433809513.642,8.8381
1433809513.658,4.4949493
1433809513.674,0.33338547
1433809513.689,-3.1348457
1433809513.705,-5.755005
1433809513.721,-7.611801
1433809513.736,-8.8562355
1433809513.752,-9.52293
1433809513.767,-9.561081
1433809513.783,-8.906269
1433809513.799,-7.6647415
1433809513.814,-6.1164513
1433809513.83,-4.6657066
1433809513.846,-3.6104736
1433809513.861,-3.0359917
1433809513.877,-2.7755852
1433809513.892,-2.5352287
1433809513.908,-2.0543633
1433809513.924,-1.2443619
1433809513.939,-0.2035904
1433809513.955,0.8723259
1433809513.971,1.8166733
1433809513.986,2.548561
1433809514.002,3.1221619
1433809514.017,3.627987
1433809514.033,4.1701965
1433809514.049,4.7997246
1433809514.064,5.5257034
1433809514.08,6.2983437
1433809514.096,7.031269
1433809514.111,7.599022
1433809514.127,7.8757973
1433809514.142,7.7625046
1433809514.158,7.2260017
1433809514.174,6.309574
1433809514.189,5.107929
1433809514.205,3.7073212
1433809514.221,2.1846962
1433809514.236,0.5994606
1433809514.252,-0.94397736
1433809514.267,-2.3009453
1433809514.283,-3.2862778
1433809514.299,-3.740158
1433809514.314,-3.594654
1433809514.33,-2.9342422
1433809514.346,-1.9423599
1433809514.361,-0.86138535
1433809514.377,0.1436882
1433809514.392,0.9920006
1433809514.408,1.7259903
1433809514.424,2.4301453
1433809514.439,3.190487
1433809514.455,4.019665
1433809514.471,4.8821297
1433809514.486,5.69199
1433809514.502,6.391964
1433809514.517,6.9741096
1433809514.533,7.542259
1433809514.549,8.2749405
1433809514.564,9.379185
1433809514.58,10.974823
1433809514.596,13.011841
1433809514.611,15.198212
1433809514.627,17.050045
1433809514.642,17.98476
1433809514.658,17.530624
1433809514.674,15.49548
1433809514.689,12.048283
1433809514.705,7.683384
1433809514.721,3.054039
1433809514.736,-1.2542648
1433809514.752,-4.859619
1433809514.767,-7.624069
1433809514.783,-9.574886
1433809514.799,-10.810589
1433809514.814,-11.417255
1433809514.83,-11.468201
1433809514.846,-11.029926
1433809514.861,-10.223129
1433809514.877,-9.176537
1433809514.892,-8.004002
1433809514.908,-6.7338867
1433809514.924,-5.365509
1433809514.939,-3.8987312
1433809514.955,-2.4416122
1433809514.971,-1.2117615
1433809514.986,-0.45446396
1433809515.002,-0.2294426
1433809515.017,-0.29685593
1433809515.033,-0.11345291
1433809515.049,0.9246788
1433809515.064,3.2214394
1433809515.08,6.7124176
1433809515.096,10.898418
1433809515.111,15.002174
1433809515.127,18.28471
1433809515.142,20.2238
1433809515.158,20.64848
1433809515.174,19.64014
1433809515.189,17.450417
1433809515.205,14.405849
1433809515.221,10.877716
1433809515.236,7.24498
1433809515.252,3.8266563
1433809515.267,0.7516098
1433809515.283,-2.0458984
1433809515.299,-4.795723
1433809515.314,-7.6708565
1433809515.33,-10.610432
1433809515.346,-13.214531
1433809515.361,-14.8857155
1433809515.377,-15.104866
1433809515.392,-13.748203
1433809515.408,-11.203938
1433809515.424,-8.298374
1433809515.439,-5.953518
1433809515.455,-4.8225136
1433809515.471,-5.028805
1433809515.486,-6.1783485
1433809515.502,-7.589327
1433809515.518,-8.632303
1433809515.533,-8.952332
1433809515.549,-8.501829
1433809515.564,-7.3427086
1433809515.58,-5.470417
1433809515.596,-2.6954918
1433809515.611,1.2250767
1433809515.627,6.3539047
1433809515.643,12.332327
1433809515.658,18.397966
1433809515.674,23.531694
1433809515.689,26.811697
1433809515.705,27.7083
1433809515.721,26.223047
1433809515.736,22.792448
1433809515.752,18.076612
1433809515.768,12.692883
1433809515.783,7.111271
1433809515.799,1.66852
1433809515.814,-3.3141031
1433809515.83,-7.4802856
1433809515.846,-10.460492
1433809515.861,-12.018169
1433809515.877,-12.156775
1433809515.893,-11.172759
1433809515.908,-9.512372
1433809515.924,-7.6300716
1433809515.939,-5.8127165
1433809515.955,-4.166135
1433809515.971,-2.664103
1433809515.986,-1.2597857
1433809516.002,0.0429821
1433809516.018,1.1836691
1433809516.033,2.1128874
1433809516.049,2.8191714
1433809516.064,3.3631163
1433809516.08,3.8109581
1433809516.096,4.2369685
1433809516.111,4.7214375
1433809516.127,5.417938
1433809516.143,6.527479
1433809516.158,8.294141
1433809516.174,10.831763
1433809516.189,13.991478
1433809516.205,17.281076
1433809516.221,19.938896
1433809516.236,21.134518
1433809516.252,20.25904
1433809516.268,17.151901
1433809516.283,12.190225
1433809516.299,6.1620283
1433809516.314,0.026866913
1433809516.33,-5.4209957
1433809516.346,-9.686028
1433809516.361,-12.621492
1433809516.377,-14.284021
1433809516.393,-14.802624
1433809516.408,-14.284229
1433809516.424,-12.881071
1433809516.439,-10.853878
1433809516.455,-8.636946
1433809516.471,-6.7356014
1433809516.486,-5.551527
1433809516.502,-5.1757813
1433809516.518,-5.3361626
1433809516.533,-5.5223274
1433809516.549,-5.238899
1433809516.564,-4.2408447
1433809516.58,-2.6358147
1433809516.596,-0.7500572
1433809516.611,1.0862732
1433809516.627,2.7587051
1433809516.643,4.404377
1433809516.658,6.3250046
1433809516.674,8.765999
1433809516.689,11.791832
1433809516.705,15.17786
1433809516.721,18.50378
1433809516.736,21.23629
1433809516.752,22.88321
1433809516.768,23.077251
1433809516.783,21.681206
1433809516.799,18.797333
1433809516.814,14.752689
1433809516.83,9.982784
1433809516.846,4.950592
1433809516.861,0.035095215
1433809516.877,-4.462082
1433809516.893,-8.297226
1433809516.908,-11.203583
1433809516.924,-12.940681
1433809516.939,-13.356461
1433809516.955,-12.562325
1433809516.971,-10.966988
1433809516.986,-9.219002
1433809517.002,-7.9826813
1433809517.018,-7.680992
1433809517.033,-8.308617
1433809517.049,-9.483269
1433809517.064,-10.616913
1433809517.08,-11.236862
1433809517.096,-11.153709
1433809517.111,-10.508179
1433809517.127,-9.607338
1433809517.143,-8.744751
1433809517.158,-7.994293
1433809517.174,-7.252693
1433809517.189,-6.2814865
1433809517.205,-4.8778305
1433809517.221,-2.9111176
1433809517.236,-0.38410187
1433809517.252,2.6391373
1433809517.268,6.013695
1433809517.283,9.481178
1433809517.299,12.621902
1433809517.314,14.878723
1433809517.33,15.656891
1433809517.346,14.538795
1433809517.361,11.43148
1433809517.377,6.642975
1433809517.393,0.74560547
1433809517.408,-5.551056
1433809517.424,-11.608299
1433809517.439,-16.925606
1433809517.455,-21.180717
1433809517.471,-24.172287
1433809517.486,-25.83641
1433809517.502,-26.226357
1433809517.518,-25.570885
1433809517.533,-24.21653
1433809517.549,-22.564186
1433809517.564,-20.931854
1433809517.58,-19.479134
1433809517.596,-18.179657
1433809517.611,-16.899857
1433809517.627,-15.48027
1433809517.643,-13.840393
1433809517.658,-12.002869
1433809517.674,-10.090393
1433809517.689,-8.259338
1433809517.705,-6.657608
1433809517.721,-5.303253
1433809517.736,-4.063675
1433809517.752,-2.6387634
1433809517.768,-0.66937256
1433809517.783,2.1238403
1433809517.799,5.7547607
1433809517.814,9.927322
1433809517.83,14.047531
1433809517.846,17.400848
1433809517.861,19.345505
1433809517.877,19.499222
1433809517.893,17.802078
1433809517.908,14.523148
1433809517.924,10.130661
1433809517.939,5.197708
1433809517.955,0.2682495
1433809517.971,-4.1779633
1433809517.986,-7.778
1433809518.002,-10.283447
1433809518.018,-11.596817
1433809518.033,-11.784363
1433809518.049,-11.114334
1433809518.064,-10.006424
1433809518.08,-8.945175
1433809518.096,-8.339737
1433809518.111,-8.389786
1433809518.127,-9.02739
1433809518.143,-9.978714
1433809518.158,-10.901962
1433809518.174,-11.565369
1433809518.19,-11.90239
1433809518.205,-12.005981
1433809518.221,-11.967606
1433809518.236,-11.782883
1433809518.252,-11.318359
1433809518.268,-10.387146
1433809518.283,-8.8528595
1433809518.299,-6.7304077
1433809518.315,-4.134796
1433809518.33,-1.2465057
1433809518.346,1.7668915
1433809518.361,4.683502
1433809518.377,7.206787
1433809518.393,8.867096
1433809518.408,9.1345215
1433809518.424,7.5704193
1433809518.44,4.0917053
1433809518.455,-0.91174316
1433809518.471,-6.6185455
1433809518.486,-12.052048
1433809518.502,-16.389389
1433809518.518,-19.212128
1433809518.533,-20.559723
1433809518.549,-20.78711
1433809518.565,-20.30539
1433809518.58,-19.443787
1433809518.596,-18.359932
1433809518.611,-17.13189
1433809518.627,-15.816452
1433809518.643,-14.508217
1433809518.658,-13.284988
1433809518.674,-12.2074585
1433809518.69,-11.253403
1433809518.705,-10.39653
1433809518.721,-9.63269
1433809518.736,-9.016388
1433809518.752,-8.606445
1433809518.768,-8.404312
1433809518.783,-8.268105
1433809518.799,-7.920044
1433809518.815,-7.0063095
1433809518.83,-5.2300034
1433809518.846,-2.4473724
1433809518.861,1.2732391
1433809518.877,5.725441
1433809518.893,10.538101
1433809518.908,15.194466
1433809518.924,19.038681
1433809518.94,21.423447
1433809518.955,21.84784
1433809518.971,20.22107
1433809518.986,16.875671
1433809519.002,12.523079
1433809519.018,7.998947
1433809519.033,4.0113525
1433809519.049,0.90224457
1433809519.065,-1.3386841
1433809519.08,-2.9324417
1433809519.096,-4.1033783
1433809519.111,-4.92704
1433809519.127,-5.4069824
1433809519.143,-5.5307236
1433809519.158,-5.286125
1433809519.174,-4.7149277
1433809519.19,-3.9295883
1433809519.205,-3.122429
1433809519.221,-2.4763641
1433809519.236,-2.1454391
1433809519.252,-2.0893097
1433809519.268,-2.2624512
1433809519.283,-2.5045853
1433809519.299,-2.5216446
1433809519.315,-1.9865799
1433809519.33,-0.8265228
1433809519.346,0.631546
1433809519.361,1.8575897
1433809519.377,2.4372635
1433809519.393,2.5085258
1433809519.408,2.4225464
1433809519.424,2.7594833
1433809519.44,4.0764046
1433809519.455,6.5268173
1433809519.471,9.547405
1433809519.486,11.935028
1433809519.502,12.5980835
1433809519.518,11.181252
1433809519.533,8.640743
1433809519.549,6.2634583
1433809519.565,5.309822
1433809519.58,6.5691986
1433809519.596,10.280804
1433809519.611,16.00203
1433809519.627,22.724094
1433809519.643,29.376648
1433809519.658,34.781284
1433809519.674,37.718414
1433809519.69,36.012177
1433809519.705,27.490429
1433809519.721,11.384102
1433809519.736,-9.468674
1433809519.752,-29.173283
1433809519.768,-42.23584
1433809519.783,-46.151287
1433809519.799,-44.566257
1433809519.815,-40.32058
1433809519.83,-35.950363
1433809519.846,-32.967087
1433809519.861,-31.509718
1433809519.877,-30.679438
1433809519.893,-28.4191
1433809519.908,-24.101233
1433809519.924,-18.052345
1433809519.94,-11.336403
1433809519.955,-5.004759
1433809519.971,-0.3774109
1433809519.986,1.7701254
1433809520.002,1.7415695
1433809520.018,0.8373456
1433809520.033,0.59817886
1433809520.049,1.7947416
1433809520.065,4.214328
1433809520.08,6.600898
1433809520.096,7.614495
1433809520.111,5.992072
1433809520.127,1.4628232
1433809520.143,-4.931738
1433809520.158,-11.28763
1433809520.174,-15.783447
1433809520.19,-17.596199
1433809520.205,-16.822659
1433809520.221,-14.159323
1433809520.236,-10.193739
1433809520.252,-5.429225
1433809520.268,-0.17312336
1433809520.283,5.3444004
1433809520.299,10.734985
1433809520.315,15.394806
1433809520.33,18.665148
1433809520.346,20.371456
1433809520.361,20.987705
1433809520.377,21.535881
1433809520.393,22.893667
1433809520.408,25.38236
1433809520.424,28.620495
1433809520.44,31.731571
1433809520.455,33.736774
1433809520.471,34.023453
1433809520.486,32.58408
1433809520.502,29.950119
1433809520.518,26.845078
1433809520.533,23.70496
1433809520.549,20.486374
1433809520.565,16.823788
1433809520.58,12.368092
1433809520.596,7.1626167
1433809520.611,1.723877
1433809520.627,-3.0778122
1433809520.643,-6.366928
1433809520.658,-7.558506
1433809520.674,-6.543213
1433809520.69,-3.6421127
1433809520.705,0.5091553
1433809520.721,5.1186333
1433809520.736,9.344379
1433809520.752,12.451122
1433809520.768,13.901913
1433809520.783,13.558407
1433809520.799,11.718506
1433809520.815,8.9975815
1433809520.83,6.1117744
1433809520.846,3.5985756
1433809520.862,1.6790695
1433809520.877,0.3230629
1433809520.893,-0.56539154
1433809520.908,-0.97039413
1433809520.924,-0.72003937
1433809520.94,0.3761406
1433809520.955,2.3515358
1433809520.971,5.0303
1433809520.986,8.066681
1433809521.002,11.115635
1433809521.018,13.926716
1433809521.033,16.381199
1433809521.049,18.34208
1433809521.065,19.578026
1433809521.08,19.683537
1433809521.096,18.241146
1433809521.112,15.001106
1433809521.127,10.108589
1433809521.143,4.098835
1433809521.158,-2.1869125
1433809521.174,-7.917713
1433809521.19,-12.504601
1433809521.205,-15.719677
1433809521.221,-17.64309
1433809521.237,-18.523266
1433809521.252,-18.605568
1433809521.268,-18.077862
1433809521.283,-17.045807
1433809521.299,-15.610519
1433809521.315,-13.936623
1433809521.33,-12.278385
1433809521.346,-10.885937
1433809521.362,-9.925766
1433809521.377,-9.353024
1433809521.393,-8.92561
1433809521.408,-8.261627
1433809521.424,-7.0328636
1433809521.44,-5.0885773
1433809521.455,-2.5021667
1433809521.471,0.4736023
1433809521.487,3.5693893
1433809521.502,6.604763
1433809521.518,9.452751
1433809521.533,11.946152
1433809521.549,13.741272
1433809521.565,14.3382225
1433809521.58,13.22596
1433809521.596,10.198471
1433809521.612,5.5164375
1433809521.627,-0.062339783
1433809521.643,-5.5725822
1433809521.658,-10.136929
1433809521.674,-13.277134
1433809521.69,-14.911148
1433809521.705,-15.260445
1433809521.721,-14.605507
1433809521.737,-13.149124
1433809521.752,-10.995609
1433809521.768,-8.268414
1433809521.783,-5.176365
1433809521.799,-2.0571136
1433809521.815,0.73522186
1433809521.83,2.9431076
1433809521.846,4.5096436
1433809521.862,5.5453835
1433809521.877,6.2542953
1433809521.893,6.771221
1433809521.908,7.1377525
1433809521.924,7.3218117
1433809521.94,7.366871
1433809521.955,7.4658165
1433809521.971,8.004242
1433809521.987,9.413372
1433809522.002,12.000877
1433809522.018,15.745083
1433809522.033,20.257618
1433809522.049,24.899117
1433809522.065,29.032055
1433809522.08,32.191395
1433809522.096,34.19737
1433809522.112,35.05858
1433809522.127,34.83061
1433809522.143,33.500763
1433809522.158,31.040222
1433809522.174,27.450481
1433809522.19,22.899826
1433809522.205,17.685242
1433809522.221,12.156475
1433809522.237,6.575615
1433809522.252,1.0728302
1433809522.268,-4.3755074
1433809522.283,-9.850864
1433809522.299,-15.433517
1433809522.315,-21.128803
1433809522.33,-26.875988
1433809522.346,-32.4998
1433809522.362,-37.755573
1433809522.377,-42.30364
1433809522.393,-45.76988
1433809522.408,-47.825928
1433809522.424,-48.30268
1433809522.44,-47.241356
1433809522.455,-44.93606
1433809522.471,-41.832626
1433809522.487,-38.435596
1433809522.502,-35.112484
1433809522.518,-32.07427
1433809522.533,-29.314178
1433809522.549,-26.716541
1433809522.565,-24.087757
1433809522.58,-21.243065
1433809522.596,-18.03703
1433809522.612,-14.424042
1433809522.627,-10.492279
1433809522.643,-6.5131454
1433809522.658,-2.898037
1433809522.674,-0.100055695
1433809522.69,1.5872765
1433809522.705,2.1649132
1433809522.721,1.9877052
1433809522.737,1.5989685
1433809522.752,1.5128174
1433809522.768,1.9568405
1433809522.783,2.8416977
1433809522.799,3.87928
1433809522.815,4.825409
1433809522.83,5.6037445
1433809522.846,6.385494
1433809522.862,7.431095
1433809522.877,8.946869
1433809522.893,10.948544
1433809522.908,13.232494
1433809522.924,15.417133
1433809522.94,17.085026
1433809522.955,17.93525
1433809522.971,17.922298
1433809522.987,17.303978
1433809523.002,16.570286
1433809523.018,16.244541
1433809523.033,16.67738
1433809523.049,17.860283
1433809523.065,19.396835
1433809523.08,20.660095
1433809523.096,21.054253
1433809523.112,20.273323
1433809523.127,18.449478
1433809523.143,16.043251
1433809523.158,13.616386
1433809523.174,11.550552
1433809523.19,9.907082
1433809523.205,8.442429
1433809523.221,6.835495
1433809523.237,4.9152603
1433809523.252,2.8147507
1433809523.268,0.92385864
1433809523.283,-0.3085327
1433809523.299,-0.6419678
1433809523.315,-0.16040039
1433809523.33,0.7157974
1433809523.346,1.4611588
1433809523.362,1.6736298
1433809523.377,1.2799072
1433809523.393,0.51335907
1433809523.408,-0.18746185
1433809523.424,-0.43294525
1433809523.44,-0.03530121
1433809523.455,0.9150772
1433809523.471,2.148056
1433809523.487,3.386612
1433809523.502,4.5055313
1433809523.518,5.550316
1433809523.533,6.6440353
1433809523.549,7.800316
1433809523.565,8.783752
1433809523.58,9.131065
1433809523.596,8.35302
1433809523.612,6.1833267
1433809523.627,2.7805252
1433809523.643,-1.2961197
1433809523.658,-5.3037415
1433809523.674,-8.630821
1433809523.69,-10.964638
1433809523.705,-12.353859
1433809523.721,-13.067108
1433809523.737,-13.388466
1433809523.752,-13.492165
1433809523.768,-13.419418
1433809523.784,-13.134422
1433809523.799,-12.641632
1433809523.815,-11.9882965
1433809523.83,-11.232132
1433809523.846,-10.401276
1433809523.862,-9.464073
1433809523.877,-8.352226
1433809523.893,-7.052223
1433809523.909,-5.626526
1433809523.924,-4.239441
1433809523.94,-3.0377808
1433809523.955,-2.0889359
1433809523.971,-1.2978516
1433809523.987,-0.41532898
1433809524.002,0.8823242
1433809524.018,2.8248444
1433809524.034,5.4210815
1433809524.049,8.369026
1433809524.065,11.125244
1433809524.08,13.05146
1433809524.096,13.655785
1433809524.112,12.726257
1433809524.127,10.424034
1433809524.143,7.2097626
1433809524.159,3.6933746
1433809524.174,0.40437317
1433809524.19,-2.3311768
1433809524.205,-4.4765396
1433809524.221,-6.2023773
1433809524.237,-7.7353516
1433809524.252,-9.188873
1433809524.268,-10.488434
1433809524.284,-11.369522
1433809524.299,-11.539276
1433809524.315,-10.824463
1433809524.33,-9.299538
1433809524.346,-7.2760544
1433809524.362,-5.1903915
1433809524.377,-3.4009018
1433809524.393,-2.085144
1433809524.409,-1.1725388
1433809524.424,-0.44908905
1433809524.44,0.33397675
1433809524.455,1.304451
1433809524.471,2.4555511
1433809524.487,3.6382294
1433809524.502,4.699341
1433809524.518,5.549263
1433809524.534,6.2859726
1433809524.549,7.1385727
1433809524.565,8.393288
1433809524.58,10.218521
1433809524.596,12.547928
1433809524.612,14.994614
1433809524.627,16.97519
1433809524.643,17.846207
1433809524.659,17.146523
1433809524.674,14.706596
1433809524.69,10.724365
1433809524.705,5.660866
1433809524.721,0.12944794
1433809524.737,-5.261673
1433809524.752,-10.001183
1433809524.768,-13.732307
1433809524.784,-16.267052
1433809524.799,-17.59159
1433809524.815,-17.799713
1433809524.83,-17.05928
1433809524.846,-15.530869
1433809524.862,-13.359795
1433809524.877,-10.672813
1433809524.893,-7.6626587
1433809524.909,-4.596039
1433809524.924,-1.8254852
1433809524.94,0.31248474
1433809524.955,1.610054
1433809524.971,2.0937805
1433809524.987,2.002594
1433809525.002,1.7025223
1433809525.018,1.4996948
1433809525.034,1.5647736
1433809525.049,1.9014511
1433809525.065,2.4927216
1433809525.08,3.3799133
1433809525.096,4.7092285
1433809525.112,6.603714
1433809525.127,9.016281
1433809525.143,11.584457
1433809525.159,13.710449
1433809525.174,14.739822
1433809525.19,14.227791
1433809525.205,12.117149
1433809525.221,8.755852
1433809525.237,4.721283
1433809525.252,0.6042023
1433809525.268,-3.1625748
1433809525.284,-6.3432465
1433809525.299,-8.878136
1433809525.315,-10.764442
1433809525.33,-12.0390625
1433809525.346,-12.722221
1433809525.362,-12.858955
1433809525.377,-12.525887
1433809525.393,-11.869713
1433809525.409,-11.042992
1433809525.424,-10.173988
1433809525.44,-9.299797
1433809525.455,-8.335548
1433809525.471,-7.1177444
1433809525.487,-5.5317
1433809525.502,-3.601242
1433809525.518,-1.5260315
1433809525.534,0.4387741
1433809525.549,2.1068802
1433809525.565,3.484871
1433809525.58,4.745735
1433809525.596,6.129898
1433809525.612,7.792412
1433809525.627,9.786804
1433809525.643,12.0802
1433809525.659,14.654999
1433809525.674,17.50074
1433809525.69,20.535027
1433809525.705,23.48758
1433809525.721,25.867004
1433809525.737,27.076706
1433809525.752,26.630531
1433809525.768,24.35337
1433809525.784,20.451271
1433809525.799,15.439117
1433809525.815,9.999298
1433809525.83,4.7684555
1433809525.846,0.24129486
1433809525.862,-3.307129
1433809525.877,-5.8073425
1433809525.893,-7.409813
1433809525.909,-8.34375
1433809525.924,-8.859833
1433809525.94,-9.111298
1433809525.955,-9.154785
1433809525.971,-8.979736
1433809525.987,-8.627464
1433809526.002,-8.214348
1433809526.018,-7.909813
1433809526.034,-7.879616
1433809526.049,-8.2851715
1433809526.065,-9.270912
1433809526.08,-10.927185
1433809526.096,-13.15538
1433809526.112,-15.535187
1433809526.127,-17.290527
1433809526.143,-17.524483
1433809526.159,-15.597435
1433809526.174,-11.51133
1433809526.19,-5.9729843
1433809526.205,-0.13521576
1433809526.221,4.929489
1433809526.237,8.664909
1433809526.252,11.151817
1433809526.268,12.809151
1433809526.284,13.977539
1433809526.299,14.610451
1433809526.315,14.325447
1433809526.33,12.711876
1433809526.346,9.666779
1433809526.362,5.507889
1433809526.377,0.84210205
1433809526.393,-3.7471466
1433809526.409,-7.890671
1433809526.424,-11.454414
1433809526.44,-14.425262
1433809526.456,-16.784576
1433809526.471,-18.454216
1433809526.487,-19.390717
1433809526.502,-19.68827
1433809526.518,-19.638802
1433809526.534,-19.610634
1433809526.549,-19.899765
1433809526.565,-20.530586
1433809526.581,-21.217072
1433809526.596,-21.472343
1433809526.612,-20.884216
1433809526.627,-19.312447
1433809526.643,-16.978981
1433809526.659,-14.367554
1433809526.674,-11.998894
1433809526.69,-10.217674
1433809526.706,-9.099747
1433809526.721,-8.478813
1433809526.737,-8.069824
1433809526.752,-7.587723
1433809526.768,-6.850815
1433809526.784,-5.7782288
1433809526.799,-4.427582
1433809526.815,-2.9560013
1433809526.831,-1.5839386
1433809526.846,-0.49476624
1433809526.862,0.26146698
1433809526.877,0.8276062
1433809526.893,1.4787827
1433809526.909,2.5404205
1433809526.924,4.2826157
1433809526.94,6.9020157
1433809526.956,10.509941
1433809526.971,15.135666
1433809526.987,20.615692
1433809527.002,26.522186
1433809527.018,32.170876
1433809527.034,36.801834
1433809527.049,39.86989
1433809527.065,41.295853
1433809527.081,41.497086
1433809527.096,41.19085
1433809527.112,40.984566
1433809527.127,41.060425
1433809527.143,41.086197
1433809527.159,40.393196
1433809527.174,38.280396
1433809527.19,34.299316
1433809527.206,28.363678
1433809527.221,20.743095
1433809527.237,12.008568
1433809527.252,2.9766235
1433809527.268,-5.430687
1433809527.284,-12.331596
1433809527.299,-17.161057
1433809527.315,-19.842964
1433809527.331,-20.830574
1433809527.346,-20.880173
1433809527.362,-20.69226
1433809527.377,-20.552689
1433809527.393,-20.236343
1433809527.409,-19.176567
1433809527.424,-16.874573
1433809527.44,-13.3074875
1433809527.456,-9.090523
1433809527.471,-5.293724
1433809527.487,-3.0510635
1433809527.502,-3.0752182
1433809527.518,-5.3896866
1433809527.534,-9.326698
1433809527.549,-13.763664
1433809527.565,-17.514603
1433809527.581,-19.680405
1433809527.596,-19.89064
1433809527.612,-18.327621
1433809527.627,-15.617752
1433809527.643,-12.625427
1433809527.659,-10.142303
1433809527.674,-8.703705
1433809527.69,-8.419128
1433809527.706,-9.05204
1433809527.721,-10.162537
1433809527.737,-11.343086
1433809527.752,-12.350311
1433809527.768,-13.148666
1433809527.784,-13.791641
1433809527.799,-14.286346
1433809527.815,-14.503738
1433809527.831,-14.19249
1433809527.846,-13.081734
1433809527.862,-11.023582
1433809527.877,-8.0529785
1433809527.893,-4.377571
1433809527.909,-0.29532623
1433809527.924,3.8483582
1433809527.94,7.6648407
1433809527.956,10.690926
1433809527.971,12.436996
1433809527.987,12.457382
1433809528.002,10.549652
1433809528.018,6.9018326
1433809528.034,2.163269
1433809528.049,-2.685051
1433809528.065,-6.5896454
1433809528.081,-8.784897
1433809528.096,-9.123566
1433809528.112,-8.171463
1433809528.127,-6.9674835
1433809528.143,-6.595581
1433809528.159,-7.629135
1433809528.174,-9.870605
1433809528.19,-12.429993
1433809528.206,-14.256241
1433809528.221,-14.657242
1433809528.237,-13.682968
1433809528.252,-12.053223
1433809528.268,-10.690384
1433809528.284,-10.139877
1433809528.299,-10.247543
1433809528.315,-10.295944
1433809528.331,-9.522369
1433809528.346,-7.715622
1433809528.362,-5.472641
1433809528.377,-3.9824066
1433809528.393,-4.442215
1433809528.409,-7.375946
1433809528.424,-12.29541
1433809528.44,-17.845886
1433809528.456,-22.420776
1433809528.471,-24.859222
1433809528.487,-24.970612
1433809528.502,-23.510498
1433809528.518,-21.685257
1433809528.534,-20.525848
1433809528.549,-20.423615
1433809528.565,-21.092743
1433809528.581,-21.905563
1433809528.596,-22.322937
1433809528.612,-22.164001
1433809528.627,-21.509018
1433809528.643,-20.514542
1433809528.659,-19.214523
1433809528.674,-17.55986
1433809528.69,-15.553818
1433809528.706,-13.412537
1433809528.721,-11.506424
1433809528.737,-10.147888
1433809528.752,-9.363495
1433809528.768,-8.807449
1433809528.784,-7.920273
1433809528.799,-6.2121277
1433809528.815,-3.4964752
1433809528.831,0.09370422
1433809528.846,4.241623
1433809528.862,8.62825
1433809528.877,13.116089
1433809528.893,17.68135
1433809528.909,22.36731
1433809528.924,27.158295
1433809528.94,31.995605
1433809528.956,36.774414
1433809528.971,41.41333
1433809528.987,45.745514
1433809529.002,49.47119
1433809529.018,52.1138
1433809529.034,53.10382
1433809529.049,51.98233
1433809529.065,48.645172
1433809529.081,43.500854
1433809529.096,37.38263
1433809529.112,31.28769
1433809529.128,26.092896
1433809529.143,22.251099
1433809529.159,19.808105
1433809529.174,18.506256
1433809529.19,18.034973
1433809529.206,18.17685
1433809529.221,18.832336
1433809529.237,19.911133
1433809529.253,21.23407
1433809529.268,22.483185
1433809529.284,23.301605
1433809529.299,23.41455
1433809529.315,22.76648
1433809529.331,21.53592
1433809529.346,20.070923
1433809529.362,18.727814
1433809529.378,17.769531
1433809529.393,17.28595
1433809529.409,17.264496
1433809529.424,17.631378
1433809529.44,18.365326
1433809529.456,19.51355
1433809529.471,21.120026
1433809529.487,23.063446
1433809529.503,25.018982
1433809529.518,26.408813
1433809529.534,26.562317
1433809529.549,24.948944
1433809529.565,21.424835
1433809529.581,16.35794
1433809529.596,10.590576
1433809529.612,5.1217346
1433809529.628,0.8022766
1433809529.643,-1.9867249
1433809529.659,-3.374176
1433809529.674,-3.884369
1433809529.69,-4.1262207
1433809529.706,-4.586731
1433809529.721,-5.481262
1433809529.737,-6.7722473
1433809529.753,-8.261475
1433809529.768,-9.717346
1433809529.784,-10.906586
1433809529.799,-11.655701
1433809529.815,-11.853027
1433809529.831,-11.519653
1433809529.846,-10.823151
1433809529.862,-10.086731
1433809529.878,-9.657806
1433809529.893,-9.787781
1433809529.909,-10.457031
1433809529.924,-11.366821
1433809529.94,-12.067383
1433809529.956,-12.162567
1433809529.971,-11.492432
1433809529.987,-10.204651
1433809530.003,-8.628143
1433809530.018,-7.1216736
1433809530.034,-5.9309387
1433809530.049,-5.1904907
1433809530.065,-4.968109
1433809530.081,-5.3605957
1433809530.096,-6.434723
1433809530.112,-8.171082
1433809530.128,-10.346344
1433809530.143,-12.558472
1433809530.159,-14.324799
1433809530.174,-15.304382
1433809530.19,-15.366974
1433809530.206,-14.612732
1433809530.221,-13.2659
1433809530.237,-11.523224
1433809530.253,-9.491394
1433809530.268,-7.191345
1433809530.284,-4.6233826
1433809530.299,-1.8737488
1433809530.315,0.8578186
1433809530.331,3.2439575
1433809530.346,4.9098816
1433809530.362,5.5325317
1433809530.378,5.0060425
1433809530.393,3.5121155
1433809530.409,1.510315
1433809530.424,-0.4024353
1433809530.44,-1.7033386
1433809530.456,-2.1640625
1433809530.471,-1.8527832
1433809530.487,-1.0780334
1433809530.503,-0.17654419
1433809530.518,0.57595825
1433809530.534,0.99731445
1433809530.549,0.88171387
1433809530.565,-0.03451538
1433809530.581,-2.0274048
1433809530.596,-5.221924
1433809530.612,-9.460602
1433809530.628,-14.251038
1433809530.643,-18.947601
1433809530.659,-22.908936
1433809530.674,-25.766266
1433809530.69,-27.432404
1433809530.706,-28.05957
1433809530.721,-27.862335
1433809530.737,-27.052856
1433809530.753,-25.76587
1433809530.768,-24.136566
1433809530.784,-22.305664
1433809530.799,-20.451935
1433809530.815,-18.741058
1433809530.831,-17.297607
1433809530.846,-16.15036
1433809530.862,-15.249634
1433809530.878,-14.449463
1433809530.893,-13.536407
1433809530.909,-12.315887
1433809530.924,-10.710846
1433809530.94,-8.80484
1433809530.956,-6.8549805
1433809530.971,-5.1339417
1433809530.987,-3.7679443
1433809531.003,-2.620575
1433809531.018,-1.3098755
1433809531.034,0.6014099
1433809531.049,3.3097534
1433809531.065,6.559784
1433809531.081,9.661987
1433809531.096,11.712128
1433809531.112,11.990173
1433809531.128,10.310333
1433809531.143,7.128479
1433809531.159,3.392334
1433809531.174,0.1982727
1433809531.19,-1.5786133
1433809531.206,-1.5819397
1433809531.221,0.0015869141
1433809531.237,2.5436096
1433809531.253,5.2672424
1433809531.268,7.4891663
1433809531.284,8.860321
1433809531.299,9.392822
1433809531.315,9.422882
1433809531.331,9.409454
1433809531.346,9.794525
1433809531.362,10.84079
1433809531.378,12.606598
1433809531.393,14.970612
1433809531.409,17.748077
1433809531.424,20.750366
1433809531.44,23.900757
1433809531.456,27.18872
1433809531.471,30.657532
1433809531.487,34.299316
1433809531.503,37.99356
1433809531.518,41.46335
1433809531.534,44.291077
1433809531.549,45.987854
1433809531.565,46.132294
1433809531.581,44.506134
1433809531.596,41.184204
1433809531.612,36.517426
1433809531.628,31.043549
1433809531.643,25.335266
1433809531.659,19.879028
1433809531.674,14.970032
1433809531.69,10.757233
1433809531.706,7.2286987
1433809531.721,4.2931213
1433809531.737,1.8234558
1433809531.753,-0.27893066
1433809531.768,-2.0997314
1433809531.784,-3.6445923
1433809531.8,-4.916809
1433809531.815,-5.885132
1433809531.831,-6.5043945
1433809531.846,-6.7173157
1433809531.862,-6.483185
1433809531.878,-5.7802734
1433809531.893,-4.6457214
1433809531.909,-3.1732178
1433809531.924,-1.5099487
1433809531.94,0.19747925
1433809531.956,1.8922119
1433809531.971,3.6913147
1433809531.987,5.87027
1433809532.003,8.76239
1433809532.018,12.556763
1433809532.034,17.078033
1433809532.05,21.675781
1433809532.065,25.385834
1433809532.081,27.192932
1433809532.096,26.454926
1433809532.112,23.112396
1433809532.128,17.729187
1433809532.143,11.248352
1433809532.159,4.6810303
1433809532.175,-1.2229309
1433809532.19,-6.063385
1433809532.206,-9.740173
1433809532.221,-12.327148
1433809532.237,-13.929199
1433809532.253,-14.66037
1433809532.268,-14.659271
1433809532.284,-14.112366
1433809532.3,-13.24646
1433809532.315,-12.288849
1433809532.331,-11.399445
1433809532.346,-10.620697
1433809532.362,-9.890747
1433809532.378,-9.060699
1433809532.393,-7.9589844
1433809532.409,-6.4381714
1433809532.425,-4.4492493
1433809532.44,-2.0629272
1433809532.456,0.5343323
1433809532.471,3.1408691
1433809532.487,5.60437
1433809532.503,7.936432
1433809532.518,10.338715
1433809532.534,13.120392
1433809532.55,16.521667
1433809532.565,20.545792
1433809532.581,24.815384
1433809532.596,28.67128
1433809532.612,31.367432
1433809532.628,32.404068
1433809532.643,31.754501
1433809532.659,29.920944
1433809532.675,27.753082
1433809532.69,26.109558
1433809532.706,25.507278
1433809532.721,25.944
1433809532.737,26.911133
1433809532.753,27.604752
1433809532.768,27.234268
1433809532.784,25.31482
1433809532.8,21.819168
1433809532.815,17.163788
1433809532.831,11.9953
1433809532.846,6.952484
1433809532.862,2.4423676
1433809532.878,-1.385849
1433809532.893,-4.6155396
1433809532.909,-7.3782806
1433809532.925,-9.800369
1433809532.94,-11.956284
1433809532.956,-13.917557
1433809532.971,-15.7213745
1433809532.987,-17.38913
1433809533.003,-18.884033
1433809533.018,-20.10411
1433809533.034,-20.919617
1433809533.05,-21.253296
1433809533.065,-21.087723
1433809533.081,-20.496033
1433809533.096,-19.558899
1433809533.112,-18.367691
1433809533.128,-17.06009
1433809533.143,-15.874893
1433809533.159,-15.141968
1433809533.175,-15.181534
1433809533.19,-16.116577
1433809533.206,-17.753662
1433809533.221,-19.575699
1433809533.237,-20.961334
1433809533.253,-21.379944
1433809533.268,-20.607124
1433809533.284,-18.74665
1433809533.3,-16.153313
1433809533.315,-13.246353
1433809533.331,-10.401703
1433809533.346,-7.840332
1433809533.362,-5.6138
1433809533.378,-3.6287918
1433809533.393,-1.7341995
1433809533.409,0.19112396
1433809533.425,2.1725922
1433809533.44,4.1676407
1433809533.456,6.0751724
1433809533.471,7.8707275
1433809533.487,9.61142
1433809533.503,11.436859
1433809533.518,13.497269
1433809533.534,15.902374
1433809533.55,18.608246
1433809533.565,21.427551
1433809533.581,24.01065
1433809533.596,25.883675
1433809533.612,26.499947
1433809533.628,25.359497
1433809533.643,22.059723
1433809533.659,16.358639
1433809533.675,8.160007
1433809533.69,-2.490284
1433809533.706,-15.389225
1433809533.721,-30.021637
1433809533.737,-45.45513
1433809533.753,-60.29146
1433809533.768,-72.914734
1433809533.784,-81.940094
1433809533.8,-86.75003
1433809533.815,-87.75953
1433809533.831,-86.329185
1433809533.846,-84.25488
1433809533.862,-83.074326
1433809533.878,-83.544815
1433809533.893,-85.51036
1433809533.909,-88.11411
1433809533.925,-90.23297
1433809533.94,-90.84003
1433809533.956,-89.30153
1433809533.971,-85.43521
1433809533.987,-79.515274
1433809534.003,-72.07013
1433809534.018,-63.619576
1433809534.034,-54.368355
1433809534.05,-44.13108
1433809534.065,-32.496048
1433809534.081,-19.28241
1433809534.096,-4.9739685
1433809534.112,9.125923
1433809534.128,21.284294
1433809534.143,30.047699
1433809534.159,34.936043
1433809534.175,36.7109
1433809534.19,37.02604
1433809534.206,37.628235
1433809534.221,39.65667
1433809534.237,43.3282
1433809534.253,48.232292
1433809534.268,53.809486
1433809534.284,59.80291
1433809534.3,66.23311
1433809534.315,73.18481
1433809534.331,80.47283
1433809534.346,87.59869
1433809534.362,93.944954
1433809534.378,99.10997
1433809534.393,103.05969
1433809534.409,106.047966
1433809534.425,108.31328
1433809534.44,109.83481
1433809534.456,110.31901
1433809534.472,109.45015
1433809534.487,107.19756
1433809534.503,103.92152
1433809534.518,100.12211
1433809534.534,96.04078
1433809534.55,91.331116
1433809534.565,85.15013
1433809534.581,76.59888
1433809534.596,65.34165
1433809534.612,51.927658
1433809534.628,37.648277
1433809534.643,23.991936
1433809534.659,11.99321
1433809534.675,1.8320618
1433809534.69,-7.145401
1433809534.706,-16.071201
1433809534.722,-26.08459
1433809534.737,-37.968323
1433809534.753,-51.92436
1433809534.768,-67.594955
1433809534.784,-84.05606
1433809534.8,-99.99875
1433809534.815,-113.96634
1433809534.831,-124.72003
1433809534.847,-131.5427
1433809534.862,-134.383
1433809534.878,-133.66127
1433809534.893,-129.98024
1433809534.909,-123.7988
1433809534.925,-115.39748
1433809534.94,-105.06504
1433809534.956,-93.37648
1433809534.972,-81.30351
1433809534.987,-70.07215
1433809535.003,-60.77929
1433809535.018,-54.04362
1433809535.034,-49.83561
1433809535.05,-47.601345
1433809535.065,-46.53304
1433809535.081,-45.8689
1433809535.097,-45.02947
1433809535.112,-43.625072
1433809535.128,-41.350468
1433809535.143,-37.951866
1433809535.159,-33.206577
1433809535.175,-27.053253
1433809535.19,-19.680256
1433809535.206,-11.59251
1433809535.222,-3.6023483
1433809535.237,3.3210182
1433809535.253,8.304569
1433809535.268,10.819679
1433809535.284,10.877609
1433809535.3,9.0198555
1433809535.315,6.163246
1433809535.331,3.2559433
1433809535.347,1.026001
1433809535.362,-0.17436981
1433809535.378,-0.27158356
1433809535.393,0.6396637
1433809535.409,2.4999237
1433809535.425,5.280861
1433809535.44,8.9189
1433809535.456,13.179115
1433809535.472,17.610458
1433809535.487,21.564224
1433809535.503,24.370789
1433809535.518,25.543556
1433809535.534,24.9412
1433809535.55,22.831718
1433809535.565,19.822243
1433809535.581,16.68972
1433809535.597,14.204636
1433809535.612,12.935181
1433809535.628,13.176559
1433809535.643,14.965912
1433809535.659,18.220734
1433809535.675,22.797302
1433809535.69,28.50711
1433809535.706,35.002426
1433809535.722,41.66597
1433809535.737,47.64746
1433809535.753,52.067505
1433809535.768,54.29167
1433809535.784,54.134842
1433809535.8,51.824158
1433809535.815,47.864487
1433809535.831,42.74301
1433809535.847,36.814896
1433809535.862,30.248047
1433809535.878,23.168259
1433809535.893,15.713852
1433809535.909,8.08371
1433809535.925,0.5040283
1433809535.94,-6.7610016
1433809535.956,-13.407257
1433809535.972,-18.983582
1433809535.987,-23.0233
1433809536.003,-25.187378
1433809536.018,-25.512894
1433809536.034,-24.483658
1433809536.05,-22.895966
1433809536.065,-21.444427
1433809536.081,-20.409729
1433809536.097,-19.490082
1433809536.112,-18.028137
1433809536.128,-15.336594
1433809536.143,-11.05217
1433809536.159,-5.264099
1433809536.175,1.5310669
1433809536.19,8.638168
1433809536.206,15.312119
1433809536.222,20.826065
1433809536.237,24.511688
1433809536.253,25.892258
1433809536.268,24.833664
1433809536.284,21.785995
1433809536.3,17.757446
1433809536.315,14.073181
1433809536.331,11.847885
1433809536.347,11.560043
1433809536.362,12.839371
1433809536.378,14.776794
1433809536.393,16.454224
1433809536.409,17.473145
1433809536.425,18.148148
1433809536.44,19.249878
1433809536.456,21.468475
1433809536.472,24.992065
1433809536.487,29.355026
1433809536.503,33.688736
1433809536.518,37.1463
1433809536.534,39.262833
1433809536.55,40.022247
1433809536.565,39.7184
1433809536.581,38.69751
1433809536.597,37.238876
1433809536.612,35.5923
1433809536.628,34.087112
1433809536.643,33.175583
1433809536.659,33.296738
1433809536.675,34.65535
1433809536.69,37.007996
1433809536.706,39.61757
1433809536.722,41.44278
1433809536.737,41.482162
1433809536.753,39.203857
1433809536.768,34.81064
1433809536.784,29.289871
1433809536.8,24.101608
1433809536.815,20.644897
1433809536.831,19.66626
1433809536.847,20.92923
1433809536.862,23.312027
1433809536.878,25.308304
1433809536.893,25.725388
1433809536.909,24.15474
1433809536.925,20.979935
1433809536.94,17.018051
1433809536.956,12.923622
1433809536.972,8.873703
1433809536.987,4.617264
1433809537.003,-0.116241455
1433809537.018,-5.2432404
1433809537.034,-10.152191
1433809537.05,-13.977882
1433809537.065,-15.988281
1433809537.081,-15.9602585
1433809537.097,-14.236687
1433809537.112,-11.547546
1433809537.128,-8.669235
1433809537.143,-6.160187
1433809537.159,-4.2427444
1433809537.175,-2.8428802
1433809537.19,-1.6943245
1433809537.206,-0.49633026
1433809537.222,0.9472008
1433809537.237,2.5841026
1433809537.253,4.0764236
1433809537.268,4.862255
1433809537.284,4.384346
1433809537.3,2.2940063
1433809537.315,-1.352396
1433809537.331,-6.1574345
1433809537.347,-11.501705
1433809537.362,-16.76458
1433809537.378,-21.451982
1433809537.394,-25.205336
1433809537.409,-27.724594
1433809537.425,-28.770481
1433809537.44,-28.21632
1433809537.456,-26.168098
1433809537.472,-23.008818
1433809537.487,-19.357735
1433809537.503,-15.811642
1433809537.519,-12.777388
1433809537.534,-10.2914505
1433809537.55,-8.150993
1433809537.565,-6.0663376
1433809537.581,-3.92128
1433809537.597,-1.8180199
1433809537.612,-0.010692596
1433809537.628,1.319725
1433809537.644,2.2423706
1433809537.659,3.116188
1433809537.675,4.426399
1433809537.69,6.5612183
1433809537.706,9.604065
1433809537.722,13.284569
1433809537.737,17.07994
1433809537.753,20.397018
1433809537.769,22.696175
1433809537.784,23.630394
1433809537.8,23.02295
1433809537.815,20.933823
1433809537.831,17.60012
1433809537.847,13.451065
1433809537.862,8.967171
1433809537.878,4.5614853
1433809537.894,0.43048096
1433809537.909,-3.439804
1433809537.925,-7.1847687
1433809537.94,-10.865936
1433809537.956,-14.359055
1433809537.972,-17.33731
1433809537.987,-19.415756
1433809538.003,-20.317993
1433809538.019,-19.991486
1433809538.034,-18.563889
1433809538.05,-16.283844
1433809538.065,-13.403259
1433809538.081,-10.186218
1433809538.097,-6.908127
1433809538.112,-3.9361725
1433809538.128,-1.6472168
1433809538.144,-0.3161316
1433809538.159,0.03501892
1433809538.175,-0.31921387
1433809538.19,-0.85624695
1433809538.206,-1.0245667
1433809538.222,-0.4388275
1433809538.237,0.9983673
1433809538.253,3.1252747
1433809538.269,5.613693
1433809538.284,8.151093
1433809538.3,10.482132
1433809538.315,12.410034
1433809538.331,13.703186
1433809538.347,14.032852
1433809538.362,12.990829
1433809538.378,10.216812
1433809538.394,5.5509033
1433809538.409,-0.80758667
1433809538.425,-8.309296
1433809538.44,-16.174225
1433809538.456,-23.594696
1433809538.472,-29.930634
1433809538.487,-34.831787
1433809538.503,-38.22455
1433809538.519,-40.246246
1433809538.534,-41.113068
1433809538.55,-41.05948
1433809538.565,-40.27307
1433809538.581,-38.922333
1433809538.597,-37.168518
1433809538.612,-35.215576
1433809538.628,-33.283203
1433809538.644,-31.560242
1433809538.659,-30.145905
1433809538.675,-28.999786
1433809538.69,-27.93573
1433809538.706,-26.689087
1433809538.722,-25.025848
1433809538.737,-22.83966
1433809538.753,-20.165253
1433809538.769,-17.132324
1433809538.784,-13.823578
1433809538.8,-10.194733
1433809538.815,-6.0398254
1433809538.831,-1.1184998
1433809538.847,4.6549683
1433809538.862,11.032318
1433809538.878,17.399506
1433809538.894,22.835083
1433809538.909,26.388153
1433809538.925,27.341583
1433809538.94,25.462555
1433809538.956,21.086792
1433809538.972,15.025848
1433809538.987,8.341919
1433809539.003,2.0853271
1433809539.019,-2.8902588
1433809539.034,-6.042053
1433809539.05,-7.186249
1433809539.065,-6.473358
1433809539.081,-4.376953
1433809539.097,-1.6025391
1433809539.112,1.0579834
1433809539.128,2.9265137
1433809539.144,3.6384888
1433809539.159,3.2198792
1433809539.175,2.0151672
1433809539.19,0.54211426
1433809539.206,-0.7246399
1433809539.222,-1.5059204
1433809539.237,-1.7673035
1433809539.253,-1.6627197
1433809539.269,-1.4345093
1433809539.284,-1.2500916
1433809539.3,-1.1083679
1433809539.315,-0.79067993
1433809539.331,0.088531494
1433809539.347,1.9458008
1433809539.362,4.962036
1433809539.378,8.890839
1433809539.394,13.0078125
1433809539.409,16.256378
1433809539.425,17.582031
1433809539.44,16.255188
1433809539.456,12.082947
1433809539.472,5.4305725
1433809539.487,-2.9554443
1433809539.503,-12.186371
1433809539.519,-21.39856
1433809539.534,-29.867981
1433809539.55,-37.024445
1433809539.565,-42.448425
1433809539.581,-45.89212
1433809539.597,-47.313263
1433809539.612,-46.909363
1433809539.628,-45.085052
1433809539.644,-42.331116
1433809539.659,-39.078003
1433809539.675,-35.640198
1433809539.69,-32.173065
1433809539.706,-28.749207
1433809539.722,-25.41632
1433809539.737,-22.237732
1433809539.753,-19.25879
1433809539.769,-16.52658
1433809539.784,-14.073364
1433809539.8,-11.937012
1433809539.815,-10.143982
1433809539.831,-8.72406
1433809539.847,-7.60141
1433809539.862,-6.5572815
1433809539.878,-5.210602
1433809539.894,-3.0792847
1433809539.909,0.23956299
1433809539.925,4.917572
1433809539.94,10.732056
1433809539.956,17.030945
1433809539.972,22.865326
1433809539.987,27.196167
1433809540.003,29.199463
1433809540.019,28.489899
1433809540.034,25.298096
1433809540.05,20.356049
1433809540.066,14.68808
1433809540.081,9.229034
1433809540.097,4.59256
1433809540.112,0.975708
1433809540.128,-1.6988525
1433809540.144,-3.5480957
1433809540.159,-4.53302
1433809540.175,-4.4563293
1433809540.191,-3.1080322
1433809540.206,-0.48614502
1433809540.222,3.0783386
1433809540.237,6.9676514
1433809540.253,10.480347
1433809540.269,13.138611
1433809540.284,14.83844
1433809540.3,15.797699
1433809540.316,16.381348
1433809540.331,16.899994
1433809540.347,17.426422
1433809540.362,17.865234
1433809540.378,18.049866
1433809540.394,17.918213
1433809540.409,17.584381
1433809540.425,17.374268
1433809540.441,17.717285
1433809540.456,19.004211
1433809540.472,21.395813
1433809540.487,24.694
1433809540.503,28.316986
1433809540.519,31.423767
1433809540.534,33.149597
1433809540.55,32.839844
1433809540.566,30.181396
1433809540.581,25.19574
1433809540.597,18.146484
1433809540.612,9.463837
1433809540.628,-0.26696777
1433809540.644,-10.265778
1433809540.659,-19.56427
1433809540.675,-27.166626
1433809540.691,-32.31082
1433809540.706,-34.69632
1433809540.722,-34.583282
1433809540.737,-32.677795
1433809540.753,-29.913208
1433809540.769,-27.189148
1433809540.784,-25.227142
1433809540.8,-24.460815
1433809540.816,-24.987122
1433809540.831,-26.47226
1433809540.847,-28.234802
1433809540.862,-29.394379
1433809540.878,-29.280823
1433809540.894,-27.719574
1433809540.909,-25.203094
1433809540.925,-22.64801
1433809540.941,-20.933014
1433809540.956,-20.425049
1433809540.972,-20.78363
1433809540.987,-21.086823
1433809541.003,-20.247467
1433809541.019,-17.505615
1433809541.034,-12.7482605
1433809541.05,-6.558716
1433809541.066,-0.022155762
1433809541.081,5.6360474
1433809541.097,9.38031
1433809541.112,10.606018
1433809541.128,9.249298
1433809541.144,5.763672
1433809541.159,0.95428467
1433809541.175,-4.196991
1433809541.191,-8.784454
1433809541.206,-12.1145935
1433809541.222,-13.84906
1433809541.237,-14.033661
1433809541.253,-13.055664
1433809541.269,-11.523773
1433809541.284,-10.120178
1433809541.3,-9.3974
1433809541.316,-9.620728
1433809541.331,-10.648407
1433809541.347,-11.958252
1433809541.362,-12.737213
1433809541.378,-12.127747
1433809541.394,-9.485657
1433809541.409,-4.7085876
1433809541.425,1.6270752
1433809541.441,8.353882
1433809541.456,14.037476
1433809541.472,17.49289
1433809541.487,18.16626
1433809541.503,16.327606
1433809541.519,12.856995
1433809541.534,8.868225
1433809541.55,5.2893677
1433809541.566,2.6564636
1433809541.581,1.1455383
1433809541.597,0.7512512
1433809541.612,1.4147339
1433809541.628,3.060089
1433809541.644,5.476837
1433809541.659,8.246094
1433809541.675,10.758331
1433809541.691,12.354248
1433809541.706,12.508118
1433809541.722,11.009796
1433809541.737,7.9647827
1433809541.753,3.7532043
1433809541.769,-1.0984192
1433809541.784,-6.049164
1433809541.8,-10.673981
1433809541.816,-14.702881
1433809541.831,-18.026764
1433809541.847,-20.685883
1433809541.862,-22.738586
1433809541.878,-24.191864
1433809541.894,-24.984802
1433809541.909,-25.025177
1433809541.925,-24.30783
1433809541.941,-22.950684
1433809541.956,-21.180664
1433809541.972,-19.225098
1433809541.987,-17.261078
1433809542.003,-15.345612
1433809542.019,-13.466919
1433809542.034,-11.588257
1433809542.05,-9.675934
1433809542.066,-7.7163696
1433809542.081,-5.716522
1433809542.097,-3.6872559
1433809542.112,-1.6733093
1433809542.128,0.24758911
1433809542.144,1.9900208
1433809542.159,3.504486
1433809542.175,4.7993774
1433809542.191,5.93161
1433809542.206,6.8554077
1433809542.222,7.3563232
1433809542.237,6.984619
1433809542.253,5.207672
1433809542.269,1.6245422
1433809542.284,-3.7574158
1433809542.3,-10.463837
1433809542.316,-17.611298
1433809542.331,-24.136719
1433809542.347,-29.117493
1433809542.362,-32.01895
1433809542.378,-32.78186
1433809542.394,-31.763214
1433809542.409,-29.51065
1433809542.425,-26.575043
1433809542.441,-23.401306
1433809542.456,-20.355194
1433809542.472,-17.758759
1433809542.487,-15.898315
1433809542.503,-14.8993225
1433809542.519,-14.614319
1433809542.534,-14.579834
1433809542.55,-14.202332
1433809542.566,-13.008881
1433809542.581,-10.903961
1433809542.597,-8.184509
1433809542.612,-5.3553467
1433809542.628,-2.8364258
1433809542.644,-0.79541016
1433809542.659,0.8418884
1433809542.675,2.2005005
1433809542.691,3.3075562
1433809542.706,4.1063843
1433809542.722,4.618347
1433809542.738,5.076538
1433809542.753,5.872467
1433809542.769,7.2786255
1433809542.784,9.207947
1433809542.8,11.097504
1433809542.816,12.167236
1433809542.831,11.7916565
1433809542.847,9.875
1433809542.862,6.9361267
1433809542.878,3.886444
1433809542.894,1.6119385
1433809542.909,0.63067627
1433809542.925,0.9437256
1433809542.941,2.1469421
1433809542.956,3.7204895
1433809542.972,5.326996
1433809542.988,6.9673157
1433809543.003,8.98172
1433809543.019,11.841827
1433809543.034,15.898712
1433809543.05,21.17926
1433809543.066,27.362762
1433809543.081,33.876923
1433809543.097,40.098602
1433809543.113,45.471634
1433809543.128,49.51854
1433809543.144,51.76776
1433809543.159,51.739075
1433809543.175,49.064346
1433809543.191,43.742096
1433809543.206,36.329987
1433809543.222,27.967453
1433809543.238,20.10141
1433809543.253,14.034744
1433809543.269,10.534195
1433809543.284,9.664688
1433809543.3,10.875671
1433809543.316,13.318832
1433809543.331,16.119644
1433809543.347,18.560745
1433809543.363,20.111267
1433809543.378,20.420517
1433809543.394,19.33754
1433809543.409,16.967361
1433809543.425,13.679184
1433809543.441,10.05072
1433809543.456,6.68338
1433809543.472,3.9922333
1433809543.488,2.0680084
1433809543.503,0.66752625
1433809543.519,-0.637619
1433809543.534,-2.2510376
1433809543.55,-4.3746796
1433809543.566,-6.875122
1433809543.581,-9.364609
1433809543.597,-11.330368
1433809543.613,-12.356323
1433809543.628,-12.298843
1433809543.644,-11.336029
1433809543.659,-9.885086
1433809543.675,-8.449234
1433809543.691,-7.362152
1433809543.706,-6.7005615
1433809543.722,-6.263855
1433809543.738,-5.753357
1433809543.753,-4.971405
1433809543.769,-3.9407806
1433809543.784,-2.8482056
1433809543.8,-1.8903503
1433809543.816,-1.0476837
1433809543.831,-0.049224854
1433809543.847,1.529129
1433809543.863,3.9630127
1433809543.878,7.154022
1433809543.894,10.564102
1433809543.909,13.398682
1433809543.925,14.910568
1433809543.941,14.7105255
1433809543.956,12.867416
1433809543.972,9.828033
1433809543.988,6.1748657
1433809544.003,2.3854828
1433809544.019,-1.2409515
1433809544.034,-4.5717316
1433809544.05,-7.5177307
1433809544.066,-9.962906
1433809544.081,-11.775055
1433809544.097,-12.851028
1433809544.113,-13.184906
1433809544.128,-12.867676
1433809544.144,-12.065353
1433809544.159,-10.9531555
1433809544.175,-9.727341
1433809544.191,-8.559235
1433809544.206,-7.6231537
1433809544.222,-7.0161896
1433809544.238,-6.7232056
1433809544.253,-6.5543976
1433809544.269,-6.1992035
1433809544.284,-5.3483124
1433809544.3,-3.8849335
1433809544.316,-1.9591064
1433809544.331,0.04437256
1433809544.347,1.7441101
1433809544.363,2.9753723
1433809544.378,3.9342194
1433809544.394,5.09552
1433809544.409,6.9932556
1433809544.425,9.886856
1433809544.441,13.669098
1433809544.456,17.841553
1433809544.472,21.781616
1433809544.488,24.983139
1433809544.503,27.208618
1433809544.519,28.4534
1433809544.534,28.795578
1433809544.55,28.267578
1433809544.566,26.819885
1433809544.581,24.450363
1433809544.597,21.335648
1433809544.613,17.89058
1433809544.628,14.6983795
1433809544.644,12.330582
1433809544.659,11.169128
1433809544.675,11.268341
1433809544.691,12.4361725
1433809544.706,14.274689
1433809544.722,16.353714
1433809544.738,18.220505
1433809544.753,19.47496
1433809544.769,19.81549
1433809544.784,19.108551
1433809544.8,17.430511
1433809544.816,15.067642
1433809544.831,12.450256
1433809544.847,10.018356
1433809544.863,8.07605
1433809544.878,6.7425385
1433809544.894,5.896698
1433809544.909,5.263092
1433809544.925,4.496521
1433809544.941,3.3556519
1433809544.956,1.7560883
1433809544.972,-0.15232849
1433809544.988,-2.0625458
1433809545.003,-3.63826
1433809545.019,-4.6517334
1433809545.034,-5.1231995
1433809545.05,-5.354553
1433809545.066,-5.8459167
1433809545.081,-7.1204224
1433809545.097,-9.512192
1433809545.113,-13.02948
1433809545.128,-17.35759
1433809545.144,-21.99234
1433809545.159,-26.408737
1433809545.175,-30.291763
1433809545.191,-33.580246
1433809545.206,-36.43651
1433809545.222,-39.07451
1433809545.238,-41.638596
1433809545.253,-44.093796
1433809545.269,-46.27542
1433809545.284,-47.974426
1433809545.3,-48.999146
1433809545.316,-49.240814
1433809545.331,-48.64241
1433809545.347,-47.181274
1433809545.363,-44.967163
1433809545.378,-42.200073
1433809545.394,-39.19345
1433809545.41,-36.234634
1433809545.425,-33.479538
1433809545.441,-30.808304
1433809545.456,-27.922272
1433809545.472,-24.446518
1433809545.488,-20.159042
1433809545.503,-15.104889
1433809545.519,-9.582687
1433809545.534,-4.0241547
1433809545.55,1.1549072
1433809545.566,5.650055
1433809545.581,9.248566
1433809545.597,11.739807
1433809545.613,12.865997
1433809545.628,12.393066
1433809545.644,10.262619
1433809545.66,6.7707367
1433809545.675,2.5830078
1433809545.691,-1.4085388
1433809545.706,-4.3294983
1433809545.722,-5.5689087
1433809545.738,-4.965317
1433809545.753,-2.78331
1433809545.769,0.38124084
1433809545.785,3.7716522
1433809545.8,6.651657
1433809545.816,8.476303
1433809545.831,8.986511
1433809545.847,8.294937
1433809545.863,6.8300476
1433809545.878,5.2236786
1433809545.894,4.1153564
1433809545.91,3.9739075
1433809545.925,4.9469757
1433809545.941,6.8719635
1433809545.956,9.376511
1433809545.972,12.080475
1433809545.988,14.723709
1433809546.003,17.276245
1433809546.019,19.844666
1433809546.035,22.588226
1433809546.05,25.553146
1433809546.066,28.654068
1433809546.081,31.663284
1433809546.097,34.316757
1433809546.113,36.353676
1433809546.128,37.5533
1433809546.144,37.748856
1433809546.16,36.846405
1433809546.175,34.87503
1433809546.191,32.02617
1433809546.206,28.604263
1433809546.222,24.943436
1433809546.238,21.250809
1433809546.253,17.557732
1433809546.269,13.719131
1433809546.285,9.601639
1433809546.3,5.1624146
1433809546.316,0.59461975
1433809546.331,-3.7685928
1433809546.347,-7.5362396
1433809546.363,-10.425972
1433809546.378,-12.300018
1433809546.394,-13.25827
1433809546.41,-13.592918
1433809546.425,-13.793045
1433809546.441,-14.404465
1433809546.456,-15.844315
1433809546.472,-18.253487
1433809546.488,-21.390434
1433809546.503,-24.74089
1433809546.519,-27.716263
1433809546.535,-29.884537
1433809546.55,-31.120956
1433809546.566,-31.564842
1433809546.581,-31.505745
1433809546.597,-31.205894
1433809546.613,-30.828514
1433809546.628,-30.421463
1433809546.644,-29.991135
1433809546.66,-29.492592
1433809546.675,-28.857445
1433809546.691,-27.904495
1433809546.706,-26.376495
1433809546.722,-23.998062
1433809546.738,-20.630135
1433809546.753,-16.375687
1433809546.769,-11.662064
1433809546.785,-7.0681458
1433809546.8,-3.165657
1433809546.816,-0.26797485
1433809546.831,1.6783218
1433809546.847,3.0781174
1433809546.863,4.4510956
1433809546.878,6.2091217
1433809546.894,8.448597
1433809546.91,10.9461975
1433809546.925,13.257095
1433809546.941,14.991211
1433809546.956,15.947586
1433809546.972,16.199928
1433809546.988,15.997059
1433809547.003,15.63446
1433809547.019,15.331959
1433809547.035,15.210728
1433809547.05,15.308456
1433809547.066,15.680794
1433809547.081,16.44334
1433809547.097,17.747131
1433809547.113,19.707249
1433809547.128,22.344105
1433809547.144,25.4748
1433809547.16,28.765419
1433809547.175,31.773539
1433809547.191,34.07862
1433809547.206,35.36486
1433809547.222,35.49591
1433809547.238,34.48773
1433809547.253,32.498093
1433809547.269,29.729696
1433809547.285,26.396893
1433809547.3,22.688227
1433809547.316,18.787481
1433809547.331,14.893333
1433809547.347,11.261919
1433809547.363,8.152817
1433809547.378,5.774147
1433809547.394,4.1763763
1433809547.41,3.2171803
1433809547.425,2.5368633
1433809547.441,1.716361
1433809547.456,0.42066097
1433809547.472,-1.4227839
1433809547.488,-3.5996704
1433809547.503,-5.6839733
1433809547.519,-7.2580185
1433809547.535,-8.106717
1433809547.55,-8.328696
1433809547.566,-8.2854805
1433809547.581,-8.396594
1433809547.597,-8.963611
1433809547.613,-10.041862
1433809547.628,-11.388604
1433809547.644,-12.593303
1433809547.66,-13.195122
1433809547.675,-12.84084
1433809547.691,-11.4266
1433809547.706,-9.140052
1433809547.722,-6.4298677
1433809547.738,-3.898283
1433809547.753,-2.0954962
1433809547.769,-1.3511887
1433809547.785,-1.6868911
1433809547.8,-2.8375478
1433809547.816,-4.371019
1433809547.831,-5.8929405
1433809547.847,-7.136503
1433809547.863,-8.019488
1433809547.878,-8.56731
1433809547.894,-8.7899475
1433809547.91,-8.608341
1433809547.925,-7.9112897
1433809547.941,-6.6081934
1433809547.956,-4.7317195
1433809547.972,-2.4852304
1433809547.988,-0.18383121
1433809548.003,1.853014
1433809548.019,3.4093745
1433809548.035,4.4517026
1433809548.05,5.1062746
1433809548.066,5.5823092
1433809548.081,6.055971
1433809548.097,6.5962434
1433809548.113,7.116315
1433809548.128,7.492575
1433809548.144,7.642715
1433809548.16,7.6524525
1433809548.175,7.7563224
1433809548.191,8.29822
1433809548.206,9.580586
1433809548.222,11.752227
1433809548.238,14.72087
1433809548.253,18.162844
1433809548.269,21.568068
1433809548.285,24.361778
1433809548.3,26.006268
1433809548.316,26.127253
1433809548.332,24.582485
1433809548.347,21.52795
1433809548.363,17.382254
1433809548.378,12.722824
1433809548.394,8.142349
1433809548.41,4.106688
1433809548.425,0.8632258
1433809548.441,-1.520935
1433809548.457,-3.096159
1433809548.472,-3.9523182
1433809548.488,-4.182472
1433809548.503,-3.9085088
1433809548.519,-3.3000574
1433809548.535,-2.5460465
1433809548.55,-1.8294594
1433809548.566,-1.2735822
1433809548.582,-0.94625324
1433809548.597,-0.86325276
1433809548.613,-1.0514326
1433809548.628,-1.5267155
1433809548.644,-2.3256094
1433809548.66,-3.3971713
1433809548.675,-4.5930276
1433809548.691,-5.656509
1433809548.707,-6.308012
1433809548.722,-6.3701005
1433809548.738,-5.849186
1433809548.753,-4.919261
1433809548.769,-3.833112
1433809548.785,-2.7799726
1433809548.8,-1.8281665
1433809548.816,-0.9339137
1433809548.832,-0.06578684
1433809548.847,0.7059097
1433809548.863,1.1133652
1433809548.878,0.82482386
1433809548.894,-0.42142916
1433809548.91,-2.6380997
1433809548.925,-5.547505
1433809548.941,-8.663005
1433809548.957,-11.510275
1433809548.972,-13.814564
1433809548.988,-15.576071
1433809549.003,-16.966415
1433809549.019,-18.17969
1433809549.035,-19.21892
1433809549.05,-19.87896
1433809549.066,-19.81861
1433809549.082,-18.785572
1433809549.097,-16.766539
1433809549.113,-14.074844
1433809549.128,-11.230478
1433809549.144,-8.78227
1433809549.16,-7.0748296
1433809549.175,-6.160203
1433809549.191,-5.799199
1433809549.207,-5.612021
1433809549.222,-5.2261825
1433809549.238,-4.397188
1433809549.253,-3.044049
1433809549.269,-1.2285826
1433809549.285,0.943563
1433809549.3,3.3695858
1433809549.316,6.002694
1433809549.332,8.859574
1433809549.347,11.989636
1433809549.363,15.436851
1433809549.378,19.210522
1433809549.394,23.26744
1433809549.41,27.489815
1433809549.425,31.66963
1433809549.441,35.54295
1433809549.457,38.75452
1433809549.472,40.903637
1433809549.488,41.560738
1433809549.503,40.359512
1433809549.519,37.109055
1433809549.535,31.939375
1433809549.55,25.334541
1433809549.566,18.086668
1433809549.582,11.079118
1433809549.597,5.0378036
1433809549.613,0.34094477
1433809549.628,-3.053053
1433809549.644,-5.484809
1433809549.66,-7.3828793
1433809549.675,-9.066211
1433809549.691,-10.608692
1433809549.707,-11.898767
1433809549.722,-12.7768955
1433809549.738,-13.219695
1433809549.753,-13.369176
1433809549.769,-13.500489
1433809549.785,-13.847234
1433809549.8,-14.469334
1433809549.816,-15.209089
1433809549.832,-15.798922
1433809549.847,-15.99677
1433809549.863,-15.73028
1433809549.878,-15.096923
1433809549.894,-14.262075
1433809549.91,-13.3220215
1433809549.925,-12.250963
