1433891803.517,0.0
1433891803.533,0.0
1433891803.548,0.0
1433891803.564,0.0
1433891803.58,0.0
1433891803.595,0.0
1433891803.611,0.0
1433891803.626,0.0
1433891803.642,0.0
1433891803.658,0.0022315353
1433891803.673,-0.0045169927
1433891803.689,-0.011265522
1433891803.705,-0.011383951
1433891803.72,0.0011864507
1433891803.736,0.025910312
1433891803.751,0.050634187
1433891803.767,0.051362894
1433891803.783,-0.0014929791
1433891803.798,-0.1302426
1433891803.814,-0.35562757
1433891803.83,-0.6591247
1433891803.845,-1.0095103
1433891803.861,-1.3709826
1433891803.876,-1.7197359
1433891803.892,-2.0551105
1433891803.908,-2.39945
1433891803.923,-2.7866635
1433891803.939,-3.2399073
1433891803.955,-3.796012
1433891803.97,-4.418684
1433891803.986,-5.0592937
1433891804.001,-5.6644096
1433891804.017,-6.2021537
1433891804.033,-6.6808796
1433891804.048,-7.149598
1433891804.064,-7.6782336
1433891804.08,-8.310739
1433891804.095,-9.143657
1433891804.111,-10.089731
1433891804.126,-11.041313
1433891804.142,-11.8842125
1433891804.158,-12.564316
1433891804.173,-13.13563
1433891804.189,-13.760044
1433891804.205,-14.65232
1433891804.22,-15.962056
1433891804.236,-17.914442
1433891804.251,-20.317299
1433891804.267,-22.903854
1433891804.283,-25.37947
1433891804.298,-27.578028
1433891804.314,-29.57246
1433891804.33,-31.675173
1433891804.345,-34.3178
1433891804.361,-37.813618
1433891804.376,-42.541233
1433891804.392,-48.1463
1433891804.408,-54.104755
1433891804.423,-59.83309
1433891804.439,-64.972374
1433891804.455,-69.58293
1433891804.47,-74.14353
1433891804.486,-79.344986
1433891804.501,-85.70726
1433891804.517,-93.76193
1433891804.533,-102.99779
1433891804.548,-112.61757
1433891804.564,-121.73034
1433891804.58,-129.76602
1433891804.595,-136.75102
1433891804.611,-143.30344
1433891804.626,-150.74623
1433891804.642,-157.77356
1433891804.658,-166.64323
1433891804.673,-177.94798
1433891804.689,-191.79102
1433891804.705,-206.96808
1433891804.72,-220.56592
1433891804.736,-228.24644
1433891804.751,-225.36154
1433891804.767,-208.53198
1433891804.783,-176.87024
1433891804.798,-132.76222
1433891804.814,-80.04997
1433891804.83,-23.069275
1433891804.845,34.94339
1433891804.861,92.43695
1433891804.876,149.15695
1433891804.892,205.22772
1433891804.908,260.36963
1433891804.923,313.74133
1433891804.939,363.87396
1433891804.955,409.83353
1433891804.97,450.90775
1433891804.986,486.50244
1433891805.001,515.73865
1433891805.017,537.2274
1433891805.033,549.22
1433891805.048,549.9613
1433891805.064,538.367
1433891805.08,514.2055
1433891805.095,478.674
1433891805.111,433.87952
1433891805.126,382.45126
1433891805.142,327.02106
1433891805.158,269.84186
1433891805.173,212.63379
1433891805.189,156.6594
1433891805.205,102.95233
1433891805.22,52.373596
1433891805.236,5.9046936
1433891805.251,-35.580414
1433891805.267,-71.42584
1433891805.283,-101.35184
1433891805.298,-125.50113
1433891805.314,-144.3797
1433891805.33,-158.69403
1433891805.345,-169.15071
1433891805.361,-176.3711
1433891805.376,-180.75139
1433891805.392,-182.57419
1433891805.408,-182.06863
1433891805.423,-179.5066
1433891805.439,-175.23325
1433891805.455,-169.65286
1433891805.47,-163.17691
1433891805.486,-156.14568
1433891805.501,-148.80681
1433891805.517,-141.29686
1433891805.533,-133.68983
1433891805.548,-126.01962
1433891805.564,-118.33268
1433891805.58,-110.68864
1433891805.595,-103.15572
1433891805.611,-95.80455
1433891805.626,-88.684166
1433891805.642,-81.82744
1433891805.658,-75.24594
1433891805.673,-68.9526
1433891805.689,-62.949085
1433891805.705,-57.247494
1433891805.72,-51.857185
1433891805.736,-46.78282
1433891805.751,-42.02776
1433891805.767,-37.58521
1433891805.783,-33.451748
1433891805.798,-29.613855
1433891805.814,-26.070963
1433891805.83,-22.808779
1433891805.845,-19.824995
1433891805.861,-17.113392
1433891805.876,-14.666497
1433891805.892,-12.47932
1433891805.908,-10.538469
1433891805.923,-8.833674
1433891805.939,-7.3478527
1433891805.955,-6.067689
1433891805.97,-4.9734235
1433891805.986,-4.046258
1433891806.002,-3.2673752
1433891806.017,-2.6211367
1433891806.033,-2.088365
1433891806.048,-1.6507506
1433891806.064,-1.2976913
1433891806.08,-1.0147024
1433891806.095,-0.79105926
1433891806.111,-0.6133206
1433891806.126,-0.47516227
1433891806.142,-0.3684653
1433891806.158,-0.28461677
1433891806.173,-0.22397345
1433891806.189,-0.17647654
1433891806.205,-0.14055526
1433891806.22,-0.11251485
1433891806.236,-0.0926249
1433891806.252,-0.07977182
1433891806.267,-0.06783539
1433891806.283,-0.05929327
1433891806.298,-0.052183747
1433891806.314,-0.046860814
1433891806.33,-0.044131815
1433891806.345,-0.040358156
1433891806.361,-0.039164305
1433891806.377,-0.034330726
1433891806.392,-0.03515649
1433891806.408,-0.03181714
1433891806.423,-0.030750751
1433891806.439,-0.02810505
1433891806.455,-0.029290557
1433891806.47,-0.027453512
1433891806.486,-0.026081413
1433891806.502,-0.023851603
1433891806.517,-0.022989094
1433891806.533,-0.022172749
1433891806.548,-0.022157341
1433891806.564,-0.020828396
1433891806.58,-0.020277172
1433891806.595,-0.01940465
1433891806.611,-0.018795371
1433891806.627,-0.019169807
1433891806.642,-0.017195046
1433891806.658,-0.016264498
1433891806.673,-0.01676847
1433891806.689,-0.016039208
1433891806.705,-0.016356274
1433891806.72,-0.012255222
1433891806.736,-0.014531761
1433891806.752,-0.013970271
1433891806.767,-0.0151048
1433891806.783,-0.011057541
1433891806.798,-0.013040453
1433891806.814,-0.011574969
1433891806.83,-0.011012882
1433891806.845,-0.010391161
1433891806.861,-0.01039952
1433891806.877,-0.009562045
1433891806.892,-0.0073732734
1433891806.908,-0.009299859
1433891806.923,-0.011448801
1433891806.939,-0.013659328
1433891806.955,-0.024371058
1433891806.97,-0.03121385
1433891806.986,-0.04525681
1433891807.002,-0.061749235
1433891807.017,-0.085223764
1433891807.033,-0.11067256
1433891807.048,-0.14787987
1433891807.064,-0.1794031
1433891807.08,-0.21969336
1433891807.095,-0.26338825
1433891807.111,-0.30764854
1433891807.127,-0.35352284
1433891807.142,-0.40029556
1433891807.158,-0.45181406
1433891807.173,-0.49347275
1433891807.189,-0.54631275
1433891807.205,-0.5925973
1433891807.22,-0.6485857
1433891807.236,-0.70544946
1433891807.252,-0.7610364
1433891807.267,-0.82480526
1433891807.283,-0.89899135
1433891807.298,-0.97416425
1433891807.314,-1.0614705
1433891807.33,-1.156455
1433891807.345,-1.2598234
1433891807.361,-1.3717937
1433891807.377,-1.5082783
1433891807.392,-1.6673656
1433891807.408,-1.8516635
1433891807.423,-2.063119
1433891807.439,-2.2865012
1433891807.455,-2.5007234
1433891807.47,-2.7023885
1433891807.486,-2.8899896
1433891807.502,-3.084226
1433891807.517,-3.3181665
1433891807.533,-3.611346
1433891807.548,-3.9876547
1433891807.564,-4.4449267
1433891807.58,-4.9429693
1433891807.595,-5.4643908
1433891807.611,-5.9809756
1433891807.627,-6.4813595
1433891807.642,-6.9921374
1433891807.658,-7.55247
1433891807.673,-8.196969
1433891807.689,-8.935401
1433891807.705,-9.768172
1433891807.72,-10.630052
1433891807.736,-11.464853
1433891807.752,-12.237608
1433891807.767,-12.946869
1433891807.783,-13.655836
1433891807.798,-14.458608
1433891807.814,-15.426546
1433891807.83,-16.609915
1433891807.845,-17.920052
1433891807.861,-19.190565
1433891807.877,-20.17651
1433891807.892,-20.676706
1433891807.908,-20.541283
1433891807.923,-19.785637
1433891807.939,-18.489319
1433891807.955,-16.778326
1433891807.97,-14.671238
1433891807.986,-12.066017
1433891808.002,-8.699978
1433891808.017,-4.306776
1433891808.033,1.1877384
1433891808.048,7.615177
1433891808.064,14.438805
1433891808.08,20.971054
1433891808.095,26.547382
1433891808.111,30.765404
1433891808.127,33.634434
1433891808.142,35.57295
1433891808.158,37.168266
1433891808.173,38.89083
1433891808.189,40.886787
1433891808.205,42.85674
1433891808.22,44.256035
1433891808.236,44.62829
1433891808.252,43.81406
1433891808.267,42.08783
1433891808.283,40.07566
1433891808.298,38.468033
1433891808.314,37.773598
1433891808.33,38.38838
1433891808.345,40.47958
1433891808.361,43.973515
1433891808.377,48.22081
1433891808.392,51.72295
1433891808.408,52.31755
1433891808.423,47.85758
1433891808.439,37.30126
1433891808.455,21.52194
1433891808.47,3.2775269
1433891808.486,-13.697908
1433891808.502,-26.224232
1433891808.517,-32.811256
1433891808.533,-34.06465
1433891808.548,-31.87406
1433891808.564,-28.272627
1433891808.58,-24.507103
1433891808.595,-20.799799
1433891808.611,-16.943142
1433891808.627,-12.98671
1433891808.642,-9.5318775
1433891808.658,-7.5720596
1433891808.673,-7.8462973
1433891808.689,-10.29105
1433891808.705,-14.029877
1433891808.72,-17.696465
1433891808.736,-19.991425
1433891808.752,-20.33775
1433891808.767,-18.946117
1433891808.783,-16.584877
1433891808.798,-14.154243
1433891808.814,-12.243076
1433891808.83,-10.881466
1433891808.845,-9.715454
1433891808.861,-8.230722
1433891808.877,-6.136379
1433891808.892,-3.521666
1433891808.908,-0.7771082
1433891808.924,1.6107302
1433891808.939,3.2829847
1433891808.955,4.0897236
1433891808.97,4.130806
1433891808.986,3.6043568
1433891809.002,2.6849766
1433891809.017,1.9308643
1433891809.033,1.5086575
1433891809.049,1.4588528
1433891809.064,1.7139053
1433891809.08,2.1942768
1433891809.095,2.8103485
1433891809.111,3.544899
1433891809.127,4.40073
1433891809.142,5.457258
1433891809.158,6.756901
1433891809.174,8.227184
1433891809.189,9.739586
1433891809.205,11.148762
1433891809.22,12.320717
1433891809.236,13.200314
1433891809.252,13.8119545
1433891809.267,14.210239
1433891809.283,14.469364
1433891809.299,14.669907
1433891809.314,14.869953
1433891809.33,15.222111
1433891809.345,15.975925
1433891809.361,17.377129
1433891809.377,19.502232
1433891809.392,22.169502
1433891809.408,24.889233
1433891809.424,27.02459
1433891809.439,27.953625
1433891809.455,27.322498
1433891809.47,25.073608
1433891809.486,21.435997
1433891809.502,16.760132
1433891809.517,11.401207
1433891809.533,5.6928253
1433891809.549,-0.0574646
1433891809.564,-5.53537
1433891809.58,-10.431969
1433891809.595,-14.579819
1433891809.611,-17.909592
1433891809.627,-20.49849
1433891809.642,-22.460327
1433891809.658,-23.867912
1433891809.674,-24.724709
1433891809.689,-25.01207
1433891809.705,-24.716484
1433891809.72,-23.914948
1433891809.736,-22.740997
1433891809.752,-21.394531
1433891809.767,-19.993576
1433891809.783,-18.654388
1433891809.799,-17.454315
1433891809.814,-16.454498
1433891809.83,-15.685455
1433891809.845,-15.132355
1433891809.861,-14.7163315
1433891809.877,-14.3353195
1433891809.892,-13.900764
1433891809.908,-13.401688
1433891809.924,-12.870026
1433891809.939,-12.40271
1433891809.955,-12.0056305
1433891809.97,-11.627045
1433891809.986,-11.148994
1433891810.002,-10.409721
1433891810.017,-9.263023
1433891810.033,-7.6331787
1433891810.049,-5.5105286
1433891810.064,-3.0133362
1433891810.08,-0.3421173
1433891810.095,2.2593231
1433891810.111,4.612961
1433891810.127,6.7034454
1433891810.142,8.766937
1433891810.158,11.206802
1433891810.174,14.45961
1433891810.189,18.707382
1433891810.205,23.718231
1433891810.22,28.77092
1433891810.236,32.878693
1433891810.252,35.04213
1433891810.267,34.66281
1433891810.283,31.692642
1433891810.299,26.65181
1433891810.314,20.39714
1433891810.33,13.7982025
1433891810.345,7.4547577
1433891810.361,1.5921783
1433891810.377,-3.8643646
1433891810.392,-9.075256
1433891810.408,-14.071915
1433891810.424,-18.643631
1433891810.439,-22.465515
1433891810.455,-25.194809
1433891810.47,-26.67157
1433891810.486,-26.952133
1433891810.502,-26.294373
1433891810.517,-25.011353
1433891810.533,-23.44217
1433891810.549,-21.852768
1433891810.564,-20.506805
1433891810.58,-19.602112
1433891810.595,-19.287445
1433891810.611,-19.557968
1433891810.627,-20.25
1433891810.642,-21.050537
1433891810.658,-21.632813
1433891810.674,-21.745544
1433891810.689,-21.294174
1433891810.705,-20.296143
1433891810.72,-18.817825
1433891810.736,-16.931091
1433891810.752,-14.685043
1433891810.767,-12.147934
1433891810.783,-9.43132
1433891810.799,-6.6620026
1433891810.814,-3.9407349
1433891810.83,-1.2787018
1433891810.845,1.3682251
1433891810.861,4.067642
1433891810.877,6.8339233
1433891810.892,9.597946
1433891810.908,12.256317
1433891810.924,14.769287
1433891810.939,17.189178
1433891810.955,19.71341
1433891810.97,22.531921
1433891810.986,25.715714
1433891811.002,29.06633
1433891811.017,32.066177
1433891811.033,34.00757
1433891811.049,34.203644
1433891811.064,32.192123
1433891811.08,27.926453
1433891811.095,21.78952
1433891811.111,14.4673
1433891811.127,6.7519684
1433891811.142,-0.6960449
1433891811.158,-7.449692
1433891811.174,-13.319946
1433891811.189,-18.31871
1433891811.205,-22.453552
1433891811.22,-25.673706
1433891811.236,-27.832687
1433891811.252,-28.760727
1433891811.267,-28.393112
1433891811.283,-26.856247
1433891811.299,-24.513657
1433891811.314,-21.897415
1433891811.33,-19.548157
1433891811.345,-17.876984
1433891811.361,-17.044876
1433891811.377,-16.967255
1433891811.392,-17.376862
1433891811.408,-17.927505
1433891811.424,-18.314163
1433891811.439,-18.347702
1433891811.455,-17.932007
1433891811.47,-17.07808
1433891811.486,-15.859604
1433891811.502,-14.371521
1433891811.517,-12.728134
1433891811.533,-10.994537
1433891811.549,-9.20549
1433891811.564,-7.3281555
1433891811.58,-5.319153
1433891811.596,-3.152771
1433891811.611,-0.8599396
1433891811.627,1.5050812
1433891811.642,3.9142303
1433891811.658,6.375
1433891811.674,8.9617
1433891811.689,11.779816
1433891811.705,14.891617
1433891811.721,18.313797
1433891811.736,21.984848
1433891811.752,25.705719
1433891811.767,29.161118
1433891811.783,31.856003
1433891811.799,33.203094
1433891811.814,32.617508
1433891811.83,29.754074
1433891811.846,24.634567
1433891811.861,17.76149
1433891811.877,9.942642
1433891811.892,2.0642548
1433891811.908,-5.1677704
1433891811.924,-11.378113
1433891811.939,-16.54004
1433891811.955,-20.793198
1433891811.971,-24.296616
1433891811.986,-27.098892
1433891812.002,-29.143631
1433891812.017,-30.305008
1433891812.033,-30.507416
1433891812.049,-29.770416
1433891812.064,-28.250153
1433891812.08,-26.18872
1433891812.096,-23.894379
1433891812.111,-21.624466
1433891812.127,-19.599625
1433891812.142,-17.9458
1433891812.158,-16.71405
1433891812.174,-15.877289
1433891812.189,-15.358337
1433891812.205,-15.016418
1433891812.221,-14.690552
1433891812.236,-14.205765
1433891812.252,-13.443253
1433891812.267,-12.36203
1433891812.283,-11.015396
1433891812.299,-9.458435
1433891812.314,-7.7329865
1433891812.33,-5.840317
1433891812.346,-3.7479706
1433891812.361,-1.4747314
1433891812.377,0.8835907
1433891812.392,3.1774597
1433891812.408,5.1937256
1433891812.424,6.817459
1433891812.439,8.035034
1433891812.455,9.047272
1433891812.471,10.178421
1433891812.486,11.832169
1433891812.502,14.307877
1433891812.517,17.663223
1433891812.533,21.617096
1433891812.549,25.563232
1433891812.564,28.712463
1433891812.58,30.319351
1433891812.596,29.885437
1433891812.611,27.27594
1433891812.627,22.68457
1433891812.642,16.581802
1433891812.658,9.583542
1433891812.674,2.3753815
1433891812.689,-4.4200897
1433891812.705,-10.271225
1433891812.721,-14.911362
1433891812.736,-18.321396
1433891812.752,-20.731873
1433891812.767,-22.455307
1433891812.783,-23.764069
1433891812.799,-24.750542
1433891812.814,-25.330635
1433891812.83,-25.366875
1433891812.846,-24.755905
1433891812.861,-23.5345
1433891812.877,-21.889793
1433891812.892,-20.063255
1433891812.908,-18.301178
1433891812.924,-16.76773
1433891812.939,-15.562439
1433891812.955,-14.707138
1433891812.971,-14.21328
1433891812.986,-14.020592
1433891813.002,-14.008713
1433891813.017,-13.958992
1433891813.033,-13.629219
1433891813.049,-12.779617
1433891813.064,-11.322754
1433891813.08,-9.329041
1433891813.096,-7.013237
1433891813.111,-4.6511383
1433891813.127,-2.4729767
1433891813.142,-0.58438873
1433891813.158,1.064064
1433891813.174,2.5848312
1433891813.189,4.0979996
1433891813.205,5.6492844
1433891813.221,7.165848
1433891813.236,8.534935
1433891813.252,9.661217
1433891813.267,10.571449
1433891813.283,11.402763
1433891813.299,12.422325
1433891813.314,13.91806
1433891813.33,16.128197
1433891813.346,19.089363
1433891813.361,22.643375
1433891813.377,26.387241
1433891813.392,29.717411
1433891813.408,31.955917
1433891813.424,32.49849
1433891813.439,30.970058
1433891813.455,27.367832
1433891813.471,22.093803
1433891813.486,15.862976
1433891813.502,9.498573
1433891813.517,3.6801758
1433891813.533,-1.2286358
1433891813.549,-5.2142944
1433891813.564,-8.500778
1433891813.58,-11.362993
1433891813.596,-13.971878
1433891813.611,-16.29487
1433891813.627,-18.206087
1433891813.642,-19.550121
1433891813.658,-20.283237
1433891813.674,-20.506195
1433891813.689,-20.421024
1433891813.705,-20.246792
1433891813.721,-20.134937
1433891813.736,-20.123938
1433891813.752,-20.181894
1433891813.767,-20.199142
1433891813.783,-20.090118
1433891813.799,-19.768736
1433891813.814,-19.22037
1433891813.83,-18.40226
1433891813.846,-17.328495
1433891813.861,-15.981945
1433891813.877,-14.340935
1433891813.892,-12.393854
1433891813.908,-10.161602
1433891813.924,-7.7188797
1433891813.939,-5.2012806
1433891813.955,-2.7447205
1433891813.971,-0.42713928
1433891813.986,1.7172623
1433891814.002,3.7490616
1433891814.017,5.7787094
1433891814.033,7.8726654
1433891814.049,10.087563
1433891814.064,12.4706955
1433891814.08,15.138027
1433891814.096,18.27594
1433891814.111,22.123344
1433891814.127,26.828358
1433891814.142,32.341976
1433891814.158,38.3404
1433891814.174,44.222435
1433891814.189,49.27282
1433891814.205,52.857063
1433891814.221,54.578625
1433891814.236,54.422943
1433891814.252,52.70533
1433891814.268,49.951027
1433891814.283,46.712364
1433891814.299,43.447227
1433891814.314,40.453117
1433891814.33,37.90484
1433891814.346,35.825233
1433891814.361,34.135376
1433891814.377,32.58976
1433891814.393,30.767662
1433891814.408,28.15187
1433891814.424,24.329376
1433891814.439,19.137642
1433891814.455,12.850922
1433891814.471,6.1337967
1433891814.486,-0.16809845
1433891814.502,-5.3568344
1433891814.518,-9.093391
1433891814.533,-11.484726
1433891814.549,-12.946541
1433891814.564,-13.998726
1433891814.58,-15.014099
1433891814.596,-16.153809
1433891814.611,-17.372292
1433891814.627,-18.505379
1433891814.643,-19.371582
1433891814.658,-19.810051
1433891814.674,-19.68547
1433891814.689,-18.904015
1433891814.705,-17.400734
1433891814.721,-15.226936
1433891814.736,-12.5293045
1433891814.752,-9.555679
1433891814.768,-6.583664
1433891814.783,-3.8399048
1433891814.799,-1.4591446
1433891814.814,0.5748596
1433891814.83,2.364952
1433891814.846,4.031372
1433891814.861,5.7119293
1433891814.877,7.4762497
1433891814.893,9.35009
1433891814.908,11.307983
1433891814.924,13.244835
1433891814.939,14.945412
1433891814.955,16.098
1433891814.971,16.290451
1433891814.986,15.202309
1433891815.002,12.699806
1433891815.018,8.955902
1433891815.033,4.419899
1433891815.049,-0.32681274
1433891815.064,-4.7937393
1433891815.08,-8.758308
1433891815.096,-12.266724
1433891815.111,-15.544914
1433891815.127,-18.8349
1433891815.143,-22.20604
1433891815.158,-25.565742
1433891815.174,-28.6641
1433891815.189,-31.272415
1433891815.205,-33.221756
1433891815.221,-34.467155
1433891815.236,-35.030266
1433891815.252,-34.98095
1433891815.268,-34.353783
1433891815.283,-33.173965
1433891815.299,-31.440498
1433891815.314,-29.184853
1433891815.33,-26.470688
1433891815.346,-23.433105
1433891815.361,-20.264244
1433891815.377,-17.19352
1433891815.393,-14.398407
1433891815.408,-11.990387
1433891815.424,-9.952988
1433891815.439,-8.188461
1433891815.455,-6.541008
1433891815.471,-4.897896
1433891815.486,-3.1719055
1433891815.502,-1.3572769
1433891815.518,0.56424713
1433891815.533,2.6556473
1433891815.549,5.054077
1433891815.564,7.888359
1433891815.58,11.193077
1433891815.596,14.820145
1433891815.611,18.433807
1433891815.627,21.633888
1433891815.643,24.136925
1433891815.658,25.928116
1433891815.674,27.281967
1433891815.689,28.600227
1433891815.705,30.2416
1433891815.721,32.26911
1433891815.736,34.367447
1433891815.752,35.906937
1433891815.768,36.167038
1433891815.783,34.563995
1433891815.799,30.895653
1433891815.814,25.377945
1433891815.83,18.633018
1433891815.846,11.477142
1433891815.861,4.7398834
1433891815.877,-0.961113
1433891815.893,-5.3575745
1433891815.908,-8.524445
1433891815.924,-10.762993
1433891815.939,-12.414856
1433891815.955,-13.681427
1433891815.971,-14.563698
1433891815.986,-14.946106
1433891816.002,-14.677399
1433891816.018,-13.758919
1433891816.033,-12.349609
1433891816.049,-10.689262
1433891816.064,-8.990723
1433891816.08,-7.390892
1433891816.096,-5.900322
1433891816.111,-4.487274
1433891816.127,-3.15802
1433891816.143,-1.9669037
1433891816.158,-1.0622406
1433891816.174,-0.584198
1433891816.189,-0.64346313
1433891816.205,-1.2819519
1433891816.221,-2.4006805
1433891816.236,-3.7661285
1433891816.252,-5.021866
1433891816.268,-5.771118
1433891816.283,-5.678482
1433891816.299,-4.5670776
1433891816.314,-2.5212555
1433891816.33,0.17289734
1433891816.346,3.103424
1433891816.361,5.8983154
1433891816.377,8.267181
1433891816.393,10.142548
1433891816.408,11.597717
1433891816.424,12.833282
1433891816.439,14.075409
1433891816.455,15.476456
1433891816.471,17.018967
1433891816.486,18.467758
1433891816.502,19.444962
1433891816.518,19.494125
1433891816.533,18.272781
1433891816.549,15.646347
1433891816.564,11.789215
1433891816.58,7.1109924
1433891816.596,2.1733856
1433891816.611,-2.4738617
1433891816.627,-6.4367523
1433891816.643,-9.507477
1433891816.658,-11.706177
1433891816.674,-13.150574
1433891816.689,-13.961777
1433891816.705,-14.147629
1433891816.721,-13.635666
1433891816.736,-12.3550415
1433891816.752,-10.38327
1433891816.768,-8.043701
1433891816.783,-5.8349304
1433891816.799,-4.2922974
1433891816.814,-3.717453
1433891816.83,-4.1159515
1433891816.846,-5.169632
1433891816.861,-6.422043
1433891816.877,-7.485031
1433891816.893,-8.147644
1433891816.908,-8.447922
1433891816.924,-8.516006
1433891816.94,-8.508743
1433891816.955,-8.471817
1433891816.971,-8.389465
1433891816.986,-8.209488
1433891817.002,-7.951889
1433891817.018,-7.7324066
1433891817.033,-7.6982574
1433891817.049,-7.9344177
1433891817.064,-8.336731
1433891817.08,-8.637207
1433891817.096,-8.450562
1433891817.111,-7.4651947
1433891817.127,-5.600006
1433891817.143,-3.0380554
1433891817.158,-0.18876648
1433891817.174,2.5442352
1433891817.19,4.8878784
1433891817.205,6.8161926
1433891817.221,8.513199
1433891817.236,10.284119
1433891817.252,12.376877
1433891817.268,14.89856
1433891817.283,17.709
1433891817.299,20.36882
1433891817.315,22.262833
1433891817.33,22.745987
1433891817.346,21.394547
1433891817.361,18.203934
1433891817.377,13.650406
1433891817.393,8.579071
1433891817.408,3.8865051
1433891817.424,0.24053955
1433891817.44,-2.1575623
1433891817.455,-3.5552826
1433891817.471,-4.516678
1433891817.486,-5.5968323
1433891817.502,-7.1609955
1433891817.518,-9.286087
1433891817.533,-11.830093
1433891817.549,-14.515472
1433891817.565,-17.027695
1433891817.58,-19.067902
1433891817.596,-20.391068
1433891817.611,-20.81215
1433891817.627,-20.306091
1433891817.643,-19.044647
1433891817.658,-17.375717
1433891817.674,-15.760544
1433891817.69,-14.629044
1433891817.705,-14.244278
1433891817.721,-14.588623
1433891817.736,-15.435135
1433891817.752,-16.402496
1433891817.768,-17.079514
1433891817.783,-17.09111
1433891817.799,-16.192276
1433891817.815,-14.328751
1433891817.83,-11.622238
1433891817.846,-8.403519
1433891817.861,-5.0973206
1433891817.877,-2.0975037
1433891817.893,0.3879242
1433891817.908,2.3777924
1433891817.924,4.098053
1433891817.94,5.8145905
1433891817.955,7.726639
1433891817.971,9.841263
1433891817.986,12.0095215
1433891818.002,14.049896
1433891818.018,15.820343
1433891818.033,17.30455
1433891818.049,18.616669
1433891818.065,19.914017
1433891818.08,21.358292
1433891818.096,23.048798
1433891818.111,25.010239
1433891818.127,27.140472
1433891818.143,29.159088
1433891818.158,30.61345
1433891818.174,30.935715
1433891818.19,29.621033
1433891818.205,26.418518
1433891818.221,21.515
1433891818.236,15.495499
1433891818.252,9.184738
1433891818.268,3.3523254
1433891818.283,-1.5008545
1433891818.299,-5.2538147
1433891818.315,-8.09639
1433891818.33,-10.321823
1433891818.346,-12.142792
1433891818.361,-13.586517
1433891818.377,-14.501343
1433891818.393,-14.691223
1433891818.408,-14.079468
1433891818.424,-12.732208
1433891818.44,-10.949554
1433891818.455,-9.090759
1433891818.471,-7.474243
1433891818.486,-6.268219
1433891818.502,-5.4174805
1433891818.518,-4.737671
1433891818.533,-4.0646667
1433891818.549,-3.3190613
1433891818.565,-2.5676575
1433891818.58,-1.8614807
1433891818.596,-1.2181702
1433891818.611,-0.56152344
1433891818.627,0.19882202
1433891818.643,1.055542
1433891818.658,1.8563538
1433891818.674,2.3907166
1433891818.69,2.533081
1433891818.705,2.3335266
1433891818.721,2.047943
1433891818.736,2.0230408
1433891818.752,2.5339966
1433891818.768,3.6422424
1433891818.783,5.203247
1433891818.799,6.964264
1433891818.815,8.66449
1433891818.83,10.205597
1433891818.846,11.646851
1433891818.861,13.208771
1433891818.877,15.132294
1433891818.893,17.585724
1433891818.908,20.500061
1433891818.924,23.582886
1433891818.94,26.340698
1433891818.955,28.243744
1433891818.971,28.837585
1433891818.986,27.885925
1433891819.002,25.37201
1433891819.018,21.477936
1433891819.033,16.542206
1433891819.049,10.993713
1433891819.065,5.348114
1433891819.08,0.16479492
1433891819.096,-4.0570374
1433891819.111,-6.992798
1433891819.127,-8.579102
1433891819.143,-9.02829
1433891819.158,-8.748474
1433891819.174,-8.19104
1433891819.19,-7.718628
1433891819.205,-7.5160522
1433891819.221,-7.622925
1433891819.236,-7.966522
1433891819.252,-8.460266
1433891819.268,-9.047943
1433891819.283,-9.742615
1433891819.299,-10.522461
1433891819.315,-11.3593445
1433891819.33,-12.139008
1433891819.346,-12.710388
1433891819.361,-12.914703
1433891819.377,-12.67926
1433891819.393,-11.992096
1433891819.408,-10.910797
1433891819.424,-9.500092
1433891819.44,-7.8387146
1433891819.455,-5.980072
1433891819.471,-4.0076904
1433891819.486,-1.9812927
1433891819.502,0.07815552
1433891819.518,2.235077
1433891819.533,4.623413
1433891819.549,7.353424
1433891819.565,10.420471
1433891819.58,13.665802
1433891819.596,16.757202
1433891819.611,19.37027
1433891819.627,21.2789
1433891819.643,22.508087
1433891819.658,23.315247
1433891819.674,24.08606
1433891819.69,25.183533
1433891819.705,26.826874
1433891819.721,28.966187
1433891819.736,31.305786
1433891819.752,33.377777
1433891819.768,34.661163
1433891819.783,34.695953
1433891819.799,33.20697
1433891819.815,30.149689
1433891819.83,25.712372
1433891819.846,20.28769
1433891819.862,14.436768
1433891819.877,8.745697
1433891819.893,3.7494812
1433891819.908,-0.20077515
1433891819.924,-2.936676
1433891819.94,-4.5395203
1433891819.955,-5.2052917
1433891819.971,-5.1971436
1433891819.987,-4.758484
1433891820.002,-4.079834
1433891820.018,-3.267746
1433891820.033,-2.310791
1433891820.049,-1.0561829
1433891820.065,0.7142639
1433891820.08,3.200943
1433891820.096,6.4033203
1433891820.112,10.051117
1433891820.127,13.611649
1433891820.143,16.463852
1433891820.158,18.175323
1433891820.174,18.655624
1433891820.19,18.119324
1433891820.205,16.97113
1433891820.221,15.562592
1433891820.237,14.065582
1433891820.252,12.4887085
1433891820.268,10.819336
1433891820.283,9.170502
1433891820.299,7.809784
1433891820.315,7.080612
1433891820.33,7.187607
1433891820.346,8.078079
1433891820.362,9.4171295
1433891820.377,10.732239
1433891820.393,11.631317
1433891820.408,11.9534
1433891820.424,11.841965
1433891820.44,11.635773
1433891820.455,11.693726
1433891820.471,12.226746
1433891820.487,13.234573
1433891820.502,14.48613
1433891820.518,15.638443
1433891820.533,16.284836
1433891820.549,16.045822
1433891820.565,14.590942
1433891820.58,11.681259
1433891820.596,7.24205
1433891820.612,1.4094696
1433891820.627,-5.4283752
1433891820.643,-12.718857
1433891820.658,-19.860321
1433891820.674,-26.333511
1433891820.69,-31.810715
1433891820.705,-36.086334
1433891820.721,-38.991516
1433891820.737,-40.352127
1433891820.752,-40.04467
1433891820.768,-38.112625
1433891820.783,-34.93335
1433891820.799,-31.213554
1433891820.815,-27.844856
1433891820.83,-25.55812
1433891820.846,-24.699425
1433891820.862,-25.14148
1433891820.877,-26.379692
1433891820.893,-27.730087
1433891820.908,-28.529602
1433891820.924,-28.153664
1433891820.94,-26.059715
1433891820.955,-21.849892
1433891820.971,-15.556587
1433891820.987,-7.820854
1433891821.002,0.097213745
1433891821.018,6.6844254
1433891821.033,10.740807
1433891821.049,11.942535
1433891821.065,10.934746
1433891821.08,9.01915
1433891821.096,7.522957
1433891821.112,7.255028
1433891821.127,8.260376
1433891821.143,10.071304
1433891821.158,12.068558
1433891821.174,13.858772
1433891821.19,15.352547
1433891821.205,16.620625
1433891821.221,17.699314
1433891821.237,18.459587
1433891821.252,18.639992
1433891821.268,18.004852
1433891821.283,16.448273
1433891821.299,14.069756
1433891821.315,11.089458
1433891821.33,7.7592773
1433891821.346,4.261326
1433891821.362,0.68107986
1433891821.377,-2.9495735
1433891821.393,-6.5535507
1433891821.408,-9.915321
1433891821.424,-12.7438545
1433891821.44,-14.762814
1433891821.455,-15.825367
1433891821.471,-15.982597
1433891821.487,-15.4291
1433891821.502,-14.424547
1433891821.518,-13.102049
1433891821.533,-11.492573
1433891821.549,-9.497385
1433891821.565,-7.042736
1433891821.58,-4.1620445
1433891821.596,-1.0495682
1433891821.612,1.9592314
1433891821.627,4.506035
1433891821.643,6.345668
1433891821.658,7.440483
1433891821.674,7.9823017
1433891821.69,8.336464
1433891821.705,8.896568
1433891821.721,9.954943
1433891821.737,11.646109
1433891821.752,13.933363
1433891821.768,16.728651
1433891821.783,19.940067
1433891821.799,23.535902
1433891821.815,27.471922
1433891821.83,31.675674
1433891821.846,36.006508
1433891821.862,40.319164
1433891821.877,44.55669
1433891821.893,48.80815
1433891821.908,53.25329
1433891821.924,58.06074
1433891821.94,63.15972
1433891821.955,68.143684
1433891821.971,72.247246
1433891821.987,74.68115
1433891822.002,74.92155
1433891822.018,73.009254
1433891822.033,69.59267
1433891822.049,65.69971
1433891822.065,62.320305
1433891822.08,60.003326
1433891822.096,58.66143
1433891822.112,57.715004
1433891822.127,56.371094
1433891822.143,53.972244
1433891822.158,50.143295
1433891822.174,44.750137
1433891822.19,37.72307
1433891822.205,28.980179
1433891822.221,18.443283
1433891822.237,6.2104797
1433891822.252,-7.322525
1433891822.268,-21.44934
1433891822.283,-35.337234
1433891822.299,-48.26158
1433891822.315,-59.79123
1433891822.33,-69.78613
1433891822.346,-78.274124
1433891822.362,-85.222824
1433891822.377,-90.37375
1433891822.393,-93.26553
1433891822.408,-93.44278
1433891822.424,-90.729065
1433891822.44,-85.48364
1433891822.455,-78.627106
1433891822.471,-71.472534
1433891822.487,-65.22757
1433891822.502,-60.50763
1433891822.518,-57.03482
1433891822.534,-53.786255
1433891822.549,-49.502808
1433891822.565,-43.358185
1433891822.58,-35.502014
1433891822.596,-27.08899
1433891822.612,-19.821777
1433891822.627,-15.306366
1433891822.643,-14.441315
1433891822.659,-17.217865
1433891822.674,-22.883453
1433891822.69,-30.397614
1433891822.705,-38.775085
1433891822.721,-47.31598
1433891822.737,-55.644684
1433891822.752,-63.68811
1433891822.768,-71.63196
1433891822.784,-79.8035
1433891822.799,-88.53342
1433891822.815,-97.90967
1433891822.83,-107.56659
1433891822.846,-116.64935
1433891822.862,-123.97885
1433891822.877,-128.46176
1433891822.893,-129.44696
1433891822.909,-127.0419
1433891822.924,-121.99902
1433891822.94,-115.47864
1433891822.955,-108.63577
1433891822.971,-102.24936
1433891822.987,-96.6759
1433891823.002,-91.927704
1433891823.018,-87.91318
1433891823.034,-84.61713
1433891823.049,-82.13721
1433891823.065,-80.51526
1433891823.08,-79.57266
1433891823.096,-78.758484
1433891823.112,-77.224335
1433891823.127,-74.042175
1433891823.143,-68.559845
1433891823.159,-60.59761
1433891823.174,-50.43051
1433891823.19,-38.647522
1433891823.205,-25.747635
1433891823.221,-11.997452
1433891823.237,2.6154175
1433891823.252,18.15445
1433891823.268,34.4825
1433891823.284,50.989777
1433891823.299,66.679825
1433891823.315,80.42062
1433891823.33,91.37207
1433891823.346,99.347916
1433891823.362,104.874146
1433891823.377,108.97336
1433891823.393,112.714386
1433891823.409,116.726944
1433891823.424,120.97821
1433891823.44,124.80855
1433891823.455,127.25687
1433891823.471,127.50423
1433891823.487,125.18025
1433891823.502,120.45092
1433891823.518,113.92298
1433891823.534,106.3252
1433891823.549,98.29183
1433891823.565,90.18376
1433891823.58,82.044716
1433891823.596,73.65599
1433891823.612,64.690216
1433891823.627,54.94243
1433891823.643,44.549522
1433891823.659,34.12275
1433891823.674,24.729393
1433891823.69,17.586514
1433891823.705,13.660397
1433891823.721,13.29174
1433891823.737,16.055706
1433891823.752,20.89798
1433891823.768,26.554089
1433891823.784,31.875145
1433891823.799,36.109787
1433891823.815,38.879257
1433891823.83,40.045517
1433891823.846,39.56924
1433891823.862,37.486942
1433891823.877,33.963303
1433891823.893,29.336185
1433891823.909,24.120888
1433891823.924,18.925304
1433891823.94,14.286957
1433891823.955,10.600586
1433891823.971,8.0624695
1433891823.987,6.651787
1433891824.002,6.1837845
1433891824.018,6.37162
1433891824.034,6.9291077
1433891824.049,7.6658783
1433891824.065,8.574783
1433891824.08,9.8186035
1433891824.096,11.646004
1433891824.112,14.310448
1433891824.127,17.905373
1433891824.143,22.41153
1433891824.159,27.613785
1433891824.174,33.19059
1433891824.19,38.691788
1433891824.205,43.614586
1433891824.221,47.430046
1433891824.237,49.65146
1433891824.252,49.96524
1433891824.268,48.30301
1433891824.284,44.878326
1433891824.299,40.11885
1433891824.315,34.55014
1433891824.33,28.635544
1433891824.346,22.64447
1433891824.362,16.64296
1433891824.377,10.507736
1433891824.393,4.091507
1433891824.409,-2.67305
1433891824.424,-9.595398
1433891824.44,-16.237213
1433891824.455,-21.991959
1433891824.471,-26.315155
1433891824.487,-28.98375
1433891824.502,-30.227829
1433891824.518,-30.703781
1433891824.534,-31.227951
1433891824.549,-32.46898
1433891824.565,-34.721176
1433891824.58,-37.85942
1433891824.596,-41.520706
1433891824.612,-45.33557
1433891824.627,-49.034363
1433891824.643,-52.47043
1433891824.659,-55.5027
1433891824.674,-57.838974
1433891824.69,-59.12355
1433891824.705,-59.047745
1433891824.721,-57.548676
1433891824.737,-54.87619
1433891824.752,-51.552505
1433891824.768,-48.13034
1433891824.784,-44.969162
1433891824.799,-42.131058
1433891824.815,-39.423126
1433891824.83,-36.54547
1433891824.846,-33.250458
1433891824.862,-29.457336
1433891824.877,-25.20755
1433891824.893,-20.609253
1433891824.909,-15.78067
1433891824.924,-10.813293
1433891824.94,-5.880554
1433891824.955,-1.2235718
1433891824.971,2.7973633
1433891824.987,5.818329
1433891825.002,7.507324
1433891825.018,7.670471
1433891825.034,6.244049
1433891825.049,3.291504
1433891825.065,-1.077301
1433891825.08,-6.6496887
1433891825.096,-13.1024475
1433891825.112,-19.981628
1433891825.127,-26.733093
1433891825.143,-32.77472
1433891825.159,-37.66449
1433891825.174,-41.13669
1433891825.19,-43.17856
1433891825.206,-43.932526
1433891825.221,-43.628418
1433891825.237,-42.504578
1433891825.252,-40.757355
1433891825.268,-38.58368
1433891825.284,-36.171722
1433891825.299,-33.76657
1433891825.315,-31.618988
1433891825.331,-29.95607
1433891825.346,-28.873337
1433891825.362,-28.280426
1433891825.377,-27.93074
1433891825.393,-27.527115
1433891825.409,-26.87381
1433891825.424,-25.971207
1433891825.44,-25.02475
1433891825.456,-24.294052
1433891825.471,-23.95366
1433891825.487,-24.002167
1433891825.502,-24.253464
1433891825.518,-24.425644
1433891825.534,-24.235611
1433891825.549,-23.447144
1433891825.565,-21.96579
1433891825.581,-19.833237
1433891825.596,-17.223328
1433891825.612,-14.432358
1433891825.627,-11.79512
1433891825.643,-9.5243225
1433891825.659,-7.660553
1433891825.674,-6.006378
1433891825.69,-4.1823883
1433891825.706,-1.7385864
1433891825.721,1.7154541
1433891825.737,6.4361877
1433891825.752,12.500198
1433891825.768,19.797668
1433891825.784,28.03035
1433891825.799,36.679886
1433891825.815,45.067993
1433891825.831,52.42929
1433891825.846,58.0271
1433891825.862,61.39241
1433891825.877,62.46228
1433891825.893,61.6317
1433891825.909,59.6808
1433891825.924,57.580627
1433891825.94,56.199493
1433891825.956,56.051254
1433891825.971,57.150146
1433891825.987,59.064224
1433891826.002,61.103485
1433891826.018,62.593193
1433891826.034,63.106857
1433891826.049,62.58909
1433891826.065,61.255707
1433891826.081,59.414513
1433891826.096,57.263824
1433891826.112,54.7397
1433891826.127,51.509033
1433891826.143,47.139168
1433891826.159,41.281754
1433891826.174,33.954247
1433891826.19,25.50792
1433891826.206,16.569641
1433891826.221,7.748764
1433891826.237,-0.57975006
1433891826.252,-8.343071
1433891826.268,-15.645248
1433891826.284,-22.552711
1433891826.299,-28.9273
1433891826.315,-34.472305
1433891826.331,-38.83394
1433891826.346,-41.84716
1433891826.362,-43.60424
1433891826.377,-44.39637
1433891826.393,-44.533516
1433891826.409,-44.18463
1433891826.424,-43.300117
1433891826.44,-41.73626
1433891826.456,-39.369385
1433891826.471,-36.28573
1433891826.487,-32.75534
1433891826.502,-29.178413
1433891826.518,-25.890717
1433891826.534,-23.024178
1433891826.549,-20.453377
1433891826.565,-17.855927
1433891826.581,-14.879097
1433891826.596,-11.30954
1433891826.612,-7.2322006
1433891826.627,-3.0379486
1433891826.643,0.7032547
1433891826.659,3.4104767
1433891826.674,4.6856766
1433891826.69,4.40625
1433891826.706,2.747612
1433891826.721,0.12664795
1433891826.737,-2.9272919
1433891826.752,-5.8831635
1433891826.768,-8.285507
1433891826.784,-9.882141
1433891826.799,-10.639793
1433891826.815,-10.732903
1433891826.831,-10.406067
1433891826.846,-9.877869
1433891826.862,-9.218628
1433891826.877,-8.398621
1433891826.893,-7.3762283
1433891826.909,-6.2663803
1433891826.924,-5.336693
1433891826.94,-4.911331
1433891826.956,-5.203514
1433891826.971,-6.2334213
1433891826.987,-7.787552
1433891827.002,-9.619743
1433891827.018,-11.56559
1433891827.034,-13.659828
1433891827.049,-16.009712
1433891827.065,-18.636726
1433891827.081,-21.308136
1433891827.096,-23.608955
1433891827.112,-25.097847
1433891827.127,-25.567139
1433891827.143,-25.1389
1433891827.159,-24.203335
1433891827.174,-23.229904
1433891827.19,-22.533752
1433891827.206,-22.1861
1433891827.221,-22.044506
1433891827.237,-21.838661
1433891827.252,-21.299744
1433891827.268,-20.231007
1433891827.284,-18.540245
1433891827.299,-16.178772
1433891827.315,-13.188648
1433891827.331,-9.661436
1433891827.346,-5.688675
1433891827.362,-1.3535652
1433891827.377,3.318756
1433891827.393,8.3284
1433891827.409,13.6667185
1433891827.424,19.206184
1433891827.44,24.622528
1433891827.456,29.41735
1433891827.471,32.97925
1433891827.487,34.78192
1433891827.502,34.50323
1433891827.518,32.188354
1433891827.534,28.220293
1433891827.549,23.221075
1433891827.565,17.738026
1433891827.581,12.146534
1433891827.596,6.502407
1433891827.612,0.6694279
1433891827.627,-5.486252
1433891827.643,-11.836006
1433891827.659,-17.952175
1433891827.674,-23.210861
1433891827.69,-27.076263
1433891827.706,-29.35981
1433891827.721,-30.316696
1433891827.737,-30.525955
1433891827.752,-30.584793
1433891827.768,-30.828293
1433891827.784,-31.201004
1433891827.799,-31.322731
1433891827.815,-30.745163
1433891827.831,-29.160088
1433891827.846,-26.604675
1433891827.862,-23.370636
1433891827.878,-19.876755
1433891827.893,-16.45372
1433891827.909,-13.189201
1433891827.924,-9.941071
1433891827.94,-6.4347763
1433891827.956,-2.4203033
1433891827.971,2.1880188
1433891827.987,7.2788467
1433891828.002,12.6119
1433891828.018,17.881866
1433891828.034,22.813736
1433891828.049,27.247162
1433891828.065,31.077545
1433891828.081,34.27591
1433891828.096,36.7482
1433891828.112,38.408203
1433891828.128,39.19069
1433891828.143,39.223892
1433891828.159,38.843597
1433891828.174,38.58577
1433891828.19,38.943207
1433891828.206,40.120056
1433891828.221,41.90518
1433891828.237,43.742615
1433891828.253,45.044846
1433891828.268,45.42331
1433891828.284,44.9106
1433891828.299,43.836853
1433891828.315,42.5569
1433891828.331,41.233887
1433891828.346,39.795532
1433891828.362,38.06642
1433891828.378,35.96248
1433891828.393,33.635223
1433891828.409,31.339813
1433891828.424,29.264526
1433891828.44,27.351425
1433891828.456,25.2986
1433891828.471,22.728119
1433891828.487,19.438416
1433891828.503,15.526596
1433891828.518,11.425354
1433891828.534,7.6838226
1433891828.549,4.759369
1433891828.565,2.792099
1433891828.581,1.6041412
1433891828.596,0.77986145
1433891828.612,-0.08590698
1433891828.628,-1.2250214
1433891828.643,-2.5825958
1433891828.659,-3.9319458
1433891828.674,-5.0149994
1433891828.69,-5.718094
1433891828.706,-6.081787
1433891828.721,-6.2407074
1433891828.737,-6.3172913
1433891828.753,-6.324951
1433891828.768,-6.1856537
1433891828.784,-5.812134
1433891828.799,-5.1267242
1433891828.815,-4.126343
1433891828.831,-2.8560028
1433891828.846,-1.3446503
1433891828.862,0.3793335
1433891828.878,2.317749
1433891828.893,4.443802
1433891828.909,6.661682
1433891828.924,8.847443
1433891828.94,10.872894
1433891828.956,12.62915
1433891828.971,14.152115
1433891828.987,15.594742
1433891829.003,17.21753
1433891829.018,19.290588
1433891829.034,21.967453
1433891829.049,25.205933
1433891829.065,28.70758
1433891829.081,32.034637
1433891829.096,34.663025
1433891829.112,36.18103
1433891829.128,36.333267
1433891829.143,35.103867
1433891829.159,32.71216
1433891829.174,29.571167
1433891829.19,26.192993
1433891829.206,23.102463
1433891829.221,20.699707
1433891829.237,19.194077
1433891829.253,18.59378
1433891829.268,18.801788
1433891829.284,19.669403
1433891829.299,21.09674
1433891829.315,22.988571
1433891829.331,25.235443
1433891829.346,27.57669
1433891829.362,29.622253
1433891829.378,30.87709
1433891829.393,30.922943
1433891829.409,29.526794
1433891829.424,26.699966
1433891829.44,22.64444
1433891829.456,17.623947
1433891829.471,11.839737
1433891829.487,5.3904877
1433891829.503,-1.6756287
1433891829.518,-9.2300415
1433891829.534,-16.982796
1433891829.549,-24.496712
1433891829.565,-31.272362
1433891829.581,-36.90927
1433891829.596,-41.239403
1433891829.612,-44.30613
1433891829.628,-46.341446
1433891829.643,-47.56504
1433891829.659,-48.12677
1433891829.674,-48.031548
1433891829.69,-47.244545
1433891829.706,-45.79911
1433891829.721,-43.887566
1433891829.737,-41.84133
1433891829.753,-40.016685
1433891829.768,-38.620964
1433891829.784,-37.59481
1433891829.799,-36.602165
1433891829.815,-35.189102
1433891829.831,-32.89878
1433891829.846,-29.448822
1433891829.862,-24.796516
1433891829.878,-19.176323
1433891829.893,-13.0047
1433891829.909,-6.8778763
1433891829.924,-1.4336624
1433891829.94,2.7197418
1433891829.956,5.1639786
1433891829.971,5.798332
1433891829.987,4.9177513
1433891830.003,3.1029778
1433891830.018,1.0437393
1433891830.034,-0.7305908
1433891830.049,-1.9954071
1433891830.065,-2.8500404
1433891830.081,-3.5585136
1433891830.096,-4.370262
1433891830.112,-5.339302
1433891830.128,-6.3598022
1433891830.143,-7.226555
1433891830.159,-7.7949905
1433891830.174,-8.0233345
1433891830.19,-7.978733
1433891830.206,-7.735264
1433891830.221,-7.355446
1433891830.237,-6.8593025
1433891830.253,-6.3015175
1433891830.268,-5.7465515
1433891830.284,-5.310734
1433891830.299,-5.059204
1433891830.315,-4.984707
1433891830.331,-5.00045
1433891830.346,-5.008789
1433891830.362,-4.9160347
1433891830.378,-4.6633835
1433891830.393,-4.161827
1433891830.409,-3.332489
1433891830.424,-2.0949974
1433891830.44,-0.49503708
1433891830.456,1.2523613
1433891830.471,2.8114471
1433891830.487,3.9017372
1433891830.503,4.4275208
1433891830.518,4.593708
1433891830.534,4.7811737
1433891830.549,5.3640633
1433891830.565,6.494957
1433891830.581,8.085655
1433891830.596,9.867882
1433891830.612,11.633869
1433891830.628,13.339649
1433891830.643,15.138332
1433891830.659,17.220146
1433891830.674,19.692234
1433891830.69,22.507881
1433891830.706,25.521606
1433891830.721,28.564892
1433891830.737,31.46696
1433891830.753,34.00163
1433891830.768,35.80864
1433891830.784,36.353714
1433891830.8,35.164757
1433891830.815,32.03259
1433891830.831,27.212395
1433891830.846,21.385208
1433891830.862,15.446758
1433891830.878,10.150936
1433891830.893,5.8626137
1433891830.909,2.5065765
1433891830.925,-0.27199936
1433891830.94,-2.8849068
1433891830.956,-5.5286217
1433891830.971,-8.125961
1433891830.987,-10.310667
1433891831.003,-11.630856
1433891831.018,-11.753836
1433891831.034,-10.62768
1433891831.05,-8.549116
1433891831.065,-6.0939007
1433891831.081,-3.9610538
1433891831.096,-2.8404808
1433891831.112,-3.2943249
1433891831.128,-5.744053
1433891831.143,-10.393066
1433891831.159,-17.266737
1433891831.175,-26.093174
1433891831.19,-36.333614
1433891831.206,-47.17446
1433891831.221,-57.63658
1433891831.237,-66.73047
1433891831.253,-73.66142
1433891831.268,-77.890656
1433891831.284,-79.25858
1433891831.3,-77.86598
1433891831.315,-74.020615
1433891831.331,-68.06
1433891831.346,-60.321503
1433891831.362,-51.07068
1433891831.378,-40.540455
1433891831.393,-29.028658
1433891831.409,-16.990032
1433891831.425,-5.067011
1433891831.44,5.968397
1433891831.456,15.388737
1433891831.471,22.659636
1433891831.487,27.662146
1433891831.503,30.707403
1433891831.518,32.45906
1433891831.534,33.703606
1433891831.55,35.082607
1433891831.565,36.75807
1433891831.581,38.393894
1433891831.596,39.286068
1433891831.612,38.782757
1433891831.628,36.59886
1433891831.643,32.971813
1433891831.659,28.501228
1433891831.675,23.780277
1433891831.69,19.11068
1433891831.706,14.335476
1433891831.721,9.001064
1433891831.737,2.6127853
1433891831.753,-5.09848
1433891831.768,-13.960182
1433891831.784,-23.377415
1433891831.8,-32.38881
1433891831.815,-39.917404
1433891831.831,-45.026917
1433891831.846,-47.226013
1433891831.862,-46.585026
1433891831.878,-43.71604
1433891831.893,-39.461823
1433891831.909,-34.571846
1433891831.925,-29.470016
1433891831.94,-24.25676
1433891831.956,-18.939522
1433891831.971,-13.721054
1433891831.987,-9.130623
1433891832.003,-5.802475
1433891832.018,-4.1631317
1433891832.034,-4.150879
1433891832.05,-5.143631
1433891832.065,-6.30249
1433891832.081,-6.9507523
1433891832.096,-6.8786545
1433891832.112,-6.299965
1433891832.128,-5.6735916
1433891832.143,-5.3373947
1433891832.159,-5.368088
1433891832.175,-5.6048584
1433891832.19,-5.8032074
1433891832.206,-5.7961273
1433891832.221,-5.507225
1433891832.237,-4.792885
1433891832.253,-3.4016342
1433891832.268,-0.9268036
1433891832.284,2.9235
1433891832.3,8.08017
1433891832.315,13.938705
1433891832.331,19.473984
1433891832.346,23.57344
1433891832.362,25.478699
1433891832.378,25.050903
1433891832.393,22.933868
1433891832.409,20.26828
1433891832.425,18.369003
1433891832.44,18.137665
1433891832.456,19.773285
1433891832.471,22.679306
1433891832.487,25.74765
1433891832.503,27.872345
1433891832.518,28.487427
1433891832.534,27.830856
1433891832.55,26.851044
1433891832.565,26.877243
1433891832.581,29.014038
1433891832.596,33.738815
1433891832.612,40.804047
1433891832.628,49.32338
1433891832.643,58.147186
1433891832.659,66.1463
1433891832.675,72.442245
1433891832.69,76.46263
1433891832.706,77.930725
1433891832.721,76.92592
1433891832.737,73.78726
1433891832.753,69.03316
1433891832.768,63.233093
1433891832.784,56.792908
1433891832.8,49.83339
1433891832.815,42.20378
1433891832.831,33.62738
1433891832.846,23.938477
1433891832.862,13.325745
1433891832.878,2.3989563
1433891832.893,-7.9289093
1433891832.909,-16.69091
1433891832.925,-23.153381
1433891832.94,-26.930298
1433891832.956,-27.939728
1433891832.971,-26.368423
1433891832.987,-22.57103
1433891833.003,-17.158638
1433891833.018,-11.004494
1433891833.034,-5.170532
1433891833.05,-0.60079956
1433891833.065,2.2678528
1433891833.081,3.7189713
1433891833.096,4.610237
1433891833.112,5.9792023
1433891833.128,8.442657
1433891833.143,11.948143
1433891833.159,15.854652
1433891833.175,19.337433
1433891833.19,21.862656
1433891833.206,23.373032
1433891833.221,24.154167
1433891833.237,24.5158
1433891833.253,24.486534
1433891833.268,23.805115
1433891833.284,22.05074
1433891833.3,18.896606
1433891833.315,14.279739
1433891833.331,8.478001
1433891833.346,2.0723305
1433891833.362,-4.066221
1433891833.378,-8.937437
1433891833.393,-11.614988
1433891833.409,-11.55097
1433891833.425,-8.8124275
1433891833.44,-4.1537743
1433891833.456,1.2307181
1433891833.472,6.0519276
1433891833.487,9.33827
1433891833.503,10.650629
1433891833.518,10.099396
1433891833.534,8.146793
1433891833.55,5.415474
1433891833.565,2.5099773
1433891833.581,-0.048160553
1433891833.597,-1.8437614
1433891833.612,-2.6406975
1433891833.628,-2.485424
1433891833.643,-1.6622925
1433891833.659,-0.68278885
1433891833.675,-0.120326996
1433891833.69,-0.47526932
1433891833.706,-2.041973
1433891833.722,-4.9427605
1433891833.737,-9.142632
1433891833.753,-14.5303955
1433891833.768,-20.901283
1433891833.784,-27.960754
1433891833.8,-35.272247
1433891833.815,-42.289703
1433891833.831,-48.388916
1433891833.847,-53.027275
1433891833.862,-55.826347
1433891833.878,-56.669685
1433891833.893,-55.703545
1433891833.909,-53.307068
1433891833.925,-49.988182
1433891833.94,-46.31092
1433891833.956,-42.815407
1433891833.972,-39.948105
1433891833.987,-37.95613
1433891834.003,-36.82788
1433891834.018,-36.217606
1433891834.034,-35.49379
1433891834.05,-33.867058
1433891834.065,-30.650688
1433891834.081,-25.505386
1433891834.097,-18.612892
1433891834.112,-10.614037
1433891834.128,-2.4205475
1433891834.143,5.078964
1433891834.159,11.236084
1433891834.175,15.736237
1433891834.19,18.529053
1433891834.206,19.693573
1433891834.222,19.388702
1433891834.237,17.808395
1433891834.253,15.262939
1433891834.268,12.172684
1433891834.284,8.982025
1433891834.3,6.076309
1433891834.315,3.64711
1433891834.331,1.7263336
1433891834.347,0.23379517
1433891834.362,-0.8773041
1433891834.378,-1.5990753
1433891834.393,-1.9168701
1433891834.409,-1.9111786
1433891834.425,-1.7574921
1433891834.44,-1.7154236
1433891834.456,-1.9351349
1433891834.472,-2.4241028
1433891834.487,-3.040802
1433891834.503,-3.6289825
1433891834.518,-4.090042
1433891834.534,-4.421036
1433891834.55,-4.5874023
1433891834.565,-4.4388275
1433891834.581,-3.6785583
1433891834.597,-2.0216064
1433891834.612,0.57714844
1433891834.628,3.7318726
1433891834.643,6.7064056
1433891834.659,8.58403
1433891834.675,8.679565
1433891834.69,6.7624664
1433891834.706,3.179779
1433891834.722,-1.292984
1433891834.737,-5.7647552
1433891834.753,-9.532684
1433891834.768,-12.269424
1433891834.784,-14.071091
1433891834.8,-15.334122
1433891834.815,-16.526215
1433891834.831,-17.999878
1433891834.847,-19.846634
1433891834.862,-21.866531
1433891834.878,-23.640839
1433891834.893,-24.713074
1433891834.909,-24.748062
1433891834.925,-23.68872
1433891834.94,-21.773727
1433891834.956,-19.40094
1433891834.972,-16.964294
1433891834.987,-14.59491
1433891835.003,-12.1866455
1433891835.018,-9.489273
1433891835.034,-6.3765717
1433891835.05,-3.0129852
1433891835.065,0.14353943
1433891835.081,2.5623474
1433891835.097,3.924652
1433891835.112,4.302002
1433891835.128,4.143692
1433891835.143,4.035553
1433891835.159,4.5124664
1433891835.175,5.919235
1433891835.19,8.444672
1433891835.206,12.199341
1433891835.222,17.1223
1433891835.237,22.932037
1433891835.253,28.957306
1433891835.268,34.22148
1433891835.284,37.710526
1433891835.3,38.745987
1433891835.315,37.311264
1433891835.331,34.142593
1433891835.347,30.520172
1433891835.362,27.795517
1433891835.378,26.94165
1433891835.393,28.206558
1433891835.409,31.013779
1433891835.425,34.215103
1433891835.44,36.4243
1433891835.456,36.485016
1433891835.472,33.691025
1433891835.487,27.980026
1433891835.503,19.845917
1433891835.518,10.206726
1433891835.534,0.16792297
1433891835.55,-9.156616
1433891835.565,-16.872437
1433891835.581,-22.397842
1433891835.597,-25.610977
1433891835.612,-26.831818
1433891835.628,-26.724869
1433891835.643,-26.091537
1433891835.659,-25.557922
1433891835.675,-25.37819
1433891835.69,-25.385239
1433891835.706,-25.134918
1433891835.722,-24.26271
1433891835.737,-22.735214
1433891835.753,-21.024231
1433891835.768,-19.905853
1433891835.784,-20.120956
1433891835.8,-21.98938
1433891835.815,-25.23668
1433891835.831,-29.055145
1433891835.847,-32.459335
1433891835.862,-34.63327
1433891835.878,-35.20958
1433891835.893,-34.274185
1433891835.909,-32.22632
1433891835.925,-29.52481
1433891835.94,-26.563263
1433891835.956,-23.566635
1433891835.972,-20.666473
1433891835.987,-17.959427
1433891836.003,-15.570572
1433891836.018,-13.601471
1433891836.034,-12.119522
1433891836.05,-11.021423
1433891836.065,-10.019882
1433891836.081,-8.665192
1433891836.097,-6.4972076
1433891836.112,-3.1482086
1433891836.128,1.4816589
1433891836.144,7.221573
1433891836.159,13.623001
1433891836.175,20.127823
1433891836.19,26.087173
1433891836.206,30.862
1433891836.222,33.8179
1433891836.237,34.440323
1433891836.253,32.470505
1433891836.269,28.094513
1433891836.284,21.98381
1433891836.3,15.194702
1433891836.315,8.804169
1433891836.331,3.5946045
1433891836.347,-0.20921326
1433891836.362,-2.8977509
1433891836.378,-5.0465393
1433891836.394,-7.1544495
1433891836.409,-9.404785
1433891836.425,-11.608887
1433891836.44,-13.380463
1433891836.456,-14.325119
1433891836.472,-14.297852
1433891836.487,-13.405594
1433891836.503,-11.985809
1433891836.519,-10.491348
1433891836.534,-9.449188
1433891836.55,-9.354965
1433891836.565,-10.581558
1433891836.581,-13.254318
1433891836.597,-17.160446
1433891836.612,-21.725082
1433891836.628,-26.151733
1433891836.644,-29.641846
1433891836.659,-31.679657
1433891836.675,-32.136566
1433891836.69,-31.335587
1433891836.706,-29.808136
1433891836.722,-28.111053
1433891836.737,-26.57846
1433891836.753,-25.325104
1433891836.769,-24.273605
1433891836.784,-23.248474
1433891836.8,-21.980637
1433891836.815,-20.082901
1433891836.831,-17.041122
1433891836.847,-12.292511
1433891836.862,-5.461441
1433891836.878,3.409851
1433891836.894,13.748825
1433891836.909,24.511536
1433891836.925,34.443985
1433891836.94,42.403
1433891836.956,47.670288
1433891836.972,50.036896
1433891836.987,49.82399
1433891837.003,47.729492
1433891837.019,44.637863
1433891837.034,41.35501
1433891837.05,38.428055
1433891837.065,36.104645
1433891837.081,34.398697
1433891837.097,33.270935
1433891837.112,32.76483
1433891837.128,32.964676
1433891837.144,33.903656
1433891837.159,35.368317
1433891837.175,36.907608
1433891837.19,38.03283
1433891837.206,38.45585
1433891837.222,38.09365
1433891837.237,36.94525
1433891837.253,34.69098
1433891837.269,30.670586
1433891837.284,24.126152
1433891837.3,14.697029
1433891837.315,2.7824402
1433891837.331,-10.47242
1433891837.347,-23.686317
1433891837.362,-35.805855
1433891837.378,-46.44211
1433891837.394,-55.736687
1433891837.409,-63.95072
1433891837.425,-71.03154
1433891837.44,-76.563255
1433891837.456,-80.018234
1433891837.472,-81.150795
1433891837.487,-80.18367
1433891837.503,-77.7144
1433891837.519,-74.44028
1433891837.534,-70.89062
1433891837.55,-67.352036
1433891837.565,-63.9133
1433891837.581,-60.464745
1433891837.597,-56.704422
1433891837.612,-52.14338
1433891837.628,-46.324165
1433891837.644,-39.03663
1433891837.659,-30.586098
1433891837.675,-21.82241
1433891837.69,-13.900673
1433891837.706,-7.8469925
1433891837.722,-4.2156067
1433891837.737,-2.9196396
1433891837.753,-3.4083672
1433891837.769,-4.9743996
1433891837.784,-7.0272217
1433891837.8,-9.222385
1433891837.815,-11.396992
1433891837.831,-13.415726
1433891837.847,-15.089779
1433891837.862,-16.164295
1433891837.878,-16.40357
1433891837.894,-15.622858
1433891837.909,-13.767595
1433891837.925,-10.871262
1433891837.94,-7.0882483
1433891837.956,-2.6809387
1433891837.972,1.9771376
1433891837.987,6.4687247
1433891838.003,10.431642
1433891838.019,13.687128
1433891838.034,16.330761
1433891838.05,18.709654
1433891838.065,21.216719
1433891838.081,24.148996
1433891838.097,27.521791
1433891838.112,31.134441
1433891838.128,34.65326
1433891838.144,37.805042
1433891838.159,40.442654
1433891838.175,42.56941
1433891838.19,44.214104
1433891838.206,45.398838
1433891838.222,46.112236
1433891838.237,46.33442
1433891838.253,46.05111
1433891838.269,45.249832
1433891838.284,43.848915
1433891838.3,41.6531
1433891838.315,38.455643
1433891838.331,34.21309
1433891838.347,29.167229
1433891838.362,23.894844
1433891838.378,19.041832
1433891838.394,15.031364
1433891838.409,11.786186
1433891838.425,8.778633
1433891838.44,5.2449417
1433891838.456,0.6109772
1433891838.472,-5.262306
1433891838.487,-12.028938
1433891838.503,-19.08374
1433891838.519,-25.819153
1433891838.534,-31.834717
1433891838.55,-36.873993
1433891838.565,-40.733643
1433891838.581,-43.18062
1433891838.597,-43.994446
1433891838.612,-43.15016
1433891838.628,-40.918106
1433891838.644,-37.835953
1433891838.659,-34.522476
1433891838.675,-31.365036
1433891838.69,-28.452484
1433891838.706,-25.50827
1433891838.722,-22.077896
1433891838.737,-17.676025
1433891838.753,-11.931122
1433891838.769,-4.6167755
1433891838.784,4.301178
1433891838.8,14.686432
1433891838.816,26.170471
1433891838.831,38.135345
1433891838.847,49.73871
1433891838.862,60.06714
1433891838.878,68.29736
1433891838.894,73.902756
1433891838.909,76.76305
1433891838.925,77.176895
1433891838.94,75.74771
1433891838.956,73.21977
1433891838.972,70.29704
1433891838.987,67.521286
1433891839.003,65.244675
1433891839.019,63.603195
1433891839.034,62.537308
1433891839.05,61.830795
1433891839.066,61.072113
1433891839.081,59.732117
1433891839.097,57.20027
1433891839.112,52.98935
1433891839.128,46.867767
1433891839.144,39.04361
1433891839.159,30.066559
1433891839.175,20.757126
1433891839.191,11.850082
1433891839.206,3.8352203
1433891839.222,-3.1282806
1433891839.237,-9.109955
1433891839.253,-14.184845
1433891839.269,-18.319931
1433891839.284,-21.382874
1433891839.3,-23.264267
1433891839.316,-24.078354
1433891839.331,-24.1604
1433891839.347,-23.97882
1433891839.362,-23.864746
1433891839.378,-23.889648
1433891839.394,-23.868637
1433891839.409,-23.574768
1433891839.425,-22.911743
1433891839.441,-22.079895
1433891839.456,-21.428635
1433891839.472,-21.275696
1433891839.487,-21.703812
1433891839.503,-22.518127
1433891839.519,-23.363785
1433891839.534,-23.934052
1433891839.55,-24.147476
1433891839.566,-24.163055
1433891839.581,-24.231842
1433891839.597,-24.534698
1433891839.612,-24.981369
1433891839.628,-25.237656
1433891839.644,-24.838379
1433891839.659,-23.423203
1433891839.675,-20.884506
1433891839.691,-17.427795
1433891839.706,-13.504776
1433891839.722,-9.568954
1433891839.737,-5.9522247
1433891839.753,-2.7407227
1433891839.769,0.20568848
1433891839.784,3.1616974
1433891839.8,6.4502106
1433891839.816,10.359573
1433891839.831,15.057587
1433891839.847,20.494797
1433891839.862,26.328522
1433891839.878,31.831436
1433891839.894,35.981613
1433891839.909,37.682205
1433891839.925,36.181442
1433891839.941,31.354141
1433891839.956,23.895065
1433891839.972,15.090683
1433891839.987,6.4285583
1433891840.003,-0.9624481
1433891840.019,-6.603241
1433891840.034,-10.683502
1433891840.05,-13.736221
1433891840.066,-16.231857
1433891840.081,-18.325195
1433891840.097,-19.943848
1433891840.112,-21.031158
1433891840.128,-21.873367
1433891840.144,-23.099808
1433891840.159,-25.425537
1433891840.175,-29.293625
1433891840.191,-34.615433
1433891840.206,-40.78708
1433891840.222,-47.018402
1433891840.237,-52.54634
1433891840.253,-56.851456
1433891840.269,-59.585632
1433891840.284,-60.42755
1433891840.3,-59.049652
1433891840.316,-55.210236
1433891840.331,-48.947952
1433891840.347,-40.73735
1433891840.362,-31.44635
1433891840.378,-22.083374
1433891840.394,-13.53392
1433891840.409,-6.286865
1433891840.425,-0.41046143
1433891840.441,4.345001
1433891840.456,8.342972
1433891840.472,11.863205
1433891840.487,15.064514
1433891840.503,17.9729
1433891840.519,20.61943
1433891840.534,23.080322
1433891840.55,25.508057
1433891840.566,28.030777
1433891840.581,30.661789
1433891840.597,33.205658
1433891840.612,35.35727
1433891840.628,36.86241
1433891840.644,37.622604
1433891840.659,37.822617
1433891840.675,37.80435
1433891840.691,37.815582
1433891840.706,37.83011
1433891840.722,37.4097
1433891840.737,35.95862
1433891840.753,32.99411
1433891840.769,28.490936
1433891840.784,22.907074
1433891840.8,17.039398
1433891840.816,11.639191
1433891840.831,7.119385
1433891840.847,3.4394226
1433891840.862,0.27038574
1433891840.878,-2.7171936
1433891840.894,-5.66626
1433891840.909,-8.425049
1433891840.925,-10.712006
1433891840.941,-12.338654
1433891840.956,-13.346283
1433891840.972,-14.057922
1433891840.987,-14.901123
1433891841.003,-16.221771
1433891841.019,-18.137604
1433891841.034,-20.509277
1433891841.05,-22.968567
1433891841.066,-25.106964
1433891841.081,-26.615387
1433891841.097,-27.401184
1433891841.112,-27.588379
1433891841.128,-27.404175
1433891841.144,-27.013824
1433891841.159,-26.398865
1433891841.175,-25.356964
1433891841.191,-23.65802
1433891841.206,-21.196991
1433891841.222,-18.155457
1433891841.237,-14.901306
1433891841.253,-11.879608
1433891841.269,-9.375732
1433891841.284,-7.4736633
1433891841.3,-6.023224
1433891841.316,-4.798004
1433891841.331,-3.5588684
1433891841.347,-2.143982
1433891841.362,-0.455719
1433891841.378,1.5210571
1433891841.394,3.7158508
1433891841.409,5.9314575
1433891841.425,7.958008
1433891841.441,9.635864
1433891841.456,11.048004
1433891841.472,12.522858
1433891841.488,14.56485
1433891841.503,17.6008
1433891841.519,21.73816
1433891841.534,26.564789
1433891841.55,31.266632
1433891841.566,34.81967
1433891841.581,36.330994
1433891841.597,35.316742
1433891841.612,31.834808
1433891841.628,26.417786
1433891841.644,19.940765
1433891841.659,13.332794
1433891841.675,7.445801
1433891841.691,2.8119812
1433891841.706,-0.33764648
1433891841.722,-2.109314
1433891841.738,-2.808075
1433891841.753,-2.8447266
1433891841.769,-2.590332
1433891841.784,-2.2936707
1433891841.8,-2.0426636
1433891841.816,-1.7685242
1433891841.831,-1.3205261
1433891841.847,-0.50982666
1433891841.863,0.7692871
1433891841.878,2.4764404
1433891841.894,4.4688416
1433891841.909,6.4611206
1433891841.925,8.127228
1433891841.941,9.129395
1433891841.956,9.227509
1433891841.972,8.326874
1433891841.988,6.5445557
1433891842.003,4.1800537
1433891842.019,1.6539307
1433891842.034,-0.651062
1433891842.05,-2.5021362
1433891842.066,-3.8707886
1433891842.081,-4.8804016
1433891842.097,-5.6466675
1433891842.113,-6.19812
1433891842.128,-6.404602
1433891842.144,-6.140167
1433891842.159,-5.421875
1433891842.175,-4.4303284
1433891842.191,-3.5593567
1433891842.206,-3.0384827
1433891842.222,-2.9780884
1433891842.238,-3.0383606
1433891842.253,-2.7229614
1433891842.269,-1.464508
1433891842.284,0.9954834
1433891842.3,4.531067
1433891842.316,8.726959
1433891842.331,13.157623
1433891842.347,17.559845
1433891842.363,21.948547
1433891842.378,26.32785
1433891842.394,30.561768
1433891842.409,34.188446
1433891842.425,36.64676
1433891842.441,37.475983
1433891842.456,36.765594
1433891842.472,35.088715
1433891842.488,33.247223
1433891842.503,31.645447
1433891842.519,29.981445
1433891842.534,27.4534
1433891842.55,23.567322
1433891842.566,18.813019
1433891842.581,14.70459
1433891842.597,13.013245
1433891842.613,14.543182
1433891842.628,18.384369
1433891842.644,22.207916
1433891842.659,23.432678
1433891842.675,20.675049
1433891842.691,14.386444
1433891842.706,6.6768494
1433891842.722,-0.12261963
1433891842.738,-4.4383545
1433891842.753,-6.2611694
1433891842.769,-6.5671997
1433891842.784,-6.496582
1433891842.8,-6.663727
1433891842.816,-7.037964
1433891842.831,-7.3294067
1433891842.847,-7.5056458
1433891842.863,-7.85907
1433891842.878,-8.812134
1433891842.894,-10.496185
1433891842.909,-12.665955
1433891842.925,-14.622467
1433891842.941,-15.679382
1433891842.956,-15.266876
1433891842.972,-13.410828
1433891842.988,-10.497162
1433891843.003,-7.3105164
1433891843.019,-4.64386
1433891843.034,-2.884369
1433891843.05,-1.624054
1433891843.066,0.2566223
1433891843.081,4.0362244
1433891843.097,10.300903
1433891843.113,18.361115
1433891843.128,26.289825
1433891843.144,31.730743
1433891843.159,33.008545
1433891843.175,30.063782
1433891843.191,24.536377
1433891843.206,19.021118
1433891843.222,15.953125
1433891843.238,16.645935
1433891843.253,20.950806
1433891843.269,27.489563
1433891843.284,34.241425
1433891843.3,39.20337
1433891843.316,41.010742
1433891843.331,39.391174
1433891843.347,35.3385
1433891843.363,30.851868
1433891843.378,28.166962
1433891843.394,28.831543
1433891843.409,32.82071
1433891843.425,38.680237
1433891843.441,44.21344
1433891843.456,47.776917
1433891843.472,49.07367
1433891843.488,49.481934
1433891843.503,51.39795
1433891843.519,57.103607
1433891843.534,67.82388
1433891843.55,83.16232
1433891843.566,101.025055
1433891843.581,117.89224
1433891843.597,129.39136
1433891843.613,131.16843
1433891843.628,120.15204
1433891843.644,95.94891
1433891843.659,61.413025
1433891843.675,22.328384
1433891843.691,-14.227509
1433891843.706,-42.10742
1433891843.722,-58.011047
1433891843.738,-62.286728
1433891843.753,-58.243362
1433891843.769,-50.461792
1433891843.784,-42.989334
1433891843.8,-38.25142
1433891843.816,-36.91678
1433891843.831,-38.517532
1433891843.847,-42.183395
1433891843.863,-47.09166
1433891843.878,-52.583893
1433891843.894,-58.012695
1433891843.909,-62.738297
1433891843.925,-66.23122
1433891843.941,-68.22351
1433891843.956,-68.79259
1433891843.972,-68.362854
1433891843.988,-67.58112
1433891844.003,-67.07095
1433891844.019,-67.230995
1433891844.034,-68.08862
1433891844.05,-69.17994
1433891844.066,-69.80415
1433891844.081,-69.333206
1433891844.097,-67.601555
1433891844.113,-65.12014
1433891844.128,-63.004395
1433891844.144,-62.541595
1433891844.159,-64.632484
1433891844.175,-69.34432
1433891844.191,-75.83067
1433891844.206,-82.67928
1433891844.222,-88.41935
1433891844.238,-92.06078
1433891844.253,-93.33136
1433891844.269,-92.64229
1433891844.284,-90.656525
1433891844.3,-87.95644
1433891844.316,-84.82755
1433891844.331,-81.25195
1433891844.347,-77.11639
1433891844.363,-72.44809
1433891844.378,-67.56224
1433891844.394,-62.953285
1433891844.41,-59.09616
1433891844.425,-56.201096
1433891844.441,-54.2043
1433891844.456,-52.76819
1433891844.472,-51.384865
1433891844.488,-49.53679
1433891844.503,-46.91478
1433891844.519,-43.515984
1433891844.535,-39.648735
1433891844.55,-35.660484
1433891844.566,-31.704788
1433891844.581,-27.55162
1433891844.597,-22.84407
1433891844.613,-17.553375
1433891844.628,-12.4631195
1433891844.644,-9.149719
1433891844.66,-9.314178
1433891844.675,-13.540588
1433891844.691,-20.591324
1433891844.706,-27.623795
1433891844.722,-31.527573
1433891844.738,-30.637604
1433891844.753,-25.605484
1433891844.769,-18.825226
1433891844.785,-12.60173
1433891844.8,-7.3782043
1433891844.816,-1.3352814
1433891844.831,8.425201
1433891844.847,23.732437
1433891844.863,43.775772
1433891844.878,65.10202
1433891844.894,83.27165
1433891844.91,95.01503
1433891844.925,99.82968
1433891844.941,99.8479
1433891844.956,98.45947
1433891844.972,98.5459
1433891844.988,101.38907
1433891845.003,106.63541
1433891845.019,113.180725
1433891845.035,120.15231
1433891845.05,127.46478
1433891845.066,135.56793
1433891845.081,144.95724
1433891845.097,155.40894
1433891845.113,165.7175
1433891845.128,173.85367
1433891845.144,177.59119
1433891845.16,175.16626
1433891845.175,166.07019
1433891845.191,151.30817
1433891845.206,133.18347
1433891845.222,114.583954
1433891845.238,98.038055
1433891845.253,84.97711
1433891845.269,75.59842
1433891845.285,69.21947
1433891845.3,65.043625
1433891845.316,62.7213
1433891845.331,62.40439
1433891845.347,64.311005
1433891845.363,68.13072
1433891845.378,72.711136
1433891845.394,76.32858
1433891845.41,77.252396
1433891845.425,74.341934
1433891845.441,67.30243
1433891845.456,56.64688
1433891845.472,43.489746
1433891845.488,29.352844
1433891845.503,16.033188
1433891845.519,5.333908
1433891845.535,-1.3925476
1433891845.55,-3.679512
1433891845.566,-2.2008743
1433891845.581,1.4516754
1433891845.597,5.333992
1433891845.613,7.851486
1433891845.628,8.170326
1433891845.644,6.2253723
1433891845.66,2.3873978
1433891845.675,-2.9880981
1433891845.691,-9.854603
1433891845.706,-18.528791
1433891845.722,-29.417469
1433891845.738,-42.580894
1433891845.753,-57.335114
1433891845.769,-72.228065
1433891845.785,-85.51692
1433891845.8,-95.91253
1433891845.816,-103.21605
1433891845.831,-108.3197
1433891845.847,-112.61954
1433891845.863,-117.168
1433891845.878,-122.11952
1433891845.894,-126.76057
1433891845.91,-130.03397
1433891845.925,-131.1622
1433891845.941,-129.96277
1433891845.956,-126.771034
1433891845.972,-122.14354
1433891845.988,-116.75874
1433891846.003,-111.43562
1433891846.019,-107.0004
1433891846.035,-103.99849
1433891846.05,-102.257576
1433891846.066,-100.79766
1433891846.081,-98.26071
1433891846.097,-93.77449
1433891846.113,-87.486725
1433891846.128,-80.48491
1433891846.144,-74.0844
1433891846.16,-68.91138
1433891846.175,-64.56183
1433891846.191,-59.938522
1433891846.206,-53.967194
1433891846.222,-46.242493
1433891846.238,-37.096893
1433891846.253,-27.255981
1433891846.269,-17.41188
1433891846.285,-8.051224
1433891846.3,0.42088318
1433891846.316,7.5186462
1433891846.331,12.647903
1433891846.347,15.397919
1433891846.363,15.741501
1433891846.378,14.065063
1433891846.394,10.965439
1433891846.41,6.986801
1433891846.425,2.5266418
1433891846.441,-2.0511932
1433891846.456,-6.34214
1433891846.472,-9.884781
1433891846.488,-12.376404
1433891846.503,-13.769814
1433891846.519,-14.3242035
1433891846.535,-14.402214
1433891846.55,-14.175491
1433891846.566,-13.530869
1433891846.581,-12.21476
1433891846.597,-10.171181
1433891846.613,-7.800377
1433891846.628,-6.095772
1433891846.644,-6.3288803
1433891846.66,-9.624825
1433891846.675,-16.359383
1433891846.691,-25.688972
1433891846.706,-35.502464
1433891846.722,-42.852966
1433891846.738,-44.936237
1433891846.753,-40.210594
1433891846.769,-29.295471
1433891846.785,-14.834789
1433891846.8,-0.57196045
1433891846.816,10.036797
1433891846.831,14.987967
1433891846.847,13.949217
1433891846.863,7.504963
1433891846.878,-3.7698135
1433891846.894,-19.546412
1433891846.91,-39.04771
1433891846.925,-60.043633
1433891846.941,-78.58872
1433891846.956,-89.90168
1433891846.972,-90.276825
1433891846.988,-78.838165
1433891847.003,-57.97518
1433891847.019,-32.337967
1433891847.035,-6.82065
1433891847.05,15.178944
1433891847.066,32.454754
1433891847.082,45.456234
1433891847.097,55.23698
1433891847.113,62.6357
1433891847.128,67.98723
1433891847.144,71.46263
1433891847.16,73.3206
1433891847.175,74.05038
1433891847.191,74.22171
1433891847.207,74.32534
1433891847.222,74.644615
1433891847.238,75.31003
1433891847.253,76.33639
1433891847.269,77.52089
1433891847.285,78.45705
1433891847.3,78.70899
1433891847.316,77.85238
1433891847.332,75.59768
1433891847.347,71.82328
1433891847.363,66.51547
1433891847.378,59.722054
1433891847.394,51.590866
1433891847.41,42.365746
1433891847.425,32.519463
1433891847.441,22.711868
1433891847.457,13.71534
1433891847.472,6.2388687
1433891847.488,0.78954315
1433891847.503,-2.5437546
1433891847.519,-4.051758
1433891847.535,-4.321602
1433891847.55,-3.9894485
1433891847.566,-3.5527802
1433891847.582,-3.211029
1433891847.597,-2.9064636
1433891847.613,-2.4093018
1433891847.628,-1.512085
1433891847.644,-0.13710022
1433891847.66,1.6225891
1433891847.675,3.5670166
1433891847.691,5.427063
1433891847.707,6.9548492
1433891847.722,7.942749
1433891847.738,8.246521
1433891847.753,7.8116455
1433891847.769,6.7725525
1433891847.785,5.4175034
1433891847.8,4.1425247
1433891847.816,3.2959976
1433891847.832,3.0989761
1433891847.847,3.532814
1433891847.863,4.4612274
1433891847.878,5.681595
1433891847.894,7.0503235
1433891847.91,8.493492
1433891847.925,10.006248
1433891847.941,11.541595
1433891847.957,13.033646
1433891847.972,14.388763
1433891847.988,15.591644
1433891848.003,16.684006
1433891848.019,17.721123
1433891848.035,18.647942
1433891848.05,19.233292
1433891848.066,19.091957
1433891848.082,17.815262
1433891848.097,15.2011795
1433891848.113,11.409142
1433891848.128,6.9565964
1433891848.144,2.5693054
1433891848.16,-1.0872879
1433891848.175,-3.633728
1433891848.191,-5.0531616
1433891848.207,-5.614456
1433891848.222,-5.71682
1433891848.238,-5.6737213
1433891848.253,-5.6679
1433891848.269,-5.7632523
1433891848.285,-6.0177536
1433891848.3,-6.557808
1433891848.316,-7.5897293
1433891848.332,-9.269318
1433891848.347,-11.598328
1433891848.363,-14.307533
1433891848.378,-16.92237
1433891848.394,-18.877846
1433891848.41,-19.751564
1433891848.425,-19.37725
1433891848.441,-17.904427
1433891848.457,-15.6798935
1433891848.472,-13.086739
1433891848.488,-10.415298
1433891848.503,-7.7917633
1433891848.519,-5.1840057
1433891848.535,-2.5318298
1433891848.55,0.19275665
1433891848.566,2.8984222
1433891848.582,5.40757
1433891848.597,7.4858475
1433891848.613,9.012657
1433891848.628,9.95005
1433891848.644,10.417915
1433891848.66,10.622078
1433891848.675,10.782166
1433891848.691,11.060768
1433891848.707,11.586895
1433891848.722,12.430168
1433891848.738,13.639416
1433891848.753,15.165363
1433891848.769,16.825996
1433891848.785,18.26538
1433891848.8,19.042213
1433891848.816,18.744762
1433891848.832,17.198563
1433891848.847,14.514652
1433891848.863,11.153011
1433891848.878,7.6648636
1433891848.894,4.528023
1433891848.91,1.9681969
1433891848.925,-0.096530914
1433891848.941,-1.9543571
1433891848.957,-3.8962212
1433891848.972,-6.0813446
1433891848.988,-8.473446
1433891849.003,-10.905975
1433891849.019,-13.140301
1433891849.035,-15.01215
1433891849.05,-16.420036
1433891849.066,-17.307623
1433891849.082,-17.623579
1433891849.097,-17.331837
1433891849.113,-16.412727
1433891849.128,-15.000612
1433891849.144,-13.305033
1433891849.16,-11.625355
1433891849.175,-10.203077
1433891849.191,-9.15708
1433891849.207,-8.502045
1433891849.222,-8.150213
1433891849.238,-8.0108795
1433891849.253,-7.9917564
1433891849.269,-7.99994
1433891849.285,-7.888301
1433891849.3,-7.467374
1433891849.316,-6.551079
1433891849.332,-4.9934673
1433891849.347,-2.8378582
1433891849.363,-0.2657485
1433891849.378,2.3885303
1433891849.394,4.807464
1433891849.41,6.7719393
1433891849.425,8.252924
1433891849.441,9.362289
1433891849.457,10.358698
1433891849.472,11.511093
1433891849.488,13.043186
1433891849.503,15.00077
1433891849.519,17.264286
1433891849.535,19.444004
1433891849.55,21.007591
1433891849.566,21.377083
1433891849.582,20.140133
1433891849.597,17.213375
1433891849.613,12.93461
1433891849.628,7.9517117
1433891849.644,3.0365868
1433891849.66,-1.1831341
1433891849.675,-4.3888435
1433891849.691,-6.5915375
1433891849.707,-8.020159
1433891849.722,-8.940344
1433891849.738,-9.536285
1433891849.754,-9.904936
1433891849.769,-10.092222
1433891849.785,-10.129852
1433891849.8,-10.088572
1433891849.816,-10.087349
1433891849.832,-10.244598
1433891849.847,-10.678036
1433891849.863,-11.465487
1433891849.878,-12.597706
1433891849.894,-13.991051
1433891849.91,-15.439995
1433891849.925,-16.685112
1433891849.941,-17.431904
1433891849.957,-17.4836
1433891849.972,-16.776207
1433891849.988,-15.339413
1433891850.004,-13.298336
1433891850.019,-10.722092
1433891850.035,-7.6685143
1433891850.05,-4.1777954
1433891850.066,-0.33651352
1433891850.082,3.7117004
1433891850.097,7.7323112
1433891850.113,11.519138
1433891850.129,14.9143715
1433891850.144,17.798534
1433891850.16,20.104073
1433891850.175,21.757732
1433891850.191,22.77375
1433891850.207,23.311413
1433891850.222,23.757324
1433891850.238,24.640343
1433891850.254,26.44992
1433891850.269,29.358467
1433891850.285,33.016212
1433891850.3,36.64714
1433891850.316,39.259514
1433891850.332,40.021873
1433891850.347,38.556717
1433891850.363,35.000244
1433891850.379,29.836983
1433891850.394,23.690842
1433891850.41,17.104698
1433891850.425,10.469231
1433891850.441,4.0390778
1433891850.457,-1.9880829
1433891850.472,-7.462372
1433891850.488,-12.260376
1433891850.504,-16.33152
1433891850.519,-19.674698
1433891850.535,-22.33879
1433891850.55,-24.388596
1433891850.566,-25.905289
1433891850.582,-26.92382
1433891850.597,-27.495522
1433891850.613,-27.636978
1433891850.629,-27.343758
1433891850.644,-26.583565
1433891850.66,-25.350288
1433891850.675,-23.63794
1433891850.691,-21.46701
1433891850.707,-18.865051
1433891850.722,-15.870293
1433891850.738,-12.536728
1433891850.754,-8.99588
1433891850.769,-5.5071564
1433891850.785,-2.4521942
1433891850.8,-0.2509613
1433891850.816,0.7866211
1433891850.832,0.64367676
1433891850.847,-0.3312378
1433891850.863,-1.4571686
1433891850.879,-1.9188385
1433891850.894,-1.0103912
1433891850.91,1.6540985
1433891850.925,6.0339203
1433891850.941,11.647125
1433891850.957,17.730896
1433891850.972,23.355011
1433891850.988,27.612228
1433891851.004,29.716919
1433891851.019,29.247253
1433891851.035,26.216461
1433891851.05,21.138245
1433891851.066,14.917221
1433891851.082,8.628738
1433891851.097,3.2013245
1433891851.113,-0.8052826
1433891851.129,-3.312729
1433891851.144,-4.581604
1433891851.16,-5.0980225
1433891851.175,-5.3805847
1433891851.191,-5.882675
1433891851.207,-6.894943
1433891851.222,-8.583313
1433891851.238,-10.914886
1433891851.254,-13.696899
1433891851.269,-16.623566
1433891851.285,-19.328552
1433891851.3,-21.46788
1433891851.316,-22.750793
1433891851.332,-22.974548
1433891851.347,-22.04689
1433891851.363,-20.06688
1433891851.379,-17.355011
1433891851.394,-14.407867
1433891851.41,-11.815811
1433891851.425,-10.010849
1433891851.441,-9.149765
1433891851.457,-9.04924
1433891851.472,-9.2845
1433891851.488,-9.382248
1433891851.504,-9.00708
1433891851.519,-8.00264
1433891851.535,-6.377228
1433891851.55,-4.2124634
1433891851.566,-1.6523743
1433891851.582,1.1358032
1433891851.597,3.9695435
1433891851.613,6.7145996
1433891851.629,9.332031
1433891851.644,11.929565
1433891851.66,14.705399
1433891851.675,17.810028
1433891851.691,21.21814
1433891851.707,24.616425
1433891851.722,27.440948
1433891851.738,29.054672
1433891851.754,28.891861
1433891851.769,26.705032
1433891851.785,22.611404
1433891851.8,17.105072
1433891851.816,10.920273
1433891851.832,4.8226013
1433891851.847,-0.56555176
1433891851.863,-4.89682
1433891851.879,-8.10257
1433891851.894,-10.306427
1433891851.91,-11.691132
1433891851.925,-12.352509
1433891851.941,-12.340912
1433891851.957,-11.679016
1433891851.972,-10.51001
1433891851.988,-9.160675
1433891852.004,-8.08136
1433891852.019,-7.732605
1433891852.035,-8.43927
1433891852.05,-10.28064
1433891852.066,-13.114716
1433891852.082,-16.63736
1433891852.097,-20.458313
1433891852.113,-24.135529
1433891852.129,-27.21341
1433891852.144,-29.236023
1433891852.16,-29.817352
1433891852.175,-28.779968
1433891852.191,-26.22406
1433891852.207,-22.540833
1433891852.222,-18.329956
1433891852.238,-14.213379
1433891852.254,-10.636047
1433891852.269,-7.754669
1433891852.285,-5.4313354
1433891852.3,-3.3457642
1433891852.316,-1.1914978
1433891852.332,1.2392273
1433891852.347,3.9429321
1433891852.363,6.7652283
1433891852.379,9.471558
1433891852.394,11.894714
1433891852.41,13.9782715
1433891852.426,15.858643
1433891852.441,17.80481
1433891852.457,20.143524
1433891852.472,23.065765
1433891852.488,26.499481
1433891852.504,29.983063
1433891852.519,32.74768
1433891852.535,33.911377
1433891852.55,32.757233
1433891852.566,28.990723
1433891852.582,22.847626
1433891852.597,15.024017
1433891852.613,6.4708557
1433891852.629,-1.9100342
1433891852.644,-9.430847
1433891852.66,-15.7690735
1433891852.676,-20.869232
1433891852.691,-24.84665
1433891852.707,-27.822693
1433891852.722,-29.853027
1433891852.738,-30.935608
1433891852.754,-31.070831
1433891852.769,-30.393768
1433891852.785,-29.186798
1433891852.801,-27.820465
1433891852.816,-26.678436
1433891852.832,-25.998016
1433891852.847,-25.792603
1433891852.863,-25.886353
1433891852.879,-25.956116
1433891852.894,-25.673065
1433891852.91,-24.80899
1433891852.926,-23.33014
1433891852.941,-21.4292
1433891852.957,-19.453033
1433891852.972,-17.776886
1433891852.988,-16.561096
1433891853.004,-15.707062
1433891853.019,-14.758667
1433891853.035,-13.207855
1433891853.051,-10.664307
1433891853.066,-7.101074
1433891853.082,-2.7877197
1433891853.097,1.9071045
1433891853.113,6.5958557
1433891853.129,10.817688
1433891853.144,13.905762
1433891853.16,15.143219
1433891853.176,14.162231
1433891853.191,11.436859
1433891853.207,8.471039
1433891853.222,7.311859
1433891853.238,9.592133
1433891853.254,15.610352
1433891853.269,24.042877
1433891853.285,32.484802
1433891853.301,38.618134
1433891853.316,41.23065
1433891853.332,40.547028
1433891853.347,37.69867
1433891853.363,33.834106
1433891853.379,29.454865
1433891853.394,24.446014
1433891853.41,18.52884
1433891853.426,11.940887
1433891853.441,5.552704
1433891853.457,0.61117554
1433891853.472,-1.9239502
1433891853.488,-1.756134
1433891853.504,0.5022888
1433891853.519,3.7138062
1433891853.535,6.60141
1433891853.551,8.142853
1433891853.566,7.6217346
1433891853.582,4.598358
1433891853.597,-1.0701904
1433891853.613,-8.960175
1433891853.629,-17.84436
1433891853.644,-25.802551
1433891853.66,-30.74701
1433891853.676,-31.182098
1433891853.691,-26.934174
1433891853.707,-19.329834
1433891853.722,-10.762909
1433891853.738,-3.7048035
1433891853.754,0.175354
1433891853.769,0.624115
1433891853.785,-1.3917236
1433891853.801,-4.295288
1433891853.816,-6.685089
1433891853.832,-7.8464355
1433891853.847,-7.8405457
1433891853.863,-7.249176
1433891853.879,-6.728241
1433891853.894,-6.6307983
1433891853.91,-6.8900146
1433891853.926,-7.0481873
1433891853.941,-6.60376
1433891853.957,-5.2196045
1433891853.972,-2.9273071
1433891853.988,-5.493164E-4
1433891854.004,3.1932983
1433891854.019,6.3191833
1433891854.035,9.075104
1433891854.051,11.132507
1433891854.066,12.098297
1433891854.082,11.621246
1433891854.097,9.439819
1433891854.113,5.5365906
1433891854.129,0.17102051
1433891854.144,-6.2068787
1433891854.16,-13.077881
1433891854.176,-19.949402
1433891854.191,-26.4552
1433891854.207,-32.271973
1433891854.222,-37.22232
1433891854.238,-41.126373
1433891854.254,-43.843384
1433891854.269,-45.220154
1433891854.285,-45.110565
1433891854.301,-43.432526
1433891854.316,-40.22357
1433891854.332,-35.70175
1433891854.347,-30.299133
1433891854.363,-24.649048
1433891854.379,-19.573975
1433891854.394,-15.905792
1433891854.41,-14.279083
1433891854.426,-14.932404
1433891854.441,-17.641052
1433891854.457,-21.576752
1433891854.472,-25.711304
1433891854.488,-28.972504
1433891854.504,-30.614258
1433891854.519,-30.401459
1433891854.535,-28.603058
1433891854.551,-25.73471
1433891854.566,-22.18512
1433891854.582,-17.946655
1433891854.597,-12.665619
1433891854.613,-6.0276184
1433891854.629,1.8150635
1433891854.644,10.057983
1433891854.66,17.36325
1433891854.676,22.464752
1433891854.691,24.712921
1433891854.707,24.468384
1433891854.722,22.751495
1433891854.738,20.859833
1433891854.754,19.813416
1433891854.769,20.193695
1433891854.785,22.308136
1433891854.801,26.364166
1433891854.816,32.412872
1433891854.832,39.980682
1433891854.847,47.67874
1433891854.863,53.32379
1433891854.879,54.583282
1433891854.894,50.032135
1433891854.91,39.955658
1433891854.926,26.408905
1433891854.941,12.293304
1433891854.957,0.346344
1433891854.972,-8.020294
1433891854.988,-12.873535
1433891855.004,-15.309814
1433891855.019,-16.536743
1433891855.035,-17.293518
1433891855.051,-17.65091
1433891855.066,-17.365692
1433891855.082,-16.351868
1433891855.097,-14.9039
1433891855.113,-13.599609
1433891855.129,-13.023773
1433891855.144,-13.352325
1433891855.16,-14.307587
1433891855.176,-15.340332
1433891855.191,-15.950775
1433891855.207,-15.885742
1433891855.222,-15.302002
1433891855.238,-14.540955
1433891855.254,-13.958374
1433891855.269,-13.716461
1433891855.285,-13.737457
1433891855.301,-13.755463
1433891855.316,-13.500244
1433891855.332,-12.753906
1433891855.348,-11.4635315
1433891855.363,-9.67009
1433891855.379,-7.469101
1433891855.394,-4.9578247
1433891855.41,-2.2319794
1433891855.426,0.64286804
1433891855.441,3.5984802
1433891855.457,6.5775604
1433891855.473,9.524948
1433891855.488,12.414047
1433891855.504,15.231171
1433891855.519,18.013824
1433891855.535,20.854721
1433891855.551,23.886688
1433891855.566,27.202728
1433891855.582,30.73816
1433891855.598,34.138214
1433891855.613,36.77916
1433891855.629,37.83922
1433891855.644,36.629898
1433891855.66,32.81688
1433891855.676,26.669312
1433891855.691,19.046524
1433891855.707,11.139099
1433891855.723,4.1625977
1433891855.738,-1.0377502
1433891855.754,-4.1298523
1433891855.769,-5.330063
1433891855.785,-5.228897
1433891855.801,-4.5289764
1433891855.816,-3.925064
1433891855.832,-3.9017181
1433891855.848,-4.7724457
1433891855.863,-6.610962
1433891855.879,-9.302719
1433891855.894,-12.510193
1433891855.91,-15.777649
1433891855.926,-18.541397
1433891855.941,-20.293747
1433891855.957,-20.651321
1433891855.973,-19.51619
1433891855.988,-17.068573
1433891856.004,-13.814133
1433891856.019,-10.45401
1433891856.035,-7.708374
1433891856.051,-6.143921
1433891856.066,-6.013077
1433891856.082,-7.2041626
1433891856.098,-9.3155365
1433891856.113,-11.737076
1433891856.129,-13.802353
1433891856.144,-14.856308
1433891856.16,-14.319702
1433891856.176,-11.773651
1433891856.191,-7.114334
1433891856.207,-0.6504822
1433891856.223,6.8517
1433891856.238,14.256897
1433891856.254,20.332474
1433891856.269,24.126328
1433891856.285,25.245773
1433891856.301,24.037766
1433891856.316,21.472717
1433891856.332,18.864395
1433891856.348,17.426163
1433891856.363,17.870255
1433891856.379,20.135757
1433891856.394,23.44905
1433891856.41,26.571564
1433891856.426,28.269394
1433891856.441,27.719864
1433891856.457,24.789474
1433891856.473,19.918823
1433891856.488,13.953232
1433891856.504,7.7796173
1433891856.519,2.0894775
1433891856.535,-2.6696014
1433891856.551,-6.2474976
1433891856.566,-8.536331
1433891856.582,-9.4767
1433891856.598,-9.155182
1433891856.613,-7.815216
1433891856.629,-5.8752747
1433891856.644,-3.81781
1433891856.66,-2.1119385
1433891856.676,-1.0632019
1433891856.691,-0.78564453
1433891856.707,-1.2180862
1433891856.723,-2.1788254
1433891856.738,-3.448944
1433891856.754,-4.841667
1433891856.769,-6.187248
1433891856.785,-7.340309
1433891856.801,-8.112289
1433891856.816,-8.2688675
1433891856.832,-7.555084
1433891856.848,-5.8330765
1433891856.863,-3.1599045
1433891856.879,0.10421753
1433891856.894,3.4183502
1433891856.91,6.207039
1433891856.926,8.104645
1433891856.941,9.012604
1433891856.957,9.155289
1433891856.973,8.863365
1433891856.988,8.469643
1433891857.004,8.203056
1433891857.019,8.219322
1433891857.035,8.643364
1433891857.051,9.578056
1433891857.066,11.016838
1433891857.082,12.790161
1433891857.098,14.49276
1433891857.113,15.61055
1433891857.129,15.648407
1433891857.144,14.340904
1433891857.16,11.635185
1433891857.176,7.706093
1433891857.191,2.7877197
1433891857.207,-2.8238678
1433891857.223,-8.81694
1433891857.238,-14.791428
1433891857.254,-20.271736
1433891857.269,-24.758186
1433891857.285,-27.891457
1433891857.301,-29.551392
1433891857.316,-29.892769
1433891857.332,-29.241447
1433891857.348,-27.98468
1433891857.363,-26.426674
1433891857.379,-24.809158
1433891857.394,-23.266647
1433891857.41,-21.941086
1433891857.426,-20.967163
1433891857.441,-20.456276
1433891857.457,-20.435303
1433891857.473,-20.82389
1433891857.488,-21.395462
1433891857.504,-21.80288
1433891857.519,-21.661484
1433891857.535,-20.642097
1433891857.551,-18.598198
1433891857.566,-15.59935
1433891857.582,-11.916489
1433891857.598,-7.9466324
1433891857.613,-4.0827255
1433891857.629,-0.6285858
1433891857.644,2.2579842
1433891857.66,4.5145035
1433891857.676,6.188923
1433891857.691,7.3688393
1433891857.707,8.207825
1433891857.723,8.909458
1433891857.738,9.705368
1433891857.754,10.756111
1433891857.769,12.144489
1433891857.785,13.808807
1433891857.801,15.587097
1433891857.816,17.30486
1433891857.832,18.844982
1433891857.848,20.196316
1433891857.863,21.439224
1433891857.879,22.645023
1433891857.894,23.83319
1433891857.91,24.8226
1433891857.926,25.254404
1433891857.941,24.679571
1433891857.957,22.755053
1433891857.973,19.419508
1433891857.988,14.9610615
1433891858.004,9.974632
1433891858.02,5.151144
1433891858.035,1.0448456
1433891858.051,-2.0649176
1433891858.066,-4.1631765
1433891858.082,-5.391554
1433891858.098,-5.9337254
1433891858.113,-5.936075
1433891858.129,-5.52956
1433891858.145,-4.8687897
1433891858.16,-4.191802
1433891858.176,-3.7192936
1433891858.191,-3.612712
1433891858.207,-3.888582
1433891858.223,-4.4167266
1433891858.238,-4.967649
1433891858.254,-5.3095717
1433891858.27,-5.246769
1433891858.285,-4.6563125
1433891858.301,-3.5300007
1433891858.316,-1.9723692
1433891858.332,-0.16858959
1433891858.348,1.6703424
1433891858.363,3.3739538
1433891858.379,4.8541927
1433891858.395,6.103382
1433891858.41,7.1412125
1433891858.426,7.973501
1433891858.441,8.547585
1433891858.457,8.81501
1433891858.473,8.789499
1433891858.488,8.614975
1433891858.504,8.52194
1433891858.52,8.830458
1433891858.535,9.778376
1433891858.551,11.494833
1433891858.566,13.966814
1433891858.582,17.001034
1433891858.598,20.26399
1433891858.613,23.282764
1433891858.629,25.479803
1433891858.645,26.314209
1433891858.66,25.395668
1433891858.676,22.65657
1433891858.691,18.346188
1433891858.707,13.050556
1433891858.723,7.4700356
1433891858.738,2.267723
1433891858.754,-2.082962
1433891858.77,-5.38369
1433891858.785,-7.6388283
1433891858.801,-9.005718
1433891858.816,-9.675732
1433891858.832,-9.815628
1433891858.848,-9.567829
1433891858.863,-9.083698
1433891858.879,-8.570351
1433891858.895,-8.246288
1433891858.91,-8.276581
1433891858.926,-8.70248
1433891858.941,-9.373371
1433891858.957,-10.013817
1433891858.973,-10.342018
1433891858.988,-10.137859
1433891859.004,-9.401188
1433891859.02,-8.235756
1433891859.035,-6.8576584
1433891859.051,-5.43309
1433891859.066,-4.0549545
1433891859.082,-2.6850777
1433891859.098,-1.2011147
1433891859.113,0.55703735
1433891859.129,2.7152557
1433891859.145,5.2924385
1433891859.16,8.149895
1433891859.176,11.033222
1433891859.191,13.615185
1433891859.207,15.636578
1433891859.223,16.964
1433891859.238,17.671719
1433891859.254,18.020721
1433891859.27,18.450603
1433891859.285,19.452927
1433891859.301,21.4654
1433891859.316,24.652195
1433891859.332,28.809757
1433891859.348,33.27911
1433891859.363,37.08287
1433891859.379,39.14098
1433891859.395,38.621902
1433891859.41,35.185753
1433891859.426,29.122372
1433891859.441,21.229725
1433891859.457,12.624603
1433891859.473,4.349468
1433891859.488,-2.808094
1433891859.504,-8.457485
1433891859.52,-12.590244
1433891859.535,-15.490433
1433891859.551,-17.541409
1433891859.566,-19.116276
1433891859.582,-20.429008
1433891859.598,-21.5653
1433891859.613,-22.46613
1433891859.629,-23.032917
1433891859.645,-23.159916
1433891859.66,-22.76894
1433891859.676,-21.839375
1433891859.691,-20.414822
1433891859.707,-18.616577
1433891859.723,-16.641186
1433891859.738,-14.732513
1433891859.754,-13.155785
1433891859.77,-12.132847
1433891859.785,-11.73209
1433891859.801,-11.831459
1433891859.816,-12.149223
1433891859.832,-12.293125
1433891859.848,-11.93932
1433891859.863,-10.932541
1433891859.879,-9.411844
1433891859.895,-7.5753956
1433891859.91,-5.723295
1433891859.926,-3.9804611
1433891859.941,-2.3268547
1433891859.957,-0.6079006
1433891859.973,1.2544327
1433891859.988,3.2327957
1433891860.004,5.263195
1433891860.02,7.413513
1433891860.035,9.918924
1433891860.051,13.075727
1433891860.066,16.979532
1433891860.082,21.33912
1433891860.098,25.522518
1433891860.113,28.81916
1433891860.129,30.771828
1433891860.145,31.356386
1433891860.16,30.813835
1433891860.176,29.346048
1433891860.191,26.87937
1433891860.207,23.10854
1433891860.223,17.782034
1433891860.238,11.072659
1433891860.254,3.6698189
1433891860.27,-3.4380474
1433891860.285,-9.385771
1433891860.301,-13.753338
1433891860.316,-16.665089
1433891860.332,-18.499039
1433891860.348,-19.666025
1433891860.363,-20.339739
1433891860.379,-20.60845
1433891860.395,-20.401487
1433891860.41,-19.764452
1433891860.426,-18.848093
1433891860.441,-17.822481
1433891860.457,-16.82764
1433891860.473,-15.920256
1433891860.488,-15.123083
1433891860.504,-14.46843
1433891860.52,-13.99819
1433891860.535,-13.755463
1433891860.551,-13.728018
1433891860.566,-13.776295
1433891860.582,-13.685303
1433891860.598,-13.241463
1433891860.613,-12.302921
1433891860.629,-10.98119
1433891860.645,-9.429174
1433891860.66,-7.9780693
1433891860.676,-6.8382206
1433891860.692,-6.109688
1433891860.707,-5.6998367
1433891860.723,-5.4483433
1433891860.738,-5.0901165
1433891860.754,-4.2602787
1433891860.77,-2.5495033
1433891860.785,0.30648422
1433891860.801,4.271776
1433891860.817,8.847879
1433891860.832,13.177956
1433891860.848,16.435015
1433891860.863,18.22692
1433891860.879,18.699242
1433891860.895,18.525936
1433891860.91,18.570072
1433891860.926,19.595818
1433891860.942,21.94016
1433891860.957,25.377098
1433891860.973,29.092913
1433891860.988,31.871063
1433891861.004,32.440014
1433891861.02,29.965065
1433891861.035,24.42345
1433891861.051,16.748684
1433891861.067,8.499594
1433891861.082,1.2738342
1433891861.098,-3.9702644
1433891861.113,-7.2039547
1433891861.129,-9.2038765
1433891861.145,-10.811127
1433891861.16,-12.578579
1433891861.176,-14.420616
1433891861.192,-15.917477
1433891861.207,-16.670795
1433891861.223,-16.62402
1433891861.238,-16.00893
1433891861.254,-15.099318
1433891861.27,-13.981731
1433891861.285,-12.623695
1433891861.301,-10.866459
1433891861.317,-8.703953
1433891861.332,-6.3497257
1433891861.348,-4.209219
1433891861.363,-2.697424
1433891861.379,-2.0882473
1433891861.395,-2.3190289
1433891861.41,-2.9210358
1433891861.426,-3.0811386
1433891861.442,-1.9803581
1433891861.457,0.83556175
1433891861.473,5.0975304
1433891861.488,9.870449
1433891861.504,13.849838
1433891861.52,15.995989
1433891861.535,15.967642
1433891861.551,14.284616
1433891861.567,12.00416
1433891861.582,10.118032
1433891861.598,9.041588
1433891861.613,8.520054
1433891861.629,7.922428
1433891861.645,6.7939777
1433891861.66,5.1559696
1433891861.676,3.5387897
1433891861.692,2.6311588
1433891861.707,2.8481731
1433891861.723,4.1262074
1433891861.738,5.976219
1433891861.754,7.7204895
1433891861.77,8.753426
1433891861.785,8.67667
1433891861.801,7.471836
1433891861.817,5.2832603
1433891861.832,2.4362202
1433891861.848,-0.7306862
1433891861.863,-3.9065342
1433891861.879,-6.898218
1433891861.895,-9.569733
1433891861.91,-11.873079
1433891861.926,-13.768801
1433891861.942,-15.229237
1433891861.957,-16.203413
1433891861.973,-16.636023
1433891861.988,-16.458708
1433891862.004,-15.591553
1433891862.02,-13.951654
1433891862.035,-11.52614
1433891862.051,-8.457592
1433891862.067,-5.0848827
1433891862.082,-1.8688488
1433891862.098,0.67181206
1433891862.113,2.234476
1433891862.129,2.732542
1433891862.145,2.40765
1433891862.16,1.5742893
1433891862.176,0.5266762
1433891862.192,-0.6374073
1433891862.207,-1.9211941
1433891862.223,-3.3874378
1433891862.238,-4.9796467
1433891862.254,-6.492037
1433891862.27,-7.598772
1433891862.285,-7.985895
1433891862.301,-7.4631996
1433891862.317,-6.0792084
1433891862.332,-4.17432
1433891862.348,-2.2391758
1433891862.363,-0.7985382
1433891862.379,-0.19146156
1433891862.395,-0.3954258
1433891862.41,-1.0512238
1433891862.426,-1.5689201
1433891862.442,-1.5064068
1433891862.457,-0.6109772
1433891862.473,0.97141266
1433891862.488,2.9197216
1433891862.504,4.8654766
1433891862.52,6.6028156
1433891862.535,7.9830837
1433891862.551,8.864576
1433891862.567,9.107395
1433891862.582,8.674038
1433891862.598,7.833
1433891862.613,7.2293606
1433891862.629,7.663929
1433891862.645,9.6140175
1433891862.66,12.702515
1433891862.676,15.675123
1433891862.692,16.720533
1433891862.707,14.397812
1433891862.723,8.311453
1433891862.738,-0.54265213
1433891862.754,-10.214806
1433891862.77,-18.620096
1433891862.785,-24.457767
1433891862.801,-27.564854
1433891862.817,-28.595377
1433891862.832,-28.27034
1433891862.848,-26.827374
1433891862.863,-23.893248
1433891862.879,-18.999418
1433891862.895,-12.215
1433891862.91,-4.4060764
1433891862.926,3.1179981
1433891862.942,9.178751
1433891862.957,13.399744
1433891862.973,16.07138
1433891862.988,17.691423
1433891863.004,18.23975
1433891863.02,17.20451
1433891863.035,13.770674
1433891863.051,7.716013
1433891863.067,-0.23877144
1433891863.082,-8.511763
1433891863.098,-15.214754
1433891863.113,-18.746082
1433891863.129,-18.22862
1433891863.145,-13.551079
1433891863.16,-5.4587173
1433891863.176,4.4769344
1433891863.192,14.029425
1433891863.207,20.846266
1433891863.223,23.127327
1433891863.238,20.450739
1433891863.254,14.092306
1433891863.27,6.6626472
1433891863.285,1.1383915
1433891863.301,-0.19823456
1433891863.317,3.3840122
1433891863.332,11.189503
1433891863.348,21.397558
1433891863.364,31.835907
1433891863.379,40.619762
1433891863.395,46.559616
1433891863.41,49.266323
1433891863.426,48.98037
1433891863.442,46.15734
1433891863.457,41.103706
1433891863.473,33.782333
1433891863.488,24.16521
1433891863.504,12.647131
1433891863.52,0.52718544
1433891863.535,-10.379656
1433891863.551,-18.301325
1433891863.567,-22.37638
1433891863.582,-23.044918
1433891863.598,-21.82755
1433891863.614,-20.490923
1433891863.629,-20.319334
1433891863.645,-21.52427
1433891863.66,-23.416027
1433891863.676,-24.944939
1433891863.692,-25.299057
1433891863.707,-24.211128
1433891863.723,-22.10504
1433891863.739,-19.73095
1433891863.754,-17.91919
1433891863.77,-17.18659
1433891863.785,-17.6682
1433891863.801,-18.974136
1433891863.817,-20.597769
1433891863.832,-22.064768
1433891863.848,-23.026674
1433891863.864,-23.092066
1433891863.879,-21.734348
1433891863.895,-18.195673
1433891863.91,-12.141362
1433891863.926,-4.0243306
1433891863.942,4.646702
1433891863.957,11.699624
1433891863.973,15.189903
1433891863.989,14.44326
1433891864.004,10.461708
1433891864.02,5.652182
1433891864.035,2.5800157
1433891864.051,2.7734332
1433891864.067,6.077553
1433891864.082,10.930743
1433891864.098,15.186876
1433891864.114,17.23661
1433891864.129,16.688547
1433891864.145,14.547307
1433891864.16,12.659452
1433891864.176,13.028239
1433891864.192,16.880686
1433891864.207,24.204468
1433891864.223,33.493824
1433891864.239,42.544846
1433891864.254,49.100914
1433891864.27,51.785072
1433891864.285,50.17502
1433891864.301,44.654037
1433891864.317,35.817673
1433891864.332,24.226387
1433891864.348,10.619848
1433891864.364,-3.570694
1433891864.379,-16.2118
1433891864.395,-24.782497
1433891864.41,-27.739191
1433891864.426,-25.41857
1433891864.442,-20.26481
1433891864.457,-15.711277
1433891864.473,-14.725225
1433891864.489,-18.289335
1433891864.504,-25.244595
1433891864.52,-32.762924
1433891864.535,-37.815186
1433891864.551,-38.558
1433891864.567,-35.111935
1433891864.582,-29.347584
1433891864.598,-23.93159
1433891864.614,-20.987053
1433891864.629,-21.04529
1433891864.645,-22.80402
1433891864.66,-23.998867
1433891864.676,-22.632957
1433891864.692,-18.13047
1433891864.707,-11.536282
1433891864.723,-4.8920937
1433891864.739,0.11436081
1433891864.754,3.0524864
1433891864.77,4.8824654
1433891864.785,7.0545006
1433891864.801,10.445282
1433891864.817,14.707481
1433891864.832,18.67799
1433891864.848,21.158787
1433891864.864,21.86871
1433891864.879,21.506481
1433891864.895,21.372864
1433891864.91,22.565292
1433891864.926,25.596294
1433891864.942,30.196953
1433891864.957,35.60435
1433891864.973,40.699135
1433891864.989,44.338715
1433891865.004,45.40156
1433891865.02,43.16529
1433891865.035,37.43975
1433891865.051,28.80492
1433891865.067,18.400597
1433891865.082,7.562504
1433891865.098,-2.7142372
1433891865.114,-11.98156
1433891865.129,-20.207867
1433891865.145,-27.259682
1433891865.16,-32.542824
1433891865.176,-35.069767
1433891865.192,-34.05773
1433891865.207,-29.63272
1433891865.223,-23.09011
1433891865.239,-16.507095
1433891865.254,-11.798416
1433891865.27,-9.816658
1433891865.285,-10.0405655
1433891865.301,-11.027634
1433891865.317,-11.370476
1433891865.332,-10.479691
1433891865.348,-8.874016
1433891865.364,-7.684532
1433891865.379,-7.9385376
1433891865.395,-9.809242
1433891865.41,-12.576286
1433891865.426,-14.98101
1433891865.442,-15.950775
1433891865.457,-14.904488
1433891865.473,-12.034554
1433891865.489,-8.100021
1433891865.504,-4.284195
1433891865.52,-1.8142166
1433891865.535,-1.7939758
1433891865.551,-4.8003693
1433891865.567,-10.546028
1433891865.582,-17.597427
1433891865.598,-23.66269
1433891865.614,-26.339516
1433891865.629,-24.08075
1433891865.645,-16.892258
1433891865.66,-6.467186
1433891865.676,4.653816
1433891865.692,14.176834
1433891865.707,20.972061
1433891865.723,25.33464
1433891865.739,28.578278
1433891865.754,32.06411
1433891865.77,36.563713
1433891865.785,41.78543
1433891865.801,46.58161
1433891865.817,49.50061
1433891865.832,49.278168
1433891865.848,45.249557
1433891865.864,37.5745
1433891865.879,27.11599
1433891865.895,15.406136
1433891865.91,4.308731
1433891865.926,-4.3768463
1433891865.942,-9.544464
1433891865.957,-10.898071
1433891865.973,-9.1371155
1433891865.989,-5.486908
1433891866.004,-1.3052292
1433891866.02,2.2613907
1433891866.035,4.232605
1433891866.051,3.7058945
1433891866.067,0.031555176
1433891866.082,-6.7444077
1433891866.098,-15.402458
1433891866.114,-23.622627
1433891866.129,-28.80809
1433891866.145,-29.282036
1433891866.16,-25.449394
1433891866.176,-19.751236
1433891866.192,-15.551857
1433891866.207,-15.354408
1433891866.223,-19.578018
1433891866.239,-26.345894
1433891866.254,-32.787926
1433891866.27,-36.492012
1433891866.286,-36.70063
1433891866.301,-34.276375
1433891866.317,-30.892471
1433891866.332,-28.007263
1433891866.348,-26.266556
1433891866.364,-25.56604
1433891866.379,-25.598724
1433891866.395,-26.095291
1433891866.411,-26.96901
1433891866.426,-27.877121
1433891866.442,-28.097626
1433891866.457,-26.412323
1433891866.473,-21.620651
1433891866.489,-13.275406
1433891866.504,-2.418457
1433891866.52,8.535736
1433891866.536,16.695633
1433891866.551,20.031265
1433891866.567,18.58725
1433891866.582,14.56752
1433891866.598,11.38446
1433891866.614,11.970947
1433891866.629,17.462128
1433891866.645,26.741821
1433891866.661,37.273163
1433891866.676,46.406265
1433891866.692,52.43013
1433891866.707,54.941757
1433891866.723,54.351334
1433891866.739,51.187088
1433891866.754,45.659958
1433891866.77,37.901062
1433891866.786,28.177979
1433891866.801,17.531479
1433891866.817,7.5742493
1433891866.832,-0.030212402
1433891866.848,-4.113693
1433891866.864,-4.468231
1433891866.879,-1.9877167
1433891866.895,1.5712891
1433891866.911,4.106415
1433891866.926,3.987671
1433891866.942,0.57263184
1433891866.957,-5.43544
1433891866.973,-12.313736
1433891866.989,-17.982147
1433891867.004,-20.910553
1433891867.02,-20.612091
1433891867.036,-17.739609
1433891867.051,-13.657944
1433891867.067,-9.894867
1433891867.082,-7.5872498
1433891867.098,-7.3122864
1433891867.114,-9.068268
1433891867.129,-12.366379
1433891867.145,-16.395554
1433891867.161,-20.146591
1433891867.176,-22.663437
1433891867.192,-23.326584
1433891867.207,-22.085419
1433891867.223,-19.41397
1433891867.239,-16.084106
1433891867.254,-12.807602
1433891867.27,-9.907059
1433891867.286,-7.4775085
1433891867.301,-5.447098
1433891867.317,-3.863144
1433891867.332,-2.731598
1433891867.348,-2.0054474
1433891867.364,-1.3389435
1433891867.379,-0.13139343
1433891867.395,2.1343536
1433891867.411,5.646393
1433891867.426,10.197388
1433891867.442,15.293396
1433891867.457,20.540283
1433891867.473,25.718658
1433891867.489,30.695328
1433891867.504,35.092667
1433891867.52,38.150345
1433891867.536,38.881668
1433891867.551,36.554367
1433891867.567,31.149734
1433891867.582,23.52214
1433891867.598,15.087845
1433891867.614,7.1499786
1433891867.629,0.42904663
1433891867.645,-5.0941315
1433891867.661,-9.864273
1433891867.676,-14.25618
1433891867.692,-18.325562
1433891867.707,-21.844604
1433891867.723,-24.607925
1433891867.739,-26.625107
1433891867.754,-28.186035
1433891867.77,-29.62468
1433891867.786,-31.113205
1433891867.801,-32.54608
1433891867.817,-33.732162
1433891867.832,-34.369736
1433891867.848,-34.41165
1433891867.864,-33.99469
1433891867.879,-33.407013
1433891867.895,-32.963104
1433891867.911,-32.87773
1433891867.926,-33.184875
1433891867.942,-33.742645
1433891867.957,-34.267242
1433891867.973,-34.400223
1433891867.989,-33.792023
1433891868.004,-32.248352
1433891868.02,-29.740768
1433891868.036,-26.452744
1433891868.051,-22.69426
1433891868.067,-18.757767
1433891868.082,-14.83934
1433891868.098,-10.955017
1433891868.114,-6.9678802
1433891868.129,-2.7505646
1433891868.145,1.7216187
1433891868.161,6.2647095
1433891868.176,10.5703125
1433891868.192,14.348816
1433891868.207,17.484543
1433891868.223,20.082825
1433891868.239,22.444748
1433891868.254,24.915329
1433891868.27,27.757553
1433891868.286,31.100006
1433891868.301,34.90358
1433891868.317,38.988297
1433891868.332,42.985687
1433891868.348,46.359528
1433891868.364,48.434128
1433891868.379,48.546036
1433891868.395,46.262115
1433891868.411,41.559723
1433891868.426,34.851486
1433891868.442,26.889175
1433891868.457,18.582138
1433891868.473,10.6992035
1433891868.489,3.8074188
1433891868.504,-1.8213806
1433891868.52,-6.1397552
1433891868.536,-9.266388
1433891868.551,-11.432068
1433891868.567,-12.893036
1433891868.582,-13.865173
1433891868.598,-14.50309
1433891868.614,-14.859779
1433891868.629,-14.934753
1433891868.645,-14.759071
1433891868.661,-14.398003
1433891868.676,-13.982384
1433891868.692,-13.639351
1433891868.707,-13.452461
1433891868.723,-13.484909
1433891868.739,-13.730019
1433891868.754,-14.181305
1433891868.77,-14.747574
1433891868.786,-15.294502
1433891868.801,-15.590965
1433891868.817,-15.386375
1433891868.832,-14.459587
1433891868.848,-12.746376
1433891868.864,-10.324852
1433891868.879,-7.4126587
1433891868.895,-4.275833
1433891868.911,-1.1263504
1433891868.926,1.9254303
1433891868.942,4.861107
1433891868.958,7.7489624
1433891868.973,10.618736
1433891868.989,13.467056
1433891869.004,16.18827
1433891869.02,18.654633
1433891869.036,20.724846
1433891869.051,22.363731
1433891869.067,23.652466
1433891869.083,24.832481
1433891869.098,26.244133
1433891869.114,28.245468
1433891869.129,31.095772
1433891869.145,34.800606
1433891869.161,39.0549
1433891869.176,43.17817
1433891869.192,46.225746
1433891869.208,47.174034
1433891869.223,45.19317
1433891869.239,39.93988
1433891869.254,31.654587
1433891869.27,21.214745
1433891869.286,9.87027
1433891869.301,-1.0132141
1433891869.317,-10.344994
1433891869.333,-17.493248
1433891869.348,-22.363525
1433891869.364,-25.286392
1433891869.379,-26.809631
1433891869.395,-27.496277
1433891869.411,-27.821411
1433891869.426,-28.089836
1433891869.442,-28.531906
1433891869.458,-29.225945
1433891869.473,-30.092873
1433891869.489,-30.886436
1433891869.504,-31.211319
1433891869.52,-30.66864
1433891869.536,-29.036171
1433891869.551,-26.452782
1433891869.567,-23.400696
1433891869.583,-20.549866
1433891869.598,-18.467346
1433891869.614,-17.378418
1433891869.629,-17.081268
1433891869.645,-17.088203
1433891869.661,-16.82891
1433891869.676,-15.923416
1433891869.692,-14.2354355
1433891869.708,-11.8702545
1433891869.723,-9.081512
1433891869.739,-6.143257
1433891869.754,-3.2853088
1433891869.77,-0.6274338
1433891869.786,1.8190689
1433891869.801,4.1770477
1433891869.817,6.6961136
1433891869.833,9.730019
1433891869.848,13.636299
1433891869.864,18.637222
1433891869.879,24.655472
1433891869.895,31.277176
1433891869.911,37.846863
1433891869.926,43.750763
1433891869.942,48.623016
1433891869.958,52.512497
1433891869.973,55.704758
1433891869.989,58.479446
1433891870.004,60.70253
1433891870.02,61.75595
1433891870.036,60.76094
1433891870.051,56.994553
1433891870.067,50.411713
1433891870.083,41.809128
1433891870.098,32.56932
1433891870.114,24.161072
1433891870.129,17.532135
1433891870.145,12.84166
1433891870.161,9.57132
1433891870.176,6.878235
1433891870.192,3.9638977
1433891870.208,0.32244873
1433891870.223,-4.2537537
1433891870.239,-9.766495
1433891870.254,-16.112839
1433891870.27,-23.010635
1433891870.286,-30.002396
1433891870.301,-36.3869
1433891870.317,-41.390076
1433891870.333,-44.387497
1433891870.348,-45.15164
1433891870.364,-43.933792
1433891870.379,-41.35913
1433891870.395,-38.21631
1433891870.411,-35.18228
1433891870.426,-32.710144
1433891870.442,-31.035355
1433891870.458,-30.25357
1433891870.473,-30.394745
1433891870.489,-31.395584
1433891870.504,-33.05815
1433891870.52,-35.007065
1433891870.536,-36.755646
1433891870.551,-37.809296
1433891870.567,-37.855743
1433891870.583,-36.84407
1433891870.598,-35.00276
1433891870.614,-32.719788
1433891870.629,-30.373413
1433891870.645,-28.223999
1433891870.661,-26.269958
1433891870.676,-24.347778
1433891870.692,-22.196259
1433891870.708,-19.611572
1433891870.723,-16.556564
1433891870.739,-13.173584
1433891870.754,-9.714798
1433891870.77,-6.389618
1433891870.786,-3.3128815
1433891870.801,-0.46995544
1433891870.817,2.19635
1433891870.833,4.6666718
1433891870.848,6.744858
1433891870.864,8.122681
1433891870.879,8.518631
1433891870.895,7.821045
1433891870.911,6.159622
1433891870.926,3.847763
1433891870.942,1.2975922
1433891870.958,-1.1101685
1433891870.973,-3.0923157
1433891870.989,-4.4827576
1433891871.004,-5.23938
1433891871.02,-5.381012
1433891871.036,-5.001953
1433891871.051,-4.2324677
1433891871.067,-3.298874
1433891871.083,-2.4173584
1433891871.098,-1.7951508
1433891871.114,-1.5518112
1433891871.129,-1.6779099
1433891871.145,-2.0455017
1433891871.161,-2.4083405
1433891871.176,-2.5037537
1433891871.192,-2.1255112
1433891871.208,-1.2228165
1433891871.223,0.14884186
1433891871.239,1.8191833
1433891871.254,3.6186752
1433891871.27,5.4549255
1433891871.286,7.363533
1433891871.301,9.489868
1433891871.317,11.972961
1433891871.333,14.898193
1433891871.348,18.192451
1433891871.364,21.602165
1433891871.379,24.740921
1433891871.395,27.2426
1433891871.411,28.913498
1433891871.426,29.935585
1433891871.442,30.896072
1433891871.458,32.653664
1433891871.473,35.960915
1433891871.489,41.03129
1433891871.504,47.21814
1433891871.52,53.09195
1433891871.536,56.793747
1433891871.551,56.773735
1433891871.567,52.27304
1433891871.583,43.64167
1433891871.598,32.14303
1433891871.614,19.47023
1433891871.63,7.2616806
1433891871.645,-3.2544098
1433891871.661,-11.32653
1433891871.676,-16.566109
1433891871.692,-18.81881
1433891871.708,-18.151024
1433891871.723,-14.929626
1433891871.739,-9.852959
1433891871.755,-3.9429092
1433891871.77,1.6774902
1433891871.786,6.022629
1433891871.801,8.533569
1433891871.817,9.1228485
1433891871.833,8.169479
1433891871.848,6.286873
1433891871.864,4.1233597
1433891871.88,2.181961
1433891871.895,0.782959
1433891871.911,0.07710266
1433891871.926,0.10871887
1433891871.942,0.88751984
1433891871.958,2.368248
1433891871.973,4.453491
1433891871.989,6.9463196
1433891872.005,9.563133
1433891872.02,11.974983
1433891872.036,13.833015
1433891872.051,14.881111
1433891872.067,14.990295
1433891872.083,14.242027
1433891872.098,12.874527
1433891872.114,11.331673
1433891872.13,10.149483
1433891872.145,9.88369
1433891872.161,10.940277
1433891872.176,13.444443
1433891872.192,17.084091
1433891872.208,21.10707
1433891872.223,24.439514
1433891872.239,25.984589
1433891872.255,24.935043
1433891872.27,21.042236
1433891872.286,14.69754
1433891872.301,6.752716
1433891872.317,-1.7846069
1433891872.333,-10.019516
1433891872.348,-17.41034
1433891872.364,-23.708633
1433891872.38,-28.919876
1433891872.395,-33.107117
1433891872.411,-36.33972
1433891872.426,-38.662796
1433891872.442,-40.125153
1433891872.458,-40.764923
1433891872.473,-40.631454
1433891872.489,-39.777878
1433891872.505,-38.32025
1433891872.52,-36.464478
1433891872.536,-34.553894
1433891872.551,-33.062973
1433891872.567,-32.461945
1433891872.583,-33.033096
1433891872.598,-34.78627
1433891872.614,-37.326965
1433891872.63,-39.91803
1433891872.645,-41.632767
1433891872.661,-41.596375
1433891872.676,-39.22484
1433891872.692,-34.46025
1433891872.708,-27.731644
1433891872.723,-19.864044
1433891872.739,-11.798401
1433891872.755,-4.390747
1433891872.77,1.8234406
1433891872.786,6.6805725
1433891872.801,10.3424225
1433891872.817,13.21434
1433891872.833,15.782379
1433891872.848,18.48648
1433891872.864,21.586548
1433891872.88,25.059692
1433891872.895,28.53299
1433891872.911,31.3479
1433891872.926,32.7444
1433891872.942,32.10208
1433891872.958,29.190186
1433891872.973,24.2583
1433891872.989,17.98938
1433891873.005,11.269043
1433891873.02,4.984268
1433891873.036,-0.24124146
1433891873.051,-4.110962
1433891873.067,-6.69162
1433891873.083,-8.261078
1433891873.098,-9.154739
1433891873.114,-9.631683
1433891873.13,-9.8051605
1433891873.145,-9.677628
1433891873.161,-9.239456
1433891873.176,-8.536011
1433891873.192,-7.7212677
1433891873.208,-7.0240326
1433891873.223,-6.6593933
1433891873.239,-6.7151794
1433891873.255,-7.1582794
1433891873.27,-7.816696
1433891873.286,-8.472809
1433891873.301,-8.978714
1433891873.317,-9.339905
1433891873.333,-9.668198
1433891873.348,-10.1280365
1433891873.364,-10.724091
1433891873.38,-11.230194
1433891873.395,-11.175079
1433891873.411,-10.020233
1433891873.426,-7.3628235
1433891873.442,-3.1336823
1433891873.458,2.337326
1433891873.473,8.453354
1433891873.489,14.605484
1433891873.505,20.342117
1433891873.52,25.543076
1433891873.536,30.338211
1433891873.551,35.038544
1433891873.567,39.914413
1433891873.583,45.093582
1433891873.598,50.454895
1433891873.614,55.612732
1433891873.63,59.919952
1433891873.645,62.607986
1433891873.661,62.944183
1433891873.676,60.390274
1433891873.692,54.783615
1433891873.708,46.347046
1433891873.723,35.64157
1433891873.739,23.456955
1433891873.755,10.702209
1433891873.77,-1.7263336
1433891873.786,-13.036438
1433891873.801,-22.653168
1433891873.817,-30.303802
1433891873.833,-35.972473
1433891873.848,-39.884216
1433891873.864,-42.314957
1433891873.88,-43.57257
1433891873.895,-43.878067
1433891873.911,-43.44084
1433891873.926,-42.463745
1433891873.942,-41.162033
1433891873.958,-39.71689
1433891873.973,-38.250763
1433891873.989,-36.787476
1433891874.005,-35.250793
1433891874.02,-33.492264
1433891874.036,-31.402206
1433891874.051,-28.914001
1433891874.067,-26.057083
1433891874.083,-22.973038
1433891874.098,-19.81929
1433891874.114,-16.731781
1433891874.13,-13.782806
1433891874.145,-10.924667
1433891874.161,-8.03537
1433891874.176,-4.9611053
1433891874.192,-1.5936737
1433891874.208,2.0997162
1433891874.223,6.0477753
1433891874.239,10.133301
1433891874.255,14.209473
1433891874.27,18.154053
1433891874.286,21.939865
1433891874.302,25.604721
1433891874.317,29.197464
1433891874.333,32.657043
1433891874.348,35.638824
1433891874.364,37.52823
1433891874.38,37.54541
1433891874.395,35.072968
1433891874.411,29.959488
1433891874.426,22.641296
1433891874.442,14.043579
1433891874.458,5.2295685
1433891874.473,-2.9081573
1433891874.489,-9.876633
1433891874.505,-15.624298
1433891874.52,-20.360992
1433891874.536,-24.423203
1433891874.552,-28.114594
1433891874.567,-31.605011
1433891874.583,-34.84195
1433891874.598,-37.516632
1433891874.614,-39.141266
1433891874.63,-39.24887
1433891874.645,-37.64662
1433891874.661,-34.521164
1433891874.677,-30.34961
1433891874.692,-25.655045
1433891874.708,-20.785797
1433891874.723,-15.825638
1433891874.739,-10.727356
1433891874.755,-5.5525665
1433891874.77,-0.5268707
1433891874.786,4.0619507
1433891874.802,8.124802
1433891874.817,11.931854
1433891874.833,16.017761
1433891874.848,20.778656
1433891874.864,26.080154
1433891874.88,31.101547
1433891874.895,34.652603
1433891874.911,35.681763
1433891874.927,33.81508
1433891874.942,29.480743
1433891874.958,23.6465
1433891874.973,17.285141
1433891874.989,11.000336
1433891875.005,4.929016
1433891875.02,-0.9874878
1433891875.036,-6.6447754
1433891875.052,-11.625961
1433891875.067,-15.351662
1433891875.083,-17.500229
1433891875.098,-18.291504
1433891875.114,-18.458351
1433891875.13,-18.844284
1433891875.145,-19.917358
1433891875.161,-21.481537
1433891875.177,-22.856308
1433891875.192,-23.328102
1433891875.208,-22.745827
1433891875.223,-21.713692
1433891875.239,-21.394363
1433891875.255,-22.948677
1433891875.27,-26.923653
1433891875.286,-32.871193
1433891875.302,-39.500206
1433891875.317,-45.074722
1433891875.333,-48.106773
1433891875.348,-47.784172
1433891875.364,-44.190765
1433891875.38,-38.07778
1433891875.395,-30.482437
1433891875.411,-22.373253
1433891875.427,-14.49688
1433891875.442,-7.52919
1433891875.458,-2.1998215
1433891875.473,0.69512177
1433891875.489,0.55838776
1433891875.505,-2.6070938
1433891875.52,-7.988388
1433891875.536,-14.0453415
1433891875.552,-18.949718
1433891875.567,-21.122234
1433891875.583,-19.614025
1433891875.598,-14.259594
1433891875.614,-5.5713577
1433891875.63,5.3762894
1433891875.645,17.167908
1433891875.661,28.222137
1433891875.677,37.11885
1433891875.692,42.934566
1433891875.708,45.6262
1433891875.723,46.017265
1433891875.739,45.620293
1433891875.755,46.053947
1433891875.77,48.477135
1433891875.786,53.21172
1433891875.802,59.628727
1433891875.817,66.32557
1433891875.833,71.53467
1433891875.848,73.58673
1433891875.864,71.35573
1433891875.88,64.59453
1433891875.895,54.06843
1433891875.911,41.346558
1433891875.927,28.395607
1433891875.942,16.962433
1433891875.958,8.030634
1433891875.973,1.6354923
1433891875.989,-3.0197458
1433891876.005,-7.062948
1433891876.02,-11.38945
1433891876.036,-16.27707
1433891876.052,-21.285673
1433891876.067,-25.59128
1433891876.083,-28.408028
1433891876.098,-29.425947
1433891876.114,-28.826256
1433891876.13,-27.180552
1433891876.145,-25.139532
1433891876.161,-23.225998
1433891876.177,-21.795502
1433891876.192,-21.129189
1433891876.208,-21.427113
1433891876.223,-22.778389
1433891876.239,-24.98345
1433891876.255,-27.439472
1433891876.27,-29.177212
1433891876.286,-29.135477
1433891876.302,-26.506609
1433891876.317,-21.104984
1433891876.333,-13.4118
1433891876.348,-4.4306183
1433891876.364,4.739766
1433891876.38,13.248526
1433891876.395,20.75175
1433891876.411,27.278727
1433891876.427,33.096695
1433891876.442,38.463173
1433891876.458,43.479156
1433891876.473,48.138695
1433891876.489,52.494305
1433891876.505,56.694252
1433891876.52,60.94702
1433891876.536,65.27633
1433891876.552,69.35182
1433891876.567,72.444695
1433891876.583,73.6679
1433891876.598,72.25874
1433891876.614,67.93509
1433891876.63,60.9895
1433891876.645,52.160496
1433891876.661,42.33715
1433891876.677,32.3057
1433891876.692,22.550192
1433891876.708,13.297681
1433891876.723,4.676818
1433891876.739,-3.1906462
1433891876.755,-10.160355
1433891876.77,-16.125605
1433891876.786,-21.135242
1433891876.802,-25.417448
1433891876.817,-29.28793
1433891876.833,-33.014706
1433891876.848,-36.708183
1433891876.864,-40.29255
1433891876.88,-43.64129
1433891876.895,-46.63994
1433891876.911,-49.281647
1433891876.927,-51.659275
1433891876.942,-53.91778
1433891876.958,-56.099133
1433891876.973,-58.12819
1433891876.989,-59.726894
1433891877.005,-60.446327
1433891877.02,-59.770893
1433891877.036,-57.26877
1433891877.052,-52.75336
1433891877.067,-46.339947
1433891877.083,-38.403694
1433891877.098,-29.475264
1433891877.114,-20.117016
1433891877.13,-10.76209
1433891877.145,-1.7125978
1433891877.161,6.8529196
1433891877.177,14.817849
1433891877.192,22.036547
1433891877.208,28.3059
1433891877.224,33.36611
1433891877.239,37.01325
1433891877.255,39.156746
1433891877.27,39.94163
1433891877.286,39.725388
1433891877.302,38.96869
1433891877.317,38.05153
1433891877.333,37.099224
1433891877.349,35.84639
1433891877.364,33.803474
1433891877.38,30.469198
1433891877.395,25.592018
1433891877.411,19.370691
1433891877.427,12.442471
1433891877.442,5.6831207
1433891877.458,-0.062467575
1433891877.474,-4.2741966
1433891877.489,-6.8777256
1433891877.505,-8.212919
1433891877.52,-8.834431
1433891877.536,-9.25053
1433891877.552,-9.710611
1433891877.567,-10.253643
1433891877.583,-10.765076
1433891877.599,-11.184286
1433891877.614,-11.558247
1433891877.63,-12.018753
1433891877.645,-12.645353
1433891877.661,-13.384457
1433891877.677,-14.022848
1433891877.692,-14.28016
1433891877.708,-13.944777
1433891877.724,-12.992922
1433891877.739,-11.555336
1433891877.755,-9.899469
1433891877.77,-8.287594
1433891877.786,-6.8737373
1433891877.802,-5.628681
1433891877.817,-4.366886
1433891877.833,-2.8284683
1433891877.849,-0.7996826
1433891877.864,1.7807217
1433891877.88,4.822603
1433891877.895,8.073744
1433891877.911,11.182983
1433891877.927,13.752249
1433891877.942,15.38451
1433891877.958,15.761429
1433891877.974,14.717636
1433891877.989,12.373058
1433891878.005,9.199347
1433891878.02,5.961178
1433891878.036,3.541771
