1435273027.964,0.0
1435273027.979,0.0
1435273027.995,0.0
1435273028.011,0.0
1435273028.026,0.0
1435273028.042,0.0
1435273028.058,0.0
1435273028.073,0.0
1435273028.089,0.0
1435273028.104,0.0014145537
1435273028.12,-0.006090864
1435273028.136,-0.013220243
1435273028.151,-0.012466056
1435273028.167,0.0027892552
1435273028.183,0.03115281
1435273028.198,0.05770406
1435273028.214,0.05495988
1435273028.23,-0.008015441
1435273028.245,-0.15059468
1435273028.261,-0.38310257
1435273028.276,-0.67441076
1435273028.292,-0.9832862
1435273028.308,-1.2730953
1435273028.323,-1.531442
1435273028.339,-1.7783936
1435273028.354,-2.0578308
1435273028.37,-2.4157944
1435273028.386,-2.8737195
1435273028.401,-3.4479222
1435273028.417,-4.0770235
1435273028.433,-4.6918516
1435273028.448,-5.23392
1435273028.464,-5.685742
1435273028.48,-6.08427
1435273028.495,-6.508096
1435273028.511,-7.042054
1435273028.526,-7.7255993
1435273028.542,-8.615815
1435273028.558,-9.580033
1435273028.573,-10.472116
1435273028.589,-11.169366
1435273028.605,-11.650412
1435273028.62,-12.034942
1435273028.636,-12.55487
1435273028.651,-13.460812
1435273028.667,-14.88737
1435273028.683,-16.9603
1435273028.698,-19.369755
1435273028.714,-21.751833
1435273028.73,-23.793545
1435273028.745,-25.415607
1435273028.761,-26.85913
1435273028.776,-28.613285
1435273028.792,-31.202818
1435273028.808,-34.9053
1435273028.823,-39.885452
1435273028.839,-45.52854
1435273028.855,-51.1005
1435273028.87,-55.977505
1435273028.886,-59.975998
1435273028.901,-63.489983
1435273028.917,-67.34349
1435273028.933,-72.41089
1435273028.948,-79.14735
1435273028.964,-87.71806
1435273028.98,-97.15853
1435273028.995,-106.31131
1435273029.011,-114.21252
1435273029.026,-120.56967
1435273029.042,-125.93273
1435273029.058,-131.45482
1435273029.073,-138.59692
1435273029.089,-146.1173
1435273029.105,-155.81712
1435273029.12,-167.80582
1435273029.136,-181.78268
1435273029.151,-196.28142
1435273029.167,-208.25069
1435273029.183,-213.40044
1435273029.198,-207.52429
1435273029.214,-188.28409
1435273029.23,-156.39865
1435273029.245,-115.8635
1435273029.261,-71.40695
1435273029.276,-26.821228
1435273029.292,16.691559
1435273029.308,60.42209
1435273029.323,106.631714
1435273029.339,156.65018
1435273029.355,209.81113
1435273029.37,263.79602
1435273029.386,315.575
1435273029.401,363.307
1435273029.417,406.25592
1435273029.433,444.27994
1435273029.448,476.8333
1435273029.464,502.38834
1435273029.48,518.6698
1435273029.495,523.4085
1435273029.511,515.3638
1435273029.526,494.5978
1435273029.542,462.77808
1435273029.558,422.3939
1435273029.573,376.0948
1435273029.589,326.099
1435273029.605,274.0241
1435273029.62,220.99612
1435273029.636,167.95963
1435273029.651,116.00018
1435273029.667,66.35455
1435273029.683,20.487335
1435273029.698,-20.333527
1435273029.714,-55.31584
1435273029.73,-84.30875
1435273029.745,-107.73871
1435273029.761,-126.391235
1435273029.776,-141.10017
1435273029.792,-152.50334
1435273029.808,-160.97966
1435273029.823,-166.64526
1435273029.839,-169.55438
1435273029.855,-169.85538
1435273029.87,-167.88591
1435273029.886,-164.13562
1435273029.901,-159.15451
1435273029.917,-153.43137
1435273029.933,-147.29909
1435273029.948,-140.91782
1435273029.964,-134.32732
1435273029.98,-127.51413
1435273029.995,-120.484215
1435273030.011,-113.29884
1435273030.026,-106.05517
1435273030.042,-98.864204
1435273030.058,-91.83218
1435273030.073,-85.0301
1435273030.089,-78.50839
1435273030.105,-72.29619
1435273030.12,-66.39847
1435273030.136,-60.789703
1435273030.151,-55.421734
1435273030.167,-50.235035
1435273030.183,-45.183537
1435273030.198,-40.278255
1435273030.214,-35.583855
1435273030.23,-31.20882
1435273030.245,-27.25915
1435273030.261,-23.784885
1435273030.276,-20.72562
1435273030.292,-17.928509
1435273030.308,-15.214874
1435273030.323,-12.446197
1435273030.339,-9.611555
1435273030.355,-6.8399878
1435273030.37,-4.3523264
1435273030.386,-2.3536801
1435273030.401,-0.93434477
1435273030.417,0.018961906
1435273030.433,0.774336
1435273030.448,1.6518147
1435273030.464,2.8872948
1435273030.48,4.499516
1435273030.495,6.286214
1435273030.511,7.8995414
1435273030.526,9.05972
1435273030.542,9.630461
1435273030.558,9.743449
1435273030.573,9.695611
1435273030.589,9.811418
1435273030.605,10.330862
1435273030.62,11.412186
1435273030.636,13.115118
1435273030.651,15.409105
1435273030.667,18.00698
1435273030.683,20.166359
1435273030.698,20.831402
1435273030.714,18.91629
1435273030.73,13.899817
1435273030.745,6.236578
1435273030.761,-2.6478596
1435273030.776,-10.883867
1435273030.792,-16.951197
1435273030.808,-20.217775
1435273030.823,-21.071688
1435273030.839,-20.437746
1435273030.855,-19.199287
1435273030.87,-17.7951
1435273030.886,-16.250465
1435273030.902,-14.473843
1435273030.917,-12.596863
1435273030.933,-10.988779
1435273030.948,-10.047863
1435273030.964,-9.909775
1435273030.98,-10.279354
1435273030.995,-10.546396
1435273031.011,-10.109394
1435273031.026,-8.613672
1435273031.042,-6.1644516
1435273031.058,-3.315239
1435273031.073,-0.9085922
1435273031.089,0.2683487
1435273031.105,-0.37042618
1435273031.12,-2.8694916
1435273031.136,-6.776966
1435273031.152,-11.211494
1435273031.167,-15.180374
1435273031.183,-17.901909
1435273031.198,-18.940018
1435273031.214,-18.335888
1435273031.23,-16.471119
1435273031.245,-13.923611
1435273031.261,-11.260265
1435273031.277,-8.880207
1435273031.292,-6.9917374
1435273031.308,-5.5556183
1435273031.323,-4.428749
1435273031.339,-3.4367332
1435273031.355,-2.5016632
1435273031.37,-1.6419716
1435273031.386,-0.9743881
1435273031.402,-0.5728226
1435273031.417,-0.44408417
1435273031.433,-0.4515152
1435273031.448,-0.45445633
1435273031.464,-0.32733154
1435273031.48,-0.06303024
1435273031.495,0.27925873
1435273031.511,0.61068344
1435273031.527,0.91885376
1435273031.542,1.2661934
1435273031.558,1.7377949
1435273031.573,2.3288536
1435273031.589,3.0115318
1435273031.605,3.6289444
1435273031.62,4.0553627
1435273031.636,4.2182655
1435273031.652,4.1590843
1435273031.667,3.978838
1435273031.683,3.8192463
1435273031.698,3.7669678
1435273031.714,3.8547993
1435273031.73,4.049782
1435273031.745,4.2799606
1435273031.761,4.4524937
1435273031.777,4.5240173
1435273031.792,4.4852276
1435273031.808,4.380234
1435273031.823,4.3254337
1435273031.839,4.4484406
1435273031.855,4.8225384
1435273031.87,5.4917603
1435273031.886,6.319664
1435273031.902,7.0971546
1435273031.917,7.5930023
1435273031.933,7.677454
1435273031.948,7.3617077
1435273031.964,6.8734436
1435273031.98,6.549263
1435273031.995,6.672714
1435273032.011,7.3555145
1435273032.027,8.418121
1435273032.042,9.407196
1435273032.058,9.734491
1435273032.073,8.847721
1435273032.089,6.464657
1435273032.105,2.699213
1435273032.12,-1.8860455
1435273032.136,-6.482086
1435273032.152,-10.185165
1435273032.167,-12.381666
1435273032.183,-12.818735
1435273032.198,-11.717068
1435273032.214,-9.563667
1435273032.23,-6.9388733
1435273032.245,-4.314619
1435273032.261,-1.9982529
1435273032.277,-0.084625244
1435273032.292,1.3919697
1435273032.308,2.5040665
1435273032.323,3.2680511
1435273032.339,3.7073746
1435273032.355,3.8161602
1435273032.37,3.5882282
1435273032.386,2.988062
1435273032.402,2.004076
1435273032.417,0.7172699
1435273032.433,-0.73317146
1435273032.448,-2.2441444
1435273032.464,-3.7354507
1435273032.48,-5.2215977
1435273032.495,-6.749714
1435273032.511,-8.33341
1435273032.527,-9.851545
1435273032.542,-11.124004
1435273032.558,-11.960848
1435273032.573,-12.328466
1435273032.589,-12.334009
1435273032.605,-12.242456
1435273032.62,-12.252747
1435273032.636,-12.488707
1435273032.652,-12.860245
1435273032.667,-13.269928
1435273032.683,-13.586971
1435273032.698,-13.820484
1435273032.714,-14.01124
1435273032.73,-14.225624
1435273032.745,-14.397472
1435273032.761,-14.352884
1435273032.777,-13.831823
1435273032.792,-12.65373
1435273032.808,-10.728996
1435273032.823,-8.170908
1435273032.839,-5.2871876
1435273032.855,-2.2741184
1435273032.87,0.66150093
1435273032.886,3.405201
1435273032.902,5.9407883
1435273032.917,8.300182
1435273032.933,10.560438
1435273032.948,12.793444
1435273032.964,15.065231
1435273032.98,17.272732
1435273032.995,19.183533
1435273033.011,20.278929
1435273033.027,20.009224
1435273033.042,17.96846
1435273033.058,14.1754465
1435273033.073,9.126306
1435273033.089,3.742073
1435273033.105,-1.0129738
1435273033.12,-4.406974
1435273033.136,-6.0970945
1435273033.152,-6.203726
1435273033.167,-5.128397
1435273033.183,-3.3153248
1435273033.198,-1.2162089
1435273033.214,0.8170519
1435273033.23,2.5072417
1435273033.245,3.7178435
1435273033.261,4.4166064
1435273033.277,4.6953363
1435273033.292,4.6407933
1435273033.308,4.3155913
1435273033.323,3.7332578
1435273033.339,2.9446223
1435273033.355,2.0726218
1435273033.37,1.3298254
1435273033.386,0.8633759
1435273033.402,0.6920364
1435273033.417,0.62724423
1435273033.433,0.46815848
1435273033.448,0.103236675
1435273033.464,-0.35126948
1435273033.48,-0.6101634
1435273033.495,-0.3939362
1435273033.511,0.3696004
1435273033.527,1.483459
1435273033.542,2.5283713
1435273033.558,3.1626937
1435273033.573,3.2905374
1435273033.589,3.1092024
1435273033.605,2.951161
1435273033.62,3.1108854
1435273033.636,3.7043958
1435273033.652,4.6482506
1435273033.667,5.676519
1435273033.683,6.5401654
1435273033.698,7.0720987
1435273033.714,7.318167
1435273033.73,7.4607983
1435273033.745,7.767947
1435273033.761,8.411071
1435273033.777,9.4810505
1435273033.792,10.917388
1435273033.808,12.588781
1435273033.824,14.447541
1435273033.839,16.219337
1435273033.855,17.93718
1435273033.87,19.810705
1435273033.886,22.12616
1435273033.902,25.136763
1435273033.917,28.945885
1435273033.933,33.353386
1435273033.949,37.805428
1435273033.964,41.397385
1435273033.98,43.044262
1435273033.995,41.802826
1435273034.011,37.1038
1435273034.027,29.062605
1435273034.042,18.417587
1435273034.058,6.422391
1435273034.074,-5.548321
1435273034.089,-16.32638
1435273034.105,-25.216211
1435273034.12,-31.976261
1435273034.136,-36.702564
1435273034.152,-39.661118
1435273034.167,-41.168686
1435273034.183,-41.485962
1435273034.199,-40.859146
1435273034.214,-39.54413
1435273034.23,-37.816727
1435273034.245,-35.958
1435273034.261,-34.229546
1435273034.277,-32.76709
1435273034.292,-31.63518
1435273034.308,-30.817846
1435273034.324,-30.257633
1435273034.339,-29.89838
1435273034.355,-29.65649
1435273034.37,-29.441816
1435273034.386,-29.150242
1435273034.402,-28.657011
1435273034.417,-27.833687
1435273034.433,-26.582458
1435273034.449,-24.879456
1435273034.464,-22.709167
1435273034.48,-20.092888
1435273034.495,-17.039684
1435273034.511,-13.642498
1435273034.527,-10.07987
1435273034.542,-6.612047
1435273034.558,-3.5049305
1435273034.574,-0.87934685
1435273034.589,1.377285
1435273034.605,3.5814972
1435273034.62,6.1203117
1435273034.636,9.231883
1435273034.652,12.871352
1435273034.667,16.734482
1435273034.683,20.442398
1435273034.699,23.72435
1435273034.714,26.560556
1435273034.73,29.112356
1435273034.745,31.664547
1435273034.761,34.43161
1435273034.777,37.575535
1435273034.792,41.248783
1435273034.808,45.6037
1435273034.824,50.715862
1435273034.839,56.352165
1435273034.855,61.871357
1435273034.87,66.17739
1435273034.886,68.00406
1435273034.902,66.295204
1435273034.917,60.58425
1435273034.933,51.15971
1435273034.949,38.99056
1435273034.964,25.435822
1435273034.98,11.891606
1435273034.995,-0.49643612
1435273035.011,-11.005506
1435273035.027,-19.29851
1435273035.042,-25.411375
1435273035.058,-29.559471
1435273035.074,-32.10546
1435273035.089,-33.438454
1435273035.105,-33.9535
1435273035.12,-33.990013
1435273035.136,-33.82098
1435273035.152,-33.65661
1435273035.167,-33.612873
1435273035.183,-33.738823
1435273035.199,-34.00276
1435273035.214,-34.280136
1435273035.23,-34.444588
1435273035.245,-34.367554
1435273035.261,-34.013557
1435273035.277,-33.42511
1435273035.292,-32.733284
1435273035.308,-32.060707
1435273035.324,-31.457376
1435273035.339,-30.826117
1435273035.355,-29.923075
1435273035.37,-28.44052
1435273035.386,-26.141048
1435273035.402,-22.981585
1435273035.417,-19.153275
1435273035.433,-15.0269165
1435273035.449,-11.011675
1435273035.464,-7.4149857
1435273035.48,-4.3297157
1435273035.495,-1.6156216
1435273035.511,0.9965
1435273035.527,3.841467
1435273035.542,7.1412506
1435273035.558,11.000822
1435273035.574,15.349474
1435273035.589,19.977636
1435273035.605,24.580315
1435273035.62,28.853079
1435273035.636,32.590847
1435273035.652,35.799362
1435273035.667,38.727097
1435273035.683,41.842743
1435273035.699,45.690987
1435273035.714,50.65925
1435273035.73,56.723206
1435273035.745,63.27547
1435273035.761,69.14824
1435273035.777,72.89046
1435273035.792,73.14656
1435273035.808,69.0993
1435273035.824,60.75314
1435273035.839,48.936127
1435273035.855,35.047546
1435273035.87,20.695662
1435273035.886,7.2544556
1435273035.902,-4.362938
1435273035.917,-13.797028
1435273035.933,-21.111849
1435273035.949,-26.627508
1435273035.964,-30.704958
1435273035.98,-33.676598
1435273035.995,-35.78362
1435273036.011,-37.23513
1435273036.027,-38.215023
1435273036.042,-38.912697
1435273036.058,-39.4655
1435273036.074,-39.882515
1435273036.089,-40.074852
1435273036.105,-39.900322
1435273036.12,-39.30038
1435273036.136,-38.396908
1435273036.152,-37.434044
1435273036.167,-36.707108
1435273036.183,-36.338318
1435273036.199,-36.254246
1435273036.214,-36.158215
1435273036.23,-35.7286
1435273036.245,-34.737988
1435273036.261,-33.106632
1435273036.277,-30.854118
1435273036.292,-28.031204
1435273036.308,-24.660854
1435273036.324,-20.810257
1435273036.339,-16.626854
1435273036.355,-12.346054
1435273036.37,-8.23428
1435273036.386,-4.4569893
1435273036.402,-0.987339
1435273036.417,2.344471
1435273036.433,5.7872124
1435273036.449,9.4875145
1435273036.464,13.491692
1435273036.48,17.728607
1435273036.496,22.057976
1435273036.511,26.326614
1435273036.527,30.377495
1435273036.542,34.08768
1435273036.558,37.433865
1435273036.574,40.58092
1435273036.589,43.920837
1435273036.605,47.940014
1435273036.621,52.951794
1435273036.636,58.780056
1435273036.652,64.58659
1435273036.667,68.98827
1435273036.683,70.45906
1435273036.699,67.85593
1435273036.714,60.853554
1435273036.73,50.05385
1435273036.746,36.813892
1435273036.761,22.794193
1435273036.777,9.519348
1435273036.792,-1.9620018
1435273036.808,-11.1694145
1435273036.824,-18.121452
1435273036.839,-23.157284
1435273036.855,-26.713806
1435273036.871,-29.18243
1435273036.886,-30.890656
1435273036.902,-32.06101
1435273036.917,-32.901608
1435273036.933,-33.561417
1435273036.949,-34.163296
1435273036.964,-34.750362
1435273036.98,-35.300064
1435273036.996,-35.704502
1435273037.011,-35.87172
1435273037.027,-35.762886
1435273037.042,-35.442825
1435273037.058,-35.038807
1435273037.074,-34.6991
1435273037.089,-34.45813
1435273037.105,-34.192104
1435273037.121,-33.62802
1435273037.136,-32.409798
1435273037.152,-30.270248
1435273037.167,-27.158264
1435273037.183,-23.317364
1435273037.199,-19.221481
1435273037.214,-15.367455
1435273037.23,-12.103886
1435273037.246,-9.442909
1435273037.261,-7.1174965
1435273037.277,-4.6939354
1435273037.292,-1.8197899
1435273037.308,1.6588211
1435273037.324,5.632084
1435273037.339,9.828278
1435273037.355,13.917629
1435273037.371,17.657124
1435273037.386,20.960266
1435273037.402,23.903992
1435273037.417,26.75552
1435273037.433,29.914078
1435273037.449,33.795162
1435273037.464,38.677967
1435273037.48,44.510654
1435273037.496,50.79005
1435273037.511,56.567078
1435273037.527,60.669884
1435273037.542,61.934113
1435273037.558,59.58663
1435273037.574,53.434498
1435273037.589,43.933247
1435273037.605,32.079926
1435273037.621,19.16998
1435273037.636,6.520649
1435273037.652,-4.816967
1435273037.667,-14.1983185
1435273037.683,-21.417301
1435273037.699,-26.615894
1435273037.714,-30.122177
1435273037.73,-32.319603
1435273037.746,-33.53856
1435273037.761,-34.078255
1435273037.777,-34.186573
1435273037.792,-34.118694
1435273037.808,-34.070942
1435273037.824,-34.176064
1435273037.839,-34.424496
1435273037.855,-34.71955
1435273037.871,-34.893887
1435273037.886,-34.865322
1435273037.902,-34.644478
1435273037.917,-34.367905
1435273037.933,-34.149612
1435273037.949,-34.01802
1435273037.964,-33.799934
1435273037.98,-33.194702
1435273037.996,-31.901665
1435273038.011,-29.739388
1435273038.027,-26.7608
1435273038.042,-23.218605
1435273038.058,-19.466007
1435273038.074,-15.803108
1435273038.089,-12.336441
1435273038.105,-8.99995
1435273038.121,-5.573139
1435273038.136,-1.8488007
1435273038.152,2.266674
1435273038.167,6.6671295
1435273038.183,11.094963
1435273038.199,15.236031
1435273038.214,18.86588
1435273038.23,21.947247
1435273038.246,24.64233
1435273038.261,27.277225
1435273038.277,30.241241
1435273038.292,33.882004
1435273038.308,38.42425
1435273038.324,43.79518
1435273038.339,49.55722
1435273038.355,54.87297
1435273038.371,58.62957
1435273038.386,59.677444
1435273038.402,57.22584
1435273038.417,51.077854
1435273038.433,41.780502
1435273038.449,30.4342
1435273038.464,18.388016
1435273038.48,6.8414154
1435273038.496,-3.3793411
1435273038.511,-11.831284
1435273038.527,-18.42215
1435273038.542,-23.243645
1435273038.558,-26.525959
1435273038.574,-28.599545
1435273038.589,-29.833488
1435273038.605,-30.606056
1435273038.621,-31.194153
1435273038.636,-31.754276
1435273038.652,-32.31319
1435273038.667,-32.819542
1435273038.683,-33.20277
1435273038.699,-33.42501
1435273038.714,-33.43934
1435273038.73,-33.235786
1435273038.746,-32.81826
1435273038.761,-32.206326
1435273038.777,-31.455414
1435273038.792,-30.600235
1435273038.808,-29.647345
1435273038.824,-28.5303
1435273038.839,-27.121119
1435273038.855,-25.26188
1435273038.871,-22.85373
1435273038.886,-19.895966
1435273038.902,-16.464848
1435273038.917,-12.732883
1435273038.933,-8.865196
1435273038.949,-5.01005
1435273038.964,-1.2424145
1435273038.98,2.4205542
1435273038.996,6.0265884
1435273039.011,9.627676
1435273039.027,13.246643
1435273039.042,16.84502
1435273039.058,20.333702
1435273039.074,23.590473
1435273039.089,26.544733
1435273039.105,29.250792
1435273039.121,31.902006
1435273039.136,34.81885
1435273039.152,38.38499
1435273039.168,42.917454
1435273039.183,48.519207
1435273039.199,54.893032
1435273039.214,61.308563
1435273039.23,66.65335
1435273039.246,69.6904
1435273039.261,69.40881
1435273039.277,65.33894
1435273039.293,57.740314
1435273039.308,47.504436
1435273039.324,35.905987
1435273039.339,24.272839
1435273039.355,13.621772
1435273039.371,4.5301757
1435273039.386,-2.899529
1435273039.402,-8.883635
1435273039.418,-13.796227
1435273039.433,-17.924978
1435273039.449,-21.42206
1435273039.464,-24.238811
1435273039.48,-26.282951
1435273039.496,-27.527266
1435273039.511,-28.099121
1435273039.527,-28.242846
1435273039.543,-28.231462
1435273039.558,-28.204178
1435273039.574,-28.101938
1435273039.589,-27.74306
1435273039.605,-26.928223
1435273039.621,-25.569542
1435273039.636,-23.788853
1435273039.652,-21.881292
1435273039.668,-20.316805
1435273039.683,-19.562967
1435273039.699,-20.068384
1435273039.714,-22.079073
1435273039.73,-25.543047
1435273039.746,-30.020702
1435273039.761,-34.810932
1435273039.777,-39.09237
1435273039.793,-42.20691
1435273039.808,-43.76898
1435273039.824,-43.723175
1435273039.839,-42.190395
1435273039.855,-39.355656
1435273039.871,-35.37194
1435273039.886,-30.409672
1435273039.902,-24.717312
1435273039.918,-18.652945
1435273039.933,-12.608914
1435273039.949,-6.8853703
1435273039.964,-1.5478382
1435273039.98,3.5146875
1435273039.996,8.497965
1435273040.011,13.552923
1435273040.027,18.673973
1435273040.043,23.749756
1435273040.058,28.690056
1435273040.074,33.534737
1435273040.089,38.513107
1435273040.105,43.90377
1435273040.121,49.879906
1435273040.136,56.257748
1435273040.152,62.38515
1435273040.168,67.185135
1435273040.183,69.4257
1435273040.199,68.08318
1435273040.214,62.76075
1435273040.23,53.838867
1435273040.246,42.441475
1435273040.261,30.072823
1435273040.277,18.185722
1435273040.293,7.7920704
1435273040.308,-0.6913986
1435273040.324,-7.3997936
1435273040.339,-12.705227
1435273040.355,-16.9951
1435273040.371,-20.499851
1435273040.386,-23.303444
1435273040.402,-25.421495
1435273040.418,-26.915695
1435273040.433,-27.941679
1435273040.449,-28.70869
1435273040.464,-29.380585
1435273040.48,-30.03946
1435273040.496,-30.652649
1435273040.511,-31.119732
1435273040.527,-31.334194
1435273040.543,-31.28334
1435273040.558,-30.999432
1435273040.574,-30.571808
1435273040.589,-30.051468
1435273040.605,-29.422424
1435273040.621,-28.601517
1435273040.636,-27.46949
1435273040.652,-25.951443
1435273040.668,-24.04686
1435273040.683,-21.86494
1435273040.699,-19.572948
1435273040.714,-17.337715
1435273040.73,-15.255817
1435273040.746,-13.28767
1435273040.761,-11.281654
1435273040.777,-9.004719
1435273040.793,-6.2570953
1435273040.808,-2.958477
1435273040.824,0.7819748
1435273040.839,4.749096
1435273040.855,8.632626
1435273040.871,12.219887
1435273040.886,15.40501
1435273040.902,18.248745
1435273040.918,20.87088
1435273040.933,23.406021
1435273040.949,25.950706
1435273040.964,28.546967
1435273040.98,31.208733
1435273040.996,33.960297
1435273041.011,36.87284
1435273041.027,40.08854
1435273041.043,43.76142
1435273041.058,48.008667
1435273041.074,52.73742
1435273041.089,57.54251
1435273041.105,61.63891
1435273041.121,64.03567
1435273041.136,63.76393
1435273041.152,60.230057
1435273041.168,53.409416
1435273041.183,43.912476
1435273041.199,32.75129
1435273041.214,21.078072
1435273041.23,9.879639
1435273041.246,-0.17507172
1435273041.261,-8.751343
1435273041.277,-15.743668
1435273041.293,-21.178879
1435273041.308,-25.165886
1435273041.324,-27.878922
1435273041.339,-29.508179
1435273041.355,-30.30339
1435273041.371,-30.488106
1435273041.386,-30.33374
1435273041.402,-30.071442
1435273041.418,-29.92772
1435273041.433,-30.066994
1435273041.449,-30.540695
1435273041.464,-31.251213
1435273041.48,-31.978447
1435273041.496,-32.467514
1435273041.511,-32.531906
1435273041.527,-32.13829
1435273041.543,-31.405296
1435273041.558,-30.489853
1435273041.574,-29.486595
1435273041.589,-28.357292
1435273041.605,-26.963173
1435273041.621,-25.154472
1435273041.636,-22.90055
1435273041.652,-20.315285
1435273041.668,-17.607773
1435273041.683,-14.948128
1435273041.699,-12.407616
1435273041.714,-9.936356
1435273041.73,-7.434845
1435273041.746,-4.834526
1435273041.761,-2.1763153
1435273041.777,0.45000458
1435273041.793,2.977745
1435273041.808,5.45327
1435273041.824,8.01284
1435273041.84,10.8335495
1435273041.855,13.992783
1435273041.871,17.438263
1435273041.886,20.939674
1435273041.902,24.23478
1435273041.918,27.135399
1435273041.933,29.64692
1435273041.949,31.987213
1435273041.964,34.54615
1435273041.98,37.700417
1435273041.996,41.69168
1435273042.011,46.428154
1435273042.027,51.385155
1435273042.043,55.645897
1435273042.058,58.087227
1435273042.074,57.68489
1435273042.09,53.85485
1435273042.105,46.63742
1435273042.121,36.75361
1435273042.136,25.353714
1435273042.152,13.713509
1435273042.168,2.9219666
1435273042.183,-6.31691
1435273042.199,-13.723389
1435273042.215,-19.334091
1435273042.23,-23.423965
1435273042.246,-26.335938
1435273042.261,-28.407661
1435273042.277,-29.903381
1435273042.293,-31.007973
1435273042.308,-31.826927
1435273042.324,-32.433228
1435273042.34,-32.889748
1435273042.355,-33.256393
1435273042.371,-33.58288
1435273042.386,-33.87005
1435273042.402,-34.07086
1435273042.418,-34.11283
1435273042.433,-33.938927
1435273042.449,-33.5149
1435273042.465,-32.891
1435273042.48,-32.11026
1435273042.496,-31.21251
1435273042.511,-30.175194
1435273042.527,-28.889633
1435273042.543,-27.236153
1435273042.558,-25.030083
1435273042.574,-22.122467
1435273042.59,-18.474274
1435273042.605,-14.255592
1435273042.621,-9.8378525
1435273042.636,-5.702652
1435273042.652,-2.2681046
1435273042.668,0.3338852
1435273042.683,2.307518
1435273042.699,4.0733185
1435273042.715,6.0808105
1435273042.73,8.58091
1435273042.746,11.544861
1435273042.761,14.740379
1435273042.777,17.920288
1435273042.793,20.961197
1435273042.808,23.942467
1435273042.824,27.025078
1435273042.84,30.358559
1435273042.855,33.998558
1435273042.871,37.977707
1435273042.886,42.32215
1435273042.902,47.088806
1435273042.918,52.219643
1435273042.933,57.346764
1435273042.949,61.76934
1435273042.965,64.47898
1435273042.98,64.44097
1435273042.996,60.984886
1435273043.011,54.0421
1435273043.027,44.250458
1435273043.043,32.736656
1435273043.058,20.806122
1435273043.074,9.562675
1435273043.09,-0.2624054
1435273043.105,-8.370758
1435273043.121,-14.802139
1435273043.136,-19.766472
1435273043.152,-23.54332
1435273043.168,-26.417267
1435273043.183,-28.60884
1435273043.199,-30.307648
1435273043.215,-31.636795
1435273043.23,-32.66623
1435273043.246,-33.449516
1435273043.261,-34.01922
1435273043.277,-34.394073
1435273043.293,-34.6083
1435273043.308,-34.663734
1435273043.324,-34.598495
1435273043.34,-34.43776
1435273043.355,-34.265617
1435273043.371,-34.161552
1435273043.386,-34.1212
1435273043.402,-34.003937
1435273043.418,-33.562996
1435273043.433,-32.50866
1435273043.449,-30.70301
1435273043.465,-28.220596
1435273043.48,-25.405807
1435273043.496,-22.664711
1435273043.511,-20.297829
1435273043.527,-18.348732
1435273043.543,-16.632355
1435273043.558,-14.830666
1435273043.574,-12.708702
1435273043.59,-10.1933365
1435273043.605,-7.395172
1435273043.621,-4.4888763
1435273043.636,-1.63694
1435273043.652,1.0902939
1435273043.668,3.6840668
1435273043.683,6.188095
1435273043.699,8.642273
1435273043.715,11.128632
1435273043.73,13.77388
1435273043.746,16.708557
1435273043.761,20.009201
1435273043.777,23.677177
1435273043.793,27.584038
1435273043.808,31.51316
1435273043.824,35.255463
1435273043.84,38.68799
1435273043.855,41.874947
1435273043.871,45.06904
1435273043.886,48.608414
1435273043.902,52.79196
1435273043.918,57.60878
1435273043.933,62.642677
1435273043.949,66.98762
1435273043.965,69.50073
1435273043.98,69.07374
1435273043.996,65.0516
1435273044.011,57.435623
1435273044.027,46.90986
1435273044.043,34.630432
1435273044.058,21.880562
1435273044.074,9.779182
1435273044.09,-0.9192734
1435273044.105,-9.822243
1435273044.121,-16.849518
1435273044.136,-22.139389
1435273044.152,-25.9441
1435273044.168,-28.587967
1435273044.183,-30.415031
1435273044.199,-31.761826
1435273044.215,-32.8684
1435273044.23,-33.88572
1435273044.246,-34.826202
1435273044.261,-35.631615
1435273044.277,-36.21319
1435273044.293,-36.541336
1435273044.308,-36.657776
1435273044.324,-36.67758
1435273044.34,-36.716164
1435273044.355,-36.860016
1435273044.371,-37.1073
1435273044.386,-37.36911
1435273044.402,-37.478302
1435273044.418,-37.261284
1435273044.433,-36.54547
1435273044.449,-35.222603
1435273044.465,-33.248703
1435273044.48,-30.736343
1435273044.496,-27.885864
1435273044.511,-24.983223
1435273044.527,-22.279388
1435273044.543,-19.908104
1435273044.558,-17.80577
1435273044.574,-15.773689
1435273044.59,-13.585747
1435273044.605,-11.052925
1435273044.621,-8.114647
1435273044.636,-4.8369217
1435273044.652,-1.3732758
1435273044.668,2.08284
1435273044.683,5.3421707
1435273044.699,8.253685
1435273044.715,10.778938
1435273044.73,13.001465
1435273044.746,15.149742
1435273044.762,17.520485
1435273044.777,20.400566
1435273044.793,23.919044
1435273044.808,27.989876
1435273044.824,32.31691
1435273044.84,36.558266
1435273044.855,40.466133
1435273044.871,44.04886
1435273044.887,47.584435
1435273044.902,51.470802
1435273044.918,55.97963
1435273044.933,61.011696
1435273044.949,65.957405
1435273044.965,69.81142
1435273044.98,71.400246
1435273044.996,69.842514
1435273045.012,64.80406
1435273045.027,56.615334
1435273045.043,46.113327
1435273045.058,34.36756
1435273045.074,22.412094
1435273045.09,11.084076
1435273045.105,0.9904175
1435273045.121,-7.47789
1435273045.137,-14.1265335
1435273045.152,-18.975563
1435273045.168,-22.28453
1435273045.183,-24.478058
1435273045.199,-26.061607
1435273045.215,-27.436226
1435273045.23,-28.817764
1435273045.246,-30.225525
1435273045.262,-31.575478
1435273045.277,-32.73105
1435273045.293,-33.617058
1435273045.308,-34.197823
1435273045.324,-34.50052
1435273045.34,-34.588905
1435273045.355,-34.574303
1435273045.371,-34.57158
1435273045.387,-34.602615
1435273045.402,-34.570007
1435273045.418,-34.28527
1435273045.433,-33.48864
1435273045.449,-32.037796
1435273045.465,-29.967415
1435273045.48,-27.509941
1435273045.496,-24.992584
1435273045.512,-22.680092
1435273045.527,-20.639748
1435273045.543,-18.714478
1435273045.558,-16.609528
1435273045.574,-14.068031
1435273045.59,-11.015457
1435273045.605,-7.6434937
1435273045.621,-4.2923355
1435273045.637,-1.3090973
1435273045.652,1.1419754
1435273045.668,3.191513
1435273045.683,5.2275925
1435273045.699,7.6655807
1435273045.715,10.815689
1435273045.73,14.66153
1435273045.746,18.899017
1435273045.762,23.041756
1435273045.777,26.682579
1435273045.793,29.612862
1435273045.808,31.958534
1435273045.824,34.11628
1435273045.84,36.6566
1435273045.855,40.102615
1435273045.871,44.766792
1435273045.887,50.549255
1435273045.902,56.837677
1435273045.918,62.53659
1435273045.933,66.27938
1435273045.949,66.7661
1435273045.965,63.16902
1435273045.98,55.383713
1435273045.996,44.131996
1435273046.012,30.751839
1435273046.027,16.866295
1435273046.043,3.9566345
1435273046.058,-6.9279213
1435273046.074,-15.331795
1435273046.09,-21.326653
1435273046.105,-25.312294
1435273046.121,-27.812641
1435273046.137,-29.296886
1435273046.152,-30.111671
1435273046.168,-30.494122
1435273046.183,-30.578781
1435273046.199,-30.507355
1435273046.215,-30.35339
1435273046.23,-30.18774
1435273046.246,-30.022942
1435273046.262,-29.86111
1435273046.277,-29.696732
1435273046.293,-29.559517
1435273046.308,-29.502113
1435273046.324,-29.56549
1435273046.34,-29.740189
1435273046.355,-29.963032
1435273046.371,-30.04287
1435273046.387,-29.764751
1435273046.402,-28.905106
1435273046.418,-27.296326
1435273046.433,-24.90728
1435273046.449,-21.892292
1435273046.465,-18.538982
1435273046.48,-15.204975
1435273046.496,-12.162121
1435273046.512,-9.505203
1435273046.527,-7.122612
1435273046.543,-4.780834
1435273046.558,-2.216034
1435273046.574,0.7116394
1435273046.59,3.9816666
1435273046.605,7.4340134
1435273046.621,10.863178
1435273046.637,14.098621
1435273046.652,17.08641
1435273046.668,19.84904
1435273046.683,22.493618
1435273046.699,25.161045
1435273046.715,28.080976
1435273046.73,31.501451
1435273046.746,35.671104
1435273046.762,40.649895
1435273046.777,46.145756
1435273046.793,51.389885
1435273046.808,55.20706
1435273046.824,56.311646
1435273046.84,53.738487
1435273046.855,47.237545
1435273046.871,37.471733
1435273046.887,25.765306
1435273046.902,13.657471
1435273046.918,2.388548
1435273046.933,-7.357765
1435273046.949,-15.4734955
1435273046.965,-22.0771
1435273046.98,-27.319561
1435273046.996,-31.167097
1435273047.012,-33.561058
1435273047.027,-34.535168
1435273047.043,-34.373863
1435273047.058,-33.519913
1435273047.074,-32.446236
1435273047.09,-31.470425
1435273047.105,-30.696434
1435273047.121,-30.063549
1435273047.137,-29.508568
1435273047.152,-29.012405
1435273047.168,-28.6547
1435273047.183,-28.524035
1435273047.199,-28.657608
1435273047.215,-28.990326
1435273047.23,-29.362041
1435273047.246,-29.50487
1435273047.262,-29.107449
1435273047.277,-27.940834
1435273047.293,-25.894522
1435273047.308,-23.025097
1435273047.324,-19.588835
1435273047.34,-15.898852
1435273047.355,-12.254949
1435273047.371,-8.805721
1435273047.387,-5.5465345
1435273047.402,-2.318808
1435273047.418,1.0615859
1435273047.434,4.7672935
1435273047.449,8.841906
1435273047.465,13.186657
1435273047.48,17.576485
1435273047.496,21.741577
1435273047.512,25.464476
1435273047.527,28.684912
1435273047.543,31.533947
1435273047.559,34.371723
1435273047.574,37.631092
1435273047.59,41.725044
1435273047.605,46.81975
1435273047.621,52.69819
1435273047.637,58.67592
1435273047.652,63.683327
1435273047.668,66.46442
1435273047.684,65.92178
1435273047.699,61.47472
1435273047.715,53.235382
1435273047.73,42.021717
1435273047.746,29.124733
1435273047.762,15.936546
1435273047.777,3.636406
1435273047.793,-7.0106688
1435273047.809,-15.665722
1435273047.824,-22.333591
1435273047.84,-27.181671
1435273047.855,-30.475119
1435273047.871,-32.501595
1435273047.887,-33.59119
1435273047.902,-34.088814
1435273047.918,-34.344967
1435273047.934,-34.61715
1435273047.949,-35.02986
1435273047.965,-35.54734
1435273047.98,-36.02048
1435273047.996,-36.27012
1435273048.012,-36.19597
1435273048.027,-35.81508
1435273048.043,-35.281075
1435273048.059,-34.76631
1435273048.074,-34.395348
1435273048.09,-34.155434
1435273048.105,-33.875553
1435273048.121,-33.29535
1435273048.137,-32.16326
1435273048.152,-30.313251
1435273048.168,-27.72568
1435273048.184,-24.518517
1435273048.199,-20.904861
1435273048.215,-17.137741
1435273048.23,-13.429216
1435273048.246,-9.879244
1435273048.262,-6.48374
1435273048.277,-3.0976563
1435273048.293,0.46051598
1435273048.309,4.3353996
1435273048.324,8.546431
1435273048.34,12.982304
1435273048.355,17.405596
1435273048.371,21.568134
1435273048.387,25.329863
1435273048.402,28.71366
1435273048.418,31.894485
1435273048.434,35.198383
1435273048.449,38.965187
1435273048.465,43.48501
1435273048.48,48.854473
1435273048.496,54.848125
1435273048.512,60.833984
1435273048.527,65.8179
1435273048.543,68.63878
1435273048.559,68.29349
1435273048.574,64.237564
1435273048.59,56.557785
1435273048.605,45.93701
1435273048.621,33.455437
1435273048.637,20.298922
1435273048.652,7.531584
1435273048.668,-4.0392723
1435273048.684,-13.902611
1435273048.699,-21.816833
1435273048.715,-27.787312
1435273048.73,-32.0443
1435273048.746,-34.926033
1435273048.762,-36.82557
1435273048.777,-38.06223
1435273048.793,-38.85988
1435273048.809,-39.325745
1435273048.824,-39.549503
1435273048.84,-39.607445
1435273048.855,-39.596104
1435273048.871,-39.607655
1435273048.887,-39.701706
1435273048.902,-39.84362
1435273048.918,-39.946724
1435273048.934,-39.836113
1435273048.949,-39.34597
1435273048.965,-38.361416
1435273048.98,-36.92038
1435273048.996,-35.14925
1435273049.012,-33.220173
1435273049.027,-31.204796
1435273049.043,-29.042225
1435273049.059,-26.568653
1435273049.074,-23.646072
1435273049.09,-20.2971
1435273049.105,-16.723755
1435273049.121,-13.16626
1435273049.137,-9.795792
1435273049.152,-6.5745277
1435273049.168,-3.333149
1435273049.184,0.17483139
1435273049.199,4.0372925
1435273049.215,8.184883
1435273049.23,12.392303
1435273049.246,16.409222
1435273049.262,20.045052
1435273049.277,23.271969
1435273049.293,26.184402
1435273049.309,29.079624
1435273049.324,32.32029
1435273049.34,36.28023
1435273049.355,41.224487
1435273049.371,47.159058
1435273049.387,53.72622
1435273049.402,60.21191
1435273049.418,65.624825
1435273049.434,68.87938
1435273049.449,69.00304
1435273049.465,65.38147
1435273049.48,57.935524
1435273049.496,47.225582
1435273049.512,34.36045
1435273049.527,20.764584
1435273049.543,7.7915688
1435273049.559,-3.5411987
1435273049.574,-12.779846
1435273049.59,-19.937595
1435273049.605,-25.33154
1435273049.621,-29.347874
1435273049.637,-32.326527
1435273049.652,-34.474823
1435273049.668,-35.961056
1435273049.684,-36.855804
1435273049.699,-37.243336
1435273049.715,-37.21872
1435273049.73,-36.901123
1435273049.746,-36.453674
1435273049.762,-36.042908
1435273049.777,-35.76201
1435273049.793,-35.636967
1435273049.809,-35.54927
1435273049.824,-35.317966
1435273049.84,-34.7941
1435273049.855,-33.937263
1435273049.871,-32.82046
1435273049.887,-31.579933
1435273049.902,-30.279835
1435273049.918,-28.86636
1435273049.934,-27.132893
1435273049.949,-24.86675
1435273049.965,-21.956165
1435273049.98,-18.4762
1435273049.996,-14.691315
1435273050.012,-10.897327
1435273050.027,-7.3279057
1435273050.043,-4.0511074
1435273050.059,-0.9430866
1435273050.074,2.1812954
1435273050.09,5.4869003
1435273050.106,8.999342
1435273050.121,12.66021
1435273050.137,16.31842
1435273050.152,19.879692
1435273050.168,23.281178
1435273050.184,26.51759
1435273050.199,29.581793
1435273050.215,32.49131
1435273050.231,35.365585
1435273050.246,38.48582
1435273050.262,42.24378
1435273050.277,46.93361
1435273050.293,52.455235
1435273050.309,58.163994
1435273050.324,62.86439
1435273050.34,65.1742
1435273050.356,63.935795
1435273050.371,58.653877
1435273050.387,49.648964
1435273050.402,37.932785
1435273050.418,24.887714
1435273050.434,11.898409
1435273050.449,0.06754303
1435273050.465,-9.917545
1435273050.481,-17.770952
1435273050.496,-23.513336
1435273050.512,-27.37399
1435273050.527,-29.683475
1435273050.543,-30.827791
1435273050.559,-31.218912
1435273050.574,-31.262728
1435273050.59,-31.312832
1435273050.606,-31.587763
1435273050.621,-32.054173
1435273050.637,-32.48696
1435273050.652,-32.558746
1435273050.668,-32.04998
1435273050.684,-30.981083
1435273050.699,-29.67168
1435273050.715,-28.522606
1435273050.731,-27.867054
1435273050.746,-27.751602
1435273050.762,-27.935633
1435273050.777,-27.991776
1435273050.793,-27.539345
1435273050.809,-26.32796
1435273050.824,-24.324345
1435273050.84,-21.670668
1435273050.856,-18.583149
1435273050.871,-15.263125
1435273050.887,-11.90062
1435273050.902,-8.616428
1435273050.918,-5.514306
1435273050.934,-2.6489239
1435273050.949,-0.016348839
1435273050.965,2.4799309
1435273050.981,4.9937334
1435273050.996,7.791068
1435273051.012,11.034654
1435273051.027,14.723247
1435273051.043,18.587036
1435273051.059,22.231552
1435273051.074,25.277292
1435273051.09,27.653812
1435273051.106,29.660028
1435273051.121,31.87949
1435273051.137,34.930897
1435273051.152,39.10686
1435273051.168,44.15491
1435273051.184,49.306087
1435273051.199,53.432495
1435273051.215,55.36021
1435273051.231,54.15901
1435273051.246,49.431313
1435273051.262,41.347847
1435273051.277,30.684767
1435273051.293,18.61174
1435273051.309,6.4639416
1435273051.324,-4.5989275
1435273051.34,-13.783195
1435273051.356,-20.797335
1435273051.371,-25.654598
1435273051.387,-28.617556
1435273051.402,-30.04857
1435273051.418,-30.349468
1435273051.434,-29.969755
1435273051.449,-29.392065
1435273051.465,-29.032923
1435273051.481,-29.147537
1435273051.496,-29.72025
1435273051.512,-30.49302
1435273051.527,-31.100645
1435273051.543,-31.300402
1435273051.559,-31.015532
1435273051.574,-30.39904
1435273051.59,-29.702795
1435273051.606,-29.11417
1435273051.621,-28.67448
1435273051.637,-28.246956
1435273051.652,-27.57405
1435273051.668,-26.416698
1435273051.684,-24.620132
1435273051.699,-22.194048
1435273051.715,-19.296164
1435273051.731,-16.203266
1435273051.746,-13.117785
1435273051.762,-10.144539
1435273051.777,-7.2394123
1435273051.793,-4.2659893
1435273051.809,-1.0951834
1435273051.824,2.3173046
1435273051.84,5.9068584
1435273051.856,9.5348835
1435273051.871,13.065285
1435273051.887,16.427275
1435273051.902,19.600576
1435273051.918,22.604748
1435273051.934,25.531311
1435273051.949,28.52212
1435273051.965,31.844435
1435273051.981,35.76912
1435273051.996,40.47254
1435273052.012,45.79989
1435273052.027,51.175274
1435273052.043,55.57186
1435273052.059,57.78878
1435273052.074,56.838337
1435273052.09,52.290993
1435273052.106,44.497746
1435273052.121,34.492523
1435273052.137,23.629967
1435273052.152,13.179148
1435273052.168,3.9735699
1435273052.184,-3.6303425
1435273052.199,-9.664927
1435273052.215,-14.292679
1435273052.231,-17.669403
1435273052.246,-19.895283
1435273052.262,-21.116985
1435273052.277,-21.58285
1435273052.293,-21.627544
1435273052.309,-21.59048
1435273052.324,-21.662964
1435273052.34,-21.843689
1435273052.356,-21.983536
1435273052.371,-21.856312
1435273052.387,-21.323036
1435273052.402,-20.349422
1435273052.418,-19.042507
1435273052.434,-17.610958
1435273052.449,-16.341465
1435273052.465,-15.462563
1435273052.481,-15.108837
1435273052.496,-15.131714
1435273052.512,-15.198227
1435273052.527,-14.813755
1435273052.543,-13.558933
1435273052.559,-11.176746
1435273052.574,-7.721466
1435273052.59,-3.5502357
1435273052.606,0.73983
1435273052.621,4.363426
1435273052.637,6.5583954
1435273052.652,6.756878
1435273052.668,4.8231773
1435273052.684,1.2055855
1435273052.699,-3.164833
1435273052.715,-7.1826286
1435273052.731,-9.960167
1435273052.746,-11.096146
1435273052.762,-10.67083
1435273052.778,-8.97871
1435273052.793,-6.251446
1435273052.809,-2.4790154
1435273052.824,2.4782333
1435273052.84,8.703312
1435273052.856,16.00056
1435273052.871,23.937283
1435273052.887,31.912418
1435273052.902,39.300533
1435273052.918,45.464817
1435273052.934,49.75765
1435273052.949,51.52065
1435273052.965,50.226456
1435273052.981,45.696228
1435273052.996,38.26223
1435273053.012,28.758362
1435273053.028,18.358315
1435273053.043,8.217564
1435273053.059,-0.65753174
1435273053.074,-7.653801
1435273053.09,-12.550419
1435273053.106,-15.534393
1435273053.121,-17.07394
1435273053.137,-17.834103
1435273053.153,-18.443813
1435273053.168,-19.351345
1435273053.184,-20.72725
1435273053.199,-22.479053
1435273053.215,-24.343193
1435273053.231,-26.050312
1435273053.246,-27.361435
1435273053.262,-28.149746
1435273053.278,-28.377453
1435273053.293,-28.124851
1435273053.309,-27.528938
1435273053.324,-26.813961
1435273053.34,-26.16597
1435273053.356,-25.672993
1435273053.371,-25.287716
1435273053.387,-24.84106
1435273053.403,-24.102982
1435273053.418,-22.901596
1435273053.434,-21.088402
1435273053.449,-18.615131
1435273053.465,-15.543472
1435273053.481,-12.077915
1435273053.496,-8.524223
1435273053.512,-5.279667
1435273053.528,-2.6095695
1435273053.543,-0.5641556
1435273053.559,1.1193924
1435273053.574,2.8666916
1435273053.59,5.096443
1435273053.606,7.970558
1435273053.621,11.387627
1435273053.637,15.03302
1435273053.653,18.578407
1435273053.668,21.842728
1435273053.684,24.835228
1435273053.699,27.67395
1435273053.715,30.508476
1435273053.731,33.449722
1435273053.746,36.63109
1435273053.762,40.22319
1435273053.778,44.437057
1435273053.793,49.31875
1435273053.809,54.662933
1435273053.824,59.794823
1435273053.84,63.723236
1435273053.856,65.3152
1435273053.871,63.726295
1435273053.887,58.630615
1435273053.903,50.396362
1435273053.918,39.918205
1435273053.934,28.355644
1435273053.949,16.794365
1435273053.965,6.056923
1435273053.981,-3.4114609
1435273053.996,-11.439331
1435273054.012,-18.059639
1435273054.028,-23.39682
1435273054.043,-27.637955
1435273054.059,-30.976318
1435273054.074,-33.642815
1435273054.09,-35.804695
1435273054.106,-37.569984
1435273054.121,-38.94319
1435273054.137,-39.877724
1435273054.153,-40.312035
1435273054.168,-40.24945
1435273054.184,-39.744484
1435273054.199,-38.910698
1435273054.215,-37.828354
1435273054.231,-36.51841
1435273054.246,-34.949226
1435273054.262,-33.09858
1435273054.278,-31.007584
1435273054.293,-28.752083
1435273054.309,-26.453568
1435273054.324,-24.17295
1435273054.34,-21.882393
1435273054.356,-19.477425
1435273054.371,-16.802048
1435273054.387,-13.781265
1435273054.403,-10.451324
1435273054.418,-7.0203323
1435273054.434,-3.708603
1435273054.449,-0.74160767
1435273054.465,1.8246536
1435273054.481,4.050911
1435273054.496,6.088478
1435273054.512,8.083458
1435273054.528,10.155113
1435273054.543,12.40567
1435273054.559,14.956612
1435273054.574,17.906921
1435273054.59,21.26381
1435273054.606,24.862679
1435273054.621,28.451134
1435273054.637,31.7602
1435273054.653,34.711967
1435273054.668,37.491974
1435273054.684,40.490005
1435273054.699,44.02668
1435273054.715,48.14364
1435273054.731,52.42099
1435273054.746,56.082108
1435273054.762,58.190544
1435273054.778,57.930023
1435273054.793,54.84594
1435273054.809,48.903587
1435273054.824,40.5225
1435273054.84,30.477455
1435273054.856,19.769615
1435273054.871,9.40271
1435273054.887,0.19647217
1435273054.903,-7.392132
1435273054.918,-13.309242
1435273054.934,-17.739773
1435273054.949,-21.0024
1435273054.965,-23.361706
1435273054.981,-25.006142
1435273054.996,-26.024437
1435273055.012,-26.565426
1435273055.028,-26.794044
1435273055.043,-26.934956
1435273055.059,-27.184177
1435273055.074,-27.666046
1435273055.09,-28.379261
1435273055.106,-29.217617
1435273055.121,-29.95506
1435273055.137,-30.337784
1435273055.153,-30.184826
1435273055.168,-29.473774
1435273055.184,-28.362915
1435273055.199,-27.124405
1435273055.215,-25.988514
1435273055.231,-25.020386
1435273055.246,-24.062656
1435273055.262,-22.859974
1435273055.278,-21.152588
1435273055.293,-18.857788
1435273055.309,-16.043606
1435273055.324,-12.912014
1435273055.34,-9.662582
1435273055.356,-6.4669914
1435273055.371,-3.4021072
1435273055.387,-0.5139427
1435273055.403,2.2136612
1435273055.418,4.821171
1435273055.434,7.3631897
1435273055.449,9.878456
1435273055.465,12.389511
1435273055.481,14.873314
1435273055.496,17.398056
1435273055.512,20.07816
1435273055.528,23.107883
1435273055.543,26.674671
1435273055.559,30.895466
1435273055.574,35.737144
1435273055.59,41.015854
1435273055.606,46.385796
1435273055.621,51.327286
1435273055.637,55.162407
1435273055.653,57.107525
1435273055.668,56.41089
1435273055.684,52.601353
1435273055.7,45.665127
1435273055.715,36.17032
1435273055.731,25.115875
1435273055.746,13.715538
1435273055.762,3.0546608
1435273055.778,-6.101799
1435273055.793,-13.44021
1435273055.809,-19.002022
1435273055.825,-23.050129
1435273055.84,-25.925167
1435273055.856,-27.964128
1435273055.871,-29.389122
1435273055.887,-30.35707
1435273055.903,-30.957535
1435273055.918,-31.260586
1435273055.934,-31.362316
1435273055.95,-31.376144
1435273055.965,-31.397186
1435273055.981,-31.49587
1435273055.996,-31.691523
1435273056.012,-31.95184
1435273056.028,-32.219536
1435273056.043,-32.43255
1435273056.059,-32.4918
1435273056.075,-32.31719
1435273056.09,-31.826958
1435273056.106,-30.968897
1435273056.121,-29.632814
1435273056.137,-27.741512
1435273056.153,-25.217989
1435273056.168,-22.089642
1435273056.184,-18.531555
1435273056.2,-14.861782
1435273056.215,-11.424694
1435273056.231,-8.490133
1435273056.246,-6.0811405
1435273056.262,-3.9827309
1435273056.278,-1.8361683
1435273056.293,0.66563797
1435273056.309,3.6857357
1435273056.325,7.1600246
1435273056.34,10.906382
1435273056.356,14.708752
1435273056.371,18.402996
1435273056.387,21.87048
1435273056.403,25.060144
1435273056.418,27.973635
1435273056.434,30.722332
1435273056.45,33.55914
1435273056.465,36.83403
1435273056.481,40.847183
1435273056.496,45.730453
1435273056.512,51.298164
1435273056.528,56.99198
1435273056.543,61.9597
1435273056.559,65.17742
1435273056.575,65.691795
1435273056.59,62.845036
1435273056.606,56.485268
1435273056.621,47.10372
1435273056.637,35.70483
1435273056.653,23.575384
1435273056.668,11.902081
1435273056.684,1.5052395
1435273056.7,-7.2850523
1435273056.715,-14.539051
1435273056.731,-20.51849
1435273056.746,-25.486938
1435273056.762,-29.57011
1435273056.778,-32.765602
1435273056.793,-35.021854
1435273056.809,-36.294266
1435273056.825,-36.65593
1435273056.84,-36.306805
1435273056.856,-35.57589
1435273056.871,-34.827393
1435273056.887,-34.37841
1435273056.903,-34.358498
1435273056.918,-34.749092
1435273056.934,-35.358303
1435273056.95,-35.964123
1435273056.965,-36.397797
1435273056.981,-36.59057
1435273056.996,-36.509544
1435273057.012,-36.07542
1435273057.028,-35.169304
1435273057.043,-33.630276
1435273057.059,-31.402748
1435273057.075,-28.568096
1435273057.09,-25.360456
1435273057.106,-22.072247
1435273057.121,-18.918175
1435273057.137,-15.983545
1435273057.153,-13.187508
1435273057.168,-10.380093
1435273057.184,-7.421882
1435273057.2,-4.2907963
1435273057.215,-1.078944
1435273057.231,2.044788
1435273057.246,4.9515767
1435273057.262,7.6171417
1435273057.278,10.158512
1435273057.293,12.784513
1435273057.309,15.678776
1435273057.325,18.911749
1435273057.34,22.409
1435273057.356,25.97882
1435273057.371,29.452843
1435273057.387,32.762264
1435273057.403,36.005234
1435273057.418,39.388725
1435273057.434,43.19228
1435273057.45,47.630024
1435273057.465,52.74554
1435273057.481,58.28405
1435273057.496,63.635887
1435273057.512,67.83428
1435273057.528,69.780945
1435273057.543,68.47869
1435273057.559,63.431232
1435273057.575,54.804287
1435273057.59,43.45438
1435273057.606,30.66006
1435273057.621,17.763542
1435273057.637,5.8512917
1435273057.653,-4.443077
1435273057.668,-12.913731
1435273057.684,-19.64996
1435273057.7,-24.879654
1435273057.715,-28.853695
1435273057.731,-31.8243
1435273057.746,-33.98362
1435273057.762,-35.528038
1435273057.778,-36.608063
1435273057.793,-37.37435
1435273057.809,-37.909832
1435273057.825,-38.272247
1435273057.84,-38.457558
1435273057.856,-38.48902
1435273057.871,-38.379044
1435273057.887,-38.165726
1435273057.903,-37.92872
1435273057.918,-37.74598
1435273057.934,-37.62752
1435273057.95,-37.507423
1435273057.965,-37.23196
1435273057.981,-36.599197
1435273057.996,-35.443604
1435273058.012,-33.714767
1435273058.028,-31.453312
1435273058.043,-28.819841
1435273058.059,-25.982513
1435273058.075,-23.082174
1435273058.09,-20.170456
1435273058.106,-17.235844
1435273058.121,-14.240786
1435273058.137,-11.191349
1435273058.153,-8.138178
1435273058.168,-5.1353397
1435273058.184,-2.1979275
1435273058.2,0.75945663
1435273058.215,3.888918
1435273058.231,7.3177814
1435273058.246,11.085821
1435273058.262,15.069693
1435273058.278,19.073774
1435273058.293,22.878305
1435273058.309,26.358192
1435273058.325,29.536873
1435273058.34,32.572693
1435273058.356,35.697403
1435273058.372,39.157974
1435273058.387,43.162964
1435273058.403,47.82961
1435273058.418,53.083332
1435273058.434,58.54283
1435273058.45,63.497887
1435273058.465,66.955475
1435273058.481,67.85285
1435273058.497,65.375534
1435273058.512,59.213623
1435273058.528,49.73912
1435273058.543,37.922176
1435273058.559,25.104607
1435273058.575,12.607565
1435273058.59,1.4553204
1435273058.606,-7.81933
1435273058.622,-15.168787
1435273058.637,-20.84874
1435273058.653,-25.196356
1435273058.668,-28.454996
1435273058.684,-30.73684
1435273058.7,-32.115692
1435273058.715,-32.756256
1435273058.731,-32.97759
1435273058.747,-33.136307
1435273058.762,-33.524223
1435273058.778,-34.184147
1435273058.793,-34.93569
1435273058.809,-35.494415
1435273058.825,-35.670967
1435273058.84,-35.447155
1435273058.856,-34.993984
1435273058.872,-34.473976
1435273058.887,-33.96406
1435273058.903,-33.382652
1435273058.918,-32.560143
1435273058.934,-31.342915
1435273058.95,-29.678787
1435273058.965,-27.615673
1435273058.981,-25.270454
1435273058.997,-22.762302
1435273059.012,-20.1902
1435273059.028,-17.583862
1435273059.043,-14.949749
1435273059.059,-12.223129
1435273059.075,-9.350952
1435273059.09,-6.2811394
1435273059.106,-3.0389557
1435273059.122,0.3547058
1435273059.137,3.8545952
1435273059.153,7.4691505
1435273059.168,11.210098
1435273059.184,15.0359535
1435273059.2,18.80154
1435273059.215,22.297272
1435273059.231,25.347301
1435273059.247,27.954205
1435273059.262,30.333908
1435273059.278,32.875595
1435273059.293,35.97548
1435273059.309,39.913857
1435273059.325,44.745296
1435273059.34,50.23991
1435273059.356,55.86936
1435273059.372,60.843983
1435273059.387,64.17763
1435273059.403,64.87538
1435273059.418,62.1901
1435273059.434,55.894413
1435273059.45,46.393208
1435273059.465,34.649334
1435273059.481,21.930218
1435273059.497,9.478172
1435273059.512,-1.7627296
1435273059.528,-11.231407
1435273059.543,-18.736942
1435273059.559,-24.301502
1435273059.575,-28.116371
1435273059.59,-30.427723
1435273059.606,-31.545399
1435273059.622,-31.77277
1435273059.637,-31.445118
1435273059.653,-30.871616
1435273059.668,-30.333351
1435273059.684,-30.059322
1435273059.7,-30.174843
1435273059.715,-30.660175
1435273059.731,-31.396843
1435273059.747,-32.17206
1435273059.762,-32.78845
1435273059.778,-33.123573
1435273059.793,-33.174088
1435273059.809,-32.99048
1435273059.825,-32.632477
1435273059.84,-32.10346
1435273059.856,-31.310135
1435273059.872,-30.087643
1435273059.887,-28.281902
1435273059.903,-25.805424
1435273059.918,-22.739712
1435273059.934,-19.291412
1435273059.95,-15.782574
1435273059.965,-12.501877
1435273059.981,-9.604206
1435273059.997,-7.03088
1435273060.012,-4.554653
1435273060.028,-1.8663406
1435273060.043,1.2578316
1435273060.059,4.8592415
1435273060.075,8.753246
1435273060.09,12.655869
1435273060.106,16.298649
1435273060.122,19.57368
1435273060.137,22.538853
1435273060.153,25.440254
1435273060.168,28.573318
1435273060.184,32.236725
1435273060.2,36.614754
1435273060.215,41.689556
1435273060.231,47.14233
1435273060.247,52.316048
1435273060.262,56.277397
1435273060.278,57.99542
1435273060.293,56.625187
1435273060.309,51.80528
1435273060.325,43.786934
1435273060.34,33.409073
1435273060.356,21.817993
1435273060.372,10.174995
1435273060.387,-0.63620377
1435273060.403,-10.078808
1435273060.418,-17.923435
1435273060.434,-24.079235
1435273060.45,-28.543144
1435273060.465,-31.363125
1435273060.481,-32.715164
1435273060.497,-32.95787
1435273060.512,-32.590256
1435273060.528,-32.12297
1435273060.543,-31.92567
1435273060.559,-32.112534
1435273060.575,-32.557663
1435273060.59,-32.97969
1435273060.606,-33.136513
1435273060.622,-32.88707
1435273060.637,-32.288372
1435273060.653,-31.497173
1435273060.668,-30.708874
1435273060.684,-30.071388
1435273060.7,-29.61444
1435273060.715,-29.229382
1435273060.731,-28.685272
1435273060.747,-27.669094
1435273060.762,-25.878159
1435273060.778,-23.137924
1435273060.793,-19.489967
1435273060.809,-15.168354
1435273060.825,-10.580055
1435273060.84,-6.104656
1435273060.856,-2.0291786
1435273060.872,1.5765038
1435273060.887,4.813427
1435273060.903,7.900181
1435273060.918,11.079987
1435273060.934,14.51392
1435273060.95,18.221878
1435273060.965,22.065617
1435273060.981,25.804115
1435273060.997,29.192974
1435273061.012,32.132164
1435273061.028,34.794456
1435273061.044,37.583008
1435273061.059,41.02144
1435273061.075,45.50067
1435273061.09,51.031715
1435273061.106,57.103638
1435273061.122,62.79466
1435273061.137,66.92261
1435273061.153,68.385574
1435273061.169,66.40717
1435273061.184,60.718323
1435273061.2,51.6065
1435273061.215,39.902428
1435273061.231,26.783165
1435273061.247,13.552776
1435273061.262,1.3588219
1435273061.278,-9.025593
1435273061.294,-17.29037
1435273061.309,-23.495827
1435273061.325,-27.932663
1435273061.34,-30.9492
1435273061.356,-32.875397
1435273061.372,-33.988323
1435273061.387,-34.57883
1435273061.403,-34.91544
1435273061.419,-35.25104
1435273061.434,-35.71016
1435273061.45,-36.28421
1435273061.465,-36.816994
1435273061.481,-37.136406
1435273061.497,-37.081974
1435273061.512,-36.631958
1435273061.528,-35.86633
1435273061.544,-34.935795
1435273061.559,-33.985573
1435273061.575,-33.080894
1435273061.59,-32.15684
1435273061.606,-31.066505
1435273061.622,-29.610275
1435273061.637,-27.62741
1435273061.653,-25.046078
1435273061.669,-21.952091
1435273061.684,-18.498352
1435273061.7,-14.919655
1435273061.715,-11.427311
1435273061.731,-8.165581
1435273061.747,-5.139988
1435273061.762,-2.2724419
1435273061.778,0.62324524
1435273061.794,3.737564
1435273061.809,7.1959763
1435273061.825,11.004349
1435273061.84,15.051315
1435273061.856,19.110764
1435273061.872,22.977139
1435273061.887,26.522594
1435273061.903,29.748562
1435273061.919,32.79437
1435273061.934,35.895687
1435273061.95,39.34002
1435273061.965,43.44163
1435273061.981,48.3572
1435273061.997,53.972122
1435273062.012,59.762173
1435273062.028,64.76661
1435273062.044,67.72984
1435273062.059,67.48303
1435273062.075,63.266327
1435273062.09,55.09238
1435273062.106,43.742805
1435273062.122,30.618114
1435273062.137,17.284275
1435273062.153,5.08506
1435273062.169,-5.205757
1435273062.184,-13.413052
1435273062.2,-19.786377
1435273062.215,-24.755245
1435273062.231,-28.660217
1435273062.247,-31.622894
1435273062.262,-33.68104
1435273062.278,-34.87786
1435273062.294,-35.43026
1435273062.309,-35.64237
1435273062.325,-35.818768
1435273062.34,-36.069725
1435273062.356,-36.31502
1435273062.372,-36.344746
1435273062.387,-35.98844
1435273062.403,-35.251743
1435273062.419,-34.287167
1435273062.434,-33.27253
1435273062.45,-32.317665
1435273062.465,-31.367943
1435273062.481,-30.272522
1435273062.497,-28.85115
1435273062.512,-26.973343
1435273062.528,-24.518448
1435273062.544,-21.453495
1435273062.559,-17.77781
1435273062.575,-13.632744
1435273062.59,-9.276253
1435273062.606,-5.0855255
1435273062.622,-1.368454
1435273062.637,1.6969223
1435273062.653,4.1983185
1435273062.669,6.389694
1435273062.684,8.663143
1435273062.7,11.419369
1435273062.715,14.972973
1435273062.731,19.394264
1435273062.747,24.460228
1435273062.762,29.562065
1435273062.778,33.81495
1435273062.794,36.314133
1435273062.809,36.519814
1435273062.825,34.504528
1435273062.84,31.065601
1435273062.856,27.459896
1435273062.872,25.02745
1435273062.887,24.739975
1435273062.903,26.902687
1435273062.919,31.005478
1435273062.934,35.938126
1435273062.95,40.206055
1435273062.965,42.384933
1435273062.981,41.450775
1435273062.997,37.07789
1435273063.012,29.642647
1435273063.028,20.127373
1435273063.044,9.784767
1435273063.059,-0.18883514
1435273063.075,-8.920792
1435273063.09,-15.935188
1435273063.106,-21.127472
1435273063.122,-24.636932
1435273063.137,-26.764832
1435273063.153,-27.879547
1435273063.169,-28.428513
1435273063.184,-28.800888
1435273063.2,-29.318565
1435273063.215,-30.11644
1435273063.231,-31.14843
1435273063.247,-32.191544
1435273063.262,-32.969574
1435273063.278,-33.23217
1435273063.294,-32.90548
1435273063.309,-32.077843
1435273063.325,-30.999397
1435273063.34,-29.960373
1435273063.356,-29.154312
1435273063.372,-28.606407
1435273063.387,-28.173767
1435273063.403,-27.58197
1435273063.419,-26.580368
1435273063.434,-24.979187
1435273063.45,-22.734512
1435273063.465,-19.915855
1435273063.481,-16.727486
1435273063.497,-13.390587
1435273063.512,-10.137901
1435273063.528,-7.109604
1435273063.544,-4.3271637
1435273063.559,-1.638092
1435273063.575,1.1695633
1435273063.59,4.3102875
1435273063.606,7.8363495
1435273063.622,11.638695
1435273063.637,15.451645
1435273063.653,18.987823
1435273063.669,22.07302
1435273063.684,24.738617
1435273063.7,27.184692
1435273063.716,29.69136
1435273063.731,32.53589
1435273063.747,35.978542
1435273063.762,40.19032
1435273063.778,45.216297
1435273063.794,50.810577
1435273063.809,56.375153
1435273063.825,60.897224
1435273063.84,63.186447
1435273063.856,62.170387
1435273063.872,57.310654
1435273063.887,48.770016
1435273063.903,37.445366
1435273063.919,24.65651
1435273063.934,11.817078
1435273063.95,0.08770752
1435273063.966,-9.828461
1435273063.981,-17.713654
1435273063.997,-23.714706
1435273064.012,-28.164505
1435273064.028,-31.419968
1435273064.044,-33.748337
1435273064.059,-35.27243
1435273064.075,-36.059547
1435273064.091,-36.192253
1435273064.106,-35.86698
1435273064.122,-35.343758
1435273064.137,-34.89096
1435273064.153,-34.691353
1435273064.169,-34.75746
1435273064.184,-34.963844
1435273064.2,-35.138283
1435273064.216,-35.15175
1435273064.231,-34.957314
1435273064.247,-34.568726
1435273064.262,-33.971527
1435273064.278,-33.079132
1435273064.294,-31.74934
1435273064.309,-29.8177
1435273064.325,-27.24263
1435273064.341,-24.099873
1435273064.356,-20.62759
1435273064.372,-17.083809
1435273064.387,-13.706844
1435273064.403,-10.60498
1435273064.419,-7.732464
1435273064.434,-4.9562263
1435273064.45,-2.0849419
1435273064.466,1.0272217
1435273064.481,4.4453545
1435273064.497,8.138096
1435273064.512,11.983257
1435273064.528,15.800415
1435273064.544,19.403713
1435273064.559,22.72311
1435273064.575,25.816532
1435273064.591,28.920624
1435273064.606,32.356255
1435273064.622,36.440987
1435273064.637,41.367844
1435273064.653,47.09698
1435273064.669,53.279694
1435273064.684,59.245754
1435273064.7,64.00282
1435273064.716,66.414474
1435273064.731,65.42867
1435273064.747,60.45981
1435273064.762,51.66621
1435273064.778,40.034554
1435273064.794,27.130009
1435273064.809,14.6259
1435273064.825,3.7718544
1435273064.841,-4.901272
1435273064.856,-11.562622
1435273064.872,-16.747658
1435273064.887,-20.975235
1435273064.903,-24.508968
1435273064.919,-27.353733
1435273064.934,-29.429436
1435273064.95,-30.77116
1435273064.966,-31.560524
1435273064.981,-32.08381
1435273064.997,-32.560024
1435273065.012,-33.067352
1435273065.028,-33.53212
1435273065.044,-33.855072
1435273065.059,-33.96943
1435273065.075,-33.9029
1435273065.091,-33.736126
1435273065.106,-33.51888
1435273065.122,-33.219654
1435273065.137,-32.708103
1435273065.153,-31.818089
1435273065.169,-30.417675
1435273065.184,-28.476002
1435273065.2,-26.091202
1435273065.216,-23.40786
1435273065.231,-20.585377
1435273065.247,-17.70132
1435273065.262,-14.75124
1435273065.278,-11.688404
1435273065.294,-8.504139
1435273065.309,-5.2436943
1435273065.325,-1.9857712
1435273065.341,1.204464
1435273065.356,4.3234215
1435273065.372,7.43351
1435273065.387,10.630516
1435273065.403,14.005447
1435273065.419,17.548962
1435273065.434,21.210358
1435273065.45,24.87812
1435273065.466,28.43943
1435273065.481,31.83096
1435273065.497,35.13701
1435273065.512,38.611465
1435273065.528,42.615025
1435273065.544,47.448555
1435273065.559,53.095108
1435273065.575,59.01219
1435273065.591,64.17395
1435273065.606,67.2677
1435273065.622,67.18286
1435273065.637,63.345287
1435273065.653,55.907963
1435273065.669,45.62529
1435273065.684,33.613823
1435273065.7,20.999249
1435273065.716,8.755394
1435273065.731,-2.3910465
1435273065.747,-11.948431
1435273065.762,-19.651083
1435273065.778,-25.45934
1435273065.794,-29.585934
1435273065.809,-32.386932
1435273065.825,-34.269966
1435273065.841,-35.566833
1435273065.856,-36.482025
1435273065.872,-37.111122
1435273065.887,-37.4863
1435273065.903,-37.640648
1435273065.919,-37.657967
1435273065.934,-37.601257
1435273065.95,-37.532875
1435273065.966,-37.441574
1435273065.981,-37.288155
1435273065.997,-36.965347
1435273066.012,-36.391
1435273066.028,-35.511047
1435273066.044,-34.34813
1435273066.059,-32.93709
1435273066.075,-31.323795
1435273066.091,-29.491125
1435273066.106,-27.333252
1435273066.122,-24.741318
1435273066.137,-21.640905
1435273066.153,-18.108986
1435273066.169,-14.353382
1435273066.184,-10.626081
1435273066.2,-7.1460037
1435273066.216,-3.9884815
1435273066.231,-1.1122456
1435273066.247,1.6581974
1435273066.262,4.5067577
1435273066.278,7.659561
1435273066.294,11.192507
1435273066.309,15.092194
1435273066.325,19.180725
1435273066.341,23.181921
1435273066.356,26.858574
1435273066.372,30.124126
1435273066.388,33.09719
1435273066.403,36.065273
1435273066.419,39.39196
1435273066.434,43.409103
1435273066.45,48.285896
1435273066.466,53.93988
1435273066.481,59.933372
1435273066.497,65.45576
1435273066.512,69.404785
1435273066.528,70.61833
1435273066.544,68.192085
1435273066.559,61.862885
1435273066.575,52.10114
1435273066.591,40.030457
1435273066.606,27.080612
1435273066.622,14.596009
1435273066.638,3.5246315
1435273066.653,-5.6662855
1435273066.669,-12.941968
1435273066.684,-18.549322
1435273066.7,-22.846289
1435273066.716,-26.19088
1435273066.731,-28.867718
1435273066.747,-30.994656
1435273066.763,-32.59954
1435273066.778,-33.66648
1435273066.794,-34.22238
1435273066.809,-34.36721
1435273066.825,-34.24046
1435273066.841,-33.919487
1435273066.856,-33.434135
1435273066.872,-32.759148
1435273066.888,-31.913704
1435273066.903,-30.994478
1435273066.919,-30.189178
1435273066.934,-29.604734
1435273066.95,-29.243977
1435273066.966,-28.915146
1435273066.981,-28.341425
1435273066.997,-27.253742
1435273067.013,-25.493431
1435273067.028,-23.04719
1435273067.044,-20.034264
1435273067.059,-16.662231
1435273067.075,-13.151831
1435273067.091,-9.739767
1435273067.106,-6.5863075
1435273067.122,-3.712862
1435273067.138,-1.0386734
1435273067.153,1.656786
1435273067.169,4.5703335
1435273067.184,7.807043
1435273067.2,11.289152
1435273067.216,14.837286
1435273067.231,18.188826
1435273067.247,21.203947
1435273067.263,23.855366
1435273067.278,26.298443
1435273067.294,28.790316
1435273067.309,31.677975
1435273067.325,35.25843
1435273067.341,39.746502
1435273067.356,45.098114
1435273067.372,50.902786
1435273067.388,56.34602
1435273067.403,60.331245
1435273067.419,61.68892
1435273067.434,59.55118
1435273067.45,53.60425
1435273067.466,44.255592
1435273067.481,32.52247
1435273067.497,19.822617
1435273067.513,7.510298
1435273067.528,-3.3464394
1435273067.544,-12.218468
1435273067.559,-19.056362
1435273067.575,-24.114065
1435273067.591,-27.73996
1435273067.606,-30.26484
1435273067.622,-31.92865
1435273067.638,-32.925426
1435273067.653,-33.472694
1435273067.669,-33.78354
1435273067.684,-34.025608
1435273067.7,-34.289524
1435273067.716,-34.554768
1435273067.731,-34.75418
1435273067.747,-34.81772
1435273067.763,-34.73745
1435273067.778,-34.516834
1435273067.794,-34.166626
1435273067.809,-33.634865
1435273067.825,-32.860146
1435273067.841,-31.773724
1435273067.856,-30.320196
1435273067.872,-28.438423
1435273067.888,-26.063196
1435273067.903,-23.132925
1435273067.919,-19.67227
1435273067.934,-15.834431
1435273067.95,-11.928062
1435273067.966,-8.284136
1435273067.981,-5.1073513
1435273067.997,-2.3817902
1435273068.013,0.1575718
1435273068.028,2.8728256
1435273068.044,6.0352
1435273068.059,9.701092
1435273068.075,13.666651
1435273068.091,17.602291
1435273068.106,21.208664
1435273068.122,24.38751
1435273068.138,27.33496
1435273068.153,30.465944
1435273068.169,34.25541
1435273068.184,39.02733
1435273068.2,44.776176
1435273068.216,51.07424
1435273068.231,57.092148
1435273068.247,61.756416
1435273068.263,63.991608
1435273068.278,63.000984
1435273068.294,58.44482
1435273068.309,50.58412
1435273068.325,40.184402
1435273068.341,28.387775
1435273068.356,16.405678
1435273068.372,5.291643
1435273068.388,-4.295002
1435273068.403,-12.099806
1435273068.419,-18.227388
1435273068.434,-22.962801
1435273068.45,-26.620712
1435273068.466,-29.424637
1435273068.481,-31.523375
1435273068.497,-33.040085
1435273068.513,-34.12758
1435273068.528,-34.955444
1435273068.544,-35.66241
1435273068.559,-36.286087
1435273068.575,-36.735836
1435273068.591,-36.822243
1435273068.606,-36.391247
1435273068.622,-35.432243
1435273068.638,-34.15987
1435273068.653,-32.902298
1435273068.669,-31.977425
1435273068.684,-31.470736
1435273068.7,-31.182816
1435273068.716,-30.686758
1435273068.731,-29.529062
1435273068.747,-27.419413
1435273068.763,-24.357641
1435273068.778,-20.582138
1435273068.794,-16.458067
1435273068.809,-12.302439
1435273068.825,-8.332781
1435273068.841,-4.626074
1435273068.856,-1.1680546
1435273068.872,2.1431007
1435273068.888,5.4475956
1435273068.903,8.93388
1435273068.919,12.73509
1435273068.934,16.84595
1435273068.95,21.061228
1435273068.966,25.082354
1435273068.981,28.644312
1435273068.997,31.711838
1435273069.013,34.509487
1435273069.028,37.5022
1435273069.044,41.174587
1435273069.059,45.87007
1435273069.075,51.59411
1435273069.091,57.93814
1435273069.106,64.05632
1435273069.122,68.78481
1435273069.138,70.87663
1435273069.153,69.349075
1435273069.169,63.776432
1435273069.184,54.498413
1435273069.2,42.526543
1435273069.216,29.282536
1435273069.231,16.145903
1435273069.247,4.1561165
1435273069.263,-6.137581
1435273069.278,-14.600052
1435273069.294,-21.339066
1435273069.31,-26.525667
1435273069.325,-30.382689
1435273069.341,-33.148643
1435273069.356,-35.10826
1435273069.372,-36.56759
1435273069.388,-37.75257
1435273069.403,-38.75966
1435273069.419,-39.545662
1435273069.435,-39.98887
1435273069.45,-39.990334
1435273069.466,-39.566666
1435273069.481,-38.87101
1435273069.497,-38.10921
1435273069.513,-37.47145
1435273069.528,-36.9824
1435273069.544,-36.53469
1435273069.56,-35.90503
1435273069.575,-34.90203
1435273069.591,-33.418842
1435273069.606,-31.472303
1435273069.622,-29.124678
1435273069.638,-26.413105
1435273069.653,-23.33308
1435273069.669,-19.89541
1435273069.685,-16.178963
1435273069.7,-12.4087105
1435273069.716,-8.830511
1435273069.731,-5.6380043
1435273069.747,-2.7976189
1435273069.763,-0.09478569
1435273069.778,2.8109512
1435273069.794,6.160124
1435273069.81,9.994238
1435273069.825,14.136147
1435273069.841,18.30511
1435273069.856,22.26986
1435273069.872,25.95099
1435273069.888,29.440424
1435273069.903,32.928574
1435273069.919,36.630066
1435273069.935,40.754128
1435273069.95,45.448345
1435273069.966,50.743683
1435273069.981,56.430943
1435273069.997,61.99891
1435273070.013,66.571205
1435273070.028,69.09418
1435273070.044,68.56772
1435273070.06,64.41142
1435273070.075,56.677216
1435273070.091,46.1071
1435273070.106,33.902966
1435273070.122,21.406689
1435273070.138,9.701033
1435273070.153,-0.59349823
1435273070.169,-9.305048
1435273070.185,-16.558643
1435273070.2,-22.56049
1435273070.216,-27.409805
1435273070.231,-31.115004
1435273070.247,-33.664665
1435273070.263,-35.164417
1435273070.278,-35.84222
1435273070.294,-36.035755
1435273070.31,-36.046333
1435273070.325,-36.07757
1435273070.341,-36.154373
1435273070.356,-36.210068
1435273070.372,-36.12669
1435273070.388,-35.810287
1435273070.403,-35.231518
1435273070.419,-34.42779
1435273070.435,-33.480015
1435273070.45,-32.48251
1435273070.466,-31.473686
1435273070.481,-30.405693
1435273070.497,-29.092854
1435273070.513,-27.314362
1435273070.528,-24.87321
1435273070.544,-21.763199
1435273070.56,-18.15969
1435273070.575,-14.402214
1435273070.591,-10.823345
1435273070.606,-7.6134186
1435273070.622,-4.7347794
1435273070.638,-1.9610176
1435273070.653,0.9706993
1435273070.669,4.2374763
1435273070.685,7.8315163
1435273070.7,11.568909
1435273070.716,15.212204
1435273070.731,18.58936
1435273070.747,21.699657
1435273070.763,24.714497
1435273070.778,27.917942
1435273070.794,31.573986
1435273070.81,35.83613
1435273070.825,40.721115
1435273070.841,46.08925
1435273070.856,51.627518
1435273070.872,56.835026
1435273070.888,60.96964
1435273070.903,63.127808
1435273070.919,62.40106
1435273070.935,58.220924
1435273070.95,50.603035
1435273070.966,40.27183
1435273070.981,28.441238
1435273070.997,16.468784
1435273071.013,5.423416
1435273071.028,-4.146717
1435273071.044,-12.180866
1435273071.06,-18.862747
1435273071.075,-24.383549
1435273071.091,-28.801228
1435273071.106,-32.04735
1435273071.122,-34.10701
1435273071.138,-35.089428
1435273071.153,-35.29041
1435273071.169,-35.112194
1435273071.185,-34.91766
1435273071.2,-34.91857
1435273071.216,-35.14972
1435273071.231,-35.491844
1435273071.247,-35.756203
1435273071.263,-35.79926
1435273071.278,-35.533894
1435273071.294,-34.96239
1435273071.31,-34.158405
1435273071.325,-33.14542
1435273071.341,-31.90063
1435273071.356,-30.334866
1435273071.372,-28.329021
1435273071.388,-25.831543
1435273071.403,-22.88972
1435273071.419,-19.656864
1435273071.435,-16.328648
1435273071.45,-13.10043
1435273071.466,-10.035507
1435273071.481,-7.098961
1435273071.497,-4.139614
1435273071.513,-0.9523926
1435273071.528,2.6099281
1435273071.544,6.5595703
1435273071.56,10.769707
1435273071.575,14.97411
1435273071.591,18.866898
1435273071.606,22.243214
1435273071.622,25.1306
1435273071.638,27.77985
1435273071.653,30.688297
1435273071.669,34.3742
1435273071.685,39.181072
1435273071.7,45.0021
1435273071.716,51.177113
1435273071.731,56.551956
1435273071.747,59.7986
1435273071.763,59.786545
1435273071.778,55.95903
1435273071.794,48.51036
1435273071.81,38.327625
1435273071.825,26.657162
1435273071.841,14.781815
1435273071.856,3.6938362
1435273071.872,-6.0210037
1435273071.888,-14.142586
1435273071.903,-20.67419
1435273071.919,-25.75267
1435273071.935,-29.548527
1435273071.95,-32.275337
1435273071.966,-34.1638
1435273071.982,-35.44712
1435273071.997,-36.290356
1435273072.013,-36.797577
1435273072.028,-36.998875
1435273072.044,-36.918198
1435273072.06,-36.57987
1435273072.075,-36.06744
1435273072.091,-35.467113
1435273072.107,-34.853085
1435273072.122,-34.232464
1435273072.138,-33.533867
1435273072.153,-32.647667
1435273072.169,-31.479507
1435273072.185,-29.956367
1435273072.2,-28.075245
1435273072.216,-25.850235
1435273072.232,-23.323536
1435273072.247,-20.513489
1435273072.263,-17.44843
1435273072.278,-14.184635
1435273072.294,-10.841915
1435273072.31,-7.543709
1435273072.325,-4.404232
1435273072.341,-1.456995
1435273072.357,1.4136581
1435273072.372,4.4208317
1435273072.388,7.7616997
1435273072.403,11.538433
1435273072.419,15.657259
1435273072.435,19.84557
1435273072.45,23.785702
1435273072.466,27.257023
1435273072.482,30.223652
1435273072.497,32.843582
1435273072.513,35.460987
1435273072.528,38.46694
1435273072.544,42.214146
1435273072.56,46.908516
1435273072.575,52.398262
1435273072.591,58.158806
1435273072.607,63.212067
1435273072.622,66.39981
1435273072.638,66.640625
1435273072.653,63.30809
1435273072.669,56.393166
1435273072.685,46.53456
1435273072.7,34.783363
1435273072.716,22.30824
1435273072.732,10.133919
1435273072.747,-0.99684715
1435273072.763,-10.627472
1435273072.778,-18.54472
1435273072.794,-24.717691
1435273072.81,-29.245798
1435273072.825,-32.33996
1435273072.841,-34.26509
1435273072.857,-35.338013
1435273072.872,-35.860916
1435273072.888,-36.121735
1435273072.903,-36.340763
1435273072.919,-36.66127
1435273072.935,-37.10383
1435273072.95,-37.614094
1435273072.966,-38.082596
1435273072.982,-38.407032
1435273072.997,-38.517395
1435273073.013,-38.32514
1435273073.028,-37.741005
1435273073.044,-36.66462
1435273073.06,-35.040764
1435273073.075,-32.901886
1435273073.091,-30.388605
1435273073.107,-27.703068
1435273073.122,-24.96344
1435273073.138,-22.222576
1435273073.153,-19.409235
1435273073.169,-16.447594
1435273073.185,-13.339873
1435273073.2,-10.175761
1435273073.216,-7.0766106
1435273073.232,-4.131405
1435273073.247,-1.2988701
1435273073.263,1.546648
1435273073.278,4.566469
1435273073.294,7.8547435
1435273073.31,11.387752
1435273073.325,15.024918
1435273073.341,18.607883
1435273073.357,22.01228
1435273073.372,25.216068
1435273073.388,28.29669
1435273073.403,31.432394
1435273073.419,34.808647
1435273073.435,38.64669
1435273073.45,43.095184
1435273073.466,48.170296
1435273073.482,53.623775
1435273073.497,58.86831
1435273073.513,62.980286
1435273073.528,64.91573
1435273073.544,63.784286
1435273073.56,59.18417
1435273073.575,51.382355
1435273073.591,41.2536
1435273073.607,29.960323
1435273073.622,18.669075
1435273073.638,8.19111
1435273073.653,-1.0543809
1435273073.669,-9.017186
1435273073.685,-15.799679
1435273073.7,-21.535864
1435273073.716,-26.307375
1435273073.732,-30.168135
1435273073.747,-33.143787
1435273073.763,-35.28398
1435273073.778,-36.661083
1435273073.794,-37.40525
1435273073.81,-37.649906
1435273073.825,-37.54066
1435273073.841,-37.198353
1435273073.857,-36.714783
1435273073.872,-36.12765
1435273073.888,-35.461067
1435273073.903,-34.723377
1435273073.919,-33.93489
1435273073.935,-33.09327
1435273073.95,-32.165226
1435273073.966,-31.07056
1435273073.982,-29.733475
1435273073.997,-28.089062
1435273074.013,-26.139023
1435273074.028,-23.919926
1435273074.044,-21.470306
1435273074.06,-18.796452
1435273074.075,-15.886146
1435273074.091,-12.719012
1435273074.107,-9.346042
1435273074.122,-5.872587
1435273074.138,-2.4520874
1435273074.153,0.8070526
1435273074.169,3.8490696
1435273074.185,6.7292423
1435273074.2,9.544233
1435273074.216,12.392582
1435273074.232,15.330793
1435273074.247,18.343386
1435273074.263,21.377716
1435273074.278,24.392124
1435273074.294,27.365845
1435273074.31,30.337069
1435273074.325,33.42669
1435273074.341,36.805588
1435273074.357,40.699768
1435273074.372,45.28328
1435273074.388,50.515877
1435273074.403,56.01817
1435273074.419,61.00128
1435273074.435,64.37445
1435273074.45,65.00386
1435273074.466,62.1036
1435273074.482,55.474503
1435273074.497,45.660545
1435273074.513,33.786934
1435273074.528,21.244371
1435273074.544,9.333424
1435273074.56,-1.0262985
1435273074.575,-9.406866
1435273074.591,-15.811083
1435273074.607,-20.520071
1435273074.622,-23.919233
1435273074.638,-26.400764
1435273074.654,-28.282206
1435273074.669,-29.79982
1435273074.685,-31.07601
1435273074.7,-32.17986
1435273074.716,-33.092873
1435273074.732,-33.782547
1435273074.747,-34.192997
1435273074.763,-34.31505
1435273074.778,-34.16523
1435273074.794,-33.84288
1435273074.81,-33.45473
1435273074.825,-33.11482
1435273074.841,-32.867645
1435273074.857,-32.67541
1435273074.872,-32.407215
1435273074.888,-31.895515
1435273074.904,-30.969883
1435273074.919,-29.508766
1435273074.935,-27.496502
1435273074.95,-25.002903
1435273074.966,-22.17006
1435273074.982,-19.197453
1435273074.997,-16.257908
1435273075.013,-13.490021
1435273075.029,-10.972176
1435273075.044,-8.668987
1435273075.06,-6.443165
1435273075.075,-4.071121
1435273075.091,-1.3277817
1435273075.107,1.9180145
1435273075.122,5.6027794
1435273075.138,9.501896
1435273075.154,13.305206
1435273075.169,16.719994
1435273075.185,19.644012
1435273075.2,22.129936
1435273075.216,24.383694
1435273075.232,26.679
1435273075.247,29.314323
1435273075.263,32.586998
1435273075.279,36.761814
1435273075.294,41.902874
1435273075.31,47.719887
1435273075.325,53.43974
1435273075.341,57.892258
1435273075.357,59.79914
1435273075.372,58.204086
1435273075.388,52.824585
1435273075.404,44.172012
1435273075.419,33.37227
1435273075.435,21.779888
1435273075.45,10.575184
1435273075.466,0.5630493
1435273075.482,-7.8921585
1435273075.497,-14.752445
1435273075.513,-20.124176
1435273075.529,-24.154213
1435273075.544,-27.016376
1435273075.56,-28.857521
1435273075.575,-29.89936
1435273075.591,-30.387913
1435273075.607,-30.579224
1435273075.622,-30.68232
1435273075.638,-30.7697
1435273075.654,-30.803177
1435273075.669,-30.687012
1435273075.685,-30.353065
1435273075.7,-29.845924
1435273075.716,-29.30687
1435273075.732,-28.910957
1435273075.747,-28.723183
1435273075.763,-28.66777
1435273075.779,-28.510536
1435273075.794,-27.968124
1435273075.81,-26.813034
1435273075.825,-24.981094
1435273075.841,-22.561905
1435273075.857,-19.753807
1435273075.872,-16.7342
1435273075.888,-13.6200485
1435273075.904,-10.43306
1435273075.919,-7.171982
1435273075.935,-3.8289185
1435273075.95,-0.50148773
1435273075.966,2.683731
1435273075.982,5.625595
1435273075.997,8.318771
1435273076.013,10.886383
1435273076.029,13.522133
1435273076.044,16.37104
1435273076.06,19.47197
1435273076.075,22.721931
1435273076.091,25.965591
1435273076.107,29.07946
1435273076.122,32.075798
1435273076.138,35.075348
1435273076.154,38.292168
1435273076.169,41.928917
1435273076.185,46.139366
1435273076.2,50.916092
1435273076.216,56.01368
1435273076.232,60.88144
1435273076.247,64.70939
1435273076.263,66.55653
1435273076.279,65.604645
1435273076.294,61.393982
1435273076.31,54.03022
1435273076.325,44.18267
1435273076.341,32.958374
1435273076.357,21.611923
1435273076.372,11.242104
1435273076.388,2.581253
1435273076.404,-4.1226425
1435273076.419,-9.053764
1435273076.435,-12.61792
1435273076.45,-15.297676
1435273076.466,-17.464615
1435273076.482,-19.317627
1435273076.497,-20.895592
1435273076.513,-22.16375
1435273076.529,-23.03228
1435273076.544,-23.407394
1435273076.56,-23.20253
1435273076.575,-22.404503
1435273076.591,-21.19423
1435273076.607,-20.03547
1435273076.622,-19.635765
1435273076.638,-20.781761
1435273076.654,-24.012352
1435273076.669,-29.34842
1435273076.685,-36.19953
1435273076.7,-43.51169
1435273076.716,-50.081
1435273076.732,-54.917892
1435273076.747,-57.448486
1435273076.763,-57.571304
1435273076.779,-55.50563
1435273076.794,-51.66105
1435273076.81,-46.477753
1435273076.825,-40.403923
1435273076.841,-33.88627
1435273076.857,-27.35852
1435273076.872,-21.182312
1435273076.888,-15.589615
1435273076.904,-10.62114
1435273076.919,-6.1592636
1435273076.935,-1.9490433
1435273076.95,2.2639084
1435273076.966,6.6624985
1435273076.982,11.277992
1435273076.997,15.989334
1435273077.013,20.59388
1435273077.029,24.909126
1435273077.044,28.871887
1435273077.06,32.589554
1435273077.075,36.303413
1435273077.091,40.32834
1435273077.107,44.90825
1435273077.122,50.11596
1435273077.138,55.7211
1435273077.154,61.17501
1435273077.169,65.6432
1435273077.185,68.15178
1435273077.2,67.80375
1435273077.216,64.04643
1435273077.232,56.847054
1435273077.247,46.810516
1435273077.263,35.010597
1435273077.279,22.750282
1435273077.294,11.210083
1435273077.31,1.2046967
1435273077.326,-6.8877716
1435273077.341,-13.090263
1435273077.357,-17.639023
1435273077.372,-20.83892
1435273077.388,-22.994263
1435273077.404,-24.381157
1435273077.419,-25.263962
1435273077.435,-25.901978
1435273077.45,-26.504585
1435273077.466,-27.19574
1435273077.482,-27.973953
1435273077.497,-28.719429
1435273077.513,-29.302254
1435273077.529,-29.616722
1435273077.544,-29.663086
1435273077.56,-29.523361
1435273077.576,-29.310272
1435273077.591,-29.073166
1435273077.607,-28.77134
1435273077.622,-28.23764
1435273077.638,-27.276352
1435273077.654,-25.76677
1435273077.669,-23.72004
1435273077.685,-21.272331
1435273077.701,-18.600212
1435273077.716,-15.823471
1435273077.732,-12.999359
1435273077.747,-10.125114
1435273077.763,-7.244606
1435273077.779,-4.396164
1435273077.794,-1.6620636
1435273077.81,0.97517395
1435273077.826,3.6060257
1435273077.841,6.4237366
1435273077.857,9.563499
1435273077.872,13.072632
1435273077.888,16.84584
1435273077.904,20.683098
1435273077.919,24.369041
1435273077.935,27.75917
1435273077.951,30.813087
1435273077.966,33.612457
1435273077.982,36.359535
1435273077.997,39.35283
1435273078.013,42.93759
1435273078.029,47.34085
1435273078.044,52.469734
1435273078.06,57.789932
1435273078.076,62.341896
1435273078.091,64.94824
1435273078.107,64.53505
1435273078.122,60.514534
1435273078.138,52.938744
1435273078.154,42.525444
1435273078.169,30.43544
1435273078.185,17.95906
1435273078.201,6.2493515
1435273078.216,-3.8758698
1435273078.232,-12.0197525
1435273078.247,-18.147934
1435273078.263,-22.499046
1435273078.279,-25.449112
1435273078.294,-27.406181
1435273078.31,-28.700375
1435273078.326,-29.582367
1435273078.341,-30.186676
1435273078.357,-30.630219
1435273078.372,-30.983765
1435273078.388,-31.313477
1435273078.404,-31.638168
1435273078.419,-31.932064
1435273078.435,-32.11472
1435273078.451,-32.1295
1435273078.466,-31.936878
1435273078.482,-31.600712
1435273078.497,-31.219288
1435273078.513,-30.860348
1435273078.529,-30.505367
1435273078.544,-30.039265
1435273078.56,-29.268707
1435273078.576,-28.026627
1435273078.591,-26.240444
1435273078.607,-23.98133
1435273078.622,-21.3587
1435273078.638,-18.471333
1435273078.654,-15.331825
1435273078.669,-11.955364
1435273078.685,-8.398361
1435273078.701,-4.809414
1435273078.716,-1.4002113
1435273078.732,1.6571045
1435273078.747,4.3642235
1435273078.763,6.857521
1435273078.779,9.355576
1435273078.794,12.02692
1435273078.81,14.925213
1435273078.826,18.006233
1435273078.841,21.239117
1435273078.857,24.667534
1435273078.872,28.412323
1435273078.888,32.630394
1435273078.904,37.358078
1435273078.919,42.45223
1435273078.935,47.563545
1435273078.951,52.131836
1435273078.966,55.442524
1435273078.982,56.751514
1435273078.997,55.439663
1435273079.013,51.23735
1435273079.029,44.344875
1435273079.044,35.36949
1435273079.06,25.175352
1435273079.076,14.650803
1435273079.091,4.4813232
1435273079.107,-4.8754063
1435273079.122,-13.142975
1435273079.138,-20.159039
1435273079.154,-25.786476
1435273079.169,-29.968712
1435273079.185,-32.743767
1435273079.201,-34.232292
1435273079.216,-34.655823
1435273079.232,-34.295887
1435273079.247,-33.46601
1435273079.263,-32.51645
1435273079.279,-31.755596
1435273079.294,-31.414682
1435273079.31,-31.513004
1435273079.326,-31.920403
1435273079.341,-32.39023
1435273079.357,-32.695404
1435273079.372,-32.70278
1435273079.388,-32.33495
1435273079.404,-31.543268
1435273079.419,-30.28132
1435273079.435,-28.495567
1435273079.451,-26.223917
1435273079.466,-23.589905
1435273079.482,-20.803766
1435273079.497,-18.043005
1435273079.513,-15.389629
1435273079.529,-12.784427
1435273079.544,-10.127352
1435273079.56,-7.3595486
1435273079.576,-4.5095053
1435273079.591,-1.6566372
1435273079.607,1.1611376
1435273079.622,4.0203724
1435273079.638,7.078434
1435273079.654,10.498544
1435273079.669,14.282567
1435273079.685,18.27304
1435273079.701,22.177027
1435273079.716,25.73933
1435273079.732,28.857895
1435273079.747,31.68723
1435273079.763,34.604256
1435273079.779,38.083153
1435273079.794,42.49648
1435273079.81,47.974075
1435273079.826,54.239838
1435273079.841,60.600834
1435273079.857,66.01267
1435273079.872,69.30389
1435273079.888,69.41464
1435273079.904,65.73183
1435273079.919,58.23026
1435273079.935,47.593353
1435273079.951,34.965855
1435273079.966,21.72929
1435273079.982,9.121908
1435273079.997,-1.9817342
1435273080.013,-11.151827
1435273080.029,-18.36578
1435273080.044,-23.83756
1435273080.06,-27.86355
1435273080.076,-30.75661
1435273080.091,-32.80724
1435273080.107,-34.266552
1435273080.122,-35.363907
1435273080.138,-36.262184
1435273080.154,-37.04465
1435273080.169,-37.710457
1435273080.185,-38.200115
1435273080.201,-38.46254
1435273080.216,-38.48279
1435273080.232,-38.330765
1435273080.248,-38.10881
1435273080.263,-37.885757
1435273080.279,-37.680298
1435273080.294,-37.42549
1435273080.31,-36.97294
1435273080.326,-36.14034
1435273080.341,-34.787712
1435273080.357,-32.849247
1435273080.373,-30.357018
1435273080.388,-27.479841
1435273080.404,-24.4177
1435273080.419,-21.366186
1435273080.435,-18.410744
1435273080.451,-15.541748
1435273080.466,-12.655857
1435273080.482,-9.652433
1435273080.498,-6.482939
1435273080.513,-3.187313
1435273080.529,0.15117073
1435273080.544,3.4643726
1435273080.56,6.7564507
1435273080.576,10.109112
1435273080.591,13.622198
1435273080.607,17.334044
1435273080.623,21.173674
1435273080.638,24.963757
1435273080.654,28.530006
1435273080.669,31.81004
1435273080.685,34.941593
1435273080.701,38.250923
1435273080.716,42.14897
1435273080.732,46.86647
1435273080.748,52.331936
1435273080.763,58.044647
1435273080.779,63.153717
1435273080.794,66.580505
1435273080.81,67.30072
1435273080.826,64.56994
1435273080.841,58.12935
1435273080.857,48.331497
1435273080.873,36.10114
1435273080.888,22.756687
1435273080.904,9.690342
1435273080.919,-1.9662094
1435273080.935,-11.59005
1435273080.951,-19.058628
1435273080.966,-24.630154
1435273080.982,-28.688995
1435273080.998,-31.571913
1435273081.013,-33.568836
1435273081.029,-34.949272
1435273081.044,-36.01613
1435273081.06,-36.970657
1435273081.076,-37.82693
1435273081.091,-38.352253
1435273081.107,-38.27349
1435273081.123,-37.46968
1435273081.138,-36.158714
1435273081.154,-34.831455
1435273081.169,-34.003563
1435273081.185,-33.933876
1435273081.201,-34.504005
1435273081.216,-35.30599
1435273081.232,-35.887917
1435273081.248,-35.935314
1435273081.263,-35.327744
1435273081.279,-34.006084
1435273081.294,-31.945202
1435273081.31,-29.119396
1435273081.326,-25.622108
1435273081.341,-21.708931
1435273081.357,-17.78762
1435273081.373,-14.219795
1435273081.388,-11.182945
1435273081.404,-8.593891
1435273081.419,-6.210121
1435273081.435,-3.7722168
1435273081.451,-1.0409584
1435273081.466,2.0924683
1435273081.482,5.653675
1435273081.498,9.6144085
1435273081.513,13.836451
1435273081.529,18.087833
1435273081.544,22.060892
1435273081.56,25.490028
1435273081.576,28.24848
1435273081.591,30.48567
1435273081.607,32.562737
1435273081.623,34.986294
1435273081.638,38.227966
1435273081.654,42.574135
1435273081.669,48.01129
1435273081.685,54.16881
1435273081.701,60.32578
1435273081.716,65.50761
1435273081.732,68.62399
1435273081.748,68.7065
1435273081.763,65.1159
1435273081.779,57.77755
1435273081.794,47.227673
1435273081.81,34.529785
1435273081.826,21.054955
1435273081.841,8.168114
1435273081.857,-3.0841675
1435273081.873,-12.119293
1435273081.888,-18.883797
1435273081.904,-23.709957
1435273081.919,-27.101795
1435273081.935,-29.52427
1435273081.951,-31.315128
1435273081.966,-32.619328
1435273081.982,-33.506927
1435273081.998,-34.025524
1435273082.013,-34.281498
1435273082.029,-34.41068
1435273082.044,-34.56333
1435273082.06,-34.811523
1435273082.076,-35.155148
1435273082.091,-35.52345
1435273082.107,-35.804386
1435273082.123,-35.896946
1435273082.138,-35.752865
1435273082.154,-35.346638
1435273082.169,-34.670113
1435273082.185,-33.722015
1435273082.201,-32.44666
1435273082.216,-30.83044
1435273082.232,-28.890953
1435273082.248,-26.664932
1435273082.263,-24.233334
1435273082.279,-21.660477
1435273082.294,-18.987892
1435273082.31,-16.200111
1435273082.326,-13.30209
1435273082.341,-10.306118
1435273082.357,-7.2716866
1435273082.373,-4.262539
1435273082.388,-1.295105
1435273082.404,1.6649055
1435273082.419,4.6492386
1435273082.435,7.7062836
1435273082.451,10.807388
1435273082.466,13.882095
1435273082.482,16.836834
1435273082.498,19.64389
1435273082.513,22.336906
1435273082.529,25.045116
1435273082.544,27.928288
1435273082.56,31.179176
1435273082.576,34.97557
1435273082.591,39.443104
1435273082.607,44.547283
1435273082.623,49.980865
1435273082.638,55.04453
1435273082.654,58.708603
1435273082.669,59.81489
1435273082.685,57.439323
1435273082.701,51.215496
1435273082.716,41.559372
1435273082.732,29.565239
1435273082.748,16.721432
1435273082.763,4.4409065
1435273082.779,-6.264679
1435273082.794,-14.962662
1435273082.81,-21.672928
1435273082.826,-26.673878
1435273082.841,-30.225319
1435273082.857,-32.48648
1435273082.873,-33.562332
1435273082.888,-33.651005
1435273082.904,-33.090023
1435273082.92,-32.34155
1435273082.935,-31.831543
1435273082.951,-31.779636
1435273082.966,-32.12298
1435273082.982,-32.61284
1435273082.998,-32.95313
1435273083.013,-32.972885
1435273083.029,-32.675797
1435273083.045,-32.205254
1435273083.06,-31.6871
1435273083.076,-31.18488
1435273083.091,-30.627708
1435273083.107,-29.87866
1435273083.123,-28.799044
1435273083.138,-27.28533
1435273083.154,-25.291288
1435273083.17,-22.800373
1435273083.185,-19.851768
1435273083.201,-16.513239
1435273083.216,-12.93376
1435273083.232,-9.323147
1435273083.248,-5.899191
1435273083.263,-2.831337
1435273083.279,-0.19268227
1435273083.295,2.094513
1435273083.31,4.2775
1435273083.326,6.676586
1435273083.341,9.605791
1435273083.357,13.228519
1435273083.373,17.453083
1435273083.388,21.984726
1435273083.404,26.397236
1435273083.42,30.326004
1435273083.435,33.62462
1435273083.451,36.409763
1435273083.466,39.019844
1435273083.482,41.8841
1435273083.498,45.396553
1435273083.513,49.75497
1435273083.529,54.8816
1435273083.545,60.28542
1435273083.56,65.078
1435273083.576,68.07493
1435273083.591,68.08802
1435273083.607,64.28287
1435273083.623,56.503784
1435273083.638,45.433
1435273083.654,32.3817
1435273083.67,18.920338
1435273083.685,6.394505
1435273083.701,-4.341581
1435273083.716,-13.013749
1435273083.732,-19.750273
1435273083.748,-24.854586
1435273083.763,-28.599592
1435273083.779,-31.185394
1435273083.795,-32.8127
1435273083.81,-33.683304
1435273083.826,-34.079876
1435273083.841,-34.282013
1435273083.857,-34.49564
1435273083.873,-34.80146
1435273083.888,-35.12516
1435273083.904,-35.33663
1435273083.92,-35.317673
1435273083.935,-35.034317
1435273083.951,-34.533318
1435273083.966,-33.91496
1435273083.982,-33.281094
1435273083.998,-32.655342
1435273084.013,-31.954937
1435273084.029,-31.020977
1435273084.045,-29.700375
1435273084.06,-27.898941
1435273084.076,-25.663843
1435273084.091,-23.122597
1435273084.107,-20.453876
1435273084.123,-17.743443
1435273084.138,-14.966929
1435273084.154,-12.008036
1435273084.17,-8.754398
1435273084.185,-5.182787
1435273084.201,-1.443594
1435273084.216,2.2099824
1435273084.232,5.5035086
1435273084.248,8.31328
1435273084.263,10.759204
1435273084.279,13.201957
1435273084.295,16.059399
1435273084.31,19.65333
1435273084.326,24.007853
1435273084.341,28.839617
1435273084.357,33.662617
1435273084.373,38.028408
1435273084.388,41.71762
1435273084.404,44.858257
1435273084.42,47.85427
1435273084.435,51.20736
1435273084.451,55.293144
1435273084.466,60.207325
1435273084.482,65.64469
1435273084.498,70.96568
1435273084.513,75.22464
1435273084.529,77.295654
1435273084.545,75.99994
1435273084.56,70.39051
1435273084.576,60.01284
1435273084.591,45.179688
1435273084.607,27.01839
1435273084.623,7.2862563
1435273084.638,-11.996122
1435273084.654,-29.0325
1435273084.67,-42.63061
1435273084.685,-52.32896
1435273084.701,-58.335373
1435273084.716,-61.293266
1435273084.732,-62.024284
1435273084.748,-61.30591
1435273084.763,-59.731014
1435273084.779,-57.66108
1435273084.795,-55.263527
1435273084.81,-52.602345
1435273084.826,-49.758076
1435273084.841,-46.87553
1435273084.857,-44.181976
1435273084.873,-41.86058
1435273084.888,-39.96581
1435273084.904,-38.378777
1435273084.92,-36.90341
1435273084.935,-35.356277
1435273084.951,-33.68818
1435273084.966,-31.954311
1435273084.982,-30.208235
1435273084.998,-28.403957
1435273085.013,-26.350012
1435273085.029,-23.804655
1435273085.045,-20.657515
1435273085.06,-17.000374
1435273085.076,-13.136731
1435273085.091,-9.416526
1435273085.107,-6.111507
1435273085.123,-3.2927818
1435273085.138,-0.8733289
1435273085.154,1.3221426
1435273085.17,3.4221153
1435273085.185,5.53679
1435273085.201,7.7438674
1435273085.216,10.151724
1435273085.232,12.860114
1435273085.248,15.932555
1435273085.263,19.323137
1435273085.279,22.83699
1435273085.295,26.230762
1435273085.31,29.289427
1435273085.326,31.926456
1435273085.341,34.21618
1435273085.357,36.3781
1435273085.373,38.730915
1435273085.388,41.682594
1435273085.404,45.59818
1435273085.42,50.65647
1435273085.435,56.671494
1435273085.451,62.94353
1435273085.466,68.33246
1435273085.482,71.493195
1435273085.498,71.28075
1435273085.513,67.10426
1435273085.529,59.12866
1435273085.545,48.20674
1435273085.56,35.614876
1435273085.576,22.775675
1435273085.592,10.908165
1435273085.607,0.8306198
1435273085.623,-7.1452503
1435273085.638,-13.144461
1435273085.654,-17.606693
1435273085.67,-21.048948
1435273085.685,-23.872921
1435273085.701,-26.239939
1435273085.717,-28.119404
1435273085.732,-29.431501
1435273085.748,-30.1983
1435273085.763,-30.550407
1435273085.779,-30.694267
1435273085.795,-30.788067
1435273085.81,-30.893726
1435273085.826,-30.97335
1435273085.842,-30.987457
1435273085.857,-30.932917
1435273085.873,-30.845783
1435273085.888,-30.76056
1435273085.904,-30.64894
1435273085.92,-30.403126
1435273085.935,-29.87183
1435273085.951,-28.89691
1435273085.967,-27.381737
1435273085.982,-25.316723
1435273085.998,-22.765253
1435273086.013,-19.874393
1435273086.029,-16.793587
1435273086.045,-13.67938
1435273086.06,-10.644322
1435273086.076,-7.7206354
1435273086.092,-4.8621135
1435273086.107,-2.013237
1435273086.123,0.89713
1435273086.138,3.9019728
1435273086.154,7.0050836
1435273086.17,10.1720915
1435273086.185,13.347055
1435273086.201,16.467983
1435273086.217,19.457907
1435273086.232,22.279066
1435273086.248,24.940542
1435273086.263,27.496017
1435273086.279,30.0775
1435273086.295,32.88178
1435273086.31,36.151257
1435273086.326,40.140327
1435273086.342,44.99844
1435273086.357,50.578903
1435273086.373,56.345566
1435273086.388,61.316086
1435273086.404,64.25098
1435273086.42,63.98897
1435273086.435,59.87242
1435273086.451,51.967587
1435273086.467,41.12267
1435273086.482,28.677216
1435273086.498,16.065828
1435273086.513,4.471109
1435273086.529,-5.371498
1435273086.545,-13.210215
1435273086.56,-19.093103
1435273086.576,-23.235527
1435273086.592,-25.906805
1435273086.607,-27.399279
1435273086.623,-28.044281
1435273086.638,-28.200157
1435273086.654,-28.201723
1435273086.67,-28.303398
1435273086.685,-28.61897
1435273086.701,-29.102404
1435273086.717,-29.593157
1435273086.732,-29.953632
1435273086.748,-30.092295
1435273086.763,-30.053268
1435273086.779,-29.949505
1435273086.795,-29.903425
1435273086.81,-29.918667
1435273086.826,-29.864117
1435273086.842,-29.493996
1435273086.857,-28.542048
1435273086.873,-26.831326
1435273086.888,-24.338797
1435273086.904,-21.215631
1435273086.92,-17.73664
1435273086.935,-14.18961
1435273086.951,-10.793411
1435273086.967,-7.6311913
1435273086.982,-4.65749
1435273086.998,-1.7046967
1435273087.013,1.3863792
1435273087.029,4.7339516
1435273087.045,8.356091
1435273087.06,12.190552
1435273087.076,16.119617
1435273087.092,20.021725
1435273087.107,23.768723
1435273087.123,27.299168
1435273087.138,30.667824
1435273087.154,34.076595
1435273087.17,37.829845
1435273087.185,42.199734
1435273087.201,47.139194
1435273087.217,52.12296
1435273087.232,56.102226
1435273087.248,57.80527
1435273087.263,56.16743
1435273087.279,50.776524
1435273087.295,42.03197
1435273087.31,30.982563
1435273087.326,18.952412
1435273087.342,7.1090164
1435273087.357,-3.744297
1435273087.373,-13.170067
1435273087.388,-20.973701
1435273087.404,-27.048786
1435273087.42,-31.38189
1435273087.435,-34.05654
1435273087.451,-35.2745
1435273087.467,-35.343002
1435273087.482,-34.649796
1435273087.498,-33.570404
1435273087.513,-32.436096
1435273087.529,-31.502853
1435273087.545,-30.925056
1435273087.56,-30.728783
1435273087.576,-30.83776
1435273087.592,-31.048767
1435273087.607,-31.136253
1435273087.623,-30.911766
1435273087.638,-30.207703
1435273087.654,-28.95356
1435273087.67,-27.17997
1435273087.685,-24.987465
1435273087.701,-22.558205
1435273087.717,-20.05832
1435273087.732,-17.586075
1435273087.748,-15.081596
1435273087.763,-12.361237
1435273087.779,-9.172493
1435273087.795,-5.3503647
1435273087.81,-0.9185486
1435273087.826,3.934044
1435273087.842,8.893951
1435273087.857,13.649376
1435273087.873,17.998604
1435273087.888,21.896248
1435273087.904,25.471603
1435273087.92,28.960907
1435273087.935,32.687836
1435273087.951,36.98284
1435273087.967,42.06047
1435273087.982,47.856323
1435273087.998,53.91784
1435273088.013,59.383545
1435273088.029,63.10495
1435273088.045,63.93129
1435273088.06,61.072487
1435273088.076,54.341835
1435273088.092,44.291435
1435273088.107,32.051483
1435273088.123,19.031555
1435273088.138,6.5195847
1435273088.154,-4.5522537
1435273088.17,-13.748138
1435273088.185,-21.034927
1435273088.201,-26.614723
1435273088.217,-30.7706
1435273088.232,-33.74878
1435273088.248,-35.742477
1435273088.264,-36.915657
1435273088.279,-37.424477
1435273088.295,-37.423042
1435273088.31,-37.079605
1435273088.326,-36.550842
1435273088.342,-35.953094
1435273088.357,-35.3992
1435273088.373,-34.956985
1435273088.388,-34.6482
1435273088.404,-34.40309
1435273088.42,-34.08715
1435273088.435,-33.494194
1435273088.451,-32.439117
1435273088.467,-30.788116
1435273088.482,-28.520454
1435273088.498,-25.712036
1435273088.514,-22.496689
1435273088.529,-19.005997
1435273088.545,-15.334839
1435273088.56,-11.515335
1435273088.576,-7.5373917
1435273088.592,-3.3656464
1435273088.607,1.004425
1435273088.623,5.56765
1435273088.639,10.251518
1435273088.654,14.959999
1435273088.67,19.561005
1435273088.685,23.9758
1435273088.701,28.167084
1435273088.717,32.22564
1435273088.732,36.35746
1435273088.748,40.848274
1435273088.764,46.005875
1435273088.779,51.95685
1435273088.795,58.449844
1435273088.81,64.7473
1435273088.826,69.63454
1435273088.842,71.693756
1435273088.857,69.76883
1435273088.873,63.376373
1435273088.889,52.92946
1435273088.904,39.66098
1435273088.92,25.224548
1435273088.935,11.2173
1435273088.951,-1.2421265
1435273088.967,-11.677444
1435273088.982,-20.185822
1435273088.998,-27.136108
1435273089.014,-32.91394
1435273089.029,-37.732224
1435273089.045,-41.630066
1435273089.06,-44.52527
1435273089.076,-46.40497
1435273089.092,-47.39995
1435273089.107,-47.77986
1435273089.123,-47.845673
1435273089.139,-47.75711
1435273089.154,-47.479614
1435273089.17,-46.865967
1435273089.185,-45.82541
1435273089.201,-44.462128
1435273089.217,-43.087112
1435273089.232,-42.076843
1435273089.248,-41.599106
1435273089.264,-41.4946
1435273089.279,-41.2545
1435273089.295,-40.285324
1435273089.31,-38.11165
1435273089.326,-34.6297
1435273089.342,-30.0997
1435273089.357,-25.048874
1435273089.373,-20.05127
1435273089.389,-15.535782
1435273089.404,-11.684738
1435273089.42,-8.405609
1435273089.435,-5.393524
1435273089.451,-2.285202
1435273089.467,1.191742
1435273089.482,5.109192
1435273089.498,9.344742
1435273089.514,13.702713
1435273089.529,18.059296
1435273089.545,22.33609
1435273089.56,26.53981
1435273089.576,30.644775
1435273089.592,34.60791
1435273089.607,38.453415
1435273089.623,42.40306
1435273089.639,46.84813
1435273089.654,52.193634
1435273089.67,58.500397
1435273089.685,65.217606
1435273089.701,71.16162
1435273089.717,74.80014
1435273089.732,74.721756
1435273089.748,70.16492
1435273089.764,61.22644
1435273089.779,48.858475
1435273089.795,34.504486
1435273089.81,19.74054
1435273089.826,5.8515167
1435273089.842,-6.298584
1435273089.857,-16.380615
1435273089.873,-24.473633
1435273089.889,-30.853638
1435273089.904,-35.847336
1435273089.92,-39.70169
1435273089.935,-42.550613
1435273089.951,-44.497528
1435273089.967,-45.68367
1435273089.982,-46.320557
1435273089.998,-46.643387
1435273090.014,-46.8349
1435273090.029,-46.919785
1435273090.045,-46.816666
1435273090.06,-46.387848
1435273090.076,-45.561584
1435273090.092,-44.374252
1435273090.107,-42.99002
1435273090.123,-41.5569
1435273090.139,-40.15567
1435273090.154,-38.71176
1435273090.17,-37.06137
1435273090.185,-35.011627
1435273090.201,-32.454987
1435273090.217,-29.389633
1435273090.232,-25.95082
1435273090.248,-22.309998
1435273090.264,-18.639725
1435273090.279,-15.035278
1435273090.295,-11.529861
1435273090.31,-8.121307
1435273090.326,-4.793976
1435273090.342,-1.5406189
1435273090.357,1.6748657
1435273090.373,4.9253845
1435273090.389,8.309723
1435273090.404,11.93441
1435273090.42,15.827789
1435273090.435,19.925545
1435273090.451,24.078217
1435273090.467,28.09565
1435273090.482,31.82956
1435273090.498,35.23365
1435273090.514,38.406494
1435273090.529,41.584023
1435273090.545,45.0879
1435273090.56,49.266937
1435273090.576,54.31151
1435273090.592,60.12152
1435273090.607,66.13747
1435273090.623,71.350876
1435273090.639,74.471924
1435273090.654,74.27303
1435273090.67,69.96332
1435273090.685,61.49285
1435273090.701,49.610023
1435273090.717,35.68148
1435273090.732,21.278564
1435273090.748,7.789665
1435273090.764,-3.925949
1435273090.779,-13.5646515
1435273090.795,-21.284897
1435273090.81,-27.423347
1435273090.826,-32.28401
1435273090.842,-35.988335
1435273090.857,-38.589447
1435273090.873,-40.145935
1435273090.889,-40.856117
1435273090.904,-41.057106
1435273090.92,-41.11396
1435273090.935,-41.248688
1435273090.951,-41.496445
1435273090.967,-41.704918
1435273090.982,-41.68904
1435273090.998,-41.313927
1435273091.014,-40.57673
1435273091.029,-39.546364
1435273091.045,-38.334503
1435273091.06,-37.016586
1435273091.076,-35.61448
1435273091.092,-34.09989
1435273091.107,-32.422707
1435273091.123,-30.520264
1435273091.139,-28.375267
1435273091.154,-26.024765
1435273091.17,-23.520996
1435273091.186,-20.896805
1435273091.201,-18.092781
1435273091.217,-14.963692
1435273091.232,-11.39579
1435273091.248,-7.442688
1435273091.264,-3.354004
1435273091.279,0.479599
1435273091.295,3.7434692
1435273091.311,6.3849335
1435273091.326,8.650322
1435273091.342,10.971138
1435273091.357,13.696785
1435273091.373,16.943474
1435273091.389,20.582893
1435273091.404,24.37284
1435273091.42,28.06636
1435273091.436,31.567787
1435273091.451,34.908638
1435273091.467,38.21112
1435273091.482,41.68357
1435273091.498,45.56124
1435273091.514,49.947235
1435273091.529,54.68239
1435273091.545,59.166763
1435273091.561,62.39174
1435273091.576,63.21444
1435273091.592,60.759697
1435273091.607,54.752754
1435273091.623,45.64154
1435273091.639,34.42626
1435273091.654,22.304321
1435273091.67,10.335808
1435273091.686,-0.707283
1435273091.701,-10.406189
1435273091.717,-18.592308
1435273091.732,-25.234528
1435273091.748,-30.384415
1435273091.764,-34.087154
1435273091.779,-36.432816
1435273091.795,-37.596638
1435273091.811,-37.844975
1435273091.826,-37.560303
1435273091.842,-37.146328
1435273091.857,-36.927658
1435273091.873,-37.022213
1435273091.889,-37.342796
1435273091.904,-37.654827
1435273091.92,-37.734406
1435273091.936,-37.50375
1435273091.951,-36.986797
1435273091.967,-36.28104
1435273091.982,-35.438824
1435273091.998,-34.409065
1435273092.014,-33.084286
1435273092.029,-31.366253
1435273092.045,-29.228542
1435273092.061,-26.687351
1435273092.076,-23.820904
1435273092.092,-20.707157
1435273092.107,-17.425419
1435273092.123,-14.072044
1435273092.139,-10.714844
1435273092.154,-7.3912487
1435273092.17,-4.1186886
1435273092.186,-0.85816
1435273092.201,2.427065
1435273092.217,5.776005
1435273092.232,9.186838
1435273092.248,12.647682
1435273092.264,16.122465
1435273092.279,19.5936
1435273092.295,23.039429
1435273092.311,26.433279
1435273092.326,29.742857
1435273092.342,32.95261
1435273092.357,36.082817
1435273092.373,39.245426
1435273092.389,42.66231
1435273092.404,46.5972
1435273092.42,51.280006
1435273092.436,56.71521
1435273092.451,62.529854
1435273092.467,67.91258
1435273092.482,71.70213
1435273092.498,72.70263
1435273092.514,70.05476
1435273092.529,63.533836
1435273092.545,53.649147
1435273092.561,41.49269
1435273092.576,28.393497
1435273092.592,15.598878
1435273092.607,4.0066423
1435273092.623,-5.906772
1435273092.639,-14.021795
1435273092.654,-20.470493
1435273092.67,-25.505505
1435273092.686,-29.405891
1435273092.701,-32.456448
1435273092.717,-34.874413
1435273092.732,-36.8535
1435273092.748,-38.4764
1435273092.764,-39.764286
1435273092.779,-40.622513
1435273092.795,-40.94081
1435273092.811,-40.627827
1435273092.826,-39.763733
1435273092.842,-38.559814
1435273092.857,-37.345387
1435273092.873,-36.41501
1435273092.889,-35.89286
1435273092.904,-35.688194
1435273092.92,-35.543243
1435273092.936,-35.167633
1435273092.951,-34.333393
1435273092.967,-32.973434
1435273092.982,-31.117723
1435273092.998,-28.854012
1435273093.014,-26.32881
1435273093.029,-23.704851
1435273093.045,-21.154863
1435273093.061,-18.76412
1435273093.076,-16.48825
1435273093.092,-14.112543
1435273093.107,-11.409958
1435273093.123,-8.259094
1435273093.139,-4.7357216
1435273093.154,-1.130558
1435273093.17,2.228424
1435273093.186,5.1076813
1435273093.201,7.4418106
1435273093.217,9.337933
1435273093.232,11.0007515
1435273093.248,12.702335
1435273093.264,14.746296
1435273093.279,17.444572
1435273093.295,20.92875
1435273093.311,25.098248
1435273093.326,29.556885
1435273093.342,33.746742
1435273093.357,37.18876
1435273093.373,39.809505
1435273093.389,41.87633
1435273093.404,43.959118
1435273093.42,46.634945
1435273093.436,50.265938
1435273093.451,54.970394
1435273093.467,60.536674
1435273093.482,66.41929
1435273093.498,71.69768
1435273093.514,75.164665
1435273093.529,75.54687
1435273093.545,71.92199
1435273093.561,64.11152
1435273093.576,52.78586
1435273093.592,39.326042
1435273093.607,25.335945
1435273093.623,12.180977
1435273093.639,0.7496414
1435273093.654,-8.589615
1435273093.67,-15.879623
1435273093.686,-21.356354
1435273093.701,-25.381409
1435273093.717,-28.357758
1435273093.732,-30.704079
1435273093.748,-32.76348
1435273093.764,-34.75496
1435273093.779,-36.736237
1435273093.795,-38.621933
1435273093.811,-40.211777
1435273093.826,-41.22477
1435273093.842,-41.41053
1435273093.858,-40.690773
1435273093.873,-39.21749
1435273093.889,-37.430466
1435273093.904,-35.900246
1435273093.92,-35.096443
1435273093.936,-35.15777
1435273093.951,-35.83056
1435273093.967,-36.558777
1435273093.983,-36.762207
1435273093.998,-36.083153
1435273094.014,-34.47422
1435273094.029,-32.135727
1435273094.045,-29.38659
1435273094.061,-26.48323
1435273094.076,-23.588516
1435273094.092,-20.764137
1435273094.108,-18.048737
1435273094.123,-15.456497
1435273094.139,-13.016464
1435273094.154,-10.698479
1435273094.17,-8.46228
1435273094.186,-6.2328796
1435273094.201,-3.884056
1435273094.217,-1.3399124
1435273094.233,1.3906555
1435273094.248,4.2377014
1435273094.264,7.0911484
1435273094.279,9.882889
1435273094.295,12.649719
1435273094.311,15.53244
1435273094.326,18.685402
1435273094.342,22.216972
1435273094.358,26.070595
1435273094.373,30.068047
1435273094.389,33.94216
1435273094.404,37.511337
1435273094.42,40.697212
1435273094.436,43.61535
1435273094.451,46.526466
1435273094.467,49.804283
1435273094.483,53.79319
1435273094.498,58.685997
1435273094.514,64.32224
1435273094.529,70.12765
1435273094.545,75.104996
1435273094.561,78.075264
1435273094.576,78.01089
1435273094.592,74.36
1435273094.608,67.1913
1435273094.623,57.181435
1435273094.639,45.366615
1435273094.654,32.897026
1435273094.67,20.785133
1435273094.686,9.808266
1435273094.701,0.4390869
1435273094.717,-7.0778656
1435273094.733,-12.696846
1435273094.748,-16.533203
1435273094.764,-18.860588
1435273094.779,-20.098892
1435273094.795,-20.851074
1435273094.811,-21.8181
1435273094.826,-23.687782
1435273094.842,-26.945099
1435273094.858,-31.707436
1435273094.873,-37.64379
1435273094.889,-44.07659
1435273094.904,-50.14956
1435273094.92,-55.112038
1435273094.936,-58.50843
1435273094.951,-60.227997
1435273094.967,-60.426613
1435273094.983,-59.42331
1435273094.998,-57.538666
1435273095.014,-55.00489
1435273095.029,-51.961494
1435273095.045,-48.485634
1435273095.061,-44.63575
1435273095.076,-40.54947
1435273095.092,-36.40809
1435273095.108,-32.38537
1435273095.123,-28.543716
1435273095.139,-24.775795
1435273095.154,-20.845673
1435273095.17,-16.549545
1435273095.186,-11.869583
1435273095.201,-7.0415955
1435273095.217,-2.5014572
1435273095.233,1.3283005
1435273095.248,4.2660904
1435273095.264,6.4189453
1435273095.279,8.177002
1435273095.295,10.0162735
1435273095.311,12.319931
1435273095.326,15.300987
1435273095.342,18.98764
1435273095.358,23.198654
1435273095.373,27.635254
1435273095.389,31.947487
1435273095.404,35.77613
1435273095.42,38.896523
1435273095.436,41.31053
1435273095.451,43.216217
1435273095.467,45.02356
1435273095.483,47.195206
1435273095.498,50.132996
1435273095.514,54.069687
1435273095.529,58.893654
1435273095.545,64.03573
1435273095.561,68.48145
1435273095.576,70.95516
1435273095.592,70.19966
1435273095.608,65.42232
1435273095.623,56.600616
1435273095.639,44.49666
1435273095.654,30.501045
1435273095.67,16.202919
1435273095.686,3.0327454
1435273095.701,-7.9577255
1435273095.717,-16.246506
1435273095.733,-21.857132
1435273095.748,-25.245537
1435273095.764,-27.145226
1435273095.779,-28.370972
1435273095.795,-29.53469
1435273095.811,-30.88668
1435273095.826,-32.37539
1435273095.842,-33.738144
1435273095.858,-34.77288
1435273095.873,-35.421894
1435273095.889,-35.694984
1435273095.904,-35.639145
1435273095.92,-35.30574
1435273095.936,-34.73325
1435273095.951,-34.070446
1435273095.967,-33.555157
1435273095.983,-33.405327
1435273095.998,-33.670048
1435273096.014,-34.147984
1435273096.029,-34.427464
1435273096.045,-34.068527
1435273096.061,-32.83273
1435273096.076,-30.708706
1435273096.092,-27.891655
1435273096.108,-24.673367
1435273096.123,-21.269608
1435273096.139,-17.816189
1435273096.154,-14.380516
1435273096.17,-11.01646
1435273096.186,-7.782593
1435273096.201,-4.7676888
1435273096.217,-1.9929161
1435273096.233,0.55434036
1435273096.248,2.9923668
1435273096.264,5.543625
1435273096.279,8.440498
1435273096.295,11.837273
1435273096.311,15.695778
1435273096.326,19.76865
1435273096.342,23.698639
1435273096.358,27.18993
1435273096.373,30.159996
1435273096.389,32.836647
1435273096.404,35.66443
1435273096.42,39.11621
1435273096.436,43.52125
1435273096.451,48.847782
1435273096.467,54.66742
1435273096.483,60.15747
1435273096.498,64.274025
1435273096.514,65.93857
1435273096.53,64.324585
1435273096.545,59.05559
1435273096.561,50.322906
1435273096.576,38.895893
1435273096.592,25.940044
1435273096.608,12.751488
1435273096.623,0.4932251
1435273096.639,-9.999958
1435273096.655,-18.322353
1435273096.67,-24.449078
1435273096.686,-28.665173
1435273096.701,-31.416859
1435273096.717,-33.16042
1435273096.733,-34.30461
1435273096.748,-35.10455
1435273096.764,-35.7136
1435273096.78,-36.13842
1435273096.795,-36.34729
1435273096.811,-36.282314
1435273096.826,-35.932102
1435273096.842,-35.381607
1435273096.858,-34.78682
1435273096.873,-34.336872
1435273096.889,-34.15266
1435273096.905,-34.23237
1435273096.92,-34.436325
1435273096.936,-34.536316
1435273096.951,-34.345802
1435273096.967,-33.7426
1435273096.983,-32.709743
1435273096.998,-31.224607
1435273097.014,-29.249075
1435273097.03,-26.701075
1435273097.045,-23.546818
1435273097.061,-19.844336
1435273097.076,-15.808311
1435273097.092,-11.727196
1435273097.108,-7.8703976
1435273097.123,-4.370384
1435273097.139,-1.1652508
1435273097.155,1.9521103
1435273097.17,5.236185
1435273097.186,8.849178
1435273097.201,12.806297
1435273097.217,16.943233
1435273097.233,21.003534
1435273097.248,24.747768
1435273097.264,28.02943
1435273097.28,30.91845
1435273097.295,33.599922
1435273097.311,36.386177
1435273097.326,39.588066
1435273097.342,43.493324
1435273097.358,48.282356
1435273097.373,53.959198
1435273097.389,60.26989
1435273097.405,66.575714
1435273097.42,71.89152
1435273097.436,75.03077
1435273097.451,74.8777
1435273097.467,70.76435
1435273097.483,62.671288
1435273097.498,51.303635
1435273097.514,37.856018
1435273097.53,23.732521
1435273097.545,10.188158
1435273097.561,-1.8479404
1435273097.576,-11.873749
1435273097.592,-19.756248
1435273097.608,-25.650482
1435273097.623,-29.88217
1435273097.639,-32.83133
1435273097.655,-34.87317
1435273097.67,-36.317062
1435273097.686,-37.409676
1435273097.701,-38.36243
1435273097.717,-39.324875
1435273097.733,-40.35278
1435273097.748,-41.341877
1435273097.764,-42.042732
1435273097.78,-42.17942
1435273097.795,-41.64163
1435273097.811,-40.588024
1435273097.826,-39.412052
1435273097.842,-38.56713
1435273097.858,-38.28834
1435273097.873,-38.44143
1435273097.889,-38.5753
1435273097.905,-38.17136
1435273097.92,-36.894558
1435273097.936,-34.71325
1435273097.951,-31.83173
1435273097.967,-28.531382
1435273097.983,-25.04282
1435273097.998,-21.48619
1435273098.014,-17.934778
1435273098.03,-14.483023
1435273098.045,-11.220974
1435273098.061,-8.203792
1435273098.076,-5.3953285
1435273098.092,-2.669231
1435273098.108,0.123113394
1435273098.123,3.0628893
1435273098.139,6.2037005
1435273098.155,9.558877
1435273098.17,13.12739
1435273098.186,16.926338
1435273098.201,20.90128
1435273098.217,24.947828
1435273098.233,28.890331
1435273098.248,32.593437
1435273098.264,36.034775
1435273098.28,39.3828
1435273098.295,42.979607
1435273098.311,47.230824
1435273098.326,52.465714
1435273098.342,58.693092
1435273098.358,65.42436
1435273098.373,71.62885
1435273098.389,75.8789
1435273098.405,76.74695
1435273098.42,73.261955
1435273098.436,65.26665
1435273098.451,53.51278
1435273098.467,39.43428
1435273098.483,24.713614
1435273098.498,10.821246
1435273098.514,-1.2821836
1435273098.53,-11.192693
1435273098.545,-18.96548
1435273098.561,-24.880371
1435273098.576,-29.27869
1435273098.592,-32.45444
1435273098.608,-34.668182
1435273098.623,-36.14547
1435273098.639,-37.152267
1435273098.655,-37.941788
1435273098.67,-38.72307
1435273098.686,-39.569202
1435273098.701,-40.360806
1435273098.717,-40.8785
1435273098.733,-40.93283
1435273098.748,-40.502403
1435273098.764,-39.76641
1435273098.78,-39.034576
1435273098.795,-38.556038
1435273098.811,-38.354774
1435273098.826,-38.240417
1435273098.842,-37.850376
1435273098.858,-36.900475
1435273098.873,-35.244804
1435273098.889,-32.986553
1435273098.905,-30.326834
1435273098.92,-27.485828
1435273098.936,-24.587128
1435273098.951,-21.632723
1435273098.967,-18.54863
1435273098.983,-15.268448
1435273098.998,-11.809523
1435273099.014,-8.297831
1435273099.03,-4.919634
1435273099.045,-1.833952
1435273099.061,0.95352745
1435273099.076,3.6353588
1435273099.092,6.549303
1435273099.108,9.952524
1435273099.123,13.937033
1435273099.139,18.275558
1435273099.155,22.592413
1435273099.17,26.509417
1435273099.186,29.88439
1435273099.202,32.82863
1435273099.217,35.669167
1435273099.233,38.786995
1435273099.248,42.473297
1435273099.264,46.88938
1435273099.28,52.051464
1435273099.295,57.760983
1435273099.311,63.519608
1435273099.326,68.46912
1435273099.342,71.48044
1435273099.358,71.37916
1435273099.373,67.3598
1435273099.389,59.266933
1435273099.405,47.748894
1435273099.42,34.098957
1435273099.436,19.8708
1435273099.452,6.4696045
1435273099.467,-5.1535835
1435273099.483,-14.5999565
1435273099.498,-21.929798
1435273099.514,-27.433144
1435273099.53,-31.447723
1435273099.545,-34.271965
1435273099.561,-36.128292
1435273099.577,-37.270473
1435273099.592,-37.956135
1435273099.608,-38.463474
1435273099.623,-38.970703
1435273099.639,-39.509842
1435273099.655,-39.951866
1435273099.67,-40.106133
1435273099.686,-39.877857
1435273099.702,-39.31877
1435273099.717,-38.639915
1435273099.733,-38.071266
1435273099.748,-37.71935
1435273099.764,-37.53506
1435273099.78,-37.315586
1435273099.795,-36.808907
1435273099.811,-35.79671
1435273099.827,-34.11724
1435273099.842,-31.661388
1435273099.858,-28.430649
1435273099.873,-24.524872
1435273099.889,-20.19447
1435273099.905,-15.774841
1435273099.92,-11.627964
1435273099.936,-7.973751
1435273099.952,-4.862362
1435273099.967,-2.133976
1435273099.983,0.48950577
1435273099.998,3.2716446
1435273100.014,6.4181557
1435273100.03,10.001186
1435273100.045,13.969746
1435273100.061,18.164272
1435273100.077,22.347843
1435273100.092,26.2733
1435273100.108,29.757488
1435273100.123,32.7961
1435273100.139,35.572323
1435273100.155,38.475014
1435273100.17,41.947445
1435273100.186,46.31114
1435273100.202,51.640526
1435273100.217,57.590305
1435273100.233,63.35907
1435273100.248,67.85009
1435273100.264,69.870316
1435273100.28,68.48607
1435273100.295,63.3193
1435273100.311,54.684315
1435273100.327,43.502327
1435273100.342,31.05571
1435273100.358,18.63807
1435273100.373,7.249279
1435273100.389,-2.5095863
1435273100.405,-10.377014
1435273100.42,-16.369957
1435273100.436,-20.568016
1435273100.452,-23.147732
1435273100.467,-24.388508
1435273100.483,-24.724243
1435273100.498,-24.80539
1435273100.514,-25.40543
1435273100.53,-27.239285
1435273100.545,-30.765057
1435273100.561,-36.002766
1435273100.577,-42.491642
1435273100.592,-49.42756
1435273100.608,-55.898163
1435273100.623,-61.131943
1435273100.639,-64.661415
1435273100.655,-66.36725
1435273100.67,-66.415146
1435273100.686,-65.0741
1435273100.702,-62.64415
1435273100.717,-59.317986
1435273100.733,-55.22755
1435273100.748,-50.439102
1435273100.764,-44.96936
1435273100.78,-38.888687
1435273100.795,-32.355324
1435273100.811,-25.633003
1435273100.827,-19.038456
1435273100.842,-12.8253975
1435273100.858,-7.0927734
1435273100.873,-1.7215729
1435273100.889,3.4992867
1435273100.905,8.774277
1435273100.92,14.1009445
1435273100.936,19.276394
1435273100.952,23.98592
1435273100.967,28.001762
1435273100.983,31.337494
1435273100.998,34.29158
1435273101.014,37.36603
1435273101.03,41.072247
1435273101.045,45.764
1435273101.061,51.501457
1435273101.077,57.930748
1435273101.092,64.305176
1435273101.108,69.5544
1435273101.123,72.505005
1435273101.139,72.16791
1435273101.155,68.064445
1435273101.17,60.316044
1435273101.186,49.680138
1435273101.202,37.250946
1435273101.217,24.197506
1435273101.233,11.531979
1435273101.248,1.5258789E-4
1435273101.264,-9.922688
1435273101.28,-17.981812
1435273101.295,-24.112568
1435273101.311,-28.46563
1435273101.327,-31.37238
1435273101.342,-33.27993
1435273101.358,-34.643177
1435273101.373,-35.75063
1435273101.389,-36.7056
1435273101.405,-37.424576
1435273101.42,-37.79492
1435273101.436,-37.734634
1435273101.452,-37.327896
1435273101.467,-36.741207
1435273101.483,-36.186146
1435273101.498,-35.800064
1435273101.514,-35.597816
1435273101.53,-35.44891
1435273101.545,-35.15326
1435273101.561,-34.503143
1435273101.577,-33.35206
1435273101.592,-31.687494
1435273101.608,-29.599974
1435273101.623,-27.241636
1435273101.639,-24.744852
1435273101.655,-22.191856
1435273101.67,-19.55623
1435273101.686,-16.696896
1435273101.702,-13.476166
1435273101.717,-9.793007
1435273101.733,-5.7286777
1435273101.748,-1.5439081
1435273101.764,2.4047012
1435273101.78,5.774561
1435273101.795,8.379977
1435273101.811,10.29668
1435273101.827,11.781929
1435273101.842,13.1931305
1435273101.858,14.862871
1435273101.873,17.034565
1435273101.889,19.841703
1435273101.905,23.320833
1435273101.92,27.402798
1435273101.936,31.883726
1435273101.952,36.48831
1435273101.967,40.946617
1435273101.983,45.15942
1435273101.998,49.301876
1435273102.014,53.69242
1435273102.03,58.55825
1435273102.045,63.682102
1435273102.061,68.30167
1435273102.077,71.25437
1435273102.092,71.37762
1435273102.108,67.93839
1435273102.124,60.893677
1435273102.139,50.850056
1435273102.155,38.80972
1435273102.17,25.875801
1435273102.186,13.03801
1435273102.202,1.0726819
1435273102.217,-9.446693
1435273102.233,-18.156237
1435273102.249,-24.936821
1435273102.264,-29.89223
1435273102.28,-33.33353
1435273102.295,-35.673122
1435273102.311,-37.308937
1435273102.327,-38.520077
1435273102.342,-39.445736
1435273102.358,-40.121845
1435273102.374,-40.507805
1435273102.389,-40.586052
1435273102.405,-40.38228
1435273102.42,-39.96816
1435273102.436,-39.475006
1435273102.452,-38.982323
1435273102.467,-38.52721
1435273102.483,-38.091225
1435273102.499,-37.595757
1435273102.514,-36.978596
1435273102.53,-36.14454
1435273102.545,-34.998318
1435273102.561,-33.457092
1435273102.577,-31.466797
1435273102.592,-29.028858
1435273102.608,-26.252382
1435273102.624,-23.30693
1435273102.639,-20.390833
