1435016932.236,0.0
1435016932.252,0.0
1435016932.268,0.0
1435016932.283,0.0
1435016932.299,0.0
1435016932.315,0.0
1435016932.33,0.0
1435016932.346,0.0
1435016932.362,0.0
1435016932.377,-0.004627197
1435016932.393,-0.014208838
1435016932.408,-0.018984035
1435016932.424,-0.008769624
1435016932.44,0.02098121
1435016932.455,0.05932794
1435016932.471,0.077331424
1435016932.486,0.03911565
1435016932.502,-0.07644789
1435016932.518,-0.26072535
1435016932.533,-0.46372086
1435016932.549,-0.6088515
1435016932.565,-0.6377028
1435016932.58,-0.5458599
1435016932.596,-0.39851302
1435016932.612,-0.3096886
1435016932.627,-0.39139456
1435016932.643,-0.6979559
1435016932.658,-1.2075034
1435016932.674,-1.814005
1435016932.69,-2.3642492
1435016932.705,-2.7424552
1435016932.721,-2.923504
1435016932.737,-2.9942532
1435016932.752,-3.12076
1435016932.768,-3.4701405
1435016932.783,-4.121696
1435016932.799,-5.0441413
1435016932.815,-6.051544
1435016932.83,-6.847836
1435016932.846,-7.2046523
1435016932.862,-7.0817394
1435016932.877,-6.69806
1435016932.893,-6.474496
1435016932.908,-6.850895
1435016932.924,-8.054306
1435016932.94,-10.009373
1435016932.955,-12.242897
1435016932.971,-14.019417
1435016932.987,-14.775263
1435016933.002,-14.422084
1435016933.018,-13.500216
1435016933.033,-13.016875
1435016933.049,-13.998049
1435016933.065,-16.954834
1435016933.08,-21.655241
1435016933.096,-27.01656
1435016933.112,-31.474306
1435016933.127,-33.856617
1435016933.143,-33.9828
1435016933.158,-32.900406
1435016933.174,-32.509773
1435016933.19,-34.69519
1435016933.205,-40.363976
1435016933.221,-49.033276
1435016933.237,-58.78403
1435016933.252,-66.987564
1435016933.268,-71.718475
1435016933.283,-72.690186
1435016933.299,-71.540344
1435016933.315,-71.163795
1435016933.33,-74.36596
1435016933.346,-81.63088
1435016933.362,-92.1434
1435016933.377,-104.921974
1435016933.393,-118.19203
1435016933.408,-130.18144
1435016933.424,-138.55022
1435016933.44,-140.2116
1435016933.455,-132.37242
1435016933.471,-114.71338
1435016933.487,-91.23152
1435016933.502,-70.03828
1435016933.518,-59.914543
1435016933.533,-65.39055
1435016933.549,-83.511086
1435016933.565,-104.10566
1435016933.58,-114.18576
1435016933.596,-103.982254
1435016933.612,-71.1964
1435016933.627,-21.088226
1435016933.643,37.166855
1435016933.658,95.58168
1435016933.674,150.54185
1435016933.69,202.31505
1435016933.705,252.31364
1435016933.721,300.18018
1435016933.737,342.88782
1435016933.752,376.12305
1435016933.768,396.57684
1435016933.783,403.5785
1435016933.799,399.11096
1435016933.815,386.68604
1435016933.83,369.34467
1435016933.846,348.58453
1435016933.862,324.05768
1435016933.877,294.55557
1435016933.893,259.20557
1435016933.908,218.47339
1435016933.924,174.4223
1435016933.94,130.23817
1435016933.955,89.21472
1435016933.971,53.60826
1435016933.987,24.063507
1435016934.002,-0.30352783
1435016934.018,-21.178757
1435016934.033,-40.157745
1435016934.049,-58.03932
1435016934.065,-74.61903
1435016934.08,-88.97223
1435016934.096,-100.043015
1435016934.112,-107.259
1435016934.127,-110.82379
1435016934.143,-111.63504
1435016934.158,-110.88428
1435016934.174,-109.60495
1435016934.19,-108.349365
1435016934.205,-107.12279
1435016934.221,-105.56125
1435016934.237,-103.22745
1435016934.252,-99.88194
1435016934.268,-95.59572
1435016934.283,-90.70333
1435016934.299,-85.62903
1435016934.315,-80.71445
1435016934.33,-76.11943
1435016934.346,-71.830215
1435016934.362,-67.722824
1435016934.377,-63.671844
1435016934.393,-59.611664
1435016934.408,-55.544975
1435016934.424,-51.529694
1435016934.44,-47.62703
1435016934.455,-43.883636
1435016934.471,-40.31237
1435016934.487,-36.919106
1435016934.502,-33.670353
1435016934.518,-30.57597
1435016934.533,-27.644508
1435016934.549,-24.881878
1435016934.565,-22.297733
1435016934.58,-19.89566
1435016934.596,-17.674799
1435016934.612,-15.637501
1435016934.627,-13.785278
1435016934.643,-12.108639
1435016934.658,-10.607405
1435016934.674,-9.274805
1435016934.69,-8.097019
1435016934.705,-7.064049
1435016934.721,-6.160207
1435016934.737,-5.3763714
1435016934.752,-4.696846
1435016934.768,-4.111264
1435016934.783,-3.607666
1435016934.799,-3.1789799
1435016934.815,-2.8154469
1435016934.83,-2.5053263
1435016934.846,-2.2425108
1435016934.862,-2.0185766
1435016934.877,-1.8243608
1435016934.893,-1.6573362
1435016934.908,-1.5164013
1435016934.924,-1.3924513
1435016934.94,-1.2838755
1435016934.955,-1.1926527
1435016934.971,-1.1079507
1435016934.987,-1.0349011
1435016935.002,-0.9726443
1435016935.018,-0.91750956
1435016935.033,-0.8707223
1435016935.049,-0.8300543
1435016935.065,-0.78640556
1435016935.08,-0.73661757
1435016935.096,-0.6758957
1435016935.112,-0.6047263
1435016935.127,-0.53170395
1435016935.143,-0.466887
1435016935.158,-0.41798782
1435016935.174,-0.387702
1435016935.19,-0.37497663
1435016935.205,-0.36875677
1435016935.221,-0.3560977
1435016935.237,-0.33386993
1435016935.252,-0.29941607
1435016935.268,-0.25847578
1435016935.284,-0.23321915
1435016935.299,-0.2217145
1435016935.315,-0.23769808
1435016935.33,-0.26951408
1435016935.346,-0.3036847
1435016935.362,-0.31567717
1435016935.377,-0.29343748
1435016935.393,-0.235538
1435016935.409,-0.15348291
1435016935.424,-0.07432985
1435016935.44,-0.026970863
1435016935.455,-0.018642426
1435016935.471,-0.038965702
1435016935.487,-0.055517673
1435016935.502,-0.016355038
1435016935.518,0.098000765
1435016935.534,0.29013848
1435016935.549,0.5092795
1435016935.565,0.6962619
1435016935.58,0.7766261
1435016935.596,0.72629213
1435016935.612,0.5909958
1435016935.627,0.45363426
1435016935.643,0.42222786
1435016935.659,0.5680413
1435016935.674,0.8800268
1435016935.69,1.2739198
1435016935.705,1.619503
1435016935.721,1.7851816
1435016935.737,1.7091409
1435016935.752,1.4601271
1435016935.768,1.1697345
1435016935.784,1.0071907
1435016935.799,1.1052294
1435016935.815,1.4586569
1435016935.83,1.9653721
1435016935.846,2.4447415
1435016935.862,2.7404664
1435016935.877,2.751114
1435016935.893,2.5019414
1435016935.909,2.0795352
1435016935.924,1.6305752
1435016935.94,1.298715
1435016935.955,1.2936369
1435016935.971,1.8115275
1435016935.987,2.9191558
1435016936.002,4.353666
1435016936.018,5.4657965
1435016936.034,5.301018
1435016936.049,3.0031424
1435016936.065,-1.7578727
1435016936.08,-8.479137
1435016936.096,-15.897202
1435016936.112,-22.459164
1435016936.127,-26.884699
1435016936.143,-28.622797
1435016936.159,-27.911816
1435016936.174,-25.542604
1435016936.19,-22.317715
1435016936.205,-18.807178
1435016936.221,-15.177342
1435016936.237,-11.364088
1435016936.252,-7.302324
1435016936.268,-2.9376879
1435016936.284,1.6496854
1435016936.299,6.501395
1435016936.315,11.687241
1435016936.33,17.19137
1435016936.346,22.614872
1435016936.362,27.149065
1435016936.377,29.61578
1435016936.393,28.97535
1435016936.409,24.838432
1435016936.424,17.754257
1435016936.44,9.121179
1435016936.455,0.738309
1435016936.471,-5.8327446
1435016936.487,-9.725341
1435016936.502,-10.873084
1435016936.518,-9.856493
1435016936.534,-7.4461865
1435016936.549,-4.326544
1435016936.565,-1.0613213
1435016936.58,2.0293741
1435016936.596,4.6850696
1435016936.612,6.7461205
1435016936.627,8.192983
1435016936.643,9.1210575
1435016936.659,9.6841
1435016936.674,10.000102
1435016936.69,10.197903
1435016936.705,10.305954
1435016936.721,10.314718
1435016936.737,10.131992
1435016936.752,9.60666
1435016936.768,8.587214
1435016936.784,7.0513344
1435016936.799,5.167304
1435016936.815,3.2906685
1435016936.83,1.902086
1435016936.846,1.3683138
1435016936.862,1.8432007
1435016936.877,3.1392446
1435016936.893,4.8274965
1435016936.909,6.4280076
1435016936.924,7.5847144
1435016936.94,8.182923
1435016936.955,8.3720665
1435016936.971,8.451118
1435016936.987,8.717071
1435016937.002,9.41103
1435016937.018,10.643275
1435016937.034,12.40739
1435016937.049,14.626906
1435016937.065,17.10734
1435016937.08,19.638926
1435016937.096,21.941446
1435016937.112,23.81694
1435016937.127,25.264626
1435016937.143,26.530481
1435016937.159,28.057377
1435016937.174,30.355072
1435016937.19,33.68082
1435016937.205,37.7875
1435016937.221,41.862164
1435016937.237,44.628784
1435016937.252,44.343502
1435016937.268,39.65477
1435016937.284,30.019287
1435016937.299,15.959782
1435016937.315,-1.0816727
1435016937.33,-19.172401
1435016937.346,-36.487022
1435016937.362,-51.668938
1435016937.377,-64.01053
1435016937.393,-73.36948
1435016937.409,-79.759735
1435016937.424,-83.335464
1435016937.44,-84.278854
1435016937.455,-82.94678
1435016937.471,-79.90921
1435016937.487,-75.93508
1435016937.502,-71.833405
1435016937.518,-68.147385
1435016937.534,-65.057785
1435016937.549,-62.331043
1435016937.565,-59.58812
1435016937.58,-56.548946
1435016937.596,-53.24094
1435016937.612,-49.932243
1435016937.627,-46.964577
1435016937.643,-44.502224
1435016937.659,-42.40018
1435016937.674,-40.26363
1435016937.69,-37.569252
1435016937.705,-33.929264
1435016937.721,-29.18442
1435016937.737,-23.455164
1435016937.752,-17.070486
1435016937.768,-10.430256
1435016937.784,-3.9139462
1435016937.799,2.259468
1435016937.815,7.9738083
1435016937.83,13.335634
1435016937.846,18.532095
1435016937.862,23.761246
1435016937.877,29.114944
1435016937.893,34.51026
1435016937.909,39.83903
1435016937.924,44.97702
1435016937.94,49.886806
1435016937.956,54.6264
1435016937.971,59.311367
1435016937.987,64.12666
1435016938.002,69.323044
1435016938.018,75.25517
1435016938.034,82.17436
1435016938.049,90.02341
1435016938.065,98.13858
1435016938.081,105.151794
1435016938.096,109.239685
1435016938.112,108.59171
1435016938.127,102.02933
1435016938.143,89.5034
1435016938.159,72.08389
1435016938.174,51.63692
1435016938.19,30.246553
1435016938.206,9.6076565
1435016938.221,-9.220018
1435016938.237,-25.783176
1435016938.252,-39.996975
1435016938.268,-51.838276
1435016938.284,-61.248085
1435016938.299,-68.06936
1435016938.315,-72.28511
1435016938.331,-74.13706
1435016938.346,-74.16734
1435016938.362,-73.13446
1435016938.377,-71.7778
1435016938.393,-70.619934
1435016938.409,-69.84282
1435016938.424,-69.278625
1435016938.44,-68.63277
1435016938.456,-67.61174
1435016938.471,-66.08977
1435016938.487,-64.11172
1435016938.502,-61.871807
1435016938.518,-59.487686
1435016938.534,-56.925514
1435016938.549,-53.959618
1435016938.565,-50.272045
1435016938.581,-45.603546
1435016938.596,-39.915447
1435016938.612,-33.455208
1435016938.627,-26.654354
1435016938.643,-19.996906
1435016938.659,-13.859491
1435016938.674,-8.372623
1435016938.69,-3.4618454
1435016938.706,1.117485
1435016938.721,5.640957
1435016938.737,10.448887
1435016938.752,15.863911
1435016938.768,22.138756
1435016938.784,29.303818
1435016938.799,37.101475
1435016938.815,45.002872
1435016938.831,52.417854
1435016938.846,59.00642
1435016938.862,64.832535
1435016938.877,70.48473
1435016938.893,76.77506
1435016938.909,84.44774
1435016938.924,93.76033
1435016938.94,104.25577
1435016938.956,114.70534
1435016938.971,123.3421
1435016938.987,128.2798
1435016939.002,127.912674
1435016939.018,121.40271
1435016939.034,108.84177
1435016939.049,91.28435
1435016939.065,70.4209
1435016939.081,48.205956
1435016939.096,26.39663
1435016939.112,6.303669
1435016939.127,-11.203991
1435016939.143,-25.671589
1435016939.159,-36.97143
1435016939.174,-45.20094
1435016939.19,-50.752926
1435016939.206,-54.261723
1435016939.221,-56.474476
1435016939.237,-58.04136
1435016939.252,-59.354687
1435016939.268,-60.446236
1435016939.284,-61.09977
1435016939.299,-61.0377
1435016939.315,-60.121326
1435016939.331,-58.448235
1435016939.346,-56.36915
1435016939.362,-54.22009
1435016939.377,-52.299473
1435016939.393,-50.684875
1435016939.409,-49.24606
1435016939.424,-47.768284
1435016939.44,-46.075912
1435016939.456,-43.987858
1435016939.471,-41.29454
1435016939.487,-37.684868
1435016939.502,-32.859562
1435016939.518,-26.694183
1435016939.534,-19.475796
1435016939.549,-11.942123
1435016939.565,-5.050232
1435016939.581,0.4623947
1435016939.596,4.422493
1435016939.612,7.3354225
1435016939.627,10.1565895
1435016939.643,13.809666
1435016939.659,18.728874
1435016939.674,24.77557
1435016939.69,31.359173
1435016939.706,37.823803
1435016939.721,43.725193
1435016939.737,48.993587
1435016939.752,53.843784
1435016939.768,58.612514
1435016939.784,63.66728
1435016939.799,69.37835
1435016939.815,76.04527
1435016939.831,83.75937
1435016939.846,92.174
1435016939.862,100.42799
1435016939.877,107.06039
1435016939.893,110.309494
1435016939.909,108.61282
1435016939.924,101.0211
1435016939.94,87.58212
1435016939.956,69.38609
1435016939.971,48.29728
1435016939.987,26.44426
1435016940.002,5.6687756
1435016940.018,-12.813463
1435016940.034,-28.50578
1435016940.049,-41.42021
1435016940.065,-51.792454
1435016940.081,-59.792027
1435016940.096,-65.51074
1435016940.112,-69.056595
1435016940.127,-70.72186
1435016940.143,-71.06549
1435016940.159,-70.829575
1435016940.174,-70.69952
1435016940.19,-71.02084
1435016940.206,-71.736786
1435016940.221,-72.52429
1435016940.237,-72.990555
1435016940.252,-72.967224
1435016940.268,-72.50216
1435016940.284,-71.80045
1435016940.299,-70.94535
1435016940.315,-69.81384
1435016940.331,-68.12743
1435016940.346,-65.45168
1435016940.362,-61.4518
1435016940.377,-56.024006
1435016940.393,-49.413795
1435016940.409,-42.180363
1435016940.424,-35.021965
1435016940.44,-28.551546
1435016940.456,-23.034811
1435016940.471,-18.284601
1435016940.487,-13.759248
1435016940.502,-8.859694
1435016940.518,-3.21732
1435016940.534,3.1267729
1435016940.549,9.811506
1435016940.565,16.377583
1435016940.581,22.580544
1435016940.596,28.5065
1435016940.612,34.49445
1435016940.628,40.954765
1435016940.643,48.195007
1435016940.659,56.35903
1435016940.674,65.44066
1435016940.69,75.30159
1435016940.706,85.56356
1435016940.721,95.341125
1435016940.737,103.33519
1435016940.753,107.83649
1435016940.768,107.27248
1435016940.784,100.69963
1435016940.799,88.21774
1435016940.815,71.0166
1435016940.831,50.9954
1435016940.846,30.198639
1435016940.862,10.309696
1435016940.878,-7.612729
1435016940.893,-23.110939
1435016940.909,-36.05928
1435016940.924,-46.439068
1435016940.94,-54.292507
1435016940.956,-59.700684
1435016940.971,-62.970272
1435016940.987,-64.59691
1435016941.003,-65.26965
1435016941.018,-65.56923
1435016941.034,-65.83359
1435016941.049,-66.05649
1435016941.065,-65.925804
1435016941.081,-65.11583
1435016941.096,-63.48989
1435016941.112,-61.233757
1435016941.128,-58.757355
1435016941.143,-56.491882
1435016941.159,-54.64018
1435016941.174,-53.05693
1435016941.19,-51.362785
1435016941.206,-49.121628
1435016941.221,-46.140976
1435016941.237,-42.487015
1435016941.253,-38.41871
1435016941.268,-34.180115
1435016941.284,-29.847084
1435016941.299,-25.283726
1435016941.315,-20.297314
1435016941.331,-14.771591
1435016941.346,-8.783688
1435016941.362,-2.519596
1435016941.378,3.881359
1435016941.393,10.432678
1435016941.409,17.331501
1435016941.424,24.781067
1435016941.44,32.77364
1435016941.456,41.025143
1435016941.471,48.992676
1435016941.487,56.19767
1435016941.503,62.4468
1435016941.518,67.994316
1435016941.534,73.448166
1435016941.549,79.56145
1435016941.565,86.96505
1435016941.581,95.92224
1435016941.596,106.09494
1435016941.612,116.49845
1435016941.628,125.47549
1435016941.643,131.00166
1435016941.659,131.13623
1435016941.674,124.67538
1435016941.69,111.5466
1435016941.706,92.95616
1435016941.721,70.98265
1435016941.737,47.95576
1435016941.753,25.811413
1435016941.768,5.7617035
1435016941.784,-11.674103
1435016941.799,-26.361568
1435016941.815,-38.276657
1435016941.831,-47.394615
1435016941.846,-53.76937
1435016941.862,-57.67092
1435016941.878,-59.65164
1435016941.893,-60.43934
1435016941.909,-60.72875
1435016941.924,-60.987556
1435016941.94,-61.39937
1435016941.956,-61.857445
1435016941.971,-62.149815
1435016941.987,-62.119907
1435016942.003,-61.74581
1435016942.018,-61.126575
1435016942.034,-60.451416
1435016942.049,-59.786007
1435016942.065,-59.045948
1435016942.081,-57.97554
1435016942.096,-56.214603
1435016942.112,-53.461754
1435016942.128,-49.578144
1435016942.143,-44.608303
1435016942.159,-38.817112
1435016942.174,-32.567223
1435016942.19,-26.22342
1435016942.206,-20.052341
1435016942.221,-14.177818
1435016942.237,-8.501499
1435016942.253,-2.8447838
1435016942.268,2.9988441
1435016942.284,9.180721
1435016942.299,15.754498
1435016942.315,22.640396
1435016942.331,29.679745
1435016942.346,36.67
1435016942.362,43.407974
1435016942.378,49.768456
1435016942.393,55.780243
1435016942.409,61.653896
1435016942.424,67.77664
1435016942.44,74.56946
1435016942.456,82.33764
1435016942.471,91.11722
1435016942.487,100.528885
1435016942.503,109.704254
1435016942.518,117.41493
1435016942.534,122.14698
1435016942.549,122.44647
1435016942.565,117.25513
1435016942.581,106.24805
1435016942.596,89.99527
1435016942.612,69.88641
1435016942.628,47.809124
1435016942.643,25.69938
1435016942.659,5.0616884
1435016942.674,-13.128256
1435016942.69,-28.458178
1435016942.706,-40.859688
1435016942.721,-50.464436
1435016942.737,-57.492542
1435016942.753,-62.336517
1435016942.768,-65.54154
1435016942.784,-67.69662
1435016942.799,-69.28146
1435016942.815,-70.51581
1435016942.831,-71.39704
1435016942.846,-71.8434
1435016942.862,-71.8669
1435016942.878,-71.66115
1435016942.893,-71.52275
1435016942.909,-71.64167
1435016942.924,-71.973625
1435016942.94,-72.18607
1435016942.956,-71.789825
1435016942.971,-70.359665
1435016942.987,-67.65398
1435016943.003,-63.736404
1435016943.018,-58.823883
1435016943.034,-53.231937
1435016943.049,-47.267403
1435016943.065,-41.129528
1435016943.081,-34.92331
1435016943.096,-28.656685
1435016943.112,-22.255062
1435016943.128,-15.602646
1435016943.143,-8.58964
1435016943.159,-1.2289963
1435016943.174,6.4184055
1435016943.19,14.199255
1435016943.206,21.933893
1435016943.221,29.469816
1435016943.237,36.73284
1435016943.253,43.762505
1435016943.268,50.801388
1435016943.284,58.217464
1435016943.3,66.376465
1435016943.315,75.343155
1435016943.331,84.59018
1435016943.346,92.86571
1435016943.362,98.38309
1435016943.378,99.309105
1435016943.393,94.37926
1435016943.409,83.421524
1435016943.424,67.39244
1435016943.44,48.064144
1435016943.456,27.502844
1435016943.471,7.4248962
1435016943.487,-11.032476
1435016943.503,-27.29067
1435016943.518,-41.08451
1435016943.534,-52.236954
1435016943.55,-60.586956
1435016943.565,-66.09452
1435016943.581,-68.95129
1435016943.596,-69.695
1435016943.612,-69.050415
1435016943.628,-67.75779
1435016943.643,-66.32158
1435016943.659,-64.924706
1435016943.675,-63.506996
1435016943.69,-61.925232
1435016943.706,-60.13423
1435016943.721,-58.25711
1435016943.737,-56.497498
1435016943.753,-55.002636
1435016943.768,-53.719795
1435016943.784,-52.36353
1435016943.8,-50.48867
1435016943.815,-47.684868
1435016943.831,-43.7322
1435016943.846,-38.69988
1435016943.862,-32.893986
1435016943.878,-26.790968
1435016943.893,-20.787315
1435016943.909,-15.11952
1435016943.925,-9.770836
1435016943.94,-4.5505095
1435016943.956,0.8361211
1435016943.971,6.599143
1435016943.987,12.81364
1435016944.003,19.402164
1435016944.018,26.193727
1435016944.034,33.00008
1435016944.05,39.655334
1435016944.065,46.06928
1435016944.081,52.244965
1435016944.096,58.354866
1435016944.112,64.76364
1435016944.128,71.98497
1435016944.143,80.50015
1435016944.159,90.387596
1435016944.175,101.07692
1435016944.19,111.18395
1435016944.206,118.77461
1435016944.221,121.799706
1435016944.237,118.789215
1435016944.253,109.26847
1435016944.268,93.93884
1435016944.284,74.4394
1435016944.3,52.79376
1435016944.315,30.930435
1435016944.331,10.283665
1435016944.346,-8.316783
1435016944.362,-24.479053
1435016944.378,-38.088978
1435016944.393,-49.050484
1435016944.409,-57.302704
1435016944.425,-62.83802
1435016944.44,-65.91067
1435016944.456,-67.0383
1435016944.471,-66.969376
1435016944.487,-66.45971
1435016944.503,-66.03507
1435016944.518,-65.85517
1435016944.534,-65.73918
1435016944.55,-65.34762
1435016944.565,-64.41715
1435016944.581,-62.896343
1435016944.596,-60.941795
1435016944.612,-58.75823
1435016944.628,-56.453323
1435016944.643,-53.92858
1435016944.659,-50.97335
1435016944.675,-47.319847
1435016944.69,-42.833504
1435016944.706,-37.569717
1435016944.721,-31.742329
1435016944.737,-25.64196
1435016944.753,-19.5623
1435016944.768,-13.735361
1435016944.784,-8.271196
1435016944.8,-3.1456642
1435016944.815,1.7852936
1435016944.831,6.8014355
1435016944.846,12.218296
1435016944.862,18.320473
1435016944.878,25.183714
1435016944.893,32.62404
1435016944.909,40.166405
1435016944.925,47.272644
1435016944.94,53.504967
1435016944.956,58.74785
1435016944.971,63.279232
1435016944.987,67.63715
1435016945.003,72.441826
1435016945.018,78.25667
1435016945.034,85.49922
1435016945.05,94.315285
1435016945.065,104.41621
1435016945.081,114.8729
1435016945.096,123.946
1435016945.112,129.457
1435016945.128,129.27895
1435016945.143,122.14331
1435016945.159,108.12935
1435016945.175,88.70754
1435016945.19,66.20763
1435016945.206,43.027023
1435016945.221,21.07235
1435016945.237,1.455061
1435016945.253,-15.30064
1435016945.268,-29.031233
1435016945.284,-39.717453
1435016945.3,-47.460396
1435016945.315,-52.554005
1435016945.331,-55.532806
1435016945.346,-57.08882
1435016945.362,-57.878304
1435016945.378,-58.39226
1435016945.393,-58.837135
1435016945.409,-59.206264
1435016945.425,-59.33437
1435016945.44,-59.091183
1435016945.456,-58.44426
1435016945.471,-57.53243
1435016945.487,-56.643486
1435016945.503,-56.045166
1435016945.518,-55.874203
1435016945.534,-56.001175
1435016945.55,-56.025093
1435016945.565,-55.407547
1435016945.581,-53.664803
1435016945.596,-50.60112
1435016945.612,-46.301018
1435016945.628,-41.142456
1435016945.643,-35.620693
1435016945.659,-30.202877
1435016945.675,-25.222721
1435016945.69,-20.80625
1435016945.706,-16.829458
1435016945.721,-13.013941
1435016945.737,-9.061323
1435016945.753,-4.734789
1435016945.768,0.020290375
1435016945.784,5.103985
1435016945.8,10.328896
1435016945.815,15.564632
1435016945.831,20.844795
1435016945.846,26.376198
1435016945.862,32.543713
1435016945.878,39.70362
1435016945.893,48.14173
1435016945.909,57.737404
1435016945.925,67.89203
1435016945.94,77.4823
1435016945.956,84.9422
1435016945.971,88.60167
1435016945.987,87.09384
1435016946.003,79.84288
1435016946.018,67.288414
1435016946.034,50.785057
1435016946.05,32.198246
1435016946.065,13.330193
1435016946.081,-4.474724
1435016946.096,-20.482086
1435016946.112,-34.376225
1435016946.128,-46.002865
1435016946.143,-55.13748
1435016946.159,-61.571514
1435016946.175,-65.229065
1435016946.19,-66.423645
1435016946.206,-65.89462
1435016946.222,-64.59922
1435016946.237,-63.435535
1435016946.253,-62.95814
1435016946.268,-63.23168
1435016946.284,-63.922543
1435016946.3,-64.56955
1435016946.315,-64.80267
1435016946.331,-64.46715
1435016946.347,-63.63093
1435016946.362,-62.455116
1435016946.378,-61.05713
1435016946.393,-59.293934
1435016946.409,-56.865913
1435016946.425,-53.41922
1435016946.44,-48.691544
1435016946.456,-42.686768
1435016946.472,-35.70877
1435016946.487,-28.252306
1435016946.503,-20.883162
1435016946.518,-14.0132675
1435016946.534,-7.8065357
1435016946.55,-2.0952015
1435016946.565,3.4812326
1435016946.581,9.349994
1435016946.597,15.773841
1435016946.612,22.737524
1435016946.628,29.94337
1435016946.643,36.982132
1435016946.659,43.52206
1435016946.675,49.524673
1435016946.69,55.269024
1435016946.706,61.230938
1435016946.722,67.9693
1435016946.737,75.87295
1435016946.753,85.06125
1435016946.768,95.25857
1435016946.784,105.67789
1435016946.8,115.0193
1435016946.815,121.56282
1435016946.831,123.60953
1435016946.847,119.96077
1435016946.862,110.325035
1435016946.878,95.36653
1435016946.893,76.49576
1435016946.909,55.400696
1435016946.925,33.65722
1435016946.94,12.516343
1435016946.956,-7.081114
1435016946.972,-24.365608
1435016946.987,-38.713417
1435016947.003,-49.738747
1435016947.018,-57.437824
1435016947.034,-62.2358
1435016947.05,-64.83413
1435016947.065,-66.004395
1435016947.081,-66.35988
1435016947.097,-66.29594
1435016947.112,-65.996544
1435016947.128,-65.62763
1435016947.143,-65.31122
1435016947.159,-65.163994
1435016947.175,-65.19547
1435016947.19,-65.29004
1435016947.206,-65.24971
1435016947.222,-64.795334
1435016947.237,-63.744766
1435016947.253,-62.02752
1435016947.268,-59.67772
1435016947.284,-56.759438
1435016947.3,-53.263237
1435016947.315,-49.11105
1435016947.331,-44.20171
1435016947.347,-38.562645
1435016947.362,-32.374443
1435016947.378,-25.97233
1435016947.393,-19.758339
1435016947.409,-14.0324
1435016947.425,-8.868763
1435016947.44,-4.122078
1435016947.456,0.5268059
1435016947.472,5.444294
1435016947.487,10.908154
1435016947.503,17.056137
1435016947.518,23.841457
1435016947.534,31.071644
1435016947.55,38.531536
1435016947.565,45.958694
1435016947.581,53.21588
1435016947.597,60.325413
1435016947.612,67.49205
1435016947.628,75.08357
1435016947.643,83.53555
1435016947.659,93.18124
1435016947.675,103.988945
1435016947.69,115.25758
1435016947.706,125.49786
1435016947.722,132.53772
1435016947.737,134.08163
1435016947.753,128.45963
1435016947.768,115.317566
1435016947.784,95.8598
1435016947.8,72.52379
1435016947.815,48.16946
1435016947.831,25.207214
1435016947.847,5.056061
1435016947.862,-11.881474
1435016947.878,-25.811722
1435016947.893,-36.986946
1435016947.909,-45.484528
1435016947.925,-51.23629
1435016947.94,-54.349697
1435016947.956,-55.318237
1435016947.972,-55.03333
1435016947.987,-54.49598
1435016948.003,-54.453915
1435016948.018,-55.161964
1435016948.034,-56.3991
1435016948.05,-57.61395
1435016948.065,-58.31138
1435016948.081,-58.23244
1435016948.097,-57.461143
1435016948.112,-56.34545
1435016948.128,-55.26679
1435016948.143,-54.38307
1435016948.159,-53.557156
1435016948.175,-52.357346
1435016948.19,-50.24365
1435016948.206,-46.849552
1435016948.222,-42.10041
1435016948.237,-36.29424
1435016948.253,-29.945652
1435016948.268,-23.56852
1435016948.284,-17.490482
1435016948.3,-11.759312
1435016948.315,-6.200512
1435016948.331,-0.52757263
1435016948.347,5.4604034
1435016948.362,11.853485
1435016948.378,18.563484
1435016948.393,25.433727
1435016948.409,32.26941
1435016948.425,38.8942
1435016948.44,45.202656
1435016948.456,51.155178
1435016948.472,56.81593
1435016948.487,62.386253
1435016948.503,68.19325
1435016948.518,74.62055
1435016948.534,82.01914
1435016948.55,90.48909
1435016948.565,99.69419
1435016948.581,108.74253
1435016948.597,116.1981
1435016948.612,120.33847
1435016948.628,119.55972
1435016948.643,112.87555
1435016948.659,100.198746
1435016948.675,82.43963
1435016948.69,61.27624
1435016948.706,38.708145
1435016948.722,16.626362
1435016948.737,-3.540917
1435016948.753,-20.96454
1435016948.768,-35.285316
1435016948.784,-46.461773
1435016948.8,-54.66528
1435016948.815,-60.18556
1435016948.831,-63.43966
1435016948.847,-65.027466
1435016948.862,-65.64655
1435016948.878,-65.90572
1435016948.894,-66.242676
1435016948.909,-66.769684
1435016948.925,-67.40822
1435016948.94,-68.04078
1435016948.956,-68.660225
1435016948.972,-69.3593
1435016948.987,-70.232925
1435016949.003,-71.20343
1435016949.019,-71.91447
1435016949.034,-71.78878
1435016949.05,-70.206154
1435016949.065,-66.78328
1435016949.081,-61.522503
1435016949.097,-54.828842
1435016949.112,-47.307705
1435016949.128,-39.570545
1435016949.144,-32.02589
1435016949.159,-24.753643
1435016949.175,-17.658157
1435016949.19,-10.5312195
1435016949.206,-3.2918053
1435016949.222,4.0114594
1435016949.237,11.195732
1435016949.253,18.084053
1435016949.269,24.720089
1435016949.284,31.383545
1435016949.3,38.54023
1435016949.315,46.65103
1435016949.331,55.985836
1435016949.347,66.421936
1435016949.362,77.35858
1435016949.378,87.72336
1435016949.394,96.06019
1435016949.409,100.80281
1435016949.425,100.58721
1435016949.44,94.60858
1435016949.456,82.890396
1435016949.472,66.31566
1435016949.487,46.450573
1435016949.503,25.188728
1435016949.519,4.375389
1435016949.534,-14.5345955
1435016949.55,-30.551067
1435016949.565,-43.20831
1435016949.581,-52.4248
1435016949.597,-58.456863
1435016949.612,-61.75097
1435016949.628,-62.894753
1435016949.644,-62.50646
1435016949.659,-61.16833
1435016949.675,-59.41815
1435016949.69,-57.694138
1435016949.706,-56.298615
1435016949.722,-55.39325
1435016949.737,-54.894882
1435016949.753,-54.585342
1435016949.769,-54.152233
1435016949.784,-53.313366
1435016949.8,-51.882496
1435016949.815,-49.80895
1435016949.831,-47.090508
1435016949.847,-43.77249
1435016949.862,-39.869453
1435016949.878,-35.438786
1435016949.894,-30.547104
1435016949.909,-25.27842
1435016949.925,-19.64851
1435016949.94,-13.577209
1435016949.956,-6.9219856
1435016949.972,0.39702988
1435016949.987,8.283482
1435016950.003,16.404747
1435016950.019,24.340069
1435016950.034,31.73571
1435016950.05,38.517006
1435016950.065,44.888195
1435016950.081,51.34783
1435016950.097,58.523678
1435016950.112,67.06851
1435016950.128,77.36923
1435016950.144,89.27706
1435016950.159,101.82803
1435016950.175,113.22235
1435016950.19,121.08609
1435016950.206,123.18165
1435016950.222,118.11902
1435016950.237,105.89433
1435016950.253,87.873184
1435016950.269,66.31389
1435016950.284,43.596474
1435016950.3,21.648502
1435016950.315,1.6205254
1435016950.331,-15.902531
1435016950.347,-30.674648
1435016950.362,-42.555683
1435016950.378,-51.47132
1435016950.394,-57.570217
1435016950.409,-61.27901
1435016950.425,-63.25326
1435016950.44,-64.18292
1435016950.456,-64.567856
1435016950.472,-64.666565
1435016950.487,-64.3922
1435016950.503,-63.609573
1435016950.519,-62.250896
1435016950.534,-60.490005
1435016950.55,-58.643913
1435016950.565,-57.065567
1435016950.581,-55.869316
1435016950.597,-54.86007
1435016950.612,-53.557213
1435016950.628,-51.448746
1435016950.644,-48.186462
1435016950.659,-43.77002
1435016950.675,-38.453712
1435016950.69,-32.568832
1435016950.706,-26.372894
1435016950.722,-19.918175
1435016950.737,-13.139702
1435016950.753,-6.012985
1435016950.769,1.3887482
1435016950.784,8.894287
1435016950.8,16.347427
1435016950.815,23.68489
1435016950.831,31.041397
1435016950.847,38.61924
1435016950.862,46.647713
1435016950.878,55.320526
1435016950.894,64.80558
1435016950.909,75.174255
1435016950.925,86.3222
1435016950.94,97.73071
1435016950.956,108.33764
1435016950.972,116.51277
1435016950.987,120.409805
1435016951.003,118.45947
1435016951.019,109.96411
1435016951.034,95.35617
1435016951.05,76.13308
1435016951.065,54.37584
1435016951.081,32.171654
1435016951.097,11.135643
1435016951.112,-7.6889725
1435016951.128,-23.817924
1435016951.144,-37.063583
1435016951.159,-47.3761
1435016951.175,-54.834328
1435016951.19,-59.688942
1435016951.206,-62.402832
1435016951.222,-63.603714
1435016951.237,-63.914635
1435016951.253,-63.79344
1435016951.269,-63.42811
1435016951.284,-62.77868
1435016951.3,-61.728287
1435016951.315,-60.18949
1435016951.331,-58.20188
1435016951.347,-55.883377
1435016951.362,-53.378433
1435016951.378,-50.79624
1435016951.394,-48.125656
1435016951.409,-45.30011
1435016951.425,-42.196083
1435016951.44,-38.700233
1435016951.456,-34.733597
1435016951.472,-30.312035
1435016951.487,-25.493912
1435016951.503,-20.370964
1435016951.519,-14.984276
1435016951.534,-9.339478
1435016951.55,-3.3628998
1435016951.566,2.973465
1435016951.581,9.572586
1435016951.597,16.193092
1435016951.612,22.514618
1435016951.628,28.26709
1435016951.644,33.363205
1435016951.659,38.013138
1435016951.675,42.650658
1435016951.691,47.792274
1435016951.706,53.918175
1435016951.722,61.21752
1435016951.737,69.4224
1435016951.753,77.62304
1435016951.769,84.34103
1435016951.784,87.79412
1435016951.8,86.372505
1435016951.816,79.20248
1435016951.831,66.47066
1435016951.847,49.434265
1435016951.862,30.013992
1435016951.878,10.187866
1435016951.894,-8.484856
1435016951.909,-25.109863
1435016951.925,-39.315125
1435016951.941,-50.984116
1435016951.956,-60.030113
1435016951.972,-66.36904
1435016951.987,-70.04054
1435016952.003,-71.39707
1435016952.019,-71.12037
1435016952.034,-70.066154
1435016952.05,-68.99977
1435016952.066,-68.33255
1435016952.081,-68.063484
1435016952.097,-67.873344
1435016952.112,-67.37263
1435016952.128,-66.346825
1435016952.144,-64.81519
1435016952.159,-62.953934
1435016952.175,-60.928223
1435016952.191,-58.726334
1435016952.206,-56.174866
1435016952.222,-53.047485
1435016952.237,-49.20939
1435016952.253,-44.727325
1435016952.269,-39.824127
1435016952.284,-34.717545
1435016952.3,-29.493172
1435016952.316,-24.048027
1435016952.331,-18.137512
1435016952.347,-11.529312
1435016952.362,-4.1678085
1435016952.378,3.7812119
1435016952.394,12.013893
1435016952.409,20.100525
1435016952.425,27.732765
1435016952.441,34.707962
1435016952.456,41.04249
1435016952.472,46.957085
1435016952.487,52.86016
1435016952.503,59.29767
1435016952.519,66.784256
1435016952.534,75.626656
1435016952.55,85.61842
1435016952.566,95.80769
1435016952.581,104.46248
1435016952.597,109.402664
1435016952.612,108.62404
1435016952.628,100.97083
1435016952.644,86.663025
1435016952.659,67.24329
1435016952.675,45.149048
1435016952.691,22.860943
1435016952.706,2.271553
1435016952.722,-15.644909
1435016952.737,-30.691605
1435016952.753,-43.081665
1435016952.769,-53.00436
1435016952.784,-60.518635
1435016952.8,-65.637344
1435016952.816,-68.52641
1435016952.831,-69.63429
1435016952.847,-69.611046
1435016952.862,-69.09865
1435016952.878,-68.49802
1435016952.894,-67.902954
1435016952.909,-67.16891
1435016952.925,-66.00673
1435016952.941,-64.25638
1435016952.956,-61.887802
1435016952.972,-59.07846
1435016952.987,-56.16206
1435016953.003,-53.49317
1435016953.019,-51.264626
1435016953.034,-49.354073
1435016953.05,-47.32457
1435016953.066,-44.509056
1435016953.081,-40.31733
1435016953.097,-34.567265
1435016953.112,-27.623371
1435016953.128,-20.304352
1435016953.144,-13.508999
1435016953.159,-7.7999516
1435016953.175,-3.147891
1435016953.191,0.9823656
1435016953.206,5.368664
1435016953.222,10.545486
1435016953.237,16.620657
1435016953.253,23.245008
1435016953.269,29.893059
1435016953.284,36.14808
1435016953.3,41.881176
1435016953.316,47.28698
1435016953.331,52.735588
1435016953.347,58.58158
1435016953.362,65.13527
1435016953.378,72.66076
1435016953.394,81.3884
1435016953.409,91.41767
1435016953.425,102.43624
1435016953.441,113.40187
1435016953.456,122.52551
1435016953.472,127.603455
1435016953.487,126.7245
1435016953.503,118.92656
1435016953.519,104.65929
1435016953.534,85.61403
1435016953.55,64.17617
1435016953.566,42.629517
1435016953.581,22.604889
1435016953.597,4.912422
1435016953.612,-10.289421
1435016953.628,-23.17617
1435016953.644,-33.92315
1435016953.659,-42.633118
1435016953.675,-49.357063
1435016953.691,-54.205154
1435016953.706,-57.35794
1435016953.722,-59.1313
1435016953.737,-59.89821
1435016953.753,-60.007393
1435016953.769,-59.713577
1435016953.784,-59.132088
1435016953.8,-58.270798
1435016953.816,-57.119003
1435016953.831,-55.69735
1435016953.847,-54.119415
1435016953.862,-52.478966
1435016953.878,-50.791107
1435016953.894,-48.932175
1435016953.909,-46.657562
1435016953.925,-43.70704
1435016953.941,-39.918045
1435016953.956,-35.326843
1435016953.972,-30.108994
1435016953.987,-24.558289
1435016954.003,-18.990341
1435016954.019,-13.648796
1435016954.034,-8.692856
1435016954.05,-4.109787
1435016954.066,0.26239777
1435016954.081,4.720993
1435016954.097,9.595322
1435016954.112,15.130386
1435016954.128,21.35884
1435016954.144,28.111237
1435016954.159,35.072327
1435016954.175,41.901375
1435016954.191,48.386536
1435016954.206,54.459732
1435016954.222,60.194107
1435016954.238,65.74897
1435016954.253,71.360954
1435016954.269,77.305695
1435016954.284,83.92231
1435016954.3,91.401566
1435016954.316,99.58124
1435016954.331,107.67168
1435016954.347,114.213585
1435016954.362,117.35791
1435016954.378,115.3976
1435016954.394,107.42508
1435016954.409,93.66913
1435016954.425,75.50591
1435016954.441,54.924202
1435016954.456,33.90454
1435016954.472,13.916153
1435016954.488,-4.2239532
1435016954.503,-20.178879
1435016954.519,-33.76886
1435016954.534,-44.784058
1435016954.55,-53.003532
1435016954.566,-58.424187
1435016954.581,-61.391006
1435016954.597,-62.634148
1435016954.613,-63.08255
1435016954.628,-63.541733
1435016954.644,-64.46168
1435016954.659,-65.85501
1435016954.675,-67.36253
1435016954.691,-68.55477
1435016954.706,-69.08571
1435016954.722,-68.92182
1435016954.738,-68.23739
1435016954.753,-67.308815
1435016954.769,-66.28938
1435016954.784,-65.09268
1435016954.8,-63.40264
1435016954.816,-60.8106
1435016954.831,-57.014694
1435016954.847,-51.982536
1435016954.863,-45.980247
1435016954.878,-39.452034
1435016954.894,-32.862022
1435016954.909,-26.522102
1435016954.925,-20.487228
1435016954.941,-14.584686
1435016954.956,-8.511826
1435016954.972,-2.027954
1435016954.988,4.9678802
1435016955.003,12.288498
1435016955.019,19.596352
1435016955.034,26.539284
1435016955.05,32.930573
1435016955.066,38.805695
1435016955.081,44.46235
1435016955.097,50.355934
1435016955.113,56.999115
1435016955.128,64.79814
1435016955.144,73.87824
1435016955.159,83.848175
1435016955.175,93.7219
1435016955.191,101.95987
1435016955.206,106.8152
1435016955.222,106.77117
1435016955.238,101.04659
1435016955.253,89.80015
1435016955.269,74.09203
1435016955.284,55.517418
1435016955.3,35.777588
1435016955.316,16.323112
1435016955.331,-1.7578278
1435016955.347,-17.770943
1435016955.363,-31.303146
1435016955.378,-42.17591
1435016955.394,-50.350403
1435016955.409,-55.95333
1435016955.425,-59.2576
1435016955.441,-60.720406
1435016955.456,-60.96768
1435016955.472,-60.728798
1435016955.488,-60.626587
1435016955.503,-61.01467
1435016955.519,-61.836624
1435016955.534,-62.70215
1435016955.55,-63.11863
1435016955.566,-62.764404
1435016955.581,-61.64147
1435016955.597,-60.041237
1435016955.613,-58.29772
1435016955.628,-56.577095
1435016955.644,-54.766464
1435016955.659,-52.51706
1435016955.675,-49.493996
1435016955.691,-45.51068
1435016955.706,-40.640602
1435016955.722,-35.15912
1435016955.738,-29.450027
1435016955.753,-23.873001
1435016955.769,-18.631165
1435016955.784,-13.68589
1435016955.8,-8.776115
1435016955.816,-3.5034256
1435016955.831,2.501068
1435016955.847,9.377274
1435016955.863,16.976387
1435016955.878,24.887756
1435016955.894,32.633873
1435016955.909,39.876038
1435016955.925,46.541443
1435016955.941,52.808517
1435016955.956,59.003143
1435016955.972,65.465256
1435016955.988,72.49716
1435016956.003,80.32435
1435016956.019,89.10001
1435016956.034,98.80194
1435016956.05,108.97787
1435016956.066,118.58172
1435016956.081,125.99482
1435016956.097,129.34268
1435016956.113,127.03084
1435016956.128,118.31647
1435016956.144,103.608116
1435016956.159,84.378456
1435016956.175,62.690224
1435016956.191,40.613197
1435016956.206,19.71093
1435016956.222,0.880455
1435016956.238,-15.583542
1435016956.253,-29.66658
1435016956.269,-41.388405
1435016956.284,-50.706375
1435016956.3,-57.590767
1435016956.316,-62.153534
1435016956.331,-64.75154
1435016956.347,-65.95056
1435016956.363,-66.393074
1435016956.378,-66.61518
1435016956.394,-66.91015
1435016956.409,-67.29411
1435016956.425,-67.57351
1435016956.441,-67.49083
1435016956.456,-66.86253
1435016956.472,-65.65765
1435016956.488,-63.946205
1435016956.503,-61.854485
1435016956.519,-59.40487
1435016956.534,-56.504456
1435016956.55,-52.921707
1435016956.566,-48.45585
1435016956.581,-43.00551
1435016956.597,-36.694626
1435016956.613,-29.823586
1435016956.628,-22.830948
1435016956.644,-16.130844
1435016956.659,-10.006935
1435016956.675,-4.540062
1435016956.691,0.35177612
1435016956.706,4.880768
1435016956.722,9.31884
1435016956.738,13.919701
1435016956.753,18.854301
1435016956.769,24.196732
1435016956.784,29.854969
1435016956.8,35.62388
1435016956.816,41.256626
1435016956.831,46.581337
1435016956.847,51.592396
1435016956.863,56.464443
1435016956.878,61.523075
1435016956.894,67.15526
1435016956.909,73.768005
1435016956.925,81.61839
1435016956.941,90.69682
1435016956.956,100.468994
1435016956.972,109.749565
1435016956.988,116.764175
1435016957.003,119.48428
1435016957.019,116.30138
1435016957.034,106.55216
1435016957.05,90.945724
1435016957.066,71.2858
1435016957.081,49.911846
1435016957.097,28.907738
1435016957.113,9.580582
1435016957.128,-7.6126633
1435016957.144,-22.729416
1435016957.16,-35.90699
1435016957.175,-47.018707
1435016957.191,-55.771225
1435016957.206,-61.948944
1435016957.222,-65.74724
1435016957.238,-67.836395
1435016957.253,-69.14481
1435016957.269,-70.471344
1435016957.285,-72.14583
1435016957.3,-73.948105
1435016957.316,-75.37835
1435016957.331,-75.97894
1435016957.347,-75.67368
1435016957.363,-74.7432
1435016957.378,-73.65474
1435016957.394,-72.71728
1435016957.41,-71.89602
1435016957.425,-70.83344
1435016957.441,-69.034004
1435016957.456,-66.16569
1435016957.472,-62.173035
1435016957.488,-57.282665
1435016957.503,-51.874557
1435016957.519,-46.28859
1435016957.535,-40.74992
1435016957.55,-35.312916
1435016957.566,-29.924185
1435016957.581,-24.445442
1435016957.597,-18.709702
1435016957.613,-12.551369
1435016957.628,-5.846545
1435016957.644,1.4376526
1435016957.66,9.163749
1435016957.675,17.087025
1435016957.691,24.898594
1435016957.706,32.346554
1435016957.722,39.36812
1435016957.738,46.159203
1435016957.753,53.130157
1435016957.769,60.824047
1435016957.785,69.67434
1435016957.8,79.73026
1435016957.816,90.39353
1435016957.831,100.40383
1435016957.847,107.95489
1435016957.863,111.177345
1435016957.878,108.619705
1435016957.894,99.72593
1435016957.91,85.04132
1435016957.925,66.05302
1435016957.941,44.76439
1435016957.956,23.205183
1435016957.972,2.9470844
1435016957.988,-15.018566
1435016958.003,-30.275953
1435016958.019,-42.731583
1435016958.035,-52.456543
1435016958.05,-59.561546
1435016958.066,-64.23537
1435016958.081,-66.82378
1435016958.097,-67.862335
1435016958.113,-67.99403
1435016958.128,-67.84738
1435016958.144,-67.80891
1435016958.16,-67.98417
1435016958.175,-68.21223
1435016958.191,-68.21193
1435016958.206,-67.77524
1435016958.222,-66.8405
1435016958.238,-65.47617
1435016958.253,-63.837692
1435016958.269,-62.02053
1435016958.285,-59.98006
1435016958.3,-57.5418
1435016958.316,-54.466835
1435016958.331,-50.487762
1435016958.347,-45.505318
1435016958.363,-39.581116
1435016958.378,-32.974884
1435016958.394,-26.050804
1435016958.41,-19.203762
1435016958.425,-12.6861
1435016958.441,-6.5937405
1435016958.456,-0.82059014
1435016958.472,4.82987
1435016958.488,10.601556
1435016958.503,16.648914
1435016958.519,23.049053
1435016958.535,29.712976
1435016958.55,36.461304
1435016958.566,43.113445
1435016958.581,49.5524
1435016958.597,55.83841
1435016958.613,62.218643
1435016958.628,69.03704
1435016958.644,76.69279
1435016958.66,85.40759
1435016958.675,95.15962
1435016958.691,105.472786
1435016958.706,115.36841
1435016958.722,123.37315
1435016958.738,127.764694
1435016958.753,126.9444
1435016958.769,119.90958
1435016958.785,106.621635
1435016958.8,88.106155
1435016958.816,66.171074
1435016958.831,42.958412
1435016958.847,20.391212
1435016958.863,-0.1791668
1435016958.878,-18.047935
1435016958.894,-32.985725
1435016958.91,-45.041855
1435016958.925,-54.334236
1435016958.941,-61.050117
1435016958.956,-65.45233
1435016958.972,-67.96071
1435016958.988,-69.08424
1435016959.003,-69.379105
1435016959.019,-69.29828
1435016959.035,-69.11838
1435016959.05,-68.89624
1435016959.066,-68.52139
1435016959.081,-67.84068
1435016959.097,-66.76314
1435016959.113,-65.280365
1435016959.128,-63.492455
1435016959.144,-61.47863
1435016959.16,-59.278778
1435016959.175,-56.795105
1435016959.191,-53.85331
1435016959.206,-50.260235
1435016959.222,-45.922024
1435016959.238,-40.890766
1435016959.253,-35.426235
1435016959.269,-29.844625
1435016959.285,-24.453892
1435016959.3,-19.388565
1435016959.316,-14.560675
1435016959.331,-9.649181
1435016959.347,-4.251697
1435016959.363,1.9823499
1435016959.378,9.147482
1435016959.394,17.022682
1435016959.41,25.159422
1435016959.425,33.051434
1435016959.441,40.330513
1435016959.456,46.941742
1435016959.472,53.091732
1435016959.488,59.180687
1435016959.503,65.67125
1435016959.519,73.01469
1435016959.535,81.56396
1435016959.55,91.49087
1435016959.566,102.56032
1435016959.581,113.91907
1435016959.597,123.94873
1435016959.613,130.55826
1435016959.628,131.71231
1435016959.644,126.1188
1435016959.66,113.73807
1435016959.675,95.83158
1435016959.691,74.52385
1435016959.706,52.12726
1435016959.722,30.494865
1435016959.738,10.772198
1435016959.753,-6.604041
1435016959.769,-21.508406
1435016959.785,-33.89395
1435016959.8,-43.641323
1435016959.816,-50.68865
1435016959.832,-55.151257
1435016959.847,-57.514313
1435016959.863,-58.4924
1435016959.878,-58.863632
1435016959.894,-59.164043
1435016959.91,-59.51754
1435016959.925,-59.700226
1435016959.941,-59.37492
1435016959.957,-58.342384
1435016959.972,-56.726982
1435016959.988,-54.906025
1435016960.003,-53.294357
1435016960.019,-52.061607
1435016960.035,-51.049274
1435016960.05,-49.81401
1435016960.066,-47.866158
1435016960.082,-44.830677
1435016960.097,-40.599377
1435016960.113,-35.33532
1435016960.128,-29.401505
1435016960.144,-23.25066
1435016960.16,-17.30534
1435016960.175,-11.82201
1435016960.191,-6.8467064
1435016960.207,-2.1856766
1435016960.222,2.4928284
1435016960.238,7.489853
1435016960.253,12.879795
1435016960.269,18.504688
1435016960.285,24.0116
1435016960.3,29.103386
1435016960.316,33.69506
1435016960.332,37.99083
1435016960.347,42.423447
1435016960.363,47.51487
1435016960.378,53.65748
1435016960.394,60.997368
1435016960.41,69.24407
1435016960.425,77.60358
1435016960.441,84.733215
1435016960.457,88.94761
1435016960.472,88.57993
1435016960.488,82.5288
1435016960.503,70.60861
1435016960.519,53.74897
1435016960.535,33.689087
1435016960.55,12.517578
1435016960.566,-7.892845
1435016960.582,-26.19564
1435016960.597,-41.663597
1435016960.613,-53.97757
1435016960.628,-63.064934
1435016960.644,-68.99313
1435016960.66,-72.028404
1435016960.675,-72.678566
1435016960.691,-71.7115
1435016960.707,-69.97475
1435016960.722,-68.23612
1435016960.738,-66.97932
1435016960.753,-66.36797
1435016960.769,-66.24333
1435016960.785,-66.32875
1435016960.8,-66.33099
1435016960.816,-66.07504
1435016960.832,-65.442116
1435016960.847,-64.36466
1435016960.863,-62.700058
1435016960.878,-60.244125
1435016960.894,-56.722595
1435016960.91,-51.950905
1435016960.925,-45.948013
1435016960.941,-39.02926
1435016960.957,-31.689537
1435016960.972,-24.451485
1435016960.988,-17.58754
1435016961.003,-11.047806
1435016961.019,-4.5174255
1435016961.035,2.3837814
1435016961.05,9.83593
1435016961.066,17.712814
1435016961.082,25.679054
1435016961.097,33.362244
1435016961.113,40.59095
1435016961.128,47.44507
1435016961.144,54.246613
1435016961.16,61.414436
1435016961.175,69.3948
1435016961.191,78.496414
1435016961.207,88.774376
1435016961.222,99.80431
1435016961.238,110.558105
1435016961.253,119.37215
1435016961.269,124.29592
1435016961.285,123.608444
1435016961.3,116.39448
1435016961.316,102.870415
1435016961.332,84.334175
1435016961.347,62.737602
1435016961.363,40.09369
1435016961.378,18.021507
1435016961.394,-2.4237366
1435016961.41,-20.611488
1435016961.425,-36.118546
1435016961.441,-48.631767
1435016961.457,-57.930542
1435016961.472,-64.07923
1435016961.488,-67.525795
1435016961.503,-69.045654
1435016961.519,-69.54904
1435016961.535,-69.80313
1435016961.55,-70.18255
1435016961.566,-70.6462
1435016961.582,-70.83682
1435016961.597,-70.34633
1435016961.613,-68.96469
1435016961.628,-66.796455
1435016961.644,-64.20804
1435016961.66,-61.607445
1435016961.675,-59.247147
1435016961.691,-57.077095
1435016961.707,-54.744904
1435016961.722,-51.812927
1435016961.738,-47.951355
1435016961.753,-43.104324
1435016961.769,-37.497993
1435016961.785,-31.467987
1435016961.8,-25.32212
1435016961.816,-19.158546
1435016961.832,-12.900955
1435016961.847,-6.359398
1435016961.863,0.64051056
1435016961.878,8.11882
1435016961.894,15.951912
1435016961.91,23.89376
1435016961.925,31.68274
1435016961.941,39.11149
1435016961.957,46.14353
1435016961.972,52.93596
1435016961.988,59.818184
1435016962.003,67.22959
1435016962.019,75.61339
1435016962.035,85.27977
1435016962.05,96.21067
1435016962.066,107.83739
1435016962.082,118.957886
1435016962.097,127.772156
1435016962.113,132.30045
1435016962.128,130.84708
1435016962.144,122.58588
1435016962.16,107.82749
1435016962.175,88.02132
1435016962.191,65.22507
1435016962.207,41.55755
1435016962.222,18.708366
1435016962.238,-2.2606735
1435016962.253,-20.794304
1435016962.269,-36.60298
1435016962.285,-49.44538
1435016962.3,-59.183983
1435016962.316,-65.86108
1435016962.332,-69.83166
1435016962.347,-71.7376
1435016962.363,-72.35002
1435016962.378,-72.37208
1435016962.394,-72.265205
1435016962.41,-72.218254
1435016962.425,-72.19521
1435016962.441,-72.08829
1435016962.457,-71.773445
1435016962.472,-71.188805
1435016962.488,-70.30224
1435016962.504,-69.08401
1435016962.519,-67.44384
1435016962.535,-65.185585
1435016962.55,-62.0577
1435016962.566,-57.81127
1435016962.582,-52.30552
1435016962.597,-45.62343
1435016962.613,-38.09355
1435016962.629,-30.225296
1435016962.644,-22.559082
1435016962.66,-15.514542
1435016962.675,-9.17482
1435016962.691,-3.3335571
1435016962.707,2.50943
1435016962.722,8.828842
1435016962.738,15.946243
1435016962.754,23.796707
1435016962.769,31.957962
1435016962.785,39.885025
1435016962.8,47.142014
1435016962.816,53.636505
1435016962.832,59.68474
1435016962.847,65.894684
1435016962.863,72.936066
1435016962.879,81.27576
1435016962.894,91.00778
1435016962.91,101.70929
1435016962.925,112.39824
1435016962.941,121.55789
1435016962.957,127.35841
1435016962.972,128.02821
1435016962.988,122.37988
1435016963.004,110.224045
1435016963.019,92.54889
1435016963.035,71.25235
1435016963.05,48.582855
1435016963.066,26.52562
1435016963.082,6.3979034
1435016963.097,-11.195541
1435016963.113,-26.087448
1435016963.129,-38.238663
1435016963.144,-47.581482
1435016963.16,-54.07457
1435016963.175,-57.8833
1435016963.191,-59.52089
1435016963.207,-59.76915
1435016963.222,-59.504242
1435016963.238,-59.39058
1435016963.254,-59.75522
1435016963.269,-60.531433
1435016963.285,-61.417557
1435016963.3,-62.040573
1435016963.316,-62.125046
1435016963.332,-61.565613
1435016963.347,-60.40715
1435016963.363,-58.718002
1435016963.379,-56.529144
1435016963.394,-53.769836
1435016963.41,-50.32271
1435016963.425,-46.12758
1435016963.441,-41.286148
1435016963.457,-36.04947
1435016963.472,-30.719162
1435016963.488,-25.470276
1435016963.504,-20.292343
1435016963.519,-14.927124
1435016963.535,-9.115784
1435016963.55,-2.7001495
1435016963.566,4.1810303
1435016963.582,11.166107
1435016963.597,17.801376
1435016963.613,23.771683
1435016963.629,29.044006
1435016963.644,33.883774
1435016963.66,38.829727
1435016963.675,44.488922
1435016963.691,51.36258
1435016963.707,59.602432
1435016963.722,68.82124
1435016963.738,77.983444
1435016963.754,85.52869
1435016963.769,89.719864
1435016963.785,89.02461
1435016963.8,82.647934
1435016963.816,70.74913
1435016963.832,54.450165
1435016963.847,35.455276
1435016963.863,15.63002
1435016963.879,-3.5053864
1435016963.894,-20.958572
1435016963.91,-36.26822
1435016963.925,-49.242035
1435016963.941,-59.74901
1435016963.957,-67.59056
1435016963.972,-72.609634
1435016963.988,-74.90604
1435016964.004,-74.94885
1435016964.019,-73.533325
1435016964.035,-71.550964
1435016964.05,-69.650925
1435016964.066,-68.0739
1435016964.082,-66.66171
1435016964.097,-65.0695
1435016964.113,-63.034073
1435016964.129,-60.561905
1435016964.144,-57.82469
1435016964.16,-54.949707
1435016964.175,-51.95198
1435016964.191,-48.669678
1435016964.207,-44.878983
1435016964.222,-40.352554
1435016964.238,-34.91513
1435016964.254,-28.54013
1435016964.269,-21.442383
1435016964.285,-13.981689
1435016964.3,-6.5440674
1435016964.316,0.57896423
1435016964.332,7.282318
1435016964.347,13.675278
1435016964.363,20.088058
1435016964.379,26.965591
1435016964.394,34.767166
1435016964.41,43.62526
1435016964.425,53.521088
1435016964.441,64.24371
1435016964.457,75.22716
1435016964.472,85.36502
1435016964.488,93.01825
1435016964.504,96.41969
1435016964.519,94.197556
1435016964.535,85.851074
1435016964.55,71.46683
1435016964.566,52.25453
1435016964.582,30.38124
1435016964.597,8.429779
1435016964.613,-11.560638
1435016964.629,-28.449509
1435016964.644,-41.96443
1435016964.66,-52.286118
1435016964.675,-59.800385
1435016964.691,-65.88675
1435016964.707,-71.46219
1435016964.722,-76.43378
1435016964.738,-79.906296
1435016964.754,-81.16341
1435016964.769,-80.21329
1435016964.785,-77.51935
1435016964.8,-73.7103
1435016964.816,-69.41495
1435016964.832,-66.800674
1435016964.847,-67.32803
1435016964.863,-70.74391
1435016964.879,-75.20204
1435016964.894,-78.72513
1435016964.91,-80.23929
1435016964.925,-79.52649
1435016964.941,-77.00975
1435016964.957,-73.64827
1435016964.972,-72.897415
1435016964.988,-77.66254
1435016965.004,-88.73839
1435016965.019,-104.52046
1435016965.035,-122.45203
1435016965.05,-140.02142
1435016965.066,-154.68137
1435016965.082,-164.03824
1435016965.097,-153.54129
1435016965.113,-117.529945
1435016965.129,-64.331024
1435016965.144,-11.247032
1435016965.16,28.85701
1435016965.176,53.046967
1435016965.191,64.92523
1435016965.207,70.03758
1435016965.222,73.05693
1435016965.238,76.45449
1435016965.254,78.63132
1435016965.269,78.32599
1435016965.285,75.13864
1435016965.3,70.39923
1435016965.316,65.43574
1435016965.332,60.186752
1435016965.347,53.928814
1435016965.363,46.2343
1435016965.379,37.44955
1435016965.394,26.987492
1435016965.41,15.099651
1435016965.426,3.404152
1435016965.441,-7.2075806
1435016965.457,-15.223244
1435016965.472,-20.152214
1435016965.488,-21.778282
1435016965.504,-19.57595
1435016965.519,-12.861618
1435016965.535,-2.5767593
1435016965.551,9.593292
1435016965.566,21.750885
1435016965.582,32.33893
1435016965.597,40.54492
1435016965.613,45.77504
1435016965.629,48.256012
1435016965.644,48.921066
1435016965.66,48.596985
1435016965.676,46.75746
1435016965.691,42.49826
1435016965.707,35.355637
1435016965.722,26.129868
1435016965.738,17.277695
1435016965.754,11.456146
1435016965.769,11.213623
1435016965.785,18.250381
1435016965.801,32.59813
1435016965.816,51.772446
1435016965.832,72.16681
1435016965.847,90.01668
1435016965.863,102.52922
1435016965.879,109.366486
1435016965.894,111.7659
1435016965.91,112.79562
1435016965.926,116.62683
1435016965.941,126.51218
1435016965.957,142.43777
1435016965.972,161.20975
1435016965.988,176.9924
1435016966.004,182.91199
1435016966.019,173.73224
1435016966.035,146.01154
1435016966.051,99.54523
1435016966.066,37.928192
1435016966.082,-32.444305
1435016966.097,-104.13507
1435016966.113,-168.92447
1435016966.129,-219.64352
1435016966.144,-256.71097
1435016966.16,-277.72708
1435016966.176,-285.07553
1435016966.191,-286.14905
1435016966.207,-287.56497
1435016966.222,-288.70026
1435016966.238,-289.10513
1435016966.254,-287.63736
1435016966.269,-283.1151
1435016966.285,-274.0378
1435016966.301,-261.07858
1435016966.316,-244.02213
1435016966.332,-222.2807
1435016966.347,-195.01706
1435016966.363,-162.0867
1435016966.379,-124.94968
1435016966.394,-85.457794
1435016966.41,-45.514313
1435016966.426,-6.5624084
1435016966.441,31.066528
1435016966.457,67.60916
1435016966.472,103.74933
1435016966.488,140.72577
1435016966.504,179.6175
1435016966.519,220.0509
1435016966.535,260.455
1435016966.551,297.873
1435016966.566,328.55304
1435016966.582,349.40814
1435016966.597,358.90625
1435016966.613,357.05255
1435016966.629,345.15533
1435016966.644,324.86102
1435016966.66,297.09094
1435016966.676,262.53522
1435016966.691,222.15045
1435016966.707,177.87115
1435016966.722,133.18488
1435016966.738,93.12488
1435016966.754,61.64032
1435016966.769,40.38159
1435016966.785,28.516846
1435016966.801,23.67035
1435016966.816,23.358765
1435016966.832,25.978333
1435016966.847,31.109741
1435016966.863,39.10193
1435016966.879,51.890503
1435016966.894,69.24176
1435016966.91,88.47809
1435016966.926,106.21594
1435016966.941,120.47516
1435016966.957,131.57819
1435016966.972,141.38556
1435016966.988,151.83801
1435016967.004,163.401
1435016967.019,176.99518
1435016967.035,189.85138
1435016967.051,196.88806
1435016967.066,193.81198
1435016967.082,180.15677
1435016967.097,159.26709
1435016967.113,136.31308
1435016967.129,115.954865
1435016967.144,100.874725
1435016967.16,94.45206
1435016967.176,95.13022
1435016967.191,97.37479
1435016967.207,94.56467
1435016967.222,82.920654
1435016967.238,62.675385
1435016967.254,37.274445
1435016967.269,11.82959
1435016967.285,-30.519867
1435016967.301,-88.45154
1435016967.316,-145.34027
1435016967.332,-184.08731
1435016967.347,-202.06992
1435016967.363,-208.13861
1435016967.379,-214.38733
1435016967.394,-230.457
1435016967.41,-260.21658
1435016967.426,-299.9546
1435016967.441,-336.75418
1435016967.457,-359.1718
1435016967.472,-358.4945
1435016967.488,-332.1845
1435016967.504,-283.51672
1435016967.519,-220.47186
1435016967.535,-153.23691
1435016967.551,-90.8004
1435016967.566,-38.328903
1435016967.582,6.3182373
1435016967.597,39.288406
1435016967.613,58.277054
1435016967.629,62.693924
1435016967.644,55.07544
1435016967.66,40.493935
1435016967.676,24.76641
1435016967.691,12.648972
1435016967.707,6.8148804
1435016967.722,9.009827
1435016967.738,17.74826
1435016967.754,30.411484
1435016967.769,43.514526
1435016967.785,54.544197
1435016967.801,62.22239
1435016967.816,66.08775
1435016967.832,66.083885
1435016967.848,62.398506
1435016967.863,55.959663
1435016967.879,46.91163
1435016967.894,35.373688
1435016967.91,20.74636
1435016967.926,2.4379501
1435016967.941,-19.421783
1435016967.957,-43.628777
1435016967.972,-67.75183
1435016967.988,-88.66738
1435016968.004,-103.37778
1435016968.019,-110.62302
1435016968.035,-110.8907
1435016968.051,-106.61383
1435016968.066,-100.822784
1435016968.082,-95.851875
1435016968.098,-92.5991
1435016968.113,-90.612144
1435016968.129,-88.81333
1435016968.144,-86.346115
1435016968.16,-83.09433
1435016968.176,-79.30451
1435016968.191,-75.53663
1435016968.207,-72.203514
1435016968.223,-69.303635
1435016968.238,-66.44975
1435016968.254,-62.975235
1435016968.269,-58.365166
1435016968.285,-52.442352
1435016968.301,-45.47587
1435016968.316,-37.925552
1435016968.332,-30.35543
1435016968.348,-23.12703
1435016968.363,-16.302414
1435016968.379,-9.639549
1435016968.394,-2.7543259
1435016968.41,4.642151
1435016968.426,12.606941
1435016968.441,20.845001
1435016968.457,28.83522
1435016968.473,35.99984
1435016968.488,41.949577
1435016968.504,46.659027
1435016968.519,50.502533
1435016968.535,54.230156
1435016968.551,58.54911
1435016968.566,64.087204
1435016968.582,71.112076
1435016968.598,79.58397
1435016968.613,89.13244
1435016968.629,99.00058
1435016968.644,107.95916
1435016968.66,114.305954
1435016968.676,116.23456
1435016968.691,112.45056
1435016968.707,102.87596
1435016968.723,88.75452
1435016968.738,72.23277
1435016968.754,55.459854
1435016968.769,39.686096
1435016968.785,25.036194
1435016968.801,10.941132
1435016968.816,-3.0078888
1435016968.832,-16.444931
1435016968.848,-28.215927
1435016968.863,-37.062332
1435016968.879,-42.351044
1435016968.894,-44.47345
1435016968.91,-44.524536
1435016968.926,-43.748474
1435016968.941,-42.87941
1435016968.957,-42.02452
1435016968.973,-40.90869
1435016968.988,-39.32779
1435016969.004,-37.267654
1435016969.019,-34.85518
1435016969.035,-32.18004
1435016969.051,-29.420334
1435016969.066,-26.847916
1435016969.082,-25.043152
1435016969.098,-24.63295
1435016969.113,-25.940338
1435016969.129,-28.551895
1435016969.144,-31.295319
1435016969.16,-32.611618
1435016969.176,-31.264252
1435016969.191,-26.921768
1435016969.207,-20.166183
1435016969.223,-12.118652
1435016969.238,-3.8392944
1435016969.254,4.165451
1435016969.269,11.89209
1435016969.285,19.550095
1435016969.301,27.180847
1435016969.316,34.60942
1435016969.332,41.641953
1435016969.348,48.46547
1435016969.363,55.71617
1435016969.379,64.22209
1435016969.394,74.37454
1435016969.41,85.6427
1435016969.426,96.27118
1435016969.441,103.64548
1435016969.457,105.13599
1435016969.473,99.02774
1435016969.488,85.188446
1435016969.504,65.11998
1435016969.519,41.418915
1435016969.535,16.981308
1435016969.551,-5.883011
1435016969.566,-25.787514
1435016969.582,-42.230583
1435016969.598,-55.263336
1435016969.613,-65.10263
1435016969.629,-71.855255
1435016969.644,-75.61015
1435016969.66,-76.50567
1435016969.676,-74.92998
1435016969.691,-71.54644
1435016969.707,-67.27223
1435016969.723,-62.98938
1435016969.738,-59.361534
1435016969.754,-56.595352
1435016969.769,-54.473442
1435016969.785,-52.488007
1435016969.801,-50.19644
1435016969.816,-47.36557
1435016969.832,-44.082207
1435016969.848,-40.50956
1435016969.863,-36.756615
1435016969.879,-32.698723
1435016969.894,-28.050293
1435016969.91,-22.505508
1435016969.926,-15.992065
1435016969.941,-8.743141
1435016969.957,-1.2257309
1435016969.973,6.066452
1435016969.988,12.76564
1435016970.004,18.824211
1435016970.019,24.425346
1435016970.035,30.04171
1435016970.051,36.227592
1435016970.066,43.511322
1435016970.082,52.2173
1435016970.098,62.382538
1435016970.113,73.5139
1435016970.129,84.59655
1435016970.144,94.12089
1435016970.16,100.26368
1435016970.176,101.29147
1435016970.191,96.0461
1435016970.207,84.29785
1435016970.223,66.94083
1435016970.238,45.74791
1435016970.254,22.89711
1435016970.269,0.3959198
1435016970.285,-20.251953
1435016970.301,-38.16382
1435016970.316,-52.864
1435016970.332,-64.08954
1435016970.348,-71.686066
1435016970.363,-75.67836
1435016970.379,-76.42908
1435016970.394,-74.69058
1435016970.41,-71.44629
1435016970.426,-67.67873
1435016970.441,-64.12233
1435016970.457,-61.153824
1435016970.473,-58.78412
1435016970.488,-56.88127
1435016970.504,-55.260162
1435016970.519,-53.73729
1435016970.535,-52.122345
1435016970.551,-50.188553
1435016970.566,-47.65555
1435016970.582,-44.272644
1435016970.598,-39.824814
1435016970.613,-34.318344
1435016970.629,-27.961243
1435016970.644,-21.166595
1435016970.66,-14.404633
1435016970.676,-8.039551
1435016970.691,-2.1799316
1435016970.707,3.3001251
1435016970.723,8.704681
1435016970.738,14.275772
1435016970.754,20.11029
1435016970.77,26.08052
1435016970.785,31.976944
1435016970.801,37.58258
1435016970.816,42.811783
1435016970.832,47.708298
1435016970.848,52.476974
1435016970.863,57.478073
1435016970.879,63.167053
1435016970.895,69.947784
1435016970.91,77.89896
1435016970.926,86.519806
1435016970.941,94.54759
1435016970.957,100.10149
1435016970.973,101.269104
1435016970.988,96.68326
1435016971.004,86.05333
1435016971.02,70.276184
1435016971.035,51.1445
1435016971.051,30.742477
1435016971.066,10.91687
1435016971.082,-7.0286407
1435016971.098,-22.302933
1435016971.113,-34.49005
1435016971.129,-43.378525
1435016971.145,-48.914246
1435016971.16,-51.29579
1435016971.176,-51.07968
1435016971.191,-49.119644
1435016971.207,-46.430786
1435016971.223,-43.951782
1435016971.238,-42.306046
1435016971.254,-41.69449
1435016971.27,-41.95627
1435016971.285,-42.683945
1435016971.301,-43.41005
1435016971.316,-43.704773
1435016971.332,-43.29486
1435016971.348,-42.065186
1435016971.363,-40.064514
1435016971.379,-37.390823
1435016971.395,-34.189453
1435016971.41,-30.540497
1435016971.426,-26.44815
1435016971.441,-21.800339
1435016971.457,-16.50615
1435016971.473,-10.497025
1435016971.488,-3.847763
1435016971.504,3.2901611
1435016971.52,10.644638
1435016971.535,17.942978
1435016971.551,24.967789
1435016971.566,31.58171
1435016971.582,37.71817
1435016971.598,43.442856
1435016971.613,48.941254
1435016971.629,54.54138
1435016971.645,60.710663
1435016971.66,67.84119
1435016971.676,75.993744
1435016971.691,84.56929
1435016971.707,92.27127
1435016971.723,97.277985
1435016971.738,97.74899
1435016971.754,92.410904
1435016971.77,80.96748
1435016971.785,64.235916
1435016971.801,43.808212
1435016971.816,21.662033
1435016971.832,-0.34780884
1435016971.848,-20.721832
1435016971.863,-38.38954
1435016971.879,-52.666092
1435016971.895,-63.172134
1435016971.91,-69.8307
1435016971.926,-72.93585
1435016971.941,-73.113556
1435016971.957,-71.2603
1435016971.973,-68.26895
1435016971.988,-64.91835
1435016972.004,-61.729553
1435016972.02,-58.90007
1435016972.035,-56.44374
1435016972.051,-54.272003
1435016972.066,-52.28241
1435016972.082,-50.406036
1435016972.098,-48.517715
1435016972.113,-46.448822
1435016972.129,-43.989426
1435016972.145,-40.94992
1435016972.16,-37.27176
1435016972.176,-32.99695
1435016972.191,-28.297028
1435016972.207,-23.366089
1435016972.223,-18.380066
1435016972.238,-13.40097
1435016972.254,-8.41214
1435016972.27,-3.3261871
1435016972.285,2.0193634
1435016972.301,7.796295
1435016972.316,14.085815
1435016972.332,20.818405
1435016972.348,27.764267
1435016972.363,34.52585
1435016972.379,40.71379
1435016972.395,46.105957
1435016972.41,50.757904
1435016972.426,55.118484
1435016972.441,59.94026
1435016972.457,66.01871
1435016972.473,73.947296
1435016972.488,83.67233
1435016972.504,94.22911
1435016972.52,103.7298
1435016972.535,109.806366
1435016972.551,110.256546
1435016972.566,103.821
1435016972.582,90.5822
1435016972.598,71.889725
1435016972.613,49.89183
1435016972.629,26.834473
1435016972.645,4.579956
1435016972.66,-15.568878
1435016972.676,-32.83191
1435016972.691,-46.715347
1435016972.707,-56.991013
1435016972.723,-63.65355
1435016972.738,-67.00946
1435016972.754,-67.70105
1435016972.77,-66.58949
1435016972.785,-64.589584
1435016972.801,-62.479843
1435016972.816,-60.768616
1435016972.832,-59.65718
1435016972.848,-58.964874
1435016972.863,-58.340775
1435016972.879,-57.4028
1435016972.895,-55.95813
1435016972.91,-54.092712
1435016972.926,-52.08069
1435016972.941,-50.157394
1435016972.957,-48.323105
1435016972.973,-46.23506
1435016972.988,-43.40555
1435016973.004,-39.429657
1435016973.02,-34.235275
1435016973.035,-28.058365
1435016973.051,-21.2874
1435016973.066,-14.2881775
1435016973.082,-7.2539215
1435016973.098,-0.24562073
1435016973.113,6.6747437
1435016973.129,13.41127
1435016973.145,19.800766
1435016973.16,25.749405
1435016973.176,31.266464
1435016973.191,36.509354
1435016973.207,41.64952
1435016973.223,46.79982
1435016973.238,51.964798
1435016973.254,57.12735
1435016973.27,62.371155
1435016973.285,68.04001
1435016973.301,74.57872
1435016973.316,82.33458
1435016973.332,91.136246
1435016973.348,100.04372
1435016973.363,107.342026
1435016973.379,110.94527
1435016973.395,108.98645
1435016973.41,100.47098
1435016973.426,85.6414
1435016973.442,65.87265
1435016973.457,43.21814
1435016973.473,19.826065
1435016973.488,-2.5450134
1435016973.504,-22.649246
1435016973.52,-39.734406
1435016973.535,-53.310837
1435016973.551,-63.042038
1435016973.567,-68.829605
1435016973.582,-70.94391
1435016973.598,-70.05716
1435016973.613,-67.24185
1435016973.629,-63.648926
1435016973.645,-60.2502
1435016973.66,-57.573257
1435016973.676,-55.718323
1435016973.692,-54.478363
1435016973.707,-53.549103
1435016973.723,-52.737625
1435016973.738,-52.006424
1435016973.754,-51.370773
1435016973.77,-50.788467
1435016973.785,-49.992386
1435016973.801,-48.597412
1435016973.817,-46.198334
1435016973.832,-42.564392
1435016973.848,-37.736008
1435016973.863,-32.02124
1435016973.879,-25.849869
1435016973.895,-19.621826
1435016973.91,-13.573059
1435016973.926,-7.757431
1435016973.942,-2.055252
1435016973.957,3.7247162
1435016973.973,9.739822
1435016973.988,16.031326
1435016974.004,22.483353
1435016974.02,28.822815
1435016974.035,34.734253
1435016974.051,39.952545
1435016974.067,44.484848
1435016974.082,48.59204
1435016974.098,52.8257
1435016974.113,57.832367
1435016974.129,64.18828
1435016974.145,72.147385
1435016974.16,81.496506
1435016974.176,91.37921
1435016974.192,100.263565
1435016974.207,106.19652
1435016974.223,107.25455
1435016974.238,102.09752
1435016974.254,90.46274
1435016974.27,73.30455
1435016974.285,52.52539
1435016974.301,30.376663
1435016974.317,8.893005
1435016974.332,-10.490677
1435016974.348,-26.909866
1435016974.363,-39.942856
1435016974.379,-49.365204
1435016974.395,-55.18123
1435016974.41,-57.67009
1435016974.426,-57.514725
1435016974.442,-55.697037
1435016974.457,-53.325592
1435016974.473,-51.35457
1435016974.488,-50.360336
1435016974.504,-50.488953
1435016974.52,-51.48587
1435016974.535,-52.779434
1435016974.551,-53.70865
1435016974.567,-53.64344
1435016974.582,-52.269127
1435016974.598,-49.56314
1435016974.613,-45.907913
1435016974.629,-41.792366
1435016974.645,-37.663376
1435016974.66,-33.727585
1435016974.676,-29.884064
1435016974.692,-25.77272
1435016974.707,-20.91581
1435016974.723,-14.80101
1435016974.738,-7.1665497
1435016974.754,1.8529434
1435016974.77,11.619606
1435016974.785,21.118622
1435016974.801,29.302437
1435016974.817,35.5571
1435016974.832,39.955276
1435016974.848,43.321526
1435016974.863,46.86351
1435016974.879,51.723328
1435016974.895,58.513214
1435016974.91,67.187294
1435016974.926,77.00458
1435016974.942,86.73077
1435016974.957,94.7581
1435016974.973,99.3328
1435016974.988,98.763115
1435016975.004,91.91004
1435016975.02,78.49758
1435016975.035,59.417336
1435016975.051,36.590385
1435016975.067,12.555336
1435016975.082,-10.293251
1435016975.098,-30.070412
1435016975.113,-45.80754
1435016975.129,-57.3331
1435016975.145,-65.03128
1435016975.16,-69.521736
1435016975.176,-71.55758
1435016975.192,-71.857475
1435016975.207,-71.12778
1435016975.223,-70.04377
1435016975.238,-69.16097
1435016975.254,-68.761505
1435016975.27,-68.73582
1435016975.285,-68.55759
1435016975.301,-67.6062
1435016975.317,-65.48111
1435016975.332,-62.321815
1435016975.348,-58.700497
1435016975.363,-55.25318
1435016975.379,-52.26662
1435016975.395,-49.425102
1435016975.41,-46.035526
1435016975.426,-41.45055
1435016975.442,-35.52702
1435016975.457,-28.763851
1435016975.473,-21.99049
1435016975.488,-15.941383
1435016975.504,-10.762653
1435016975.52,-6.028492
1435016975.535,-1.0048561
1435016975.551,4.9019814
1435016975.567,11.890907
1435016975.582,19.703926
1435016975.598,27.842476
1435016975.613,35.840103
1435016975.629,43.39915
1435016975.645,50.38356
1435016975.66,56.97005
1435016975.676,63.48103
1435016975.692,70.44349
1435016975.707,78.41231
1435016975.723,87.70303
1435016975.738,98.153
1435016975.754,108.86394
1435016975.77,118.16106
1435016975.785,123.90878
1435016975.801,124.02156
1435016975.817,117.13739
1435016975.832,103.077805
1435016975.848,83.0066
1435016975.863,59.093407
1435016975.879,33.872997
1435016975.895,9.580055
1435016975.91,-12.29705
1435016975.926,-31.022152
1435016975.942,-46.352676
1435016975.957,-58.292984
1435016975.973,-66.8598
1435016975.988,-72.19893
1435016976.004,-74.72229
1435016976.02,-75.170685
1435016976.035,-74.483864
1435016976.051,-73.56696
1435016976.067,-72.989624
1435016976.082,-72.89357
1435016976.098,-73.052185
1435016976.114,-73.11632
1435016976.129,-72.75343
1435016976.145,-71.83879
1435016976.16,-70.4131
1435016976.176,-68.61973
1435016976.192,-66.562325
1435016976.207,-64.25981
1435016976.223,-61.54049
1435016976.238,-58.161556
1435016976.254,-53.85894
1435016976.27,-48.57612
1435016976.285,-42.475838
1435016976.301,-35.945705
1435016976.317,-29.429852
1435016976.332,-23.281183
1435016976.348,-17.62648
1435016976.364,-12.319244
1435016976.379,-7.0286465
1435016976.395,-1.3204327
1435016976.41,5.183449
1435016976.426,12.70027
1435016976.442,21.141956
1435016976.457,30.109564
1435016976.473,39.056038
1435016976.489,47.442787
1435016976.504,54.993603
1435016976.52,61.772446
1435016976.535,68.13602
1435016976.551,74.63297
1435016976.567,81.868286
1435016976.582,90.30094
1435016976.598,100.16167
1435016976.614,111.09732
1435016976.629,122.03316
1435016976.645,131.01811
1435016976.66,135.66908
1435016976.676,133.68608
1435016976.692,123.759995
1435016976.707,106.0697
1435016976.723,82.27067
1435016976.739,55.046234
1435016976.754,27.336836
1435016976.77,1.6799698
1435016976.785,-20.082928
1435016976.801,-36.921944
1435016976.817,-48.556633
1435016976.832,-55.432335
1435016976.848,-58.539257
1435016976.864,-59.205257
1435016976.879,-58.73743
1435016976.895,-58.05416
1435016976.91,-57.530087
1435016976.926,-57.097954
1435016976.942,-56.48206
1435016976.957,-55.41125
1435016976.973,-53.762077
1435016976.989,-51.646885
1435016977.004,-49.36253
1435016977.02,-47.29164
1435016977.035,-45.780445
1435016977.051,-44.855785
1435016977.067,-44.10766
1435016977.082,-42.73369
1435016977.098,-39.8649
1435016977.114,-34.994713
1435016977.129,-28.27702
1435016977.145,-20.574524
1435016977.16,-12.914629
1435016977.176,-6.1002617
1435016977.192,-0.29048347
1435016977.207,4.8694496
1435016977.223,9.9515
1435016977.239,15.294849
1435016977.254,20.8637
1435016977.27,26.30016
1435016977.285,31.176403
1435016977.301,35.2194
1435016977.317,38.357567
1435016977.332,40.671635
1435016977.348,42.459072
1435016977.364,44.139133
1435016977.379,46.298588
1435016977.395,49.597942
1435016977.41,54.55734
1435016977.426,61.259094
1435016977.442,69.039
1435016977.457,76.406715
1435016977.473,81.31991
1435016977.489,81.69089
1435016977.504,76.02384
1435016977.52,63.91201
1435016977.535,46.189392
1435016977.551,24.657616
1435016977.567,1.6068268
1435016977.582,-20.80317
1435016977.598,-40.982216
1435016977.614,-57.999947
1435016977.629,-71.46363
1435016977.645,-81.27051
1435016977.66,-87.418915
1435016977.676,-90.01629
1435016977.692,-89.41779
1435016977.707,-86.29875
1435016977.723,-81.64876
1435016977.739,-76.60742
1435016977.754,-72.20865
1435016977.77,-69.088646
1435016977.785,-67.31994
1435016977.801,-66.463646
1435016977.817,-65.75944
1435016977.832,-64.48056
1435016977.848,-62.170097
1435016977.864,-58.792503
1435016977.879,-54.64103
1435016977.895,-50.117325
1435016977.91,-45.49005
1435016977.926,-40.735687
1435016977.942,-35.576775
1435016977.957,-29.647476
1435016977.973,-22.624146
1435016977.989,-14.493546
1435016978.004,-5.444206
1435016978.02,4.109749
1435016978.035,13.702339
1435016978.051,22.94574
1435016978.067,31.671257
1435016978.082,39.98919
1435016978.098,48.35869
1435016978.114,57.44996
1435016978.129,67.94564
1435016978.145,80.19804
1435016978.16,94.10781
1435016978.176,108.93896
1435016978.192,123.34829
1435016978.207,135.52287
1435016978.223,143.38231
1435016978.239,144.95517
1435016978.254,138.81769
1435016978.27,124.557655
1435016978.285,103.0531
1435016978.301,76.35819
1435016978.317,47.25087
1435016978.332,18.46772
1435016978.348,-7.842766
1435016978.364,-30.474075
1435016978.379,-49.03695
1435016978.395,-63.63443
1435016978.41,-74.58871
1435016978.426,-82.2264
1435016978.442,-86.95825
1435016978.457,-89.30679
1435016978.473,-89.80264
1435016978.489,-89.01397
1435016978.504,-87.35976
1435016978.52,-85.14528
1435016978.535,-82.585304
1435016978.551,-79.90242
1435016978.567,-77.3389
1435016978.582,-75.12459
1435016978.598,-73.36678
1435016978.614,-71.97043
1435016978.629,-70.58683
1435016978.645,-68.7155
1435016978.66,-65.7436
1435016978.676,-61.18786
1435016978.692,-54.840683
1435016978.707,-46.923645
1435016978.723,-38.041664
1435016978.739,-29.030296
1435016978.754,-20.602005
1435016978.77,-13.060493
1435016978.786,-6.1739197
1435016978.801,0.7245865
1435016978.817,8.402252
1435016978.832,17.324745
1435016978.848,27.462364
1435016978.864,38.277046
1435016978.879,48.960617
1435016978.895,58.754166
1435016978.91,67.258965
1435016978.926,74.58395
1435016978.942,81.34807
1435016978.957,88.51692
1435016978.973,97.14173
1435016978.989,107.91012
1435016979.004,120.74307
1435016979.02,134.43546
1435016979.036,146.68613
1435016979.051,154.5049
1435016979.067,155.02405
1435016979.082,146.33987
1435016979.098,128.21527
1435016979.114,102.17092
1435016979.129,71.03908
1435016979.145,38.18724
1435016979.161,6.57283
1435016979.176,-21.751976
1435016979.192,-45.757263
1435016979.207,-65.16907
1435016979.223,-80.02543
1435016979.239,-90.4942
1435016979.254,-96.832664
1435016979.27,-99.58021
1435016979.286,-99.6523
1435016979.301,-98.23529
1435016979.317,-96.48906
1435016979.332,-95.16676
1435016979.348,-94.42409
1435016979.364,-93.86093
1435016979.379,-92.85759
1435016979.395,-90.92587
1435016979.411,-87.94835
1435016979.426,-84.195465
1435016979.442,-80.16899
1435016979.457,-76.31528
1435016979.473,-72.81218
1435016979.489,-69.52887
1435016979.504,-65.977066
1435016979.52,-61.524544
1435016979.536,-55.592392
1435016979.551,-47.896935
1435016979.567,-38.59938
1435016979.582,-28.348541
1435016979.598,-18.072891
1435016979.614,-8.720612
1435016979.629,-0.89585114
1435016979.645,5.3934402
1435016979.661,10.73806
1435016979.676,16.109795
1435016979.692,22.467949
1435016979.707,30.32441
1435016979.723,39.546844
1435016979.739,49.426094
1435016979.754,59.00286
1435016979.77,67.47419
1435016979.786,74.61894
1435016979.801,80.83427
1435016979.817,87.018295
1435016979.832,94.202324
1435016979.848,103.20678
1435016979.864,114.22485
1435016979.879,126.63958
1435016979.895,138.88757
1435016979.911,148.61409
1435016979.926,153.15312
1435016979.942,150.1666
1435016979.957,138.39885
1435016979.973,118.18382
1435016979.989,91.32771
1435016980.004,60.60148
1435016980.02,28.935738
1435016980.036,-1.1876755
1435016980.051,-28.101967
1435016980.067,-50.848633
1435016980.082,-69.023964
1435016980.098,-82.59271
1435016980.114,-91.866394
1435016980.129,-97.44432
1435016980.145,-100.16848
1435016980.161,-100.86136
1435016980.176,-100.22341
1435016980.192,-98.71288
1435016980.207,-96.67114
1435016980.223,-94.40122
1435016980.239,-92.20216
1435016980.254,-90.2664
1435016980.27,-88.554054
1435016980.286,-86.800186
1435016980.301,-84.65827
1435016980.317,-81.87883
1435016980.332,-78.463425
1435016980.348,-74.50777
1435016980.364,-70.09929
1435016980.379,-65.03606
1435016980.395,-58.95362
1435016980.411,-51.536842
1435016980.426,-42.758644
1435016980.442,-33.106842
1435016980.457,-23.39721
1435016980.473,-14.475815
1435016980.489,-6.832634
1435016980.504,-0.37280273
1435016980.52,5.517891
1435016980.536,11.737007
1435016980.551,18.989197
1435016980.567,27.503334
1435016980.582,36.912445
1435016980.598,46.4329
1435016980.614,55.189346
1435016980.629,62.620964
1435016980.645,68.71868
1435016980.661,74.013885
1435016980.676,79.3883
1435016980.692,85.78887
1435016980.707,93.930595
1435016980.723,104.095604
1435016980.739,115.87087
1435016980.754,127.97244
1435016980.77,138.18324
1435016980.786,143.71747
1435016980.801,141.80917
1435016980.817,130.66542
1435016980.832,110.194275
1435016980.848,82.118546
1435016980.864,49.558258
1435016980.879,16.107376
1435016980.895,-15.065163
1435016980.911,-41.68445
1435016980.926,-62.535088
1435016980.942,-77.30618
1435016980.957,-86.4265
1435016980.973,-90.814476
1435016980.989,-91.87281
1435016981.004,-91.1385
1435016981.02,-89.967255
1435016981.036,-89.21483
1435016981.051,-89.07223
1435016981.067,-89.22442
1435016981.082,-89.08828
1435016981.098,-88.08074
1435016981.114,-85.87278
1435016981.129,-82.50234
1435016981.145,-78.35584
1435016981.161,-74.0782
1435016981.176,-70.34444
1435016981.192,-67.5126
1435016981.207,-65.45421
1435016981.223,-63.46602
1435016981.239,-60.61447
1435016981.254,-56.139236
1435016981.27,-49.88201
1435016981.286,-42.202965
1435016981.301,-33.908707
1435016981.317,-25.793465
1435016981.332,-18.250366
1435016981.348,-11.281616
1435016981.364,-4.4499702
1435016981.379,2.847805
1435016981.395,11.131195
1435016981.411,20.61914
1435016981.426,31.230503
1435016981.442,42.483837
1435016981.457,53.62187
1435016981.473,64.00505
1435016981.489,73.22394
1435016981.504,81.353134
1435016981.52,88.99656
1435016981.536,97.13168
1435016981.551,106.787025
1435016981.567,118.66582
1435016981.582,132.67496
1435016981.598,147.6374
1435016981.614,161.30673
1435016981.629,170.67464
1435016981.645,172.72456
1435016981.661,165.34279
1435016981.676,147.9274
1435016981.692,121.662704
1435016981.708,89.19213
1435016981.723,53.85097
1435016981.739,18.871895
1435016981.754,-13.208321
1435016981.77,-40.864258
1435016981.786,-63.397438
1435016981.801,-80.694725
1435016981.817,-92.9216
1435016981.833,-100.42678
1435016981.848,-103.74344
1435016981.864,-103.66731
1435016981.879,-101.219955
1435016981.895,-97.54031
1435016981.911,-93.67518
1435016981.926,-90.36061
1435016981.942,-87.87227
1435016981.958,-86.13173
1435016981.973,-84.92113
1435016981.989,-84.01946
1435016982.004,-83.355385
1435016982.02,-82.86836
1435016982.036,-82.34454
1435016982.051,-81.36775
1435016982.067,-79.44388
1435016982.083,-76.20983
1435016982.098,-71.56891
1435016982.114,-65.66201
1435016982.129,-58.69689
1435016982.145,-50.888367
1435016982.161,-42.427177
1435016982.176,-33.55638
1435016982.192,-24.74282
1435016982.208,-16.580215
1435016982.223,-9.587937
1435016982.239,-4.010131
1435016982.254,0.4271698
1435016982.27,4.4547453
1435016982.286,9.083394
1435016982.301,15.257087
1435016982.317,23.597225
1435016982.333,34.13771
1435016982.348,46.317986
1435016982.364,59.090458
1435016982.379,71.20151
1435016982.395,81.61514
1435016982.411,89.91696
1435016982.426,96.40405
1435016982.442,102.11294
1435016982.458,108.40546
1435016982.473,116.54209
1435016982.489,127.198875
1435016982.504,140.00597
1435016982.52,153.29257
1435016982.536,164.25018
1435016982.551,169.43443
1435016982.567,165.78653
1435016982.583,151.6651
1435016982.598,127.57088
1435016982.614,96.08098
1435016982.629,61.057922
1435016982.645,26.427824
1435016982.661,-4.9660187
1435016982.676,-31.726498
1435016982.692,-53.70874
1435016982.708,-71.35453
1435016982.723,-85.091705
1435016982.739,-95.127014
1435016982.754,-101.57214
1435016982.77,-104.7614
1435016982.786,-105.30095
1435016982.801,-104.04271
1435016982.817,-101.78994
1435016982.833,-99.13292
1435016982.848,-96.350845
1435016982.864,-93.5198
1435016982.879,-90.641205
1435016982.895,-87.74849
1435016982.911,-84.96268
1435016982.926,-82.43404
1435016982.942,-80.272
1435016982.958,-78.44118
1435016982.973,-76.65761
1435016982.989,-74.53565
1435016983.004,-71.66002
1435016983.02,-67.80322
1435016983.036,-62.932022
1435016983.051,-57.16753
1435016983.067,-50.655613
1435016983.083,-43.526634
1435016983.098,-35.865883
1435016983.114,-27.820137
1435016983.129,-19.650494
1435016983.145,-11.676743
1435016983.161,-4.150276
1435016983.176,2.923214
1435016983.192,9.761967
1435016983.208,16.762405
1435016983.223,24.219967
1435016983.239,32.2471
1435016983.254,40.71392
1435016983.27,49.322243
1435016983.286,57.80932
1435016983.301,65.96286
1435016983.317,73.67008
1435016983.333,80.84898
1435016983.348,87.56706
1435016983.364,94.05509
1435016983.379,100.81249
1435016983.395,108.4875
1435016983.411,117.540085
1435016983.426,127.911446
1435016983.442,138.64261
1435016983.458,147.83441
1435016983.473,152.96542
1435016983.489,151.5638
1435016983.504,141.99341
1435016983.52,123.99421
1435016983.536,98.88183
1435016983.551,69.14582
1435016983.567,37.876717
1435016983.583,7.951393
1435016983.598,-18.48455
1435016983.614,-40.287064
1435016983.629,-57.142525
1435016983.645,-69.32382
1435016983.661,-77.32755
1435016983.676,-81.72458
1435016983.692,-83.12994
1435016983.708,-82.31271
1435016983.723,-80.238266
1435016983.739,-77.9663
1435016983.754,-76.363365
1435016983.77,-75.87963
1435016983.786,-76.36354
1435016983.801,-77.21933
1435016983.817,-77.650406
1435016983.833,-77.0381
1435016983.848,-75.19614
1435016983.864,-72.37033
1435016983.879,-68.96454
1435016983.895,-65.28823
1435016983.911,-61.315918
1435016983.926,-56.71839
1435016983.942,-51.073265
1435016983.958,-44.187256
1435016983.973,-36.254135
1435016983.989,-27.884232
1435016984.004,-19.788612
1435016984.02,-12.617302
1435016984.036,-6.5657196
1435016984.051,-1.437973
1435016984.067,3.307129
1435016984.083,8.285591
1435016984.098,13.974495
1435016984.114,20.565163
1435016984.129,27.96743
1435016984.145,35.825935
1435016984.161,43.72885
1435016984.176,51.27652
1435016984.192,58.19793
1435016984.208,64.46604
1435016984.223,70.27116
1435016984.239,76.074104
1435016984.254,82.58689
1435016984.27,90.58964
1435016984.286,100.67891
1435016984.301,112.777954
1435016984.317,125.73575
1435016984.333,137.16351
1435016984.348,143.92314
1435016984.364,142.91222
1435016984.38,132.20566
1435016984.395,111.747604
1435016984.411,83.42404
1435016984.426,50.51673
1435016984.442,16.681526
1435016984.458,-14.9084015
1435016984.473,-42.083023
1435016984.489,-63.79167
1435016984.505,-79.8719
1435016984.52,-90.80857
1435016984.536,-97.38478
1435016984.551,-100.553375
1435016984.567,-101.25344
1435016984.583,-100.27292
1435016984.598,-98.25432
1435016984.614,-95.68329
1435016984.63,-92.89369
1435016984.645,-90.11099
1435016984.661,-87.32849
1435016984.676,-84.40954
1435016984.692,-81.16495
1435016984.708,-77.511566
1435016984.723,-73.57292
1435016984.739,-69.69789
1435016984.755,-66.254036
1435016984.77,-63.416397
1435016984.786,-61.039337
1435016984.801,-58.653458
1435016984.817,-55.630814
1435016984.833,-51.405746
1435016984.848,-45.58805
1435016984.864,-38.123413
1435016984.88,-29.290497
1435016984.895,-19.67125
1435016984.911,-10.000214
1435016984.926,-0.9650955
1435016984.942,7.06057
1435016984.958,14.091942
1435016984.973,20.55011
1435016984.989,27.021149
1435016985.005,33.97264
1435016985.02,41.60926
1435016985.036,49.984024
1435016985.051,59.002083
1435016985.067,68.563705
1435016985.083,78.483215
1435016985.098,88.469696
1435016985.114,98.12361
1435016985.13,107.23401
1435016985.145,116.00323
1435016985.161,125.11265
1435016985.176,135.40668
1435016985.192,147.30038
1435016985.208,160.11212
1435016985.223,171.93166
1435016985.239,179.93669
1435016985.255,181.32648
1435016985.27,174.30899
1435016985.286,158.70694
1435016985.301,136.01567
1435016985.317,108.86674
1435016985.333,80.20978
1435016985.348,52.586998
1435016985.364,27.701073
1435016985.38,6.4114532
1435016985.395,-11.0705185
1435016985.411,-24.759506
1435016985.426,-34.78785
1435016985.442,-41.35167
1435016985.458,-44.926743
1435016985.473,-46.371468
1435016985.489,-46.892616
1435016985.505,-47.78386
1435016985.52,-50.038303
1435016985.536,-54.053448
1435016985.551,-59.661827
1435016985.567,-66.40052
1435016985.583,-73.86363
1435016985.598,-81.923775
1435016985.614,-90.6855
1435016985.63,-100.20827
1435016985.645,-110.1978
1435016985.661,-119.8952
1435016985.676,-128.29599
1435016985.692,-134.4052
1435016985.708,-137.54036
1435016985.723,-137.45091
1435016985.739,-134.27644
1435016985.755,-128.40704
1435016985.77,-120.3607
1435016985.786,-110.6826
1435016985.801,-99.89688
1435016985.817,-88.40604
1435016985.833,-76.4189
1435016985.848,-63.93057
1435016985.864,-50.8339
1435016985.88,-37.03811
1435016985.895,-22.65185
1435016985.911,-8.011942
1435016985.926,6.3771906
1435016985.942,20.025795
1435016985.958,32.60807
1435016985.973,44.0914
1435016985.989,54.753883
1435016986.005,65.1352
1435016986.02,75.91295
1435016986.036,87.779884
1435016986.051,101.07706
1435016986.067,115.45015
1435016986.083,129.60327
1435016986.098,141.31035
1435016986.114,147.86852
1435016986.13,146.89752
1435016986.145,137.11708
1435016986.161,118.91968
1435016986.176,94.203156
1435016986.192,65.81894
1435016986.208,36.677906
1435016986.223,9.106808
1435016986.239,-15.446367
1435016986.255,-36.254517
1435016986.27,-52.972115
1435016986.286,-65.40752
1435016986.301,-73.47996
1435016986.317,-77.383095
1435016986.333,-77.70959
1435016986.348,-75.392044
1435016986.364,-71.5387
1435016986.38,-67.182724
1435016986.395,-63.094193
1435016986.411,-59.668983
1435016986.426,-57.06304
1435016986.442,-55.225777
1435016986.458,-54.032906
1435016986.473,-53.26464
1435016986.489,-52.62571
1435016986.505,-51.69033
1435016986.52,-49.993267
1435016986.536,-47.0679
1435016986.551,-42.619
1435016986.567,-36.697983
1435016986.583,-29.688744
1435016986.598,-22.1877
1435016986.614,-14.778725
1435016986.63,-7.763691
1435016986.645,-1.0494137
1435016986.661,5.737564
1435016986.676,12.9775505
1435016986.692,20.82861
1435016986.708,29.056223
1435016986.723,37.256012
1435016986.739,44.997627
1435016986.755,52.08616
1435016986.77,58.652122
1435016986.786,65.12361
1435016986.801,72.095825
1435016986.817,80.230835
1435016986.833,90.006454
1435016986.848,101.415405
1435016986.864,113.67363
1435016986.88,125.037285
1435016986.895,132.95502
1435016986.911,134.75452
1435016986.926,128.36792
1435016986.942,113.11043
1435016986.958,89.92121
1435016986.973,61.159275
1435016986.989,29.804836
1435016987.005,-1.2135077
1435016987.02,-29.640987
1435016987.036,-54.03304
1435016987.052,-73.631744
1435016987.067,-88.13602
1435016987.083,-97.56377
1435016987.098,-102.17302
1435016987.114,-102.62673
1435016987.13,-99.941864
1435016987.145,-95.42773
1435016987.161,-90.419586
1435016987.177,-85.98456
1435016987.192,-82.68424
1435016987.208,-80.54463
1435016987.223,-79.22504
1435016987.239,-78.22592
1435016987.255,-77.09797
1435016987.27,-75.55052
1435016987.286,-73.31504
1435016987.302,-70.13155
1435016987.317,-65.72446
1435016987.333,-59.897236
1435016987.348,-52.660507
1435016987.364,-44.31082
1435016987.38,-35.360542
1435016987.395,-26.349268
1435016987.411,-17.652388
1435016987.427,-9.352627
1435016987.442,-1.246027
1435016987.458,6.9942665
1435016987.473,15.744411
1435016987.489,25.187914
1435016987.505,35.246502
1435016987.52,45.52816
1435016987.536,55.45153
1435016987.552,64.435196
1435016987.567,72.20489
1435016987.583,78.99034
1435016987.598,85.56682
1435016987.614,93.01364
1435016987.63,102.394035
1435016987.645,114.17543
1435016987.661,127.86125
1435016987.677,141.76608
1435016987.692,153.21661
1435016987.708,159.10223
1435016987.723,156.72165
1435016987.739,144.59053
1435016987.755,122.99066
1435016987.77,93.94761
1435016987.786,60.685215
1435016987.802,26.756004
1435016987.817,-4.8438272
1435016987.833,-32.18377
1435016987.848,-54.41555
1435016987.864,-71.4825
1435016987.88,-83.67732
1435016987.895,-91.425
1435016987.911,-95.23459
1435016987.927,-95.81518
1435016987.942,-94.09828
1435016987.958,-91.183266
1435016987.973,-88.078766
1435016987.989,-85.42844
1435016988.005,-83.33743
1435016988.02,-81.483955
1435016988.036,-79.320435
1435016988.052,-76.43259
1435016988.067,-72.755264
1435016988.083,-68.568474
1435016988.098,-64.30842
1435016988.114,-60.30405
1435016988.13,-56.480927
1435016988.145,-52.41353
1435016988.161,-47.466473
1435016988.177,-41.15627
1435016988.192,-33.30896
1435016988.208,-24.211704
1435016988.223,-14.386803
1435016988.239,-4.418401
1435016988.255,5.323514
1435016988.27,14.763933
1435016988.286,24.147715
1435016988.302,33.88518
1435016988.317,44.397804
1435016988.333,55.867683
1435016988.348,68.10633
1435016988.364,80.52273
1435016988.38,92.19912
1435016988.395,102.167465
1435016988.411,109.7285
1435016988.427,114.652374
1435016988.442,117.29656
1435016988.458,118.45424
1435016988.473,119.035416
1435016988.489,119.65487
1435016988.505,120.26158
1435016988.52,119.97389
1435016988.536,117.06391
1435016988.552,109.407715
1435016988.567,95.06213
1435016988.583,72.97539
1435016988.598,43.529583
1435016988.614,8.616003
1435016988.63,-28.770786
1435016988.645,-65.28627
1435016988.661,-97.97286
1435016988.677,-124.90848
1435016988.692,-145.23605
1435016988.708,-158.97455
1435016988.723,-166.65182
1435016988.739,-169.02686
1435016988.755,-166.93568
1435016988.77,-161.23857
1435016988.786,-152.79646
1435016988.802,-142.52356
1435016988.817,-131.36691
1435016988.833,-120.297325
1435016988.848,-110.14235
1435016988.864,-101.530495
1435016988.88,-94.59756
1435016988.895,-89.024994
1435016988.911,-84.12344
1435016988.927,-79.133934
1435016988.942,-73.449615
1435016988.958,-66.7317
1435016988.973,-58.79976
1435016988.989,-49.579857
1435016989.005,-39.122833
1435016989.02,-27.655712
1435016989.036,-15.67256
1435016989.052,-3.8566732
1435016989.067,7.229115
1435016989.083,17.368296
1435016989.098,26.766476
1435016989.114,35.922688
1435016989.13,45.27329
1435016989.145,54.872925
1435016989.161,64.53527
1435016989.177,73.86077
1435016989.192,82.538826
1435016989.208,90.39461
1435016989.223,97.37355
1435016989.239,103.493645
1435016989.255,108.917694
1435016989.27,114.0738
1435016989.286,119.67233
1435016989.302,126.56548
1435016989.317,135.1505
1435016989.333,144.89836
1435016989.348,154.19276
1435016989.364,160.38167
1435016989.38,160.54123
1435016989.395,152.40552
1435016989.411,135.21101
1435016989.427,110.02074
1435016989.442,79.52092
1435016989.458,47.06196
1435016989.473,15.75008
1435016989.489,-12.288929
1435016989.505,-36.05204
1435016989.52,-55.327103
1435016989.536,-70.1196
1435016989.552,-80.44355
1435016989.567,-86.31767
1435016989.583,-88.081116
1435016989.598,-86.63847
1435016989.614,-83.373215
1435016989.63,-79.79123
1435016989.645,-77.002975
1435016989.661,-75.42865
1435016989.677,-74.833694
1435016989.692,-74.64172
1435016989.708,-74.28494
1435016989.724,-73.38449
1435016989.739,-71.80478
1435016989.755,-69.49025
1435016989.77,-66.36235
1435016989.786,-62.346302
1435016989.802,-57.34718
1435016989.817,-51.39816
1435016989.833,-44.687508
1435016989.848,-37.4417
1435016989.864,-29.908815
1435016989.88,-22.190882
1435016989.895,-14.248518
1435016989.911,-5.926752
1435016989.927,2.8448048
1435016989.942,11.995724
1435016989.958,21.267426
1435016989.974,30.296236
1435016989.989,38.766693
1435016990.005,46.59397
1435016990.02,53.978462
1435016990.036,61.376736
1435016990.052,69.5128
1435016990.067,79.101395
1435016990.083,90.626175
1435016990.099,103.97818
1435016990.114,118.074554
1435016990.13,130.78682
1435016990.145,139.25697
1435016990.161,140.68927
1435016990.177,133.22375
1435016990.192,116.61411
1435016990.208,92.2884
1435016990.224,62.868885
1435016990.239,31.341179
1435016990.255,0.32824898
1435016990.27,-28.259756
1435016990.286,-53.245995
1435016990.302,-73.88358
1435016990.317,-89.68675
1435016990.333,-100.48696
1435016990.349,-106.428986
1435016990.364,-108.23559
1435016990.38,-107.02761
1435016990.395,-104.124596
1435016990.411,-100.73709
1435016990.427,-97.69938
1435016990.442,-95.25488
1435016990.458,-93.127655
1435016990.474,-90.63796
1435016990.489,-87.16383
1435016990.505,-82.45033
1435016990.52,-76.83656
1435016990.536,-71.139496
1435016990.552,-66.23558
1435016990.567,-62.522736
1435016990.583,-59.69999
1435016990.599,-56.832394
1435016990.614,-52.89578
1435016990.63,-47.19572
1435016990.645,-39.7105
1435016990.661,-30.944344
1435016990.677,-21.614216
1435016990.692,-12.309265
1435016990.708,-3.3344307
1435016990.724,5.3232193
1435016990.739,13.789383
1435016990.755,22.255768
1435016990.77,30.900234
1435016990.786,39.824047
1435016990.802,48.993465
1435016990.817,58.20856
1435016990.833,67.07323
1435016990.849,75.41582
1435016990.864,83.36235
1435016990.88,91.473595
1435016990.895,100.620964
1435016990.911,111.619354
1435016990.927,124.74188
1435016990.942,139.44565
1435016990.958,154.25969
1435016990.974,166.94827
1435016990.989,174.89561
1435016991.005,175.66336
1435016991.02,167.52628
1435016991.036,150.12666
1435016991.052,124.63796
1435016991.067,93.606125
1435016991.083,60.266163
1435016991.099,27.797863
1435016991.114,-1.5452843
1435016991.13,-26.60849
1435016991.145,-47.2585
1435016991.161,-63.89215
1435016991.177,-76.92484
1435016991.192,-86.59114
1435016991.208,-93.026855
1435016991.224,-96.39425
1435016991.239,-97.171814
1435016991.255,-96.126175
1435016991.27,-94.23859
1435016991.286,-92.25598
1435016991.302,-90.617584
1435016991.317,-89.22957
1435016991.333,-87.74126
1435016991.349,-85.81302
1435016991.364,-83.41432
1435016991.38,-80.80513
1435016991.395,-78.34083
1435016991.411,-76.040344
1435016991.427,-73.51337
1435016991.442,-70.095795
1435016991.458,-65.226234
1435016991.474,-58.870914
1435016991.489,-51.55744
1435016991.505,-44.130028
1435016991.52,-37.305325
1435016991.536,-31.291866
1435016991.552,-25.765759
1435016991.567,-20.07711
1435016991.583,-13.673431
1435016991.599,-6.2160225
1435016991.614,2.2824364
1435016991.63,11.657619
1435016991.645,21.651047
1435016991.661,31.94453
1435016991.677,42.115
1435016991.692,51.644493
1435016991.708,60.07926
1435016991.724,67.27875
1435016991.739,73.635185
1435016991.755,80.10115
1435016991.77,87.87408
1435016991.786,98.07023
1435016991.802,110.97307
1435016991.817,125.631424
1435016991.833,139.75046
1435016991.849,150.12122
1435016991.864,153.47678
1435016991.88,147.52458
1435016991.895,131.64546
1435016991.911,107.12859
1435016991.927,76.72282
1435016991.942,43.82099
1435016991.958,11.610519
1435016991.974,-17.535763
1435016991.989,-42.23579
1435016992.005,-61.91424
1435016992.02,-76.50812
1435016992.036,-86.245514
1435016992.052,-91.55324
1435016992.067,-93.08851
1435016992.083,-91.823
1435016992.099,-88.95079
1435016992.114,-85.66716
1435016992.13,-82.87803
1435016992.145,-80.980606
1435016992.161,-79.83638
1435016992.177,-78.96894
1435016992.192,-77.86
1435016992.208,-76.260056
1435016992.224,-74.227036
1435016992.239,-72.00059
1435016992.255,-69.75731
1435016992.27,-67.41014
1435016992.286,-64.53913
1435016992.302,-60.59987
1435016992.317,-55.149128
1435016992.333,-48.119244
1435016992.349,-39.922615
1435016992.364,-31.300926
1435016992.38,-23.07307
1435016992.395,-15.737484
1435016992.411,-9.26857
1435016992.427,-3.1306038
1435016992.442,3.4725113
1435016992.458,11.204037
1435016992.474,20.26004
1435016992.489,30.232983
1435016992.505,40.320522
1435016992.52,49.591614
1435016992.536,57.470734
1435016992.552,63.906467
1435016992.567,69.48307
1435016992.583,75.23503
1435016992.599,82.380646
1435016992.614,91.931076
1435016992.63,104.21785
1435016992.646,118.57797
1435016992.661,133.09996
1435016992.677,144.88345
1435016992.692,150.67728
1435016992.708,147.74838
1435016992.724,134.80222
1435016992.739,112.44954
1435016992.755,83.095
1435016992.771,50.18917
1435016992.786,17.334011
1435016992.802,-12.686909
1435016992.817,-38.234276
1435016992.833,-58.828747
1435016992.849,-74.67029
1435016992.864,-86.20443
1435016992.88,-93.78851
1435016992.896,-97.76332
1435016992.911,-98.57402
1435016992.927,-96.96878
1435016992.942,-94.01492
1435016992.958,-90.88768
1435016992.974,-88.49822
1435016992.989,-87.2565
1435016993.005,-86.96542
1435016993.021,-87.04891
1435016993.036,-86.790565
1435016993.052,-85.66812
1435016993.067,-83.43618
1435016993.083,-80.13114
1435016993.099,-75.91336
1435016993.114,-70.98457
1435016993.13,-65.476746
1435016993.146,-59.520973
1435016993.161,-53.13842
1435016993.177,-46.333115
1435016993.192,-39.06685
1435016993.208,-31.37033
1435016993.224,-23.397232
1435016993.239,-15.452469
1435016993.255,-7.862686
1435016993.271,-0.7979584
1435016993.286,5.942322
1435016993.302,12.873093
1435016993.317,20.63105
1435016993.333,29.587608
1435016993.349,39.622154
1435016993.364,50.108643
1435016993.38,60.227394
1435016993.396,69.265686
1435016993.411,77.021454
1435016993.427,83.78632
1435016993.442,90.28245
1435016993.458,97.34452
1435016993.474,105.827545
1435016993.489,116.2602
1435016993.505,128.68994
1435016993.521,142.29314
1435016993.536,155.35803
1435016993.552,165.32669
1435016993.567,169.38351
1435016993.583,165.18
1435016993.599,151.58253
1435016993.614,129.0808
1435016993.63,99.73113
1435016993.646,66.5322
1435016993.661,32.73925
1435016993.677,1.0407715
1435016993.692,-26.832542
1435016993.708,-50.190033
1435016993.724,-69.06175
1435016993.739,-83.8312
1435016993.755,-94.86994
1435016993.771,-102.460464
1435016993.786,-106.84998
1435016993.802,-108.473694
1435016993.817,-108.00814
1435016993.833,-106.33702
1435016993.849,-104.23133
1435016993.864,-102.1565
1435016993.88,-100.19043
1435016993.896,-98.13157
1435016993.911,-95.75042
1435016993.927,-92.975105
1435016993.942,-89.88132
1435016993.958,-86.66555
1435016993.974,-83.426476
1435016993.989,-80.11816
1435016994.005,-76.516396
1435016994.021,-72.367836
1435016994.036,-67.430954
1435016994.052,-61.56797
1435016994.067,-54.77746
1435016994.083,-47.179253
1435016994.099,-39.00093
1435016994.114,-30.56295
1435016994.13,-22.13945
1435016994.146,-13.957634
1435016994.161,-6.0791245
1435016994.177,1.5979843
1435016994.192,9.295631
1435016994.208,17.257751
1435016994.224,25.66925
1435016994.239,34.593445
1435016994.255,43.89782
1435016994.271,53.29045
1435016994.286,62.43492
1435016994.302,71.02835
1435016994.317,78.92573
1435016994.333,86.20293
1435016994.349,93.1334
1435016994.364,100.15449
1435016994.38,107.80353
1435016994.396,116.59444
1435016994.411,126.72056
1435016994.427,137.72926
1435016994.442,148.2661
1435016994.458,156.08612
1435016994.474,158.56586
1435016994.489,153.33893
1435016994.505,139.20982
1435016994.521,116.57969
1435016994.536,87.36045
1435016994.552,54.454346
1435016994.567,20.996933
1435016994.583,-10.25135
1435016994.599,-37.21489
1435016994.614,-58.638733
1435016994.63,-74.019196
1435016994.646,-83.6147
1435016994.661,-88.32994
1435016994.677,-89.59277
1435016994.692,-88.90967
1435016994.708,-87.57371
1435016994.724,-86.3834
1435016994.739,-85.653175
1435016994.755,-85.326126
1435016994.771,-85.1113
1435016994.786,-84.5307
1435016994.802,-83.04685
1435016994.817,-80.30104
1435016994.833,-76.27416
1435016994.849,-71.44769
1435016994.864,-66.61572
1435016994.88,-62.510475
1435016994.896,-59.331085
1435016994.911,-56.568558
1435016994.927,-53.2592
1435016994.942,-48.50054
1435016994.958,-42.02495
1435016994.974,-34.176033
1435016994.989,-25.784119
1435016995.005,-17.651688
1435016995.021,-10.110893
1435016995.036,-2.989235
1435016995.052,4.1897583
1435016995.067,11.891006
1435016995.083,20.306198
1435016995.099,29.302727
1435016995.114,38.479454
1435016995.13,47.36621
1435016995.146,55.605484
1435016995.161,63.199654
1435016995.177,70.45059
1435016995.192,77.94247
1435016995.208,86.27766
1435016995.224,95.934166
1435016995.239,106.9009
1435016995.255,118.614586
1435016995.271,129.8382
1435016995.286,138.72906
1435016995.302,143.11868
1435016995.318,140.92188
1435016995.333,130.76157
1435016995.349,112.4465
1435016995.364,87.1746
1435016995.38,57.295784
1435016995.396,25.70301
1435016995.411,-4.8873215
1435016995.427,-32.4693
1435016995.443,-55.876656
1435016995.458,-74.64981
1435016995.474,-88.73836
1435016995.489,-98.31084
1435016995.505,-103.68775
1435016995.521,-105.47422
1435016995.536,-104.4919
1435016995.552,-101.71838
1435016995.568,-98.102425
1435016995.583,-94.45341
1435016995.599,-91.213455
1435016995.614,-88.562706
1435016995.63,-86.414375
1435016995.646,-84.5092
1435016995.661,-82.582275
1435016995.677,-80.409805
1435016995.693,-77.813416
1435016995.708,-74.65471
1435016995.724,-70.58888
1435016995.739,-65.2274
1435016995.755,-58.23445
1435016995.771,-49.58761
1435016995.786,-39.70098
1435016995.802,-29.40274
1435016995.818,-19.5906
1435016995.833,-10.857269
1435016995.849,-3.237236
1435016995.864,3.7762146
1435016995.88,10.952194
1435016995.896,18.90458
1435016995.911,27.91481
1435016995.927,37.806602
1435016995.943,48.102074
1435016995.958,58.23642
1435016995.974,67.6961
1435016995.989,76.115616
1435016996.005,83.38394
1435016996.021,89.72187
1435016996.036,95.74488
1435016996.052,102.39045
1435016996.068,110.60354
1435016996.083,120.820496
1435016996.099,132.72249
1435016996.114,144.80301
1435016996.13,154.71722
1435016996.146,159.71175
1435016996.161,157.37875
1435016996.177,146.3635
1435016996.193,126.77037
1435016996.208,100.124565
1435016996.224,69.00654
1435016996.239,36.412254
1435016996.255,5.124481
1435016996.271,-22.780922
1435016996.286,-46.060684
1435016996.302,-64.30036
1435016996.318,-77.67367
1435016996.333,-86.671974
1435016996.349,-91.949005
1435016996.364,-94.26379
1435016996.38,-94.38501
1435016996.396,-93.09695
1435016996.411,-91.1361
1435016996.427,-89.0435
1435016996.443,-87.07207
1435016996.458,-85.218796
1435016996.474,-83.229645
1435016996.489,-80.874825
1435016996.505,-78.06884
1435016996.521,-74.97448
1435016996.536,-71.874565
1435016996.552,-68.97609
1435016996.568,-66.19942
1435016996.583,-63.18644
1435016996.599,-59.34385
1435016996.614,-54.165718
1435016996.63,-47.47757
1435016996.646,-39.5253
1435016996.661,-30.909966
1435016996.677,-22.264175
1435016996.693,-14.014709
1435016996.708,-6.1955643
1435016996.724,1.5597992
1435016996.739,9.698196
1435016996.755,18.572021
1435016996.771,28.11921
1435016996.786,37.94656
1435016996.802,47.4432
1435016996.818,56.12448
1435016996.833,63.923744
1435016996.849,71.40628
1435016996.864,79.58707
1435016996.88,89.56673
1435016996.896,101.989555
1435016996.911,116.608826
1435016996.927,132.0477
1435016996.943,146.04144
1435016996.958,155.85582
1435016996.974,158.89606
1435016996.989,153.33327
1435016997.005,138.50427
1435016997.021,115.17338
1435016997.036,85.47986
1435016997.052,52.459595
1435016997.068,19.401066
1435016997.083,-10.973862
1435016997.099,-36.917404
1435016997.114,-57.799503
1435016997.13,-73.78965
1435016997.146,-85.4364
1435016997.161,-93.338776
1435016997.177,-98.05619
1435016997.193,-100.15094
1435016997.208,-100.34584
1435016997.224,-99.319305
1435016997.239,-97.663315
1435016997.255,-95.70212
1435016997.271,-93.50351
1435016997.286,-90.9713
1435016997.302,-88.0749
1435016997.318,-84.87862
1435016997.333,-81.5081
1435016997.349,-78.05212
1435016997.364,-74.46141
1435016997.38,-70.53075
1435016997.396,-65.95409
1435016997.411,-60.331665
1435016997.427,-53.37819
1435016997.443,-45.07428
1435016997.458,-35.8396
1435016997.474,-26.381767
1435016997.489,-17.482101
1435016997.505,-9.627876
1435016997.521,-2.7539587
1435016997.536,3.666954
1435016997.552,10.307416
1435016997.568,17.672525
1435016997.583,25.884336
1435016997.599,34.810806
1435016997.614,44.214058
1435016997.63,53.94954
1435016997.646,63.829247
1435016997.661,73.749596
1435016997.677,83.53347
1435016997.693,93.17767
1435016997.708,102.80101
1435016997.724,112.50872
1435016997.739,121.94924
1435016997.755,129.94997
1435016997.771,134.5585
1435016997.786,133.61339
1435016997.802,125.48705
1435016997.818,109.69843
1435016997.833,87.14645
1435016997.849,59.763004
1435016997.864,29.934175
1435016997.88,0.04207349
1435016997.896,-27.857819
1435016997.911,-52.098133
1435016997.927,-71.388374
1435016997.943,-84.942986
1435016997.958,-92.689224
1435016997.974,-95.168846
1435016997.99,-93.57677
1435016998.005,-89.41332
1435016998.021,-84.2086
1435016998.036,-79.19972
1435016998.052,-75.20378
1435016998.068,-72.549614
1435016998.083,-71.12564
1435016998.099,-70.51
1435016998.115,-70.09258
1435016998.13,-69.21122
1435016998.146,-67.38846
1435016998.161,-64.18176
1435016998.177,-59.466335
1435016998.193,-53.379913
1435016998.208,-46.39817
1435016998.224,-39.172585
1435016998.24,-32.25305
1435016998.255,-25.781223
1435016998.271,-19.461657
1435016998.286,-12.601601
1435016998.302,-4.494293
1435016998.318,5.171278
1435016998.333,16.15514
1435016998.349,27.722773
1435016998.365,38.972267
1435016998.38,49.189365
1435016998.396,58.133343
1435016998.411,66.06968
1435016998.427,73.66986
1435016998.443,81.846825
1435016998.458,91.427086
1435016998.474,102.86053
1435016998.49,115.79689
1435016998.505,128.91566
1435016998.521,139.87125
1435016998.536,145.87401
1435016998.552,144.32356
1435016998.568,133.69629
1435016998.583,114.05032
1435016998.599,87.02969
1435016998.615,55.428104
1435016998.63,22.451176
1435016998.646,-9.017796
1435016998.661,-36.9164
1435016998.677,-60.09218
1435016998.693,-78.14513
1435016998.708,-91.20398
1435016998.724,-99.65927
1435016998.74,-104.11811
1435016998.755,-105.30739
1435016998.771,-104.15384
1435016998.786,-101.56662
1435016998.802,-98.44233
1435016998.818,-95.35793
1435016998.833,-92.57496
1435016998.849,-90.08772
1435016998.865,-87.773895
1435016998.88,-85.51843
1435016998.896,-83.227264
1435016998.911,-80.725494
1435016998.927,-77.72304
1435016998.943,-73.84601
1435016998.958,-68.89577
1435016998.974,-62.86423
1435016998.99,-56.10275
1435016999.005,-49.047447
1435016999.021,-42.080826
1435016999.036,-35.327374
1435016999.052,-28.694172
1435016999.068,-21.934902
1435016999.083,-14.728176
1435016999.099,-6.6492386
1435016999.115,2.6762428
1435016999.13,13.465527
1435016999.146,25.535225
1435016999.161,38.256447
1435016999.177,50.586094
1435016999.193,61.525074
1435016999.208,70.583954
1435016999.224,78.01607
1435016999.24,84.8349
1435016999.255,92.444275
1435016999.271,102.124535
1435016999.286,114.62755
1435016999.302,129.68977
1435016999.318,145.83704
1435016999.333,160.4455
1435016999.349,170.16777
1435016999.365,171.68187
1435016999.38,162.71635
1435016999.396,142.8486
1435016999.411,113.74666
1435016999.427,78.71904
1435016999.443,41.788788
1435016999.458,6.553833
1435016999.474,-24.434078
1435016999.49,-50.00679
1435016999.505,-70.06279
1435016999.521,-85.146774
1435016999.536,-95.97884
1435016999.552,-103.211685
1435016999.568,-107.352394
1435016999.583,-108.9133
1435016999.599,-108.51246
1435016999.615,-106.90634
1435016999.63,-104.87655
1435016999.646,-102.99812
1435016999.661,-101.346954
1435016999.677,-99.56453
1435016999.693,-97.06715
1435016999.708,-93.50596
1435016999.724,-89.011856
1435016999.74,-84.21159
1435016999.755,-79.861725
1435016999.771,-76.40416
1435016999.786,-73.650154
1435016999.802,-70.80208
1435016999.818,-66.84247
1435016999.833,-61.01577
1435016999.849,-53.09914
1435016999.865,-43.549767
1435016999.88,-33.273575
1435016999.896,-23.24986
1435016999.911,-14.169968
1435016999.927,-6.2163773
1435016999.943,0.98151493
1435016999.958,8.1349945
1435016999.974,16.006556
1435016999.99,25.04549
1435017000.005,35.19389
1435017000.021,45.903637
1435017000.036,56.430748
1435017000.052,66.11991
1435017000.068,74.73858
1435017000.083,82.50484
1435017000.099,90.08555
1435017000.115,98.381615
1435017000.13,108.26988
1435017000.146,120.28649
1435017000.161,134.19482
1435017000.177,148.70604
1435017000.193,161.49661
1435017000.208,169.52794
1435017000.224,169.92018
1435017000.24,160.7623
1435017000.255,141.8215
1435017000.271,114.6544
1435017000.286,82.14346
1435017000.302,47.674538
1435017000.318,14.360361
1435017000.333,-15.499179
1435017000.349,-40.516525
1435017000.365,-60.089634
1435017000.38,-74.14866
1435017000.396,-82.98969
1435017000.411,-87.14724
1435017000.427,-87.53985
1435017000.443,-85.333786
1435017000.458,-81.84801
1435017000.474,-78.09686
1435017000.49,-74.72027
1435017000.505,-71.90787
1435017000.521,-69.59454
1435017000.536,-67.580956
1435017000.552,-65.6614
1435017000.568,-63.817482
1435017000.583,-62.068565
1435017000.599,-60.25451
1435017000.615,-57.76178
1435017000.63,-53.733955
1435017000.646,-47.566193
1435017000.662,-39.26706
1435017000.677,-29.51003
1435017000.693,-19.235558
1435017000.708,-9.535843
1435017000.724,-1.1432266
1435017000.74,5.82847
1435017000.755,12.124483
1435017000.771,18.975288
1435017000.786,27.39519
1435017000.802,37.569897
1435017000.818,48.958427
1435017000.833,60.496277
1435017000.849,70.49093
1435017000.865,77.06861
1435017000.88,78.48695
1435017000.896,73.91899
1435017000.912,63.746758
1435017000.927,49.37372
1435017000.943,33.02316
1435017000.958,17.552448
1435017000.974,5.781584
1435017000.99,-0.81009674
1435017001.005,-2.3060436
1435017001.021,-2.7616138
1435017001.037,-7.887044
1435017001.052,-21.263836
1435017001.068,-41.980873
1435017001.083,-67.31294
1435017001.099,-94.63424
1435017001.115,-119.3835
1435017001.13,-138.52992
1435017001.146,-150.80086
1435017001.162,-156.31563
1435017001.177,-155.5445
1435017001.193,-148.87642
1435017001.208,-136.90242
1435017001.224,-120.8874
1435017001.24,-102.56902
1435017001.255,-83.75441
1435017001.271,-66.441315
1435017001.287,-52.051357
1435017001.302,-41.12775
1435017001.318,-33.060837
1435017001.333,-26.505703
1435017001.349,-20.142216
1435017001.365,-13.315552
1435017001.38,-5.9783783
1435017001.396,1.4544449
1435017001.412,8.076736
1435017001.427,13.035698
1435017001.443,15.988197
1435017001.458,17.391006
1435017001.474,18.331985
1435017001.49,19.971443
1435017001.505,22.97715
1435017001.521,27.460655
1435017001.537,33.233177
1435017001.552,39.729958
1435017001.568,46.39348
1435017001.583,52.782066
1435017001.599,58.856216
1435017001.615,64.748055
1435017001.63,70.74603
1435017001.646,77.13275
1435017001.662,84.05708
1435017001.677,91.51289
1435017001.693,99.152084
1435017001.708,106.461945
1435017001.724,113.061005
1435017001.74,118.88548
1435017001.755,124.24678
1435017001.771,129.6831
1435017001.787,135.75407
1435017001.802,142.90253
1435017001.818,151.32082
1435017001.833,160.74501
1435017001.849,170.2724
1435017001.865,178.1437
1435017001.88,181.86887
1435017001.896,178.65416
1435017001.912,166.28902
1435017001.927,143.93573
1435017001.943,112.68385
1435017001.958,75.38631
1435017001.974,35.856796
1435017001.99,-2.1606445
1435017002.005,-35.88884
1435017002.021,-63.90149
1435017002.037,-85.96419
1435017002.052,-102.51578
1435017002.068,-114.16104
1435017002.083,-121.498825
1435017002.099,-124.957436
1435017002.115,-125.117935
1435017002.13,-122.78937
1435017002.146,-119.019455
1435017002.162,-114.89232
1435017002.177,-111.26349
1435017002.193,-108.467445
1435017002.208,-106.36026
1435017002.224,-104.437294
1435017002.24,-102.19771
1435017002.255,-99.37333
1435017002.271,-96.031525
1435017002.287,-92.438225
1435017002.302,-88.82204
1435017002.318,-85.181076
1435017002.333,-81.21795
1435017002.349,-76.41762
1435017002.365,-70.30328
1435017002.38,-62.63684
1435017002.396,-53.567078
1435017002.412,-43.557854
1435017002.427,-33.276543
1435017002.443,-23.343407
1435017002.458,-14.166138
1435017002.474,-5.8258133
1435017002.49,1.8662491
1435017002.505,9.327789
1435017002.521,16.995071
1435017002.537,25.247093
1435017002.552,34.220352
1435017002.568,43.84192
1435017002.583,53.814796
1435017002.599,63.70685
1435017002.615,73.08352
1435017002.63,81.65576
1435017002.646,89.43182
1435017002.662,96.8501
1435017002.677,104.722694
1435017002.693,113.99693
1435017002.708,125.27369
1435017002.724,138.37535
1435017002.74,151.97833
1435017002.755,163.72098
1435017002.771,170.6867
1435017002.787,170.16508
1435017002.802,160.40907
1435017002.818,141.12512
1435017002.833,113.535385
1435017002.849,80.05459
1435017002.865,43.713676
1435017002.88,7.582672
1435017002.896,-25.74804
1435017002.912,-54.347885
1435017002.927,-77.13138
1435017002.943,-93.72116
1435017002.958,-104.35054
1435017002.974,-109.74856
1435017002.99,-110.99205
1435017003.005,-109.3281
1435017003.021,-106.03784
1435017003.037,-102.11657
1435017003.052,-98.18486
1435017003.068,-94.420876
1435017003.083,-90.73433
1435017003.099,-86.92874
1435017003.115,-83.044815
1435017003.13,-79.317154
1435017003.146,-76.06204
1435017003.162,-73.560394
1435017003.177,-71.69561
1435017003.193,-70.031555
1435017003.208,-67.78795
1435017003.224,-64.101265
1435017003.24,-58.402443
1435017003.255,-50.67453
1435017003.271,-41.53775
1435017003.287,-31.925694
1435017003.302,-22.714699
1435017003.318,-14.299492
1435017003.333,-6.5498962
1435017003.349,0.9881363
1435017003.365,8.690437
1435017003.38,16.655743
1435017003.396,24.677208
1435017003.412,32.547764
1435017003.427,40.20226
1435017003.443,47.76096
1435017003.458,55.330585
1435017003.474,62.88147
1435017003.49,70.226776
1435017003.505,77.403755
1435017003.521,84.89011
1435017003.537,93.58759
1435017003.552,104.31901
1435017003.568,117.099
1435017003.584,130.49731
1435017003.599,141.85278
1435017003.615,147.79153
1435017003.63,145.34866
1435017003.646,132.94286
1435017003.662,110.81575
1435017003.677,81.061615
1435017003.693,46.92088
1435017003.709,12.005417
1435017003.724,-20.643688
1435017003.74,-48.909916
1435017003.755,-71.8254
1435017003.771,-89.221504
1435017003.787,-101.284424
1435017003.802,-108.40123
1435017003.818,-111.11401
1435017003.834,-110.28461
1435017003.849,-107.05346
1435017003.865,-102.666794
1435017003.88,-98.15355
1435017003.896,-94.089294
1435017003.912,-90.551254
1435017003.927,-87.36461
1435017003.943,-84.39676
1435017003.959,-81.73299
1435017003.974,-79.51521
1435017003.99,-77.81967
1435017004.005,-76.37584
1435017004.021,-74.61488
1435017004.037,-71.87854
1435017004.052,-67.62924
1435017004.068,-61.646046
1435017004.084,-53.9843
1435017004.099,-44.914055
1435017004.115,-34.86064
1435017004.13,-24.326965
1435017004.146,-13.871365
1435017004.162,-3.8838768
1435017004.177,5.4815063
1435017004.193,14.394325
1435017004.209,23.281193
1435017004.224,32.46581
1435017004.24,42.125042
1435017004.255,52.05602
1435017004.271,61.820274
1435017004.287,70.9409
1435017004.302,79.18556
1435017004.318,86.69867
1435017004.334,94.042786
1435017004.349,102.05418
1435017004.365,111.58519
1435017004.38,123.13273
1435017004.396,136.41092
1435017004.412,150.11824
1435017004.427,161.93092
1435017004.443,168.92747
1435017004.459,168.23666
1435017004.474,157.96642
1435017004.49,137.78748
1435017004.505,109.16227
1435017004.521,74.93528
1435017004.537,38.56337
1435017004.552,3.301693
1435017004.568,-28.421589
1435017004.584,-55.213413
1435017004.599,-76.51228
1435017004.615,-92.362305
1435017004.63,-103.10311
1435017004.646,-109.29285
1435017004.662,-111.70075
1435017004.677,-111.39146
1435017004.693,-109.56453
1435017004.709,-107.32942
1435017004.724,-105.394485
1435017004.74,-103.84476
1435017004.755,-102.31535
1435017004.771,-100.25548
1435017004.787,-97.32822
1435017004.802,-93.61473
1435017004.818,-89.512886
1435017004.834,-85.52037
1435017004.849,-81.90292
1435017004.865,-78.51493
1435017004.88,-74.85859
1435017004.896,-70.28139
1435017004.912,-64.21745
1435017004.927,-56.41272
1435017004.943,-47.004593
1435017004.959,-36.549038
1435017004.974,-25.817852
1435017004.99,-15.659836
1435017005.005,-6.714981
1435017005.021,0.8772278
1435017005.037,7.5529633
1435017005.052,14.220291
1435017005.068,21.90171
1435017005.084,31.290344
1435017005.099,42.462784
1435017005.115,54.746063
1435017005.13,66.98676
1435017005.146,77.88169
1435017005.162,86.65035
1435017005.177,93.26552
1435017005.193,98.61764
1435017005.209,104.18977
1435017005.224,111.45506
1435017005.24,121.26726
1435017005.255,133.30984
1435017005.271,146.03659
1435017005.287,156.96936
1435017005.302,163.27588
1435017005.318,162.41312
1435017005.334,152.64825
1435017005.349,133.53516
1435017005.365,106.01296
1435017005.38,72.34912
1435017005.396,35.72419
1435017005.412,-0.36226654
1435017005.427,-32.89454
1435017005.443,-59.83529
1435017005.459,-80.428505
1435017005.474,-94.83453
1435017005.49,-103.81106
1435017005.505,-108.28329
1435017005.521,-109.233604
1435017005.537,-107.59281
1435017005.552,-104.394135
1435017005.568,-100.6036
1435017005.584,-96.929726
1435017005.599,-93.683235
1435017005.615,-90.79833
1435017005.63,-87.94622
1435017005.646,-84.89498
1435017005.662,-81.4894
1435017005.677,-77.79771
1435017005.693,-73.927765
1435017005.709,-69.97901
1435017005.724,-65.94364
1435017005.74,-61.703842
1435017005.755,-57.029373
1435017005.771,-51.627678
1435017005.787,-45.27392
1435017005.802,-37.906265
1435017005.818,-29.705154
1435017005.834,-21.131874
1435017005.849,-12.674843
1435017005.865,-4.6361237
1435017005.88,3.03788
1435017005.896,10.70639
1435017005.912,18.825676
1435017005.927,27.625282
1435017005.943,36.960655
1435017005.959,46.283386
1435017005.974,54.896202
1435017005.99,62.250458
1435017006.005,68.22315
1435017006.021,73.216354
1435017006.037,78.17707
1435017006.052,84.27335
1435017006.068,92.449295
1435017006.084,102.91623
1435017006.099,114.80833
1435017006.115,126.13791
1435017006.13,134.2128
1435017006.146,136.2899
1435017006.162,130.35123
1435017006.177,115.669846
1435017006.193,93.02789
1435017006.209,64.4483
1435017006.224,32.763535
1435017006.24,0.9221878
1435017006.256,-28.482628
1435017006.271,-53.547775
1435017006.287,-73.126976
1435017006.302,-86.740265
1435017006.318,-94.45058
1435017006.334,-96.77112
1435017006.349,-94.59834
1435017006.365,-89.13331
1435017006.381,-81.76165
1435017006.396,-73.90212
1435017006.412,-66.7019
1435017006.427,-60.90001
1435017006.443,-56.680008
1435017006.459,-53.76821
1435017006.474,-51.599976
1435017006.49,-49.554596
1435017006.506,-47.09121
1435017006.521,-43.911118
1435017006.537,-39.94335
1435017006.552,-35.327576
1435017006.568,-30.251335
1435017006.584,-24.908356
1435017006.599,-19.28331
1435017006.615,-13.1816025
1435017006.631,-6.268448
1435017006.646,1.6898727
1435017006.662,10.746788
1435017006.677,20.632843
1435017006.693,30.889954
1435017006.709,40.9635
1435017006.724,50.37912
1435017006.74,58.85076
1435017006.756,66.38486
1435017006.771,73.30154
1435017006.787,80.28496
1435017006.802,88.229034
1435017006.818,97.96879
1435017006.834,109.8747
1435017006.849,123.47048
1435017006.865,137.18478
1435017006.881,148.48898
1435017006.896,154.41962
1435017006.912,152.32413
1435017006.927,140.68063
1435017006.943,119.58926
1435017006.959,90.78326
1435017006.974,57.242424
1435017006.99,22.368263
1435017007.006,-10.731792
1435017007.021,-39.84206
1435017007.037,-63.72594
1435017007.052,-82.05129
1435017007.068,-95.0379
1435017007.084,-103.20599
1435017007.099,-107.303055
1435017007.115,-108.26326
1435017007.131,-107.06536
1435017007.146,-104.61589
1435017007.162,-101.47993
1435017007.177,-97.86508
1435017007.193,-93.7659
