1427152287.677,0.0
1427152287.693,0.0
1427152287.709,0.0
1427152287.724,0.0
1427152287.74,0.0
1427152287.756,0.0
1427152287.771,0.0
1427152287.787,0.0
1427152287.802,0.0
1427152287.818,0.0022315353
1427152287.834,-0.0045169927
1427152287.849,-0.011265522
1427152287.865,-0.011383951
1427152287.881,0.0011864507
1427152287.896,0.025910312
1427152287.912,0.050634187
1427152287.927,0.051362894
1427152287.943,-0.0014929791
1427152287.959,-0.1302426
1427152287.974,-0.35562757
1427152287.99,-0.6591247
1427152288.006,-1.0095103
1427152288.021,-1.3709826
1427152288.037,-1.7197359
1427152288.052,-2.0551105
1427152288.068,-2.39945
1427152288.084,-2.7866635
1427152288.099,-3.2399073
1427152288.115,-3.796012
1427152288.131,-4.418684
1427152288.146,-5.0592937
1427152288.162,-5.6644096
1427152288.177,-6.2021537
1427152288.193,-6.6808796
1427152288.209,-7.149598
1427152288.224,-7.6782336
1427152288.24,-8.310739
1427152288.256,-9.143657
1427152288.271,-10.089731
1427152288.287,-11.041313
1427152288.302,-11.8842125
1427152288.318,-12.564316
1427152288.334,-13.13563
1427152288.349,-13.760044
1427152288.365,-14.65232
1427152288.381,-15.962056
1427152288.396,-17.914442
1427152288.412,-20.317299
1427152288.427,-22.903854
1427152288.443,-25.37947
1427152288.459,-27.578028
1427152288.474,-29.57246
1427152288.49,-31.67517
1427152288.506,-34.317787
1427152288.521,-37.813587
1427152288.537,-42.541172
1427152288.552,-48.146385
1427152288.568,-54.105312
1427152288.584,-59.8344
1427152288.599,-64.97436
1427152288.615,-69.584724
1427152288.631,-74.14359
1427152288.646,-79.34205
1427152288.662,-85.70213
1427152288.677,-93.75883
1427152288.693,-103.00352
1427152288.709,-112.63764
1427152288.724,-121.76304
1427152288.74,-129.7976
1427152288.756,-136.75543
1427152288.771,-143.2485
1427152288.787,-150.60475
1427152288.802,-157.53442
1427152288.818,-166.31728
1427152288.834,-177.5646
1427152288.849,-191.38608
1427152288.865,-206.56819
1427152288.881,-220.17639
1427152288.896,-227.84837
1427152288.912,-224.92032
1427152288.927,-208.01369
1427152288.943,-176.25935
1427152288.959,-132.07175
1427152288.974,-79.31816
1427152288.99,-22.341858
1427152289.006,35.6391
1427152289.021,93.11374
1427152289.037,149.87387
1427152289.052,206.07297
1427152289.068,261.4238
1427152289.084,315.03693
1427152289.099,365.3711
1427152289.115,411.42987
1427152289.131,452.48593
1427152289.146,487.998
1427152289.162,517.1943
1427152289.177,538.80505
1427152289.193,551.15247
1427152289.209,552.45825
1427152289.224,541.5145
1427152289.24,517.9101
1427152289.256,482.69025
1427152289.271,437.9211
1427152289.287,386.344
1427152289.302,330.82263
1427152289.318,273.8666
1427152289.334,217.35013
1427152289.349,162.49765
1427152289.365,110.10324
1427152289.381,60.677216
1427152289.396,14.9028015
1427152289.412,-26.442383
1427152289.427,-62.52243
1427152289.443,-92.65982
1427152289.459,-116.55261
1427152289.474,-134.42947
1427152289.49,-147.03761
1427152289.506,-155.45186
1427152289.521,-160.81076
1427152289.537,-163.9552
1427152289.552,-165.34987
1427152289.568,-165.04904
1427152289.584,-162.90895
1427152289.599,-158.76096
1427152289.615,-152.54646
1427152289.631,-144.33305
1427152289.646,-134.32259
1427152289.662,-123.04564
1427152289.677,-111.52241
1427152289.693,-101.370964
1427152289.709,-94.46087
1427152289.724,-92.23833
1427152289.74,-94.97099
1427152289.756,-101.39264
1427152289.771,-109.03642
1427152289.787,-115.14165
1427152289.802,-117.71066
1427152289.818,-116.09709
1427152289.834,-110.95711
1427152289.849,-103.609535
1427152289.865,-95.30351
1427152289.881,-86.80762
1427152289.896,-78.435165
1427152289.912,-70.3081
1427152289.927,-62.58599
1427152289.943,-55.643757
1427152289.959,-49.677204
1427152289.974,-44.72032
1427152289.99,-40.621952
1427152290.006,-37.13627
1427152290.021,-33.96885
1427152290.037,-30.86286
1427152290.052,-27.662224
1427152290.068,-24.317326
1427152290.084,-20.963684
1427152290.099,-17.828041
1427152290.115,-15.213989
1427152290.131,-13.300472
1427152290.146,-11.976608
1427152290.162,-10.875374
1427152290.177,-9.540718
1427152290.193,-7.6783257
1427152290.209,-5.3613815
1427152290.224,-3.0275612
1427152290.24,-1.2635231
1427152290.256,-0.52497864
1427152290.271,-0.8836937
1427152290.287,-1.9942207
1427152290.302,-3.2487602
1427152290.318,-4.0716248
1427152290.334,-4.1602325
1427152290.349,-3.5581932
1427152290.365,-2.5380325
1427152290.381,-1.4323425
1427152290.396,-0.4826126
1427152290.412,0.21694946
1427152290.428,0.7046547
1427152290.443,1.0771523
1427152290.459,1.4069939
1427152290.474,1.7424812
1427152290.49,2.08255
1427152290.506,2.3805733
1427152290.521,2.5619354
1427152290.537,2.5359154
1427152290.552,2.255497
1427152290.568,1.7610855
1427152290.584,1.1714439
1427152290.599,0.6721535
1427152290.615,0.40678406
1427152290.631,0.42142868
1427152290.646,0.65153885
1427152290.662,0.98866653
1427152290.678,1.2921104
1427152290.693,1.4957733
1427152290.709,1.5859566
1427152290.724,1.6093292
1427152290.74,1.607296
1427152290.756,1.615921
1427152290.771,1.6476288
1427152290.787,1.7055511
1427152290.803,1.7948227
1427152290.818,1.9294014
1427152290.834,2.0953407
1427152290.849,2.2423458
1427152290.865,2.3177357
1427152290.881,2.2829647
1427152290.896,2.1507988
1427152290.912,1.9896336
1427152290.928,1.8712692
1427152290.943,1.8460274
1427152290.959,1.8941307
1427152290.974,1.9573059
1427152290.99,1.9523735
1427152291.006,1.8486614
1427152291.021,1.6580105
1427152291.037,1.458044
1427152291.053,1.3280983
1427152291.068,1.3414421
1427152291.084,1.4801693
1427152291.099,1.6900558
1427152291.115,1.8697166
1427152291.131,1.9346333
1427152291.146,1.8813267
1427152291.162,1.7705746
1427152291.178,1.6992073
1427152291.193,1.7578316
1427152291.209,1.9396515
1427152291.224,2.1557846
1427152291.24,2.2699165
1427152291.256,2.2243996
1427152291.271,2.023014
1427152291.287,1.7973175
1427152291.303,1.6920185
1427152291.318,1.831171
1427152291.334,2.2328396
1427152291.349,2.814333
1427152291.365,3.3770332
1427152291.381,3.6883106
1427152291.396,3.5184307
1427152291.412,2.7347374
1427152291.428,1.3511639
1427152291.443,-0.41750908
1427152291.459,-2.2059917
1427152291.474,-3.5869503
1427152291.49,-4.2520123
1427152291.506,-4.1055202
1427152291.521,-3.3492546
1427152291.537,-2.3122368
1427152291.553,-1.3531132
1427152291.568,-0.6587181
1427152291.584,-0.24186516
1427152291.599,0.024297714
1427152291.615,0.24900246
1427152291.631,0.48186302
1427152291.646,0.7261219
1427152291.662,0.94244576
1427152291.678,1.104723
1427152291.693,1.2296028
1427152291.709,1.325758
1427152291.724,1.3982296
1427152291.74,1.4019413
1427152291.756,1.3360023
1427152291.771,1.2126884
1427152291.787,1.1217461
1427152291.803,1.1395397
1427152291.818,1.3162766
1427152291.834,1.6249065
1427152291.849,2.0072079
1427152291.865,2.3875065
1427152291.881,2.720478
1427152291.896,2.9846382
1427152291.912,3.1715412
1427152291.928,3.284811
1427152291.943,3.3234196
1427152291.959,3.3012562
1427152291.974,3.2844105
1427152291.99,3.307207
1427152292.006,3.427414
1427152292.021,3.6025925
1427152292.037,3.7718163
1427152292.053,3.8134403
1427152292.068,3.6338863
1427152292.084,3.171135
1427152292.099,2.4757404
1427152292.115,1.6041718
1427152292.131,0.6669102
1427152292.146,-0.2730713
1427152292.162,-1.1703072
1427152292.178,-2.0402184
1427152292.193,-2.8903656
1427152292.209,-3.7753563
1427152292.224,-4.711464
1427152292.24,-5.6951656
1427152292.256,-6.6423187
1427152292.271,-7.4362564
1427152292.287,-7.965271
1427152292.303,-8.178776
1427152292.318,-8.143517
1427152292.334,-8.060511
1427152292.349,-8.228952
1427152292.365,-8.901592
1427152292.381,-10.170984
1427152292.396,-11.947924
1427152292.412,-13.926977
1427152292.428,-15.720625
1427152292.443,-16.962269
1427152292.459,-17.40091
1427152292.474,-16.894434
1427152292.49,-15.510183
1427152292.506,-13.378658
1427152292.521,-10.756611
1427152292.537,-7.9370403
1427152292.553,-5.1093254
1427152292.568,-2.4380398
1427152292.584,-0.026147842
1427152292.599,2.1142006
1427152292.615,3.9769878
1427152292.631,5.560485
1427152292.646,6.850238
1427152292.662,7.8259926
1427152292.678,8.5057
1427152292.693,8.962731
1427152292.709,9.240213
1427152292.724,9.361898
1427152292.74,9.301463
1427152292.756,9.025707
1427152292.771,8.5327635
1427152292.787,7.9051676
1427152292.803,7.278734
1427152292.818,6.7901907
1427152292.834,6.5385637
1427152292.849,6.4843187
1427152292.865,6.5298915
1427152292.881,6.5630407
1427152292.896,6.5030174
1427152292.912,6.355706
1427152292.928,6.1614847
1427152292.943,5.9834123
1427152292.959,5.858215
1427152292.974,5.8034835
1427152292.99,5.7700987
1427152293.006,5.7488275
1427152293.021,5.689036
1427152293.037,5.59742
1427152293.053,5.446805
1427152293.068,5.2803507
1427152293.084,5.13161
1427152293.1,5.089623
1427152293.115,5.217241
1427152293.131,5.525557
1427152293.146,5.9824533
1427152293.162,6.5102015
1427152293.178,6.9817977
1427152293.193,7.296323
1427152293.209,7.387846
1427152293.224,7.3024087
1427152293.24,7.2029386
1427152293.256,7.3224835
1427152293.271,7.7911325
1427152293.287,8.689129
1427152293.303,9.938818
1427152293.318,11.329503
1427152293.334,12.497752
1427152293.35,13.07041
1427152293.365,12.735353
1427152293.381,11.390753
1427152293.396,9.182136
1427152293.412,6.4269743
1427152293.428,3.6089191
1427152293.443,1.2402563
1427152293.459,-0.33089542
1427152293.475,-1.0348978
1427152293.49,-1.0807705
1427152293.506,-0.86294746
1427152293.521,-0.900795
1427152293.537,-1.0161066
1427152293.553,-1.368185
1427152293.568,-2.018711
1427152293.584,-2.9317265
1427152293.6,-3.9844933
1427152293.615,-5.030714
1427152293.631,-5.946886
1427152293.646,-6.6812572
1427152293.662,-7.2356987
1427152293.678,-7.678316
1427152293.693,-8.141792
1427152293.709,-8.697218
1427152293.725,-9.345751
1427152293.74,-10.064999
1427152293.756,-10.808498
1427152293.771,-11.536207
1427152293.787,-12.161615
1427152293.803,-12.586527
1427152293.818,-12.693815
1427152293.834,-12.476704
1427152293.85,-11.973303
1427152293.865,-11.301426
1427152293.881,-10.622337
1427152293.896,-10.092859
1427152293.912,-9.76453
1427152293.928,-9.5961895
1427152293.943,-9.452227
1427152293.959,-9.191685
1427152293.975,-8.729696
1427152293.99,-8.047365
1427152294.006,-7.177515
1427152294.021,-6.208973
1427152294.037,-5.244602
1427152294.053,-4.391926
1427152294.068,-3.7192955
1427152294.084,-3.2241135
1427152294.1,-2.8087711
1427152294.115,-2.3428802
1427152294.131,-1.6343498
1427152294.146,-0.5599117
1427152294.162,0.89424896
1427152294.178,2.569271
1427152294.193,4.2091026
1427152294.209,5.566925
1427152294.225,6.546747
1427152294.24,7.215826
1427152294.256,7.793579
1427152294.271,8.496283
1427152294.287,9.461298
1427152294.303,10.692526
1427152294.318,12.11532
1427152294.334,13.661331
1427152294.35,15.317139
1427152294.365,17.107067
1427152294.381,19.059864
1427152294.396,21.15683
1427152294.412,23.384842
1427152294.428,25.763931
1427152294.443,28.381992
1427152294.459,31.297306
1427152294.475,34.437843
1427152294.49,37.447517
1427152294.506,39.73849
1427152294.521,40.632748
1427152294.537,39.64714
1427152294.553,36.675274
1427152294.568,32.041508
1427152294.584,26.362148
1427152294.6,20.327877
1427152294.615,14.507629
1427152294.631,9.249817
1427152294.646,4.6857986
1427152294.662,0.8160324
1427152294.678,-2.4570389
1427152294.693,-5.255329
1427152294.709,-7.718914
1427152294.725,-9.953655
1427152294.74,-12.034008
1427152294.756,-13.9495125
1427152294.771,-15.643509
1427152294.787,-17.038109
1427152294.803,-18.094917
1427152294.818,-18.839935
1427152294.834,-19.364471
1427152294.85,-19.788628
1427152294.865,-20.238304
1427152294.881,-20.795494
1427152294.896,-21.512497
1427152294.912,-22.357765
1427152294.928,-23.254723
1427152294.943,-24.070145
1427152294.959,-24.682076
1427152294.975,-24.983398
1427152294.99,-24.952248
1427152295.006,-24.606049
1427152295.021,-24.0149
1427152295.037,-23.247078
1427152295.053,-22.365517
1427152295.068,-21.405556
1427152295.084,-20.395935
1427152295.1,-19.3638
1427152295.115,-18.328178
1427152295.131,-17.31501
1427152295.146,-16.340004
1427152295.162,-15.41217
1427152295.178,-14.540802
1427152295.193,-13.726448
1427152295.209,-12.957512
1427152295.225,-12.2037735
1427152295.24,-11.425774
1427152295.256,-10.568962
1427152295.271,-9.59845
1427152295.287,-8.472183
1427152295.303,-7.1956253
1427152295.318,-5.7985153
1427152295.334,-4.3597183
1427152295.35,-2.9555588
1427152295.365,-1.6587753
1427152295.381,-0.45606995
1427152295.396,0.7246628
1427152295.412,2.0037842
1427152295.428,3.4750519
1427152295.443,5.1624603
1427152295.459,7.0034485
1427152295.475,8.873375
1427152295.49,10.652374
1427152295.506,12.301048
1427152295.521,13.866951
1427152295.537,15.490143
1427152295.553,17.326683
1427152295.568,19.560623
1427152295.584,22.304016
1427152295.6,25.585983
1427152295.615,29.24237
1427152295.631,32.87599
1427152295.646,35.856804
1427152295.662,37.46647
1427152295.678,37.107506
1427152295.693,34.52404
1427152295.709,29.924011
1427152295.725,23.938393
1427152295.74,17.442764
1427152295.756,11.285904
1427152295.771,6.0665207
1427152295.787,2.0352097
1427152295.803,-0.89951324
1427152295.818,-3.056572
1427152295.834,-4.825302
1427152295.85,-6.511902
1427152295.865,-8.298309
1427152295.881,-10.196991
1427152295.896,-12.130905
1427152295.912,-13.972778
1427152295.928,-15.616562
1427152295.943,-16.997879
1427152295.959,-18.096321
1427152295.975,-18.915634
1427152295.99,-19.492538
1427152296.006,-19.87461
1427152296.022,-20.132446
1427152296.037,-20.34172
1427152296.053,-20.578918
1427152296.068,-20.872742
1427152296.084,-21.227661
1427152296.1,-21.584038
1427152296.115,-21.846992
1427152296.131,-21.890907
1427152296.147,-21.605934
1427152296.162,-20.92112
1427152296.178,-19.863663
1427152296.193,-18.52317
1427152296.209,-17.073761
1427152296.225,-15.6848755
1427152296.24,-14.520241
1427152296.256,-13.669113
1427152296.272,-13.125313
1427152296.287,-12.79628
1427152296.303,-12.510551
1427152296.318,-12.065292
1427152296.334,-11.307449
1427152296.35,-10.19796
1427152296.365,-8.846329
1427152296.381,-7.4542694
1427152296.397,-6.230255
1427152296.412,-5.2698975
1427152296.428,-4.5079956
1427152296.443,-3.7828903
1427152296.459,-2.898384
1427152296.475,-1.7266159
1427152296.49,-0.2398529
1427152296.506,1.5076447
1427152296.522,3.4311523
1427152296.537,5.4442596
1427152296.553,7.4897995
1427152296.568,9.560753
1427152296.584,11.714539
1427152296.6,14.079948
1427152296.615,16.816734
1427152296.631,20.041122
1427152296.647,23.706863
1427152296.662,27.566002
1427152296.678,31.147537
1427152296.693,33.87731
1427152296.709,35.23491
1427152296.725,34.882744
1427152296.74,32.749878
1427152296.756,29.025879
1427152296.772,24.106155
1427152296.787,18.492805
1427152296.803,12.721329
1427152296.818,7.272751
1427152296.834,2.5200272
1427152296.85,-1.299263
1427152296.865,-4.1294556
1427152296.881,-6.0788116
1427152296.897,-7.402443
1427152296.912,-8.386108
1427152296.928,-9.275383
1427152296.943,-10.196655
1427152296.959,-11.142693
1427152296.975,-12.0108795
1427152296.99,-12.722816
1427152297.006,-13.260162
1427152297.022,-13.724899
1427152297.037,-14.265297
1427152297.053,-14.997459
1427152297.068,-15.915627
1427152297.084,-16.89553
1427152297.1,-17.752586
1427152297.115,-18.349327
1427152297.131,-18.651455
1427152297.147,-18.715939
1427152297.162,-18.602253
1427152297.178,-18.319256
1427152297.193,-17.79058
1427152297.209,-16.921398
1427152297.225,-15.685177
1427152297.24,-14.200012
1427152297.256,-12.673763
1427152297.272,-11.348064
1427152297.287,-10.347965
1427152297.303,-9.648331
1427152297.318,-9.065361
1427152297.334,-8.396469
1427152297.35,-7.497692
1427152297.365,-6.3472633
1427152297.381,-5.0161552
1427152297.397,-3.6185875
1427152297.412,-2.2376633
1427152297.428,-0.90969086
1427152297.443,0.36117172
1427152297.459,1.568676
1427152297.475,2.7346725
1427152297.49,3.8877678
1427152297.506,5.108658
1427152297.522,6.4822464
1427152297.537,8.0686
1427152297.553,9.832203
1427152297.568,11.661369
1427152297.584,13.408142
1427152297.6,14.988567
1427152297.615,16.424835
1427152297.631,17.866173
1427152297.647,19.495193
1427152297.662,21.470106
1427152297.678,23.846006
1427152297.693,26.561419
1427152297.709,29.431015
1427152297.725,32.161705
1427152297.74,34.339813
1427152297.756,35.47341
1427152297.772,35.100296
1427152297.787,32.98429
1427152297.803,29.209455
1427152297.818,24.250586
1427152297.834,18.802296
1427152297.85,13.577564
1427152297.865,9.061874
1427152297.881,5.435829
1427152297.897,2.5905743
1427152297.912,0.2778721
1427152297.928,-1.7444878
1427152297.943,-3.6462212
1427152297.959,-5.509327
1427152297.975,-7.341793
1427152297.99,-9.115595
1427152298.006,-10.747908
1427152298.022,-12.146101
1427152298.037,-13.218298
1427152298.053,-13.946407
1427152298.068,-14.391272
1427152298.084,-14.705959
1427152298.1,-15.052574
1427152298.115,-15.567343
1427152298.131,-16.272701
1427152298.147,-17.134933
1427152298.162,-18.064333
1427152298.178,-18.940908
1427152298.193,-19.646002
1427152298.209,-20.068499
1427152298.225,-20.126696
1427152298.24,-19.820992
1427152298.256,-19.22568
1427152298.272,-18.48926
1427152298.287,-17.761318
1427152298.303,-17.122591
1427152298.318,-16.552929
1427152298.334,-15.948288
1427152298.35,-15.198008
1427152298.365,-14.266928
1427152298.381,-13.221397
1427152298.397,-12.203491
1427152298.412,-11.317567
1427152298.428,-10.595844
1427152298.443,-9.964144
1427152298.459,-9.290048
1427152298.475,-8.457491
1427152298.49,-7.456261
1427152298.506,-6.360972
1427152298.522,-5.29272
1427152298.537,-4.3432612
1427152298.553,-3.5306625
1427152298.568,-2.7650862
1427152298.584,-1.9442961
1427152298.6,-0.99633455
1427152298.615,0.039752483
1427152298.631,1.0645661
1427152298.647,1.9532175
1427152298.662,2.668438
1427152298.678,3.2412796
1427152298.694,3.8017492
1427152298.709,4.4670296
1427152298.725,5.3184786
1427152298.74,6.3746843
1427152298.756,7.625862
1427152298.772,9.058262
1427152298.787,10.662024
1427152298.803,12.407476
1427152298.819,14.24271
1427152298.834,16.067957
1427152298.85,17.819248
1427152298.865,19.462206
1427152298.881,21.061754
1427152298.897,22.72024
1427152298.912,24.577229
1427152298.928,26.715076
1427152298.944,29.143717
1427152298.959,31.741373
1427152298.975,34.25837
1427152298.99,36.306976
1427152299.006,37.425034
1427152299.022,37.189503
1427152299.037,35.364643
1427152299.053,32.006927
1427152299.069,27.466204
1427152299.084,22.288036
1427152299.1,17.048157
1427152299.115,12.176739
1427152299.131,7.904684
1427152299.147,4.267805
1427152299.162,1.2005348
1427152299.178,-1.3966713
1427152299.194,-3.5898628
1427152299.209,-5.447773
1427152299.225,-7.014784
1427152299.24,-8.338335
1427152299.256,-9.438177
1427152299.272,-10.314859
1427152299.287,-10.966837
1427152299.303,-11.438353
1427152299.319,-11.801792
1427152299.334,-12.173264
1427152299.35,-12.612474
1427152299.365,-13.132662
1427152299.381,-13.683702
1427152299.397,-14.215658
1427152299.412,-14.686136
1427152299.428,-15.10512
1427152299.444,-15.473717
1427152299.459,-15.801477
1427152299.475,-16.042223
1427152299.49,-16.166588
1427152299.506,-16.137476
1427152299.522,-15.949907
1427152299.537,-15.618811
1427152299.553,-15.146639
1427152299.569,-14.538471
1427152299.584,-13.819124
1427152299.6,-13.02261
1427152299.615,-12.207668
1427152299.631,-11.406448
1427152299.647,-10.635536
1427152299.662,-9.879963
1427152299.678,-9.140102
1427152299.694,-8.431816
1427152299.709,-7.823307
1427152299.725,-7.35812
1427152299.74,-7.0239754
1427152299.756,-6.750717
1427152299.772,-6.433384
1427152299.787,-5.971096
1427152299.803,-5.338814
1427152299.819,-4.56921
1427152299.834,-3.7467422
1427152299.85,-2.957241
1427152299.865,-2.2737427
1427152299.881,-1.7100258
1427152299.897,-1.2512474
1427152299.912,-0.8171463
1427152299.928,-0.3190689
1427152299.944,0.34688187
1427152299.959,1.2238731
1427152299.975,2.3133774
1427152299.99,3.5424652
1427152300.006,4.8388786
1427152300.022,6.151966
1427152300.037,7.4759827
1427152300.053,8.857498
1427152300.069,10.349205
1427152300.084,11.945419
1427152300.1,13.594353
1427152300.115,15.194729
1427152300.131,16.654339
1427152300.147,17.97015
1427152300.162,19.280346
1427152300.178,20.83387
1427152300.194,22.919056
1427152300.209,25.64833
1427152300.225,28.85397
1427152300.24,32.027763
1427152300.256,34.471714
1427152300.272,35.494873
1427152300.287,34.692554
1427152300.303,32.071697
1427152300.319,28.012241
1427152300.334,23.09908
1427152300.35,17.907166
1427152300.365,12.86721
1427152300.381,8.251633
1427152300.397,4.203369
1427152300.412,0.8229523
1427152300.428,-1.8660393
1427152300.444,-3.8886642
1427152300.459,-5.3857307
1427152300.475,-6.5090485
1427152300.49,-7.4116554
1427152300.506,-8.140274
1427152300.522,-8.682941
1427152300.537,-9.010666
1427152300.553,-9.173027
1427152300.569,-9.283867
1427152300.584,-9.510796
1427152300.6,-9.97401
1427152300.615,-10.705635
1427152300.631,-11.624668
1427152300.647,-12.6171
1427152300.662,-13.577194
1427152300.678,-14.459366
1427152300.694,-15.251217
1427152300.709,-15.9378395
1427152300.725,-16.468086
1427152300.74,-16.764816
1427152300.756,-16.740353
1427152300.772,-16.384003
1427152300.787,-15.757
1427152300.803,-14.982384
1427152300.819,-14.185955
1427152300.834,-13.42033
1427152300.85,-12.650021
1427152300.865,-11.809063
1427152300.881,-10.857872
1427152300.897,-9.860931
1427152300.912,-8.952488
1427152300.928,-8.278294
1427152300.944,-7.886734
1427152300.959,-7.7103806
1427152300.975,-7.563858
1427152300.99,-7.277912
1427152301.006,-6.727604
1427152301.022,-5.8997955
1427152301.037,-4.824688
1427152301.053,-3.5667343
1427152301.069,-2.1667519
1427152301.084,-0.6954117
1427152301.1,0.73355865
1427152301.115,1.9481239
1427152301.131,2.8220901
1427152301.147,3.3387566
1427152301.162,3.6736984
1427152301.178,4.1154137
1427152301.194,4.947628
1427152301.209,6.2901917
1427152301.225,8.03986
1427152301.24,9.912285
1427152301.256,11.606186
1427152301.272,12.929924
1427152301.287,13.921001
1427152301.303,14.78743
1427152301.319,15.836807
1427152301.334,17.323341
1427152301.35,19.379513
1427152301.366,21.925053
1427152301.381,24.717014
1427152301.397,27.37016
1427152301.412,29.420933
1427152301.428,30.41565
1427152301.444,30.011574
1427152301.459,28.04895
1427152301.475,24.634819
1427152301.49,20.110653
1427152301.506,15.012676
1427152301.522,9.932182
1427152301.537,5.391575
1427152301.553,1.7179184
1427152301.569,-0.9903259
1427152301.584,-2.8353386
1427152301.6,-4.050583
1427152301.616,-4.9054413
1427152301.631,-5.606922
1427152301.647,-6.271572
1427152301.662,-6.9286995
1427152301.678,-7.555271
1427152301.694,-8.1322365
1427152301.709,-8.657307
1427152301.725,-9.143017
1427152301.741,-9.595566
1427152301.756,-9.998547
1427152301.772,-10.347309
1427152301.787,-10.627445
1427152301.803,-10.885548
1427152301.819,-11.180607
1427152301.834,-11.582951
1427152301.85,-12.0914955
1427152301.866,-12.647221
1427152301.881,-13.134094
1427152301.897,-13.44138
1427152301.912,-13.483395
1427152301.928,-13.269768
1427152301.944,-12.8448105
1427152301.959,-12.273022
1427152301.975,-11.599678
1427152301.991,-10.85445
1427152302.006,-10.033623
1427152302.022,-9.145462
1427152302.037,-8.18808
1427152302.053,-7.1554985
1427152302.069,-6.0509987
1427152302.084,-4.8931274
1427152302.1,-3.7174606
1427152302.116,-2.5942001
1427152302.131,-1.5876884
1427152302.147,-0.7530403
1427152302.162,-0.08605194
1427152302.178,0.47974014
1427152302.194,1.081295
1427152302.209,1.8657112
1427152302.225,2.9550018
1427152302.241,4.3746643
1427152302.256,6.060177
1427152302.272,7.8613243
1427152302.287,9.6389885
1427152302.303,11.324104
1427152302.319,12.990215
1427152302.334,14.828499
1427152302.35,17.05154
1427152302.366,19.774796
1427152302.381,22.900906
1427152302.397,26.074833
1427152302.412,28.756027
1427152302.428,30.348457
1427152302.444,30.416393
1427152302.459,28.802433
1427152302.475,25.708374
1427152302.491,21.594624
1427152302.506,17.075974
1427152302.522,12.692123
1427152302.537,8.800613
1427152302.553,5.5404854
1427152302.569,2.8666916
1427152302.584,0.6534462
1427152302.6,-1.2207718
1427152302.616,-2.8305473
1427152302.631,-4.2146263
1427152302.647,-5.3963776
1427152302.662,-6.3904877
1427152302.678,-7.227974
1427152302.694,-7.9146194
1427152302.709,-8.482582
1427152302.725,-8.98798
1427152302.741,-9.521008
1427152302.756,-10.178959
1427152302.772,-11.008293
1427152302.787,-11.974781
1427152302.803,-12.963703
1427152302.819,-13.834713
1427152302.834,-14.48053
1427152302.85,-14.882313
1427152302.866,-15.107042
1427152302.881,-15.224741
1427152302.897,-15.272013
1427152302.912,-15.200481
1427152302.928,-14.934704
1427152302.944,-14.409729
1427152302.959,-13.649633
1427152302.975,-12.724653
1427152302.991,-11.745766
1427152303.006,-10.76227
1427152303.022,-9.76236
1427152303.037,-8.667067
1427152303.053,-7.382904
1427152303.069,-5.877306
1427152303.084,-4.2149544
1427152303.1,-2.5586739
1427152303.116,-1.1210213
1427152303.131,-0.041950226
1427152303.147,0.657444
1427152303.162,1.1361504
1427152303.178,1.6350384
1427152303.194,2.4082184
1427152303.209,3.595993
1427152303.225,5.186182
1427152303.241,7.018862
1427152303.256,8.901115
1427152303.272,10.674072
1427152303.287,12.274769
1427152303.303,13.745632
1427152303.319,15.190884
1427152303.334,16.773472
1427152303.35,18.683561
1427152303.366,21.065022
1427152303.381,23.957947
1427152303.397,27.193432
1427152303.412,30.37299
1427152303.428,32.908813
1427152303.444,34.20741
1427152303.459,33.814934
1427152303.475,31.61079
1427152303.491,27.820591
1427152303.506,22.957321
1427152303.522,17.665096
1427152303.537,12.545126
1427152303.553,8.0100765
1427152303.569,4.2451253
1427152303.584,1.2291622
1427152303.6,-1.2084043
1427152303.616,-3.278831
1427152303.631,-5.1663647
1427152303.647,-6.985898
1427152303.662,-8.768268
1427152303.678,-10.472488
1427152303.694,-12.013514
1427152303.709,-13.335505
1427152303.725,-14.398419
1427152303.741,-15.239286
1427152303.756,-15.910844
1427152303.772,-16.495453
1427152303.787,-17.06076
1427152303.803,-17.666286
1427152303.819,-18.34264
1427152303.834,-19.095806
1427152303.85,-19.897646
1427152303.866,-20.66794
1427152303.881,-21.28801
1427152303.897,-21.6194
1427152303.912,-21.53678
1427152303.928,-21.022781
1427152303.944,-20.166508
1427152303.959,-19.143112
1427152303.975,-18.117325
1427152303.991,-17.198277
1427152304.006,-16.372763
1427152304.022,-15.562792
1427152304.038,-14.680164
1427152304.053,-13.702909
1427152304.069,-12.687935
1427152304.084,-11.72443
1427152304.1,-10.903309
1427152304.116,-10.24568
1427152304.131,-9.678539
1427152304.147,-9.081284
1427152304.162,-8.313568
1427152304.178,-7.295782
1427152304.194,-6.0133667
1427152304.209,-4.5651493
1427152304.225,-3.0766697
1427152304.241,-1.6805973
1427152304.256,-0.43221092
1427152304.272,0.69400215
1427152304.288,1.8222141
1427152304.303,3.0819035
1427152304.319,4.5758533
1427152304.334,6.2966003
1427152304.35,8.153778
1427152304.366,10.017452
1427152304.381,11.753248
1427152304.397,13.283667
1427152304.413,14.620029
1427152304.428,15.82452
1427152304.444,17.016659
1427152304.459,18.362484
1427152304.475,20.101864
1427152304.491,22.421923
1427152304.506,25.414001
1427152304.522,28.91678
1427152304.538,32.492386
1427152304.553,35.4798
1427152304.569,37.18918
1427152304.584,37.132545
1427152304.6,35.17535
1427152304.616,31.566996
1427152304.631,26.841593
1427152304.647,21.630316
1427152304.663,16.501518
1427152304.678,11.833347
1427152304.694,7.8377876
1427152304.709,4.5325584
1427152304.725,1.800045
1427152304.741,-0.59129715
1427152304.756,-2.8784485
1427152304.772,-5.244049
1427152304.788,-7.703079
1427152304.803,-10.127998
1427152304.819,-12.253086
1427152304.834,-13.886429
1427152304.85,-14.951195
1427152304.866,-15.576675
1427152304.881,-16.001583
1427152304.897,-16.480156
1427152304.913,-17.145985
1427152304.928,-18.00066
1427152304.944,-18.935913
1427152304.959,-19.85151
1427152304.975,-20.689953
1427152304.991,-21.453686
1427152305.006,-22.140305
1427152305.022,-22.674385
1427152305.038,-22.908688
1427152305.053,-22.707123
1427152305.069,-22.005276
1427152305.084,-20.898396
1427152305.1,-19.592136
1427152305.116,-18.338531
1427152305.131,-17.283745
1427152305.147,-16.465782
1427152305.163,-15.780884
1427152305.178,-15.098156
1427152305.194,-14.322224
1427152305.209,-13.4387245
1427152305.225,-12.487656
1427152305.241,-11.546799
1427152305.256,-10.669666
1427152305.272,-9.880409
1427152305.288,-9.161205
1427152305.303,-8.466034
1427152305.319,-7.7118225
1427152305.334,-6.8139343
1427152305.35,-5.702278
1427152305.366,-4.386795
1427152305.381,-2.9387894
1427152305.397,-1.4949303
1427152305.413,-0.14249039
1427152305.428,1.0548439
1427152305.444,2.1538925
1427152305.459,3.2462273
1427152305.475,4.449993
1427152305.491,5.8451424
1427152305.506,7.4727707
1427152305.522,9.308079
1427152305.538,11.302906
1427152305.553,13.376801
1427152305.569,15.431286
1427152305.584,17.390179
1427152305.6,19.225815
1427152305.616,20.960945
1427152305.631,22.706284
1427152305.647,24.59887
1427152305.663,26.741314
1427152305.678,29.113415
1427152305.694,31.560543
1427152305.709,33.74031
1427152305.725,35.20465
1427152305.741,35.465878
1427152305.756,34.142883
1427152305.772,31.08413
1427152305.788,26.455967
1427152305.803,20.724663
1427152305.819,14.570908
1427152305.834,8.691505
1427152305.85,3.6348267
1427152305.866,-0.33521652
1427152305.881,-3.2226944
1427152305.897,-5.253132
1427152305.913,-6.715996
1427152305.928,-7.88023
1427152305.944,-8.924892
1427152305.959,-9.960587
1427152305.975,-11.013325
1427152305.991,-12.070587
1427152306.006,-13.082176
1427152306.022,-14.002327
1427152306.038,-14.780464
1427152306.053,-15.414162
1427152306.069,-15.939102
1427152306.084,-16.423264
1427152306.1,-16.923508
1427152306.116,-17.490356
1427152306.131,-18.136002
1427152306.147,-18.875954
1427152306.163,-19.68872
1427152306.178,-20.548859
1427152306.194,-21.36827
1427152306.209,-22.006592
1427152306.225,-22.290993
1427152306.241,-22.093536
1427152306.256,-21.387627
1427152306.272,-20.270271
1427152306.288,-18.915977
1427152306.303,-17.526169
1427152306.319,-16.212212
1427152306.334,-14.996422
1427152306.35,-13.824532
1427152306.366,-12.672539
1427152306.381,-11.545715
1427152306.397,-10.524567
1427152306.413,-9.66629
1427152306.428,-8.969933
1427152306.444,-8.36628
1427152306.459,-7.779518
1427152306.475,-7.1836395
1427152306.491,-6.627701
1427152306.506,-6.1741867
1427152306.522,-5.835457
1427152306.538,-5.5057297
1427152306.553,-5.002556
1427152306.569,-4.1592445
1427152306.584,-2.959404
1427152306.6,-1.529541
1427152306.616,-0.10492325
1427152306.631,1.1385078
1427152306.647,2.1712875
1427152306.663,3.1467056
1427152306.678,4.2768745
1427152306.694,5.728302
1427152306.709,7.510433
1427152306.725,9.492542
1427152306.741,11.468658
1427152306.756,13.281319
1427152306.772,14.834438
1427152306.788,16.163567
1427152306.803,17.369438
1427152306.819,18.626839
1427152306.834,20.130756
1427152306.85,22.079556
1427152306.866,24.569386
1427152306.881,27.536194
1427152306.897,30.671509
1427152306.913,33.470222
1427152306.928,35.323
1427152306.944,35.711845
1427152306.96,34.36207
1427152306.975,31.32544
1427152306.991,26.936398
1427152307.006,21.714958
1427152307.022,16.208733
1427152307.038,10.904282
1427152307.053,6.1474953
1427152307.069,2.1413956
1427152307.085,-1.0727158
1427152307.1,-3.528553
1427152307.116,-5.3491707
1427152307.131,-6.659672
1427152307.147,-7.586624
1427152307.163,-8.245361
1427152307.178,-8.750515
1427152307.194,-9.205139
1427152307.21,-9.705948
1427152307.225,-10.319443
1427152307.241,-11.09713
1427152307.256,-12.036312
1427152307.272,-13.093735
1427152307.288,-14.1671295
1427152307.303,-15.129711
1427152307.319,-15.848663
1427152307.335,-16.270977
1427152307.35,-16.416737
1427152307.366,-16.417877
1427152307.381,-16.406696
1427152307.397,-16.47541
1427152307.413,-16.587826
1427152307.428,-16.607365
1427152307.444,-16.379333
1427152307.46,-15.832096
1427152307.475,-14.9988785
1427152307.491,-14.002705
1427152307.506,-12.961006
1427152307.522,-11.924412
1427152307.538,-10.844597
1427152307.553,-9.653622
1427152307.569,-8.298382
1427152307.585,-6.821121
1427152307.6,-5.3095436
1427152307.616,-3.885292
1427152307.631,-2.6321106
1427152307.647,-1.5607033
1427152307.663,-0.6322479
1427152307.678,0.22244263
1427152307.694,1.0997124
1427152307.71,2.065361
1427152307.725,3.1812325
1427152307.741,4.475712
1427152307.756,5.931698
1427152307.772,7.485012
1427152307.788,9.029228
1427152307.803,10.470428
1427152307.819,11.7940445
1427152307.835,13.09248
1427152307.85,14.586498
1427152307.866,16.51598
1427152307.881,19.064777
1427152307.897,22.17965
1427152307.913,25.53664
1427152307.928,28.580215
1427152307.944,30.682846
1427152307.96,31.332321
1427152307.975,30.25864
1427152307.991,27.51006
1427152308.006,23.39748
1427152308.022,18.42091
1427152308.038,13.14455
1427152308.053,8.10342
1427152308.069,3.6932487
1427152308.085,0.10461426
1427152308.1,-2.6767464
1427152308.116,-4.841118
1427152308.131,-6.6119843
1427152308.147,-8.164806
1427152308.163,-9.532684
1427152308.178,-10.673027
1427152308.194,-11.517689
1427152308.21,-12.090675
1427152308.225,-12.522614
1427152308.241,-13.002045
1427152308.256,-13.664989
1427152308.272,-14.524597
1427152308.288,-15.478069
1427152308.303,-16.378834
1427152308.319,-17.099014
1427152308.335,-17.602444
1427152308.35,-17.905224
1427152308.366,-18.071812
1427152308.381,-18.124554
1427152308.397,-18.05051
1427152308.413,-17.785816
1427152308.428,-17.28294
1427152308.444,-16.557507
1427152308.46,-15.707325
1427152308.475,-14.859146
1427152308.491,-14.096611
1427152308.506,-13.381733
1427152308.522,-12.576263
1427152308.538,-11.50959
1427152308.553,-10.1017
1427152308.569,-8.424469
1427152308.585,-6.6901474
1427152308.6,-5.1140594
1427152308.616,-3.827156
1427152308.631,-2.7966194
1427152308.647,-1.8925819
1427152308.663,-0.97029495
1427152308.678,0.033931732
1427152308.694,1.110466
1427152308.71,2.2574387
1427152308.725,3.5400772
1427152308.741,5.069401
1427152308.756,6.937748
1427152308.772,9.090336
1427152308.788,11.351559
1427152308.803,13.453636
1427152308.819,15.228184
1427152308.835,16.689217
1427152308.85,18.111729
1427152308.866,19.870571
1427152308.881,22.27789
1427152308.897,25.359112
1427152308.913,28.781342
1427152308.928,31.893875
1427152308.944,33.95657
1427152308.96,34.359097
1427152308.975,32.838844
1427152308.991,29.529083
1427152309.006,24.909027
1427152309.022,19.590572
1427152309.038,14.185047
1427152309.053,9.124611
1427152309.069,4.663883
1427152309.085,0.8602524
1427152309.1,-2.340828
1427152309.116,-5.071705
1427152309.131,-7.456234
1427152309.147,-9.570164
1427152309.163,-11.394215
1427152309.178,-12.8400345
1427152309.194,-13.825222
1427152309.21,-14.364742
1427152309.225,-14.595943
1427152309.241,-14.745743
1427152309.256,-15.01403
1427152309.272,-15.499844
1427152309.288,-16.146759
1427152309.303,-16.817219
1427152309.319,-17.381771
1427152309.335,-17.79739
1427152309.35,-18.094135
1427152309.366,-18.362362
1427152309.381,-18.644722
1427152309.397,-18.928421
1427152309.413,-19.13435
1427152309.428,-19.185581
1427152309.444,-19.027737
1427152309.46,-18.682236
1427152309.475,-18.199654
1427152309.491,-17.649551
1427152309.506,-17.073784
1427152309.522,-16.466293
1427152309.538,-15.782505
1427152309.553,-14.987862
1427152309.569,-14.055973
1427152309.585,-13.008274
1427152309.6,-11.916176
1427152309.616,-10.894352
1427152309.632,-10.029644
1427152309.647,-9.381886
1427152309.663,-8.912899
1427152309.678,-8.516579
1427152309.694,-8.031052
1427152309.71,-7.290291
1427152309.725,-6.184078
1427152309.741,-4.7240715
1427152309.757,-3.0413933
1427152309.772,-1.3563213
1427152309.788,0.1349945
1427152309.803,1.3213406
1427152309.819,2.2265034
1427152309.835,2.9468212
1427152309.85,3.621687
1427152309.866,4.3348866
1427152309.882,5.1480255
1427152309.897,6.1049175
1427152309.913,7.266693
1427152309.928,8.686615
1427152309.944,10.37698
1427152309.96,12.241978
1427152309.975,14.134151
1427152309.991,15.889086
1427152310.007,17.434425
1427152310.022,18.856518
1427152310.038,20.382973
1427152310.053,22.269817
1427152310.069,24.718235
1427152310.085,27.769936
1427152310.1,31.278078
1427152310.116,34.875664
1427152310.132,38.071213
1427152310.147,40.291588
1427152310.163,41.0457
1427152310.178,40.008324
1427152310.194,37.145355
1427152310.21,32.690155
1427152310.225,27.154541
1427152310.241,21.163822
1427152310.257,15.369154
1427152310.272,10.296563
1427152310.288,6.248022
1427152310.303,3.2392426
1427152310.319,1.0280991
1427152310.335,-0.791523
1427152310.35,-2.6383133
1427152310.366,-4.789509
1427152310.382,-7.2633305
1427152310.397,-9.859847
1427152310.413,-12.243242
1427152310.428,-14.136573
1427152310.444,-15.414319
1427152310.46,-16.160648
1427152310.475,-16.551136
1427152310.491,-16.790577
1427152310.507,-17.002583
1427152310.522,-17.236994
1427152310.538,-17.469624
1427152310.553,-17.700233
1427152310.569,-17.948986
1427152310.585,-18.256847
1427152310.6,-18.629784
1427152310.616,-19.024601
1427152310.632,-19.314507
1427152310.647,-19.358013
1427152310.663,-19.039116
1427152310.678,-18.346842
1427152310.694,-17.387688
1427152310.71,-16.343315
1427152310.725,-15.380135
1427152310.741,-14.619841
1427152310.757,-14.051511
1427152310.772,-13.611865
1427152310.788,-13.188996
1427152310.803,-12.694986
1427152310.819,-12.087214
1427152310.835,-11.346104
1427152310.85,-10.476991
1427152310.866,-9.496923
1427152310.882,-8.430672
1427152310.897,-7.338805
1427152310.913,-6.28785
1427152310.928,-5.341281
1427152310.944,-4.5042777
1427152310.96,-3.744421
1427152310.975,-2.974468
1427152310.991,-2.1253102
1427152311.007,-1.1644783
1427152311.022,-0.12960052
1427152311.038,0.931077
1427152311.053,1.9556079
1427152311.069,2.9188347
1427152311.085,3.8219209
1427152311.1,4.7080297
1427152311.116,5.624357
1427152311.132,6.639641
1427152311.147,7.792512
1427152311.163,9.08898
1427152311.178,10.477434
1427152311.194,11.88163
1427152311.21,13.249205
1427152311.225,14.61804
1427152311.241,16.09496
1427152311.257,17.833723
1427152311.272,19.962786
1427152311.288,22.528067
1427152311.303,25.441141
1427152311.319,28.505795
1427152311.335,31.408295
1427152311.35,33.7707
1427152311.366,35.17474
1427152311.382,35.262985
1427152311.397,33.81613
1427152311.413,30.859732
1427152311.428,26.666582
1427152311.444,21.722738
1427152311.46,16.583225
1427152311.475,11.736118
1427152311.491,7.499552
1427152311.507,3.9998245
1427152311.522,1.1981125
1427152311.538,-1.0236263
1427152311.553,-2.8080616
1427152311.569,-4.262743
1427152311.585,-5.4445667
1427152311.6,-6.363411
1427152311.616,-7.010933
1427152311.632,-7.389221
1427152311.647,-7.557476
1427152311.663,-7.6105576
1427152311.678,-7.693121
1427152311.694,-7.9151745
1427152311.71,-8.34276
1427152311.725,-8.932808
1427152311.741,-9.587225
1427152311.757,-10.153114
1427152311.772,-10.526651
1427152311.788,-10.64884
1427152311.803,-10.56811
1427152311.819,-10.415401
1427152311.835,-10.373372
1427152311.85,-10.628088
1427152311.866,-11.308924
1427152311.882,-12.441119
1427152311.897,-13.940377
1427152311.913,-15.575926
1427152311.928,-17.052607
1427152311.944,-18.05314
1427152311.96,-18.353031
1427152311.975,-17.925087
1427152311.991,-16.989216
1427152312.007,-15.926359
1427152312.022,-15.11784
1427152312.038,-14.728376
1427152312.053,-14.613743
1427152312.069,-14.369257
1427152312.085,-13.54616
1427152312.1,-11.87228
1427152312.116,-9.402891
1427152312.132,-6.4379787
1427152312.147,-3.380209
1427152312.163,-0.5209007
1427152312.178,1.982008
1427152312.194,4.1172733
1427152312.21,5.8548126
1427152312.225,7.129612
1427152312.241,7.8577595
1427152312.257,8.046709
1427152312.272,7.839752
1427152312.288,7.492796
1427152312.304,7.2573547
1427152312.319,7.2736626
1427152312.335,7.574707
1427152312.35,8.145063
1427152312.366,9.0096245
1427152312.382,10.286011
1427152312.397,12.111221
1427152312.413,14.528229
1427152312.429,17.363352
1427152312.444,20.236313
1427152312.46,22.619482
1427152312.475,24.044985
1427152312.491,24.215998
1427152312.507,23.106237
1427152312.522,20.9168
1427152312.538,17.98107
1427152312.554,14.644714
1427152312.569,11.21278
1427152312.585,7.9099655
1427152312.6,4.9097443
1427152312.616,2.325348
1427152312.632,0.19662666
1427152312.647,-1.5356941
1427152312.663,-2.9791126
1427152312.679,-4.276352
1427152312.694,-5.4924183
1427152312.71,-6.602854
1427152312.725,-7.507656
1427152312.741,-8.1271515
1427152312.757,-8.460773
1427152312.772,-8.607054
1427152312.788,-8.696363
1427152312.804,-8.844629
1427152312.819,-9.078505
1427152312.835,-9.396547
1427152312.85,-9.759592
1427152312.866,-10.15835
1427152312.882,-10.570398
1427152312.897,-10.966219
1427152312.913,-11.268448
1427152312.929,-11.412203
1427152312.944,-11.364227
1427152312.96,-11.167358
1427152312.975,-10.886423
1427152312.991,-10.571444
1427152313.007,-10.189022
1427152313.022,-9.674154
1427152313.038,-8.963341
1427152313.054,-8.062799
1427152313.069,-7.0374603
1427152313.085,-5.953434
1427152313.1,-4.8033333
1427152313.116,-3.5064812
1427152313.132,-1.9645538
1427152313.147,-0.18876266
1427152313.163,1.7033463
1427152313.179,3.482315
1427152313.194,4.9601555
1427152313.21,6.0686455
1427152313.225,6.923706
1427152313.241,7.7445793
1427152313.257,8.765121
1427152313.272,10.142197
1427152313.288,11.975857
1427152313.304,14.294685
1427152313.319,17.073853
1427152313.335,20.189022
1427152313.35,23.355358
1427152313.366,26.110157
1427152313.382,27.928867
1427152313.397,28.357697
1427152313.413,27.186165
1427152313.429,24.538563
1427152313.444,20.838005
1427152313.46,16.651638
1427152313.475,12.538296
1427152313.491,8.868515
1427152313.507,5.8135986
1427152313.522,3.3155212
1427152313.538,1.2175369
1427152313.554,-0.686306
1427152313.569,-2.534851
1427152313.585,-4.3871727
1427152313.6,-6.193142
1427152313.616,-7.8760605
1427152313.632,-9.331051
1427152313.647,-10.519579
1427152313.663,-11.446701
1427152313.679,-12.170546
1427152313.694,-12.764345
1427152313.71,-13.289906
1427152313.725,-13.775259
1427152313.741,-14.232628
1427152313.757,-14.672871
1427152313.772,-15.112799
1427152313.788,-15.554205
1427152313.804,-15.972637
1427152313.819,-16.291252
1427152313.835,-16.372442
1427152313.85,-16.065361
1427152313.866,-15.290865
1427152313.882,-14.082579
1427152313.897,-12.609083
1427152313.913,-11.12163
1427152313.929,-9.844061
1427152313.944,-8.88217
1427152313.96,-8.201202
1427152313.975,-7.63513
1427152313.991,-7.009598
1427152314.007,-6.1781883
1427152314.022,-5.120701
1427152314.038,-3.8767452
1427152314.054,-2.5522137
1427152314.069,-1.2263947
1427152314.085,0.03648758
1427152314.1,1.2495098
1427152314.116,2.4666176
1427152314.132,3.7700405
1427152314.147,5.2311363
1427152314.163,6.8770638
1427152314.179,8.649618
1427152314.194,10.442492
1427152314.21,12.106165
1427152314.225,13.548201
1427152314.241,14.761124
1427152314.257,15.873108
1427152314.272,17.107002
1427152314.288,18.734064
1427152314.304,20.961365
1427152314.319,23.833448
1427152314.335,27.149065
1427152314.35,30.476795
1427152314.366,33.218964
1427152314.382,34.772385
1427152314.397,34.697105
1427152314.413,32.834694
1427152314.429,29.347317
1427152314.444,24.677906
1427152314.46,19.394184
1427152314.475,14.082661
1427152314.491,9.198702
1427152314.507,5.0512733
1427152314.522,1.7248306
1427152314.538,-0.8505573
1427152314.554,-2.8659897
1427152314.569,-4.5320415
1427152314.585,-6.018406
1427152314.6,-7.3898067
1427152314.616,-8.652519
1427152314.632,-9.782671
1427152314.647,-10.802063
1427152314.663,-11.782909
1427152314.679,-12.826813
1427152314.694,-14.004707
1427152314.71,-15.328377
1427152314.725,-16.701488
1427152314.741,-17.993034
1427152314.757,-19.055885
1427152314.772,-19.810959
1427152314.788,-20.230122
1427152314.804,-20.352486
1427152314.819,-20.231972
1427152314.835,-19.933746
1427152314.85,-19.512274
1427152314.866,-19.029667
1427152314.882,-18.538427
1427152314.897,-18.098375
1427152314.913,-17.726633
1427152314.929,-17.3861
1427152314.944,-16.977308
1427152314.96,-16.370749
1427152314.976,-15.462067
1427152314.991,-14.2390175
1427152315.007,-12.782917
1427152315.022,-11.246979
1427152315.038,-9.767773
1427152315.054,-8.410117
1427152315.069,-7.131459
1427152315.085,-5.8567314
1427152315.1,-4.5049686
1427152315.116,-3.1007872
1427152315.132,-1.7001944
1427152315.147,-0.39172935
1427152315.163,0.78712463
1427152315.179,1.8831406
1427152315.194,3.0078468
1427152315.21,4.282243
1427152315.226,5.795844
1427152315.241,7.5730114
1427152315.257,9.567392
1427152315.272,11.671453
1427152315.288,13.757784
1427152315.304,15.695308
1427152315.319,17.416824
1427152315.335,18.928009
1427152315.351,20.370747
1427152315.366,21.94391
1427152315.382,23.895592
1427152315.397,26.342766
1427152315.413,29.242058
1427152315.429,32.299633
1427152315.444,35.04528
1427152315.46,36.910873
1427152315.476,37.422718
1427152315.491,36.284874
1427152315.507,33.47689
1427152315.522,29.254725
1427152315.538,24.107258
1427152315.554,18.616327
1427152315.569,13.337986
1427152315.585,8.645507
1427152315.601,4.7068224
1427152315.616,1.4533923
1427152315.632,-1.2885913
1427152315.647,-3.7326655
1427152315.663,-6.010958
1427152315.679,-8.179113
1427152315.694,-10.201576
1427152315.71,-12.043249
1427152315.726,-13.669052
1427152315.741,-15.093632
1427152315.757,-16.338709
1427152315.772,-17.432789
1427152315.788,-18.389593
1427152315.804,-19.235144
1427152315.819,-19.99212
1427152315.835,-20.704943
1427152315.851,-21.411041
1427152315.866,-22.148167
1427152315.882,-22.931591
1427152315.897,-23.760403
1427152315.913,-24.594759
1427152315.929,-25.342873
1427152315.944,-25.865566
1427152315.96,-26.022556
1427152315.976,-25.716385
1427152315.991,-24.968227
1427152316.007,-23.917559
1427152316.022,-22.805023
1427152316.038,-21.844328
1427152316.054,-21.15025
1427152316.069,-20.67292
1427152316.085,-20.229733
1427152316.101,-19.5992
1427152316.116,-18.656485
1427152316.132,-17.433306
1427152316.147,-16.134842
1427152316.163,-15.025994
1427152316.179,-14.3233795
1427152316.194,-14.084225
1427152316.21,-14.22122
1427152316.226,-14.501577
1427152316.241,-14.685612
1427152316.257,-14.583042
1427152316.272,-14.126456
1427152316.288,-13.367359
1427152316.304,-12.45587
1427152316.319,-11.544845
1427152316.335,-10.743956
1427152316.351,-10.05766
1427152316.366,-9.366785
1427152316.382,-8.495617
1427152316.397,-7.292697
1427152316.413,-5.7088375
1427152316.429,-3.8538418
1427152316.444,-1.9586811
1427152316.46,-0.30673409
1427152316.476,0.9092121
1427152316.491,1.661272
1427152316.507,2.1307774
1427152316.522,2.6203842
1427152316.538,3.4460773
1427152316.554,4.782448
1427152316.569,6.5886593
1427152316.585,8.626961
1427152316.601,10.586075
1427152316.616,12.19944
1427152316.632,13.286999
1427152316.647,13.71703
1427152316.663,13.276829
1427152316.679,11.634262
1427152316.694,8.498161
1427152316.71,3.8644104
1427152316.726,-1.7085915
1427152316.741,-7.116802
1427152316.757,-10.999382
1427152316.772,-12.295265
1427152316.788,-10.648178
1427152316.804,-6.4982033
1427152316.819,-0.75865936
1427152316.835,5.551544
1427152316.851,11.627777
1427152316.866,16.948372
1427152316.882,21.17115
1427152316.897,23.997734
1427152316.913,25.156952
1427152316.929,24.461517
1427152316.944,21.87825
1427152316.96,17.55349
1427152316.976,11.857513
1427152316.991,5.370163
1427152317.007,-1.1275635
1427152317.022,-6.834717
1427152317.038,-11.109924
1427152317.054,-13.67868
1427152317.069,-14.567261
1427152317.085,-13.832611
1427152317.101,-11.082634
1427152317.116,-5.468849
1427152317.132,3.796547
1427152317.147,16.50692
1427152317.163,30.909355
1427152317.179,43.997383
1427152317.194,52.7565
1427152317.21,55.789307
1427152317.226,54.228157
1427152317.241,51.28578
1427152317.257,50.607162
1427152317.272,54.33735
1427152317.288,62.01699
1427152317.304,70.80963
1427152317.319,77.00249
1427152317.335,77.75665
1427152317.351,72.250145
1427152317.366,61.569733
1427152317.382,47.66619
1427152317.397,31.958595
1427152317.413,14.556931
1427152317.429,-5.5011673
1427152317.444,-29.161278
1427152317.46,-56.06668
1427152317.476,-83.89861
1427152317.491,-108.92393
1427152317.507,-127.51528
1427152317.522,-137.94077
1427152317.538,-141.20361
1427152317.554,-140.33665
1427152317.569,-138.4201
1427152317.585,-136.60081
1427152317.601,-133.19748
1427152317.616,-124.71668
1427152317.632,-108.06341
1427152317.647,-82.732346
1427152317.663,-51.46592
1427152317.679,-19.232307
1427152317.694,8.758125
1427152317.71,28.809769
1427152317.726,39.504402
1427152317.741,41.295914
1427152317.757,35.599335
1427152317.772,24.085327
1427152317.788,8.512573
1427152317.804,-9.113663
1427152317.819,-26.449814
1427152317.835,-41.0623
1427152317.851,-50.763718
1427152317.866,-54.03012
1427152317.882,-50.125336
1427152317.898,-39.172623
1427152317.913,-22.174149
1427152317.929,-1.1061249
1427152317.944,21.160507
1427152317.96,41.267563
1427152317.976,56.18863
1427152317.991,64.150085
1427152318.007,65.242676
1427152318.023,61.334335
1427152318.038,55.42447
1427152318.054,50.606064
1427152318.069,49.13887
1427152318.085,51.88246
1427152318.101,58.369476
1427152318.116,67.14258
1427152318.132,76.36192
1427152318.148,84.30899
1427152318.163,89.75525
1427152318.179,92.11922
1427152318.194,91.39896
1427152318.21,87.972015
1427152318.226,82.31731
1427152318.241,74.79961
1427152318.257,65.56938
1427152318.273,54.680573
1427152318.288,42.42827
1427152318.304,29.691254
1427152318.319,18.134933
1427152318.335,9.87619
1427152318.351,6.7661896
1427152318.366,9.456085
1427152318.382,16.881409
1427152318.398,26.51178
1427152318.413,35.440063
1427152318.429,41.68245
1427152318.444,44.96779
1427152318.46,46.51735
1427152318.476,48.007706
1427152318.491,50.575302
1427152318.507,54.357925
1427152318.523,58.850876
1427152318.538,63.77736
1427152318.554,69.56587
1427152318.569,76.89407
1427152318.585,85.426346
1427152318.601,93.0002
1427152318.616,95.940384
1427152318.632,90.77887
1427152318.648,76.31027
1427152318.663,54.68535
1427152318.679,30.559174
1427152318.694,8.863983
1427152318.71,-7.5477676
1427152318.726,-18.911034
1427152318.741,-27.64376
1427152318.757,-36.17816
1427152318.773,-45.059174
1427152318.788,-52.518288
1427152318.804,-55.72191
1427152318.819,-52.886505
1427152318.835,-44.78631
1427152318.851,-34.66252
1427152318.866,-26.555908
1427152318.882,-23.102356
1427152318.898,-24.227924
1427152318.913,-27.40646
1427152318.929,-29.428986
1427152318.944,-28.289555
1427152318.96,-24.270817
1427152318.976,-19.514668
1427152318.991,-16.371847
1427152319.007,-15.737387
1427152319.023,-16.522415
1427152319.038,-16.57526
1427152319.054,-14.406403
1427152319.069,-10.490858
1427152319.085,-7.2812204
1427152319.101,-7.8604374
1427152319.116,-14.10415
1427152319.132,-25.443115
1427152319.148,-39.023502
1427152319.163,-50.930984
1427152319.179,-57.953117
1427152319.194,-58.734573
1427152319.21,-54.04222
1427152319.226,-46.149525
1427152319.241,-37.89302
1427152319.257,-31.696987
1427152319.273,-28.945686
1427152319.288,-29.798397
1427152319.304,-33.41848
1427152319.319,-38.491825
1427152319.335,-43.81022
1427152319.351,-48.64178
1427152319.366,-52.766148
1427152319.382,-56.219368
1427152319.398,-58.988056
1427152319.413,-60.78383
1427152319.429,-61.22823
1427152319.444,-60.107582
1427152319.46,-57.625572
1427152319.476,-54.31494
1427152319.491,-50.77214
1427152319.507,-47.324738
1427152319.523,-43.92379
1427152319.538,-40.26467
1427152319.554,-36.02581
1427152319.569,-31.03637
1427152319.585,-25.311157
1427152319.601,-18.96811
1427152319.616,-12.219276
1427152319.632,-5.3478317
1427152319.648,1.2267227
1427152319.663,7.017067
1427152319.679,11.5967865
1427152319.694,14.830345
1427152319.71,16.9609
1427152319.726,18.593353
1427152319.741,20.418694
1427152319.757,22.936798
1427152319.773,26.25225
1427152319.788,30.09056
1427152319.804,33.901634
1427152319.819,37.10783
1427152319.835,39.217823
1427152319.851,39.901615
1427152319.866,38.972477
1427152319.882,36.41725
1427152319.898,32.423725
1427152319.913,27.445023
1427152319.929,22.145287
1427152319.944,17.234455
1427152319.96,13.163773
1427152319.976,9.925621
1427152319.991,7.001507
1427152320.007,3.660202
1427152320.023,-0.64169693
1427152320.038,-5.9105263
1427152320.054,-11.592709
1427152320.069,-16.828629
1427152320.085,-20.915615
1427152320.101,-23.62722
1427152320.116,-25.264484
1427152320.132,-26.36821
1427152320.148,-27.377415
1427152320.163,-28.381157
1427152320.179,-29.186573
1427152320.194,-29.549656
1427152320.21,-29.487614
1427152320.226,-29.359928
1427152320.241,-29.768108
1427152320.257,-31.197899
1427152320.273,-33.77725
1427152320.288,-37.17633
1427152320.304,-40.847893
1427152320.319,-44.30961
1427152320.335,-47.44374
1427152320.351,-50.445267
1427152320.366,-53.586838
1427152320.382,-56.84817
1427152320.398,-59.724735
1427152320.413,-61.296036
1427152320.429,-60.602703
1427152320.444,-57.105263
1427152320.46,-50.96461
1427152320.476,-42.961277
1427152320.491,-34.197098
1427152320.507,-25.642363
1427152320.523,-17.938444
1427152320.538,-11.334248
1427152320.554,-5.8880215
1427152320.57,-1.5755272
1427152320.585,1.6368103
1427152320.601,3.902769
1427152320.616,5.525242
1427152320.632,6.9775543
1427152320.648,8.742935
1427152320.663,11.180332
1427152320.679,14.378124
1427152320.695,18.153572
1427152320.71,22.18032
1427152320.726,26.109444
1427152320.741,29.680473
1427152320.757,32.75679
1427152320.773,35.280525
1427152320.788,37.25849
1427152320.804,38.72457
1427152320.82,39.808525
1427152320.835,40.711525
1427152320.851,41.740685
1427152320.866,43.134247
1427152320.882,44.988136
1427152320.898,47.08539
1427152320.913,48.954834
1427152320.929,49.9737
1427152320.945,49.61136
1427152320.96,47.60453
1427152320.976,44.06807
1427152320.991,39.43142
1427152321.007,34.288124
1427152321.023,29.19416
1427152321.038,24.572868
1427152321.054,20.633987
1427152321.07,17.431747
1427152321.085,14.842392
1427152321.101,12.696381
1427152321.116,10.777313
1427152321.132,8.960648
1427152321.148,7.2113495
1427152321.163,5.6312866
1427152321.179,4.352783
1427152321.195,3.477295
1427152321.21,2.9831696
1427152321.226,2.7393494
1427152321.241,2.560791
1427152321.257,2.2770233
1427152321.273,1.7925568
1427152321.288,1.0890045
1427152321.304,0.19242859
1427152321.32,-0.8516693
1427152321.335,-1.983902
1427152321.351,-3.0788422
1427152321.366,-3.981186
1427152321.382,-4.5119934
1427152321.398,-4.5914154
1427152321.413,-4.224533
1427152321.429,-3.5594635
1427152321.445,-2.764267
1427152321.46,-1.9731445
1427152321.476,-1.2229767
1427152321.491,-0.45985413
1427152321.507,0.39872742
1427152321.523,1.3816376
1427152321.538,2.4289856
1427152321.554,3.4105225
1427152321.57,4.183609
1427152321.585,4.6500244
1427152321.601,4.8354797
1427152321.616,4.848709
1427152321.632,4.888855
1427152321.648,5.1155396
1427152321.663,5.6435547
1427152321.679,6.445114
1427152321.695,7.4119263
1427152321.71,8.382553
1427152321.726,9.245422
1427152321.741,9.997131
1427152321.757,10.724457
1427152321.773,11.591858
1427152321.788,12.750916
1427152321.804,14.289413
1427152321.82,16.216568
1427152321.835,18.441193
1427152321.851,20.795242
1427152321.866,22.999634
1427152321.882,24.711243
1427152321.898,25.522736
1427152321.913,25.120377
1427152321.929,23.332123
1427152321.945,20.272232
1427152321.96,16.310745
1427152321.976,11.999802
1427152321.991,7.905716
1427152322.007,4.4441986
1427152322.023,1.7706604
1427152322.038,-0.18008423
1427152322.054,-1.6341095
1427152322.07,-2.8096924
1427152322.085,-3.8589478
1427152322.101,-4.807434
1427152322.116,-5.638138
1427152322.132,-6.3126984
1427152322.148,-6.8314514
1427152322.163,-7.1752625
1427152322.179,-7.34848
1427152322.195,-7.356949
1427152322.21,-7.2799225
1427152322.226,-7.2602997
1427152322.241,-7.494766
1427152322.257,-8.135666
1427152322.273,-9.1918335
1427152322.288,-10.48465
1427152322.304,-11.734299
1427152322.32,-12.649353
1427152322.335,-13.101044
1427152322.351,-13.121521
1427152322.366,-12.86235
1427152322.382,-12.467087
1427152322.398,-12.031342
1427152322.413,-11.552322
1427152322.429,-11.04744
1427152322.445,-10.551498
1427152322.46,-10.131454
1427152322.476,-9.816879
1427152322.491,-9.557144
1427152322.507,-9.212311
1427152322.523,-8.627045
1427152322.538,-7.6674194
1427152322.554,-6.3148346
1427152322.57,-4.656311
1427152322.585,-2.8683167
1427152322.601,-1.155426
1427152322.616,0.33644104
1427152322.632,1.5427856
1427152322.648,2.5075073
1427152322.663,3.3364563
1427152322.679,4.154999
1427152322.695,5.054657
1427152322.71,6.0736847
1427152322.726,7.223755
1427152322.741,8.481186
1427152322.757,9.813232
1427152322.773,11.169876
1427152322.788,12.493332
1427152322.804,13.755127
1427152322.82,15.012207
1427152322.835,16.395615
1427152322.851,18.052094
1427152322.866,20.04126
1427152322.882,22.209244
1427152322.898,24.177307
1427152322.913,25.449661
1427152322.929,25.626953
1427152322.945,24.567139
1427152322.96,22.42131
1427152322.976,19.550354
1427152322.991,16.343826
1427152323.007,13.083923
1427152323.023,9.908379
1427152323.038,6.86586
1427152323.054,4.0109253
1427152323.07,1.4403992
1427152323.085,-0.7240372
1427152323.101,-2.409958
1427152323.116,-3.6284409
1427152323.132,-4.490555
1427152323.148,-5.143875
1427152323.163,-5.716942
1427152323.179,-6.281494
1427152323.195,-6.875725
1427152323.21,-7.4988785
1427152323.226,-8.179459
1427152323.242,-8.944092
1427152323.257,-9.811768
1427152323.273,-10.714027
1427152323.288,-11.56189
1427152323.304,-12.255264
1427152323.32,-12.752449
1427152323.335,-13.093742
1427152323.351,-13.375862
1427152323.367,-13.654694
1427152323.382,-13.915993
1427152323.398,-14.040253
1427152323.413,-13.909103
1427152323.429,-13.476349
1427152323.445,-12.808311
1427152323.46,-12.038055
1427152323.476,-11.295761
1427152323.492,-10.599663
1427152323.507,-9.885048
1427152323.523,-9.032494
1427152323.538,-7.9652863
1427152323.554,-6.6900024
1427152323.57,-5.2976456
1427152323.585,-3.8897018
1427152323.601,-2.5837936
1427152323.617,-1.4501572
1427152323.632,-0.5475006
1427152323.648,0.10722351
1427152323.663,0.5616989
1427152323.679,0.96165466
1427152323.695,1.5032043
1427152323.71,2.3755035
1427152323.726,3.6600647
1427152323.742,5.2887344
1427152323.757,7.044838
1427152323.773,8.702454
1427152323.788,10.08699
1427152323.804,11.178001
1427152323.82,12.097023
1427152323.835,13.067314
1427152323.851,14.310677
1427152323.867,15.998711
1427152323.882,18.13816
1427152323.898,20.565865
1427152323.913,22.930923
1427152323.929,24.786438
1427152323.945,25.702797
1427152323.96,25.435036
1427152323.976,23.972351
1427152323.992,21.557816
1427152324.007,18.542023
1427152324.023,15.279572
1427152324.038,12.00322
1427152324.054,8.839767
1427152324.07,5.8265686
1427152324.085,2.9957504
1427152324.101,0.3748474
1427152324.117,-1.990509
1427152324.132,-4.0831604
1427152324.148,-5.9095154
1427152324.163,-7.4998436
1427152324.179,-8.870575
1427152324.195,-10.050262
1427152324.21,-11.027733
1427152324.226,-11.80283
1427152324.242,-12.376995
1427152324.257,-12.76815
1427152324.273,-13.00436
1427152324.288,-13.156166
1427152324.304,-13.296833
1427152324.32,-13.532856
1427152324.335,-13.931519
1427152324.351,-14.551476
1427152324.367,-15.375015
1427152324.382,-16.36097
1427152324.398,-17.412617
1427152324.413,-18.395302
1427152324.429,-19.152939
1427152324.445,-19.536251
1427152324.46,-19.458664
1427152324.476,-18.941303
1427152324.492,-18.065075
1427152324.507,-16.938892
1427152324.523,-15.591057
1427152324.538,-14.035213
1427152324.554,-12.282188
1427152324.57,-10.482712
1427152324.585,-8.873169
1427152324.601,-7.7324715
1427152324.617,-7.1737633
1427152324.632,-7.075466
1427152324.648,-7.0852966
1427152324.663,-6.7822876
1427152324.679,-5.8778
1427152324.695,-4.353359
1427152324.71,-2.433628
1427152324.726,-0.43850708
1427152324.742,1.3827362
1427152324.757,2.952839
1427152324.773,4.358673
1427152324.788,5.7298164
1427152324.804,7.1687775
1427152324.82,8.652222
1427152324.835,10.103153
1427152324.851,11.42757
1427152324.867,12.635349
1427152324.882,13.839943
1427152324.898,15.243256
1427152324.913,16.991938
1427152324.929,19.051651
1427152324.945,21.153566
1427152324.96,22.875532
1427152324.976,23.787622
1427152324.992,23.657166
1427152325.007,22.47328
1427152325.023,20.436771
1427152325.038,17.803295
1427152325.054,14.822115
1427152325.07,11.635744
1427152325.085,8.384184
1427152325.101,5.2094364
1427152325.117,2.2923813
1427152325.132,-0.18163681
1427152325.148,-2.103115
1427152325.163,-3.4664726
1427152325.179,-4.374218
1427152325.195,-4.973692
1427152325.21,-5.404768
1427152325.226,-5.766388
1427152325.242,-6.0936203
1427152325.257,-6.4081287
1427152325.273,-6.6995697
1427152325.288,-6.9861507
1427152325.304,-7.2937927
1427152325.32,-7.689314
1427152325.335,-8.231718
1427152325.351,-8.95628
1427152325.367,-9.8191805
1427152325.382,-10.725978
1427152325.398,-11.547401
1427152325.413,-12.171562
1427152325.429,-12.548742
1427152325.445,-12.692209
1427152325.46,-12.640778
1427152325.476,-12.455966
1427152325.492,-12.1649685
1427152325.507,-11.799334
1427152325.523,-11.358981
1427152325.538,-10.843783
1427152325.554,-10.213203
1427152325.57,-9.43031
1427152325.585,-8.418685
1427152325.601,-7.1520715
1427152325.617,-5.6521626
1427152325.632,-4.0177064
1427152325.648,-2.395145
1427152325.663,-0.9190948
1427152325.679,0.35775438
1427152325.695,1.4785012
1427152325.71,2.5878682
1427152325.726,3.811198
1427152325.742,5.226129
1427152325.757,6.7924595
1427152325.773,8.3996315
1427152325.788,9.936928
1427152325.804,11.381098
1427152325.82,12.803719
1427152325.835,14.354227
1427152325.851,16.145512
1427152325.867,18.17865
1427152325.882,20.25681
1427152325.898,22.028149
1427152325.914,23.068815
1427152325.929,23.040934
1427152325.945,21.78712
1427152325.96,19.41473
1427152325.976,16.233734
1427152325.992,12.686709
1427152326.007,9.17693
1427152326.023,6.0232506
1427152326.038,3.4034138
1427152326.054,1.3679047
1427152326.07,-0.14910698
1427152326.085,-1.2737617
1427152326.101,-2.237728
1427152326.117,-3.3036537
1427152326.132,-4.7111645
1427152326.148,-6.5788155
1427152326.164,-8.8285675
1427152326.179,-11.21632
1427152326.195,-13.446774
1427152326.21,-15.269087
1427152326.226,-16.594591
1427152326.242,-17.45938
1427152326.257,-17.967686
1427152326.273,-18.187214
1427152326.289,-18.131529
1427152326.304,-17.778673
1427152326.32,-17.147478
1427152326.335,-16.348299
1427152326.351,-15.551098
1427152326.367,-14.917912
1427152326.382,-14.516636
1427152326.398,-14.2714615
1427152326.414,-13.991856
1427152326.429,-13.474564
1427152326.445,-12.62999
1427152326.46,-11.514854
1427152326.476,-10.335197
1427152326.492,-9.26334
1427152326.507,-8.394447
1427152326.523,-7.647442
1427152326.539,-6.8655663
1427152326.554,-5.9150314
1427152326.57,-4.7863235
1427152326.585,-3.580143
1427152326.601,-2.4641304
1427152326.617,-1.5218086
1427152326.632,-0.7362404
1427152326.648,0.010349274
1427152326.664,0.8657379
1427152326.679,1.9139748
1427152326.695,3.1274986
1427152326.71,4.409031
1427152326.726,5.635376
1427152326.742,6.749935
1427152326.757,7.754303
1427152326.773,8.754131
1427152326.789,9.877911
1427152326.804,11.256939
1427152326.82,12.968578
1427152326.835,15.032127
1427152326.851,17.38575
1427152326.867,19.907036
1427152326.882,22.381306
1427152326.898,24.506737
1427152326.914,25.923199
1427152326.929,26.293495
1427152326.945,25.401012
1427152326.96,23.271366
1427152326.976,20.167511
1427152326.992,16.540405
1427152327.007,12.859474
1427152327.023,9.4966545
1427152327.039,6.608288
1427152327.054,4.1650925
1427152327.07,2.0166206
1427152327.085,0.0061569214
1427152327.101,-1.9539871
1427152327.117,-3.8292465
1427152327.132,-5.523979
1427152327.148,-6.915554
1427152327.164,-7.960285
1427152327.179,-8.685257
1427152327.195,-9.18964
1427152327.21,-9.578316
1427152327.226,-9.9115715
1427152327.242,-10.193356
1427152327.257,-10.421879
1427152327.273,-10.631725
1427152327.289,-10.927746
1427152327.304,-11.450775
1427152327.32,-12.28817
1427152327.335,-13.373447
1427152327.351,-14.508675
1427152327.367,-15.398994
1427152327.382,-15.818363
1427152327.398,-15.683201
1427152327.414,-15.086613
1427152327.429,-14.222343
1427152327.445,-13.285702
1427152327.46,-12.387836
1427152327.476,-11.565289
1427152327.492,-10.815739
1427152327.507,-10.152641
1427152327.523,-9.609253
1427152327.539,-9.223984
1427152327.554,-8.972717
1427152327.57,-8.763084
1427152327.585,-8.443939
1427152327.601,-7.900017
1427152327.617,-7.105713
1427152327.632,-6.166641
1427152327.648,-5.213524
1427152327.664,-4.345787
1427152327.679,-3.5646362
1427152327.695,-2.7859344
1427152327.71,-1.9142761
1427152327.726,-0.93603516
1427152327.742,0.08174133
1427152327.757,1.008667
1427152327.773,1.7545547
1427152327.789,2.3311157
1427152327.804,2.8396988
1427152327.82,3.4039764
1427152327.835,4.1023407
1427152327.851,4.893593
1427152327.867,5.661751
1427152327.882,6.2756653
1427152327.898,6.675377
1427152327.914,6.938774
1427152327.929,7.2560425
1427152327.945,7.878235
1427152327.96,9.03801
1427152327.976,10.865959
1427152327.992,13.343254
1427152328.007,16.27214
1427152328.023,19.30597
1427152328.039,22.00383
1427152328.054,23.953941
1427152328.07,24.845451
1427152328.085,24.574242
1427152328.101,23.234802
1427152328.117,21.094696
1427152328.132,18.46859
1427152328.148,15.652779
1427152328.164,12.854843
1427152328.179,10.199791
1427152328.195,7.7288513
1427152328.21,5.4459534
1427152328.226,3.3352737
1427152328.242,1.3755722
1427152328.257,-0.44368744
1427152328.273,-2.1032944
1427152328.289,-3.5575867
1427152328.304,-4.7466583
1427152328.32,-5.648056
1427152328.335,-6.293846
1427152328.351,-6.790245
1427152328.367,-7.253769
1427152328.382,-7.7875824
1427152328.398,-8.409172
1427152328.414,-9.085602
1427152328.429,-9.76162
1427152328.445,-10.41185
1427152328.46,-11.037704
1427152328.476,-11.650291
1427152328.492,-12.195717
1427152328.507,-12.569443
1427152328.523,-12.650795
1427152328.539,-12.390831
1427152328.554,-11.861855
1427152328.57,-11.253609
1427152328.585,-10.774277
1427152328.601,-10.539902
1427152328.617,-10.506996
1427152328.632,-10.490395
1427152328.648,-10.257294
1427152328.664,-9.66452
1427152328.679,-8.721306
1427152328.695,-7.5945206
1427152328.71,-6.4957886
1427152328.726,-5.576706
1427152328.742,-4.8538055
1427152328.757,-4.2332
1427152328.773,-3.5764313
1427152328.789,-2.7788696
1427152328.804,-1.8400879
1427152328.82,-0.8633728
1427152328.836,-0.003967285
1427152328.851,0.57553864
1427152328.867,0.7808914
1427152328.882,0.5971832
1427152328.898,0.11784363
1427152328.914,-0.4874344
1427152328.929,-1.0127792
1427152328.945,-1.2719803
1427152328.961,-1.1224365
1427152328.976,-0.5109253
1427152328.992,0.55229187
1427152329.007,2.00428
1427152329.023,3.7643127
1427152329.039,5.7356796
1427152329.054,7.823639
1427152329.07,9.946945
1427152329.086,12.0420685
1427152329.101,14.049713
1427152329.117,15.905357
1427152329.132,17.47464
1427152329.148,18.541336
1427152329.164,18.844437
1427152329.179,18.181381
1427152329.195,16.50692
1427152329.211,14.007912
1427152329.226,11.02639
1427152329.242,7.986847
1427152329.257,5.2092667
1427152329.273,2.8553238
1427152329.289,0.9252472
1427152329.304,-0.6575928
1427152329.32,-1.969429
1427152329.336,-3.0355988
1427152329.351,-3.855217
1427152329.367,-4.45977
1427152329.382,-4.9518433
1427152329.398,-5.480095
1427152329.414,-6.1825333
1427152329.429,-7.088089
1427152329.445,-8.109451
1427152329.461,-9.063133
1427152329.476,-9.758881
1427152329.492,-10.11396
1427152329.507,-10.202736
1427152329.523,-10.189781
1427152329.539,-10.264107
1427152329.554,-10.525574
1427152329.57,-10.910873
1427152329.586,-11.223465
1427152329.601,-11.280579
1427152329.617,-10.982231
1427152329.632,-10.406372
1427152329.648,-9.720329
1427152329.664,-9.104736
1427152329.679,-8.61956
1427152329.695,-8.228279
1427152329.711,-7.7823944
1427152329.726,-7.1844864
1427152329.742,-6.410492
1427152329.757,-5.5570755
1427152329.773,-4.7436905
1427152329.789,-4.0807953
1427152329.804,-3.5562057
1427152329.82,-3.0543365
1427152329.836,-2.4144363
1427152329.851,-1.4939957
1427152329.867,-0.24038696
1427152329.882,1.2767334
1427152329.898,2.9147644
1427152329.914,4.506035
1427152329.929,5.9372177
1427152329.945,7.176941
1427152329.961,8.285118
1427152329.976,9.361244
1427152329.992,10.51783
1427152330.007,11.80925
1427152330.023,13.288773
1427152330.039,14.971748
1427152330.054,16.84166
1427152330.07,18.780525
1427152330.086,20.552979
1427152330.101,21.780998
1427152330.117,22.069427
1427152330.132,21.12429
1427152330.148,18.900665
1427152330.164,15.637405
1427152330.179,11.802284
1427152330.195,7.9043503
1427152330.211,4.344208
1427152330.226,1.317131
1427152330.242,-1.1555481
1427152330.257,-3.1434479
1427152330.273,-4.708046
1427152330.289,-5.8820953
1427152330.304,-6.666893
1427152330.32,-7.1006927
1427152330.336,-7.278984
1427152330.351,-7.365036
1427152330.367,-7.533333
1427152330.382,-7.9353104
1427152330.398,-8.621712
1427152330.414,-9.537445
1427152330.429,-10.523376
1427152330.445,-11.403648
1427152330.461,-12.065315
1427152330.476,-12.501541
1427152330.492,-12.804878
1427152330.507,-13.110718
1427152330.523,-13.483055
1427152330.539,-13.876801
1427152330.554,-14.167961
1427152330.57,-14.235657
1427152330.586,-14.058914
1427152330.601,-13.728691
1427152330.617,-13.375175
1427152330.632,-13.091736
1427152330.648,-12.867966
1427152330.664,-12.629982
1427152330.679,-12.286484
1427152330.695,-11.820953
1427152330.711,-11.282082
1427152330.726,-10.768707
1427152330.742,-10.355392
1427152330.757,-10.031044
1427152330.773,-9.725548
1427152330.789,-9.3546295
1427152330.804,-8.885002
1427152330.82,-8.36161
1427152330.836,-7.911598
1427152330.851,-7.684723
1427152330.867,-7.7554092
1427152330.882,-8.101868
1427152330.898,-8.613869
1427152330.914,-9.150101
1427152330.929,-9.606697
1427152330.945,-9.991959
1427152330.961,-10.402847
1427152330.976,-10.980026
1427152330.992,-11.858429
1427152331.007,-13.170692
1427152331.023,-15.055489
1427152331.039,-17.697777
1427152331.054,-21.258064
1427152331.07,-25.821152
1427152331.086,-31.240486
1427152331.101,-37.10402
1427152331.117,-42.707092
1427152331.132,-47.1882
1427152331.148,-49.627518
1427152331.164,-49.203514
1427152331.179,-45.304176
1427152331.195,-37.677925
1427152331.211,-26.559814
1427152331.226,-12.729187
1427152331.242,2.612175
1427152331.257,18.096313
1427152331.273,32.55259
1427152331.289,45.269127
1427152331.304,56.12522
1427152331.32,65.475624
1427152331.336,73.96219
1427152331.351,82.19046
1427152331.367,90.50786
1427152331.382,98.8241
1427152331.398,106.57977
1427152331.414,112.83099
1427152331.429,116.47786
1427152331.445,116.563
1427152331.461,112.54724
1427152331.476,104.46295
1427152331.492,92.889694
1427152331.508,78.74984
1427152331.523,63.05694
1427152331.539,46.71444
1427152331.554,30.46022
1427152331.57,14.869408
1427152331.586,0.45283508
1427152331.601,-12.338417
1427152331.617,-23.08783
1427152331.633,-31.459778
1427152331.648,-37.2045
1427152331.664,-40.26809
1427152331.679,-40.859955
1427152331.695,-39.521942
1427152331.711,-37.072952
1427152331.726,-34.40502
1427152331.742,-32.19024
1427152331.758,-30.629005
1427152331.773,-29.4151
1427152331.789,-27.952934
1427152331.804,-25.75573
1427152331.82,-22.787369
1427152331.836,-19.488716
1427152331.851,-16.58532
1427152331.867,-14.669258
1427152331.883,-13.923477
1427152331.898,-14.032646
1427152331.914,-14.412544
1427152331.929,-14.523598
1427152331.945,-14.146706
1427152331.961,-13.440659
1427152331.976,-12.754669
1427152331.992,-12.34449
1427152332.008,-12.196518
1427152332.023,-12.008423
1427152332.039,-11.416893
1427152332.054,-10.204025
1427152332.07,-8.477379
1427152332.086,-6.598671
1427152332.101,-4.996353
1427152332.117,-3.9141464
1427152332.133,-3.367012
1427152332.148,-3.168274
1427152332.164,-3.1541672
1427152332.179,-3.295372
1427152332.195,-3.7464676
1427152332.211,-4.6859283
1427152332.226,-6.17572
1427152332.242,-8.079941
1427152332.258,-10.116669
1427152332.273,-11.970932
1427152332.289,-13.392548
1427152332.304,-14.220581
1427152332.32,-14.377029
1427152332.336,-13.86351
1427152332.351,-12.759033
1427152332.367,-11.235748
1427152332.383,-9.522537
1427152332.398,-7.7980347
1427152332.414,-6.156967
1427152332.429,-4.5700836
1427152332.445,-2.9733734
1427152332.461,-1.3342133
1427152332.476,0.27552795
1427152332.492,1.7351532
1427152332.508,2.8928528
1427152332.523,3.6326447
1427152332.539,3.8734283
1427152332.554,3.5458221
1427152332.57,2.5619202
1427152332.586,0.87197876
1427152332.601,-1.5045776
1427152332.617,-4.408539
1427152332.633,-7.578392
1427152332.648,-10.6996155
1427152332.664,-13.485619
1427152332.679,-15.708664
1427152332.695,-17.22696
1427152332.711,-17.956505
1427152332.726,-17.87587
1427152332.742,-17.041138
1427152332.758,-15.5961
1427152332.773,-13.740295
1427152332.789,-11.73204
1427152332.804,-9.783485
1427152332.82,-8.042152
1427152332.836,-6.5407257
1427152332.851,-5.23349
1427152332.867,-4.012436
1427152332.883,-2.7836914
1427152332.898,-1.4851608
1427152332.914,-0.10322571
1427152332.929,1.3396683
1427152332.945,2.789795
1427152332.961,4.1963882
1427152332.976,5.5043716
1427152332.992,6.6659546
1427152333.008,7.6494217
1427152333.023,8.444756
1427152333.039,9.09317
1427152333.054,9.707634
1427152333.07,10.447937
1427152333.086,11.480827
1427152333.101,12.857925
1427152333.117,14.506371
1427152333.133,16.205978
1427152333.148,17.72686
1427152333.164,18.892677
1427152333.179,19.711708
1427152333.195,20.351006
1427152333.211,21.070587
1427152333.226,22.107704
1427152333.242,23.568207
1427152333.258,25.344772
1427152333.273,27.169083
1427152333.289,28.646484
1427152333.304,29.373848
1427152333.32,29.016045
1427152333.336,27.411781
1427152333.351,24.57959
1427152333.367,20.757927
1427152333.383,16.3023
1427152333.398,11.638947
1427152333.414,7.137123
1427152333.429,3.0947266
1427152333.445,-0.31969452
1427152333.461,-3.0270844
1427152333.476,-5.040329
1427152333.492,-6.437935
1427152333.508,-7.3670883
1427152333.523,-7.999626
1427152333.539,-8.508621
1427152333.554,-9.015205
1427152333.57,-9.600899
1427152333.586,-10.266159
1427152333.601,-10.984253
1427152333.617,-11.711037
1427152333.633,-12.442345
1427152333.648,-13.178452
1427152333.664,-13.956474
1427152333.679,-14.794464
1427152333.695,-15.68895
1427152333.711,-16.566414
1427152333.726,-17.340668
1427152333.742,-17.8872
1427152333.758,-18.108528
1427152333.773,-17.93
1427152333.789,-17.3312
1427152333.804,-16.344475
1427152333.82,-15.0739975
1427152333.836,-13.667664
1427152333.851,-12.304474
1427152333.867,-11.096886
1427152333.883,-10.105888
1427152333.898,-9.255402
1427152333.914,-8.4170685
1427152333.929,-7.448288
1427152333.945,-6.284981
1427152333.961,-4.9554367
1427152333.976,-3.5805588
1427152333.992,-2.2997513
1427152334.008,-1.2283936
1427152334.023,-0.390419
1427152334.039,0.2703476
1427152334.054,0.8891754
1427152334.07,1.6188431
1427152334.086,2.589508
1427152334.101,3.866249
1427152334.117,5.4092255
1427152334.133,7.076355
1427152334.148,8.6881485
1427152334.164,10.07502
1427152334.18,11.180656
1427152334.195,12.086182
1427152334.211,12.974953
1427152334.226,14.066353
1427152334.242,15.510948
1427152334.258,17.286049
1427152334.273,19.199104
1427152334.289,20.902458
1427152334.305,22.005516
1427152334.32,22.15281
1427152334.336,21.152802
1427152334.351,18.996635
1427152334.367,15.873718
1427152334.383,12.102814
1427152334.398,8.0718155
1427152334.414,4.1700134
1427152334.43,0.72680664
1427152334.445,-2.0647125
1427152334.461,-4.1545258
1427152334.476,-5.657257
1427152334.492,-6.790451
1427152334.508,-7.7838974
1427152334.523,-8.769951
1427152334.539,-9.741943
1427152334.555,-10.568115
1427152334.57,-11.110474
1427152334.586,-11.298279
1427152334.601,-11.188736
1427152334.617,-10.955124
1427152334.633,-10.797531
1427152334.648,-10.858307
1427152334.664,-11.22258
1427152334.68,-11.900528
1427152334.695,-12.867195
1427152334.711,-14.046913
1427152334.726,-15.30394
1427152334.742,-16.436653
1427152334.758,-17.249222
1427152334.773,-17.58348
1427152334.789,-17.404007
1427152334.805,-16.815865
1427152334.82,-15.997383
1427152334.836,-15.109673
1427152334.851,-14.242836
1427152334.867,-13.3997345
1427152334.883,-12.530739
1427152334.898,-11.585358
1427152334.914,-10.547333
1427152334.93,-9.42363
1427152334.945,-8.264915
1427152334.961,-7.112221
1427152334.976,-6.044235
1427152334.992,-5.1277847
1427152335.008,-4.4125977
1427152335.023,-3.881874
1427152335.039,-3.4733276
1427152335.055,-3.073372
1427152335.07,-2.5972672
1427152335.086,-1.9882126
1427152335.101,-1.2337723
1427152335.117,-0.33709717
1427152335.133,0.6900253
1427152335.148,1.884964
1427152335.164,3.26223
1427152335.18,4.8142014
1427152335.195,6.462166
1427152335.211,8.076065
1427152335.226,9.483406
1427152335.242,10.588554
1427152335.258,11.374878
1427152335.273,11.988907
1427152335.289,12.675438
1427152335.305,13.700951
1427152335.32,15.236687
1427152335.336,17.279373
1427152335.351,19.62323
1427152335.367,21.924782
1427152335.383,23.785507
1427152335.398,24.886497
1427152335.414,25.022636
1427152335.43,24.174255
1427152335.445,22.401909
1427152335.461,19.871986
1427152335.476,16.793465
1427152335.492,13.411125
1427152335.508,9.990471
1427152335.523,6.788971
1427152335.539,3.9925613
1427152335.555,1.6828461
1427152335.57,-0.17893982
1427152335.586,-1.7093506
1427152335.601,-3.051567
1427152335.617,-4.287323
1427152335.633,-5.428589
1427152335.648,-6.404396
1427152335.664,-7.1026993
1427152335.68,-7.4594345
1427152335.695,-7.522789
1427152335.711,-7.4151917
1427152335.726,-7.3238144
1427152335.742,-7.383026
1427152335.758,-7.6373596
1427152335.773,-8.027725
1427152335.789,-8.464516
1427152335.805,-8.879654
1427152335.82,-9.268562
1427152335.836,-9.662041
1427152335.851,-10.08609
1427152335.867,-10.49395
1427152335.883,-10.784142
1427152335.898,-10.841629
1427152335.914,-10.640083
1427152335.93,-10.247101
1427152335.945,-9.82328
1427152335.961,-9.509499
1427152335.976,-9.402321
1427152335.992,-9.462395
1427152336.008,-9.594055
1427152336.023,-9.674042
1427152336.039,-9.618179
1427152336.055,-9.402054
1427152336.07,-9.063889
1427152336.086,-8.644478
1427152336.101,-8.179802
1427152336.117,-7.681679
1427152336.133,-7.1381836
1427152336.148,-6.5428467
1427152336.164,-5.9063034
1427152336.18,-5.2389526
1427152336.195,-4.5597
1427152336.211,-3.873825
1427152336.226,-3.171547
1427152336.242,-2.4284897
1427152336.258,-1.6225815
1427152336.273,-0.71572876
1427152336.289,0.32575226
1427152336.305,1.5388641
1427152336.32,2.9187317
1427152336.336,4.4134293
1427152336.351,5.929199
1427152336.367,7.34935
1427152336.383,8.57457
1427152336.398,9.564728
1427152336.414,10.335945
1427152336.43,10.9379425
1427152336.445,11.413322
1427152336.461,11.832542
1427152336.476,12.300827
1427152336.492,13.018051
1427152336.508,14.210899
1427152336.523,16.037674
1427152336.539,18.432365
1427152336.555,21.061111
1427152336.57,23.340889
1427152336.586,24.680489
1427152336.601,24.685715
1427152336.617,23.307495
1427152336.633,20.818031
1427152336.648,17.66185
1427152336.664,14.251511
1427152336.68,10.870575
1427152336.695,7.65168
1427152336.711,4.6647644
1427152336.726,1.961525
1427152336.742,-0.3734131
1427152336.758,-2.2981567
1427152336.773,-3.8125458
1427152336.789,-5.0102234
1427152336.805,-6.023102
1427152336.82,-6.9673233
1427152336.836,-7.910019
1427152336.852,-8.847008
1427152336.867,-9.70311
1427152336.883,-10.432343
1427152336.898,-11.008545
1427152336.914,-11.485634
1427152336.93,-11.948624
1427152336.945,-12.485992
1427152336.961,-13.131676
1427152336.976,-13.853302
1427152336.992,-14.544807
1427152337.008,-15.07058
1427152337.023,-15.325249
1427152337.039,-15.281258
1427152337.055,-14.972015
1427152337.07,-14.496971
1427152337.086,-13.972755
1427152337.102,-13.493904
1427152337.117,-13.108078
1427152337.133,-12.8106
1427152337.148,-12.533257
1427152337.164,-12.180229
1427152337.18,-11.6567
1427152337.195,-10.945705
1427152337.211,-10.081722
1427152337.227,-9.156097
1427152337.242,-8.223618
1427152337.258,-7.312889
1427152337.273,-6.39159
1427152337.289,-5.423935
1427152337.305,-4.4135666
1427152337.32,-3.4078789
1427152337.336,-2.4653435
1427152337.352,-1.6011009
1427152337.367,-0.75328445
1427152337.383,0.16168976
1427152337.398,1.2204514
1427152337.414,2.4255486
1427152337.43,3.6885376
1427152337.445,4.873974
1427152337.461,5.892887
1427152337.477,6.7301903
1427152337.492,7.485832
1427152337.508,8.297989
1427152337.523,9.3311615
1427152337.539,10.671703
1427152337.555,12.335117
1427152337.57,14.214848
1427152337.586,16.1013
1427152337.602,17.712475
1427152337.617,18.756332
1427152337.633,18.993671
1427152337.648,18.304707
1427152337.664,16.695488
1427152337.68,14.324486
1427152337.695,11.450283
1427152337.711,8.385624
1427152337.727,5.4281616
1427152337.742,2.841465
1427152337.758,0.76699066
1427152337.773,-0.7570572
1427152337.789,-1.7967606
1427152337.805,-2.4684181
1427152337.82,-2.9138432
1427152337.836,-3.227932
1427152337.852,-3.4874763
1427152337.867,-3.708458
1427152337.883,-3.9227448
1427152337.898,-4.1668053
1427152337.914,-4.4562206
1427152337.93,-4.782419
1427152337.945,-5.126734
1427152337.961,-5.4426823
1427152337.977,-5.7354584
1427152337.992,-6.031723
1427152338.008,-6.3995667
1427152338.023,-6.854185
1427152338.039,-7.352907
1427152338.055,-7.762808
1427152338.07,-7.941574
1427152338.086,-7.7820835
1427152338.102,-7.3025208
1427152338.117,-6.6103935
1427152338.133,-5.884119
1427152338.148,-5.2523823
1427152338.164,-4.7582226
1427152338.18,-4.3370266
1427152338.195,-3.8796005
1427152338.211,-3.2889223
1427152338.227,-2.5318403
1427152338.242,-1.6356916
1427152338.258,-0.6652994
1427152338.273,0.3480444
1427152338.289,1.3723803
1427152338.305,2.4126396
1427152338.32,3.441225
1427152338.336,4.419402
1427152338.352,5.3023634
1427152338.367,6.0944767
1427152338.383,6.8363504
1427152338.398,7.5961905
1427152338.414,8.410651
1427152338.43,9.261173
1427152338.445,10.078907
1427152338.461,10.856281
1427152338.477,11.68235
1427152338.492,12.7763
1427152338.508,14.348053
1427152338.523,16.475615
1427152338.539,18.963902
1427152338.555,21.372925
1427152338.57,23.1511
1427152338.586,23.876545
1427152338.602,23.35886
1427152338.617,21.701944
1427152338.633,19.17714
1427152338.648,16.118681
1427152338.664,12.806094
1427152338.68,9.479271
1427152338.695,6.3286405
1427152338.711,3.5236473
1427152338.727,1.1895843
1427152338.742,-0.6285386
1427152338.758,-1.9949174
1427152338.773,-3.0342216
1427152338.789,-3.88804
1427152338.805,-4.6433597
1427152338.82,-5.331791
1427152338.836,-5.927885
1427152338.852,-6.4039555
1427152338.867,-6.7498455
1427152338.883,-6.988423
1427152338.898,-7.16973
1427152338.914,-7.35983
1427152338.93,-7.6349344
1427152338.945,-8.071296
1427152338.961,-8.685422
1427152338.977,-9.447117
1427152338.992,-10.248892
1427152339.008,-10.965857
1427152339.023,-11.486231
1427152339.039,-11.741537
1427152339.055,-11.727303
1427152339.07,-11.496933
1427152339.086,-11.11649
1427152339.102,-10.66669
1427152339.117,-10.204512
1427152339.133,-9.77873
1427152339.148,-9.397903
1427152339.164,-9.035283
1427152339.18,-8.618646
1427152339.195,-8.080832
1427152339.211,-7.3914547
1427152339.227,-6.5839663
1427152339.242,-5.7487416
1427152339.258,-4.992531
1427152339.273,-4.3793755
1427152339.289,-3.8803272
1427152339.305,-3.3896139
1427152339.32,-2.774138
1427152339.336,-1.9344802
1427152339.352,-0.87842155
1427152339.367,0.307644
1427152339.383,1.4940265
1427152339.398,2.590407
1427152339.414,3.5986712
1427152339.43,4.6032953
1427152339.445,5.686349
1427152339.461,6.8732247
1427152339.477,8.092219
1427152339.492,9.21475
1427152339.508,10.121138
1427152339.524,10.79633
1427152339.539,11.341404
1427152339.555,11.955237
1427152339.57,12.852123
1427152339.586,14.194193
1427152339.602,16.054155
1427152339.617,18.375069
1427152339.633,20.955883
1427152339.648,23.468397
1427152339.664,25.501862
1427152339.68,26.640335
1427152339.695,26.554234
1427152339.711,25.124584
1427152339.727,22.45648
1427152339.742,18.877974
1427152339.758,14.825175
1427152339.774,10.755617
1427152339.789,7.0500703
1427152339.805,3.950433
1427152339.82,1.5217488
1427152339.836,-0.3004427
1427152339.852,-1.6899209
1427152339.867,-2.852782
1427152339.883,-3.9436672
1427152339.899,-5.024368
1427152339.914,-6.0718226
1427152339.93,-6.9906836
1427152339.945,-7.709202
1427152339.961,-8.212791
1427152339.977,-8.57526
1427152339.992,-8.893137
1427152340.008,-9.28601
1427152340.024,-9.801835
1427152340.039,-10.439016
1427152340.055,-11.119577
1427152340.07,-11.782952
1427152340.086,-12.398244
1427152340.102,-12.975249
1427152340.117,-13.523333
1427152340.133,-14.025201
1427152340.149,-14.416689
1427152340.164,-14.600474
1427152340.18,-14.503977
1427152340.195,-14.1192465
1427152340.211,-13.49429
1427152340.227,-12.726295
1427152340.242,-11.870608
1427152340.258,-10.958611
1427152340.274,-9.988807
1427152340.289,-8.99293
1427152340.305,-8.026179
1427152340.32,-7.1912365
1427152340.336,-6.5442677
1427152340.352,-6.096595
1427152340.367,-5.8000793
1427152340.383,-5.6062593
1427152340.399,-5.4670887
1427152340.414,-5.3836384
1427152340.43,-5.3573723
1427152340.445,-5.355591
1427152340.461,-5.2850266
1427152340.477,-5.0173655
1427152340.492,-4.4189653
1427152340.508,-3.4231281
1427152340.524,-2.0454454
1427152340.539,-0.427763
1427152340.555,1.2388763
1427152340.57,2.7447624
1427152340.586,3.979969
1427152340.602,4.9149513
1427152340.617,5.6461535
1427152340.633,6.2949276
1427152340.649,6.980176
1427152340.664,7.7350626
1427152340.68,8.535318
1427152340.695,9.32276
1427152340.711,10.075588
1427152340.727,10.822462
1427152340.742,11.647028
1427152340.758,12.641766
1427152340.774,13.897595
1427152340.789,15.46549
1427152340.805,17.36755
1427152340.82,19.55583
1427152340.836,21.904556
1427152340.852,24.111816
1427152340.867,25.781094
1427152340.883,26.448421
1427152340.899,25.761787
1427152340.914,23.599066
1427152340.93,20.169466
1427152340.945,15.9287
1427152340.961,11.468477
1427152340.977,7.3114357
1427152340.992,3.7745419
1427152341.008,0.919857
1427152341.024,-1.3682432
1427152341.039,-3.2894993
1427152341.055,-4.9895077
1427152341.07,-6.528699
1427152341.086,-7.868869
1427152341.102,-8.945239
1427152341.117,-9.730647
1427152341.133,-10.273152
1427152341.149,-10.688228
1427152341.164,-11.129476
1427152341.18,-11.706835
1427152341.195,-12.447128
1427152341.211,-13.28849
1427152341.227,-14.130661
1427152341.242,-14.879948
1427152341.258,-15.516336
1427152341.274,-16.051853
1427152341.289,-16.492495
1427152341.305,-16.799595
1427152341.32,-16.908234
1427152341.336,-16.740973
1427152341.352,-16.310371
1427152341.367,-15.691574
1427152341.383,-15.031544
1427152341.399,-14.443779
1427152341.414,-13.98485
1427152341.43,-13.60692
1427152341.445,-13.244026
1427152341.461,-12.834176
1427152341.477,-12.365237
1427152341.492,-11.867395
1427152341.508,-11.384899
1427152341.524,-10.946729
1427152341.539,-10.575901
1427152341.555,-10.30018
1427152341.57,-10.151039
1427152341.586,-10.135134
1427152341.602,-10.197644
1427152341.617,-10.212724
1427152341.633,-10.011037
1427152341.649,-9.441104
1427152341.664,-8.444826
1427152341.68,-7.101376
1427152341.695,-5.6072373
1427152341.711,-4.1710424
1427152341.727,-2.9416752
1427152341.742,-1.9287736
1427152341.758,-1.0448062
1427152341.774,-0.16224623
1427152341.789,0.7912903
1427152341.805,1.8034099
1427152341.82,2.824317
1427152341.836,3.824156
1427152341.852,4.8463225
1427152341.867,5.9894943
1427152341.883,7.320451
1427152341.899,8.810089
1427152341.914,10.308966
1427152341.93,11.628229
1427152341.945,12.624521
1427152341.961,13.361097
1427152341.977,14.080037
1427152341.992,15.115111
1427152342.008,16.700611
1427152342.024,18.834595
1427152342.039,21.225698
1427152342.055,23.3727
1427152342.07,24.72639
1427152342.086,24.869411
1427152342.102,23.620804
1427152342.117,21.083069
1427152342.133,17.562593
1427152342.149,13.5142765
1427152342.164,9.402132
1427152342.18,5.6568203
1427152342.195,2.5912514
1427152342.211,0.39305687
1427152342.227,-0.9314327
1427152342.242,-1.5394478
1427152342.258,-1.7248116
1427152342.274,-1.8087578
1427152342.289,-2.0573559
1427152342.305,-2.590145
1427152342.32,-3.3616543
1427152342.336,-4.226286
1427152342.352,-5.0439243
1427152342.367,-5.7565384
1427152342.383,-6.411171
1427152342.399,-7.12171
1427152342.414,-7.971136
1427152342.43,-8.95871
1427152342.446,-10.030937
1427152342.461,-11.086899
1427152342.477,-12.054224
1427152342.492,-12.86997
1427152342.508,-13.46014
1427152342.524,-13.7247925
1427152342.539,-13.589014
1427152342.555,-13.045359
1427152342.571,-12.210449
1427152342.586,-11.270414
1427152342.602,-10.414921
1427152342.617,-9.728636
1427152342.633,-9.174618
1427152342.649,-8.619192
1427152342.664,-7.935356
1427152342.68,-7.0829067
1427152342.696,-6.1018524
1427152342.711,-5.062912
1427152342.727,-4.028469
1427152342.742,-2.9922237
1427152342.758,-1.9082222
1427152342.774,-0.7226715
1427152342.789,0.6086159
1427152342.805,2.1019897
1427152342.821,3.721241
1427152342.836,5.415016
1427152342.852,7.089321
1427152342.867,8.633499
1427152342.883,9.949291
1427152342.899,10.990643
1427152342.914,11.782864
1427152342.93,12.462635
1427152342.946,13.209106
1427152342.961,14.2307205
1427152342.977,15.685402
1427152342.992,17.620205
1427152343.008,19.898972
1427152343.024,22.207546
1427152343.039,24.088955
1427152343.055,25.066456
1427152343.071,24.786922
1427152343.086,23.137695
1427152343.102,20.275509
1427152343.117,16.581097
1427152343.133,12.518623
1427152343.149,8.544743
1427152343.164,5.019596
1427152343.18,2.1706657
1427152343.196,0.04311371
1427152343.211,-1.4414177
1427152343.227,-2.5106354
1427152343.242,-3.4230118
1427152343.258,-4.3867188
1427152343.274,-5.4591637
1427152343.289,-6.5402374
1427152343.305,-7.428093
1427152343.321,-7.958969
1427152343.336,-8.098877
1427152343.352,-7.998451
1427152343.367,-7.8854485
1427152343.383,-7.970272
1427152343.399,-8.361252
1427152343.414,-9.0502205
1427152343.43,-9.953835
1427152343.446,-10.983883
1427152343.461,-12.032284
1427152343.477,-12.981861
1427152343.492,-13.677906
1427152343.508,-13.954746
1427152343.524,-13.688255
1427152343.539,-12.881634
1427152343.555,-11.636444
1427152343.571,-10.171871
1427152343.586,-8.707615
1427152343.602,-7.418915
1427152343.617,-6.37434
1427152343.633,-5.550232
1427152343.649,-4.8409195
1427152343.664,-4.108059
1427152343.68,-3.2218513
1427152343.696,-2.1139374
1427152343.711,-0.7921753
1427152343.727,0.65099716
1427152343.742,2.07193
1427152343.758,3.332672
1427152343.774,4.3804474
1427152343.789,5.2727776
1427152343.805,6.1392136
1427152343.821,7.09663
1427152343.836,8.204891
1427152343.852,9.407757
1427152343.867,10.609463
1427152343.883,11.718056
1427152343.899,12.729534
1427152343.914,13.720757
1427152343.93,14.848415
1427152343.946,16.237892
1427152343.961,17.961834
1427152343.977,19.95271
1427152343.992,22.008419
1427152344.008,23.785084
1427152344.024,24.902012
1427152344.039,25.025967
1427152344.055,23.999176
1427152344.071,21.90026
1427152344.086,19.018993
1427152344.102,15.776028
1427152344.117,12.571304
1427152344.133,9.662872
1427152344.149,7.135109
1427152344.164,4.93449
1427152344.18,2.971363
1427152344.196,1.1433372
1427152344.211,-0.59293365
1427152344.227,-2.256054
1427152344.242,-3.8362427
1427152344.258,-5.298374
1427152344.274,-6.577732
1427152344.289,-7.596596
1427152344.305,-8.288494
1427152344.321,-8.651085
1427152344.336,-8.746826
1427152344.352,-8.714317
1427152344.367,-8.713009
1427152344.383,-8.870399
1427152344.399,-9.239475
1427152344.414,-9.817293
1427152344.43,-10.52116
1427152344.446,-11.278055
1427152344.461,-11.993662
1427152344.477,-12.610914
1427152344.492,-13.060701
1427152344.508,-13.292423
1427152344.524,-13.266989
1427152344.539,-12.975693
1427152344.555,-12.434996
1427152344.571,-11.702143
1427152344.586,-10.880182
1427152344.602,-10.086134
1427152344.617,-9.424654
1427152344.633,-8.9384365
1427152344.649,-8.585028
1427152344.664,-8.248236
1427152344.68,-7.79138
1427152344.696,-7.144228
1427152344.711,-6.3225174
1427152344.727,-5.459198
1427152344.742,-4.7092495
1427152344.758,-4.2006626
1427152344.774,-3.9253235
1427152344.789,-3.7721424
1427152344.805,-3.5422382
1427152344.821,-3.075842
1427152344.836,-2.2831059
1427152344.852,-1.2115364
1427152344.867,0.02558899
1427152344.883,1.3117104
1427152344.899,2.5940304
1427152344.914,3.8826542
1427152344.93,5.235214
1427152344.946,6.6930103
1427152344.961,8.241789
1427152344.977,9.801235
1427152344.992,11.283789
1427152345.008,12.601749
1427152345.024,13.755625
1427152345.039,14.821875
1427152345.055,15.942984
1427152345.071,17.29472
1427152345.086,19.003777
1427152345.102,21.089558
1427152345.118,23.430874
1427152345.133,25.763308
1427152345.149,27.752386
1427152345.164,29.053633
1427152345.18,29.380653
1427152345.196,28.53806
1427152345.211,26.489254
1427152345.227,23.34335
1427152345.243,19.37687
1427152345.258,14.976887
1427152345.274,10.601696
1427152345.289,6.637538
1427152345.305,3.3470507
1427152345.321,0.74825954
1427152345.336,-1.3322315
1427152345.352,-3.170909
1427152345.368,-5.0020714
1427152345.383,-6.9098516
1427152345.399,-8.797285
1427152345.414,-10.483648
1427152345.43,-11.801402
1427152345.446,-12.714032
1427152345.461,-13.305126
1427152345.477,-13.7375965
1427152345.493,-14.140643
1427152345.508,-14.577828
1427152345.524,-15.0101385
1427152345.539,-15.387062
1427152345.555,-15.708881
1427152345.571,-16.055433
1427152345.586,-16.526432
1427152345.602,-17.144596
1427152345.618,-17.791023
1427152345.633,-18.24936
1427152345.649,-18.302006
1427152345.664,-17.882658
1427152345.68,-17.098534
1427152345.696,-16.215572
1427152345.711,-15.479686
1427152345.727,-15.040445
1427152345.743,-14.859158
1427152345.758,-14.778292
1427152345.774,-14.609033
1427152345.789,-14.223439
1427152345.805,-13.587967
1427152345.821,-12.763454
1427152345.836,-11.853717
1427152345.852,-10.987792
1427152345.868,-10.268599
1427152345.883,-9.759628
1427152345.899,-9.436759
1427152345.914,-9.212747
1427152345.93,-8.944193
1427152345.946,-8.508096
1427152345.961,-7.8492985
1427152345.977,-7.0024986
1427152345.993,-6.0508986
1427152346.008,-5.0880504
1427152346.024,-4.1446247
1427152346.039,-3.202467
1427152346.055,-2.2194872
1427152346.071,-1.2072611
1427152346.086,-0.23747253
1427152346.102,0.5800953
1427152346.118,1.1703115
1427152346.133,1.556665
1427152346.149,1.8634179
1427152346.164,2.2673242
1427152346.18,2.9320946
1427152346.196,3.9183574
1427152346.211,5.19539
1427152346.227,6.639871
1427152346.243,8.102763
1427152346.258,9.4523945
1427152346.274,10.645647
1427152346.289,11.737176
1427152346.305,12.879028
1427152346.321,14.258229
1427152346.336,16.05673
1427152346.352,18.329458
1427152346.368,20.964497
1427152346.383,23.632137
1427152346.399,25.87242
1427152346.414,27.18526
1427152346.43,27.199987
1427152346.446,25.78329
1427152346.461,23.086512
1427152346.477,19.458822
1427152346.493,15.37308
1427152346.508,11.261688
1427152346.524,7.4436755
1427152346.539,4.0806255
1427152346.555,1.2193341
1427152346.571,-1.168818
1427152346.586,-3.1255462
1427152346.602,-4.679016
1427152346.618,-5.8623247
1427152346.633,-6.715757
1427152346.649,-7.314668
1427152346.664,-7.7761703
1427152346.68,-8.204003
1427152346.696,-8.688921
1427152346.711,-9.287623
1427152346.727,-10.02181
1427152346.743,-10.870696
1427152346.758,-11.804374
1427152346.774,-12.772539
1427152346.789,-13.7199335
1427152346.805,-14.580623
1427152346.821,-15.313428
1427152346.836,-15.881026
1427152346.852,-16.282154
1427152346.868,-16.536804
1427152346.883,-16.68993
1427152346.899,-16.770031
1427152346.914,-16.768053
1427152346.93,-16.624804
1427152346.946,-16.267435
1427152346.961,-15.652096
1427152346.977,-14.801405
1427152346.993,-13.770544
1427152347.008,-12.658277
1427152347.024,-11.527054
1427152347.039,-10.416002
1427152347.055,-9.325483
1427152347.071,-8.248801
1427152347.086,-7.193597
1427152347.102,-6.1606107
1427152347.118,-5.157785
1427152347.133,-4.1785345
1427152347.149,-3.2223415
1427152347.164,-2.2944355
1427152347.18,-1.3853102
1427152347.196,-0.46807384
1427152347.211,0.5025177
1427152347.227,1.5777588
1427152347.243,2.7927551
1427152347.258,4.0948486
1427152347.274,5.3892527
1427152347.289,6.583931
1427152347.305,7.673009
1427152347.321,8.747145
1427152347.336,9.982276
1427152347.352,11.5218935
1427152347.368,13.423662
1427152347.383,15.612122
1427152347.399,17.911167
1427152347.414,20.102333
1427152347.43,21.966312
1427152347.446,23.279924
1427152347.461,23.83265
1427152347.477,23.432228
1427152347.493,21.994968
1427152347.508,19.589952
1427152347.524,16.480227
1427152347.539,13.04517
1427152347.555,9.680967
1427152347.571,6.660822
1427152347.586,4.084114
1427152347.602,1.8764515
1427152347.618,-0.101055145
1427152347.633,-1.9458923
1427152347.649,-3.6425438
1427152347.664,-5.086258
1427152347.68,-6.150057
1427152347.696,-6.767931
1427152347.711,-7.0060883
1427152347.727,-7.0462
1427152347.743,-7.107498
1427152347.758,-7.383627
1427152347.774,-7.943802
1427152347.79,-8.730911
1427152347.805,-9.571892
1427152347.821,-10.279873
1427152347.836,-10.709726
1427152347.852,-10.838856
1427152347.868,-10.749521
1427152347.883,-10.605667
1427152347.899,-10.540073
1427152347.914,-10.61865
1427152347.93,-10.777056
1427152347.946,-10.901157
1427152347.961,-10.853031
1427152347.977,-10.565153
1427152347.993,-10.045042
1427152348.008,-9.3677845
1427152348.024,-8.600046
1427152348.04,-7.751875
1427152348.055,-6.8028374
1427152348.071,-5.7297287
1427152348.086,-4.54834
1427152348.102,-3.3423195
1427152348.118,-2.2101402
1427152348.133,-1.2175026
1427152348.149,-0.3562317
1427152348.165,0.45830917
1427152348.18,1.3616829
1427152348.196,2.446766
1427152348.211,3.760231
1427152348.227,5.26128
1427152348.243,6.846897
1427152348.258,8.378647
1427152348.274,9.750137
1427152348.29,10.909534
1427152348.305,11.923412
1427152348.321,12.944313
1427152348.336,14.18536
1427152348.352,15.830166
1427152348.368,17.961884
1427152348.383,20.461216
1427152348.399,23.040913
1427152348.415,25.257275
1427152348.43,26.635185
1427152348.446,26.791641
1427152348.461,25.546059
1427152348.477,22.967121
1427152348.493,19.382694
1427152348.508,15.270245
1427152348.524,11.1429825
1427152348.54,7.401558
1427152348.555,4.2764473
1427152348.571,1.7964058
1427152348.586,-0.13545609
1427152348.602,-1.6954918
1427152348.618,-3.0175781
1427152348.633,-4.204632
1427152348.649,-5.30233
1427152348.665,-6.3190956
1427152348.68,-7.2382507
1427152348.696,-8.053387
1427152348.711,-8.746689
1427152348.727,-9.32906
1427152348.743,-9.819279
1427152348.758,-10.259251
1427152348.774,-10.676868
1427152348.79,-11.098206
1427152348.805,-11.53997
1427152348.821,-12.036354
1427152348.836,-12.629021
1427152348.852,-13.356297
1427152348.868,-14.19733
1427152348.883,-15.072891
1427152348.899,-15.802055
1427152348.915,-16.218582
1427152348.93,-16.212852
1427152348.946,-15.803841
1427152348.961,-15.119907
1427152348.977,-14.370693
1427152348.993,-13.71167
1427152349.008,-13.204437
1427152349.024,-12.800358
1427152349.04,-12.382633
1427152349.055,-11.831909
1427152349.071,-11.109173
1427152349.086,-10.236652
1427152349.102,-9.328182
1427152349.118,-8.477074
1427152349.133,-7.7620583
1427152349.149,-7.189884
1427152349.165,-6.7149963
1427152349.18,-6.2467117
1427152349.196,-5.7269783
1427152349.211,-5.117996
1427152349.227,-4.4195366
1427152349.243,-3.6401978
1427152349.258,-2.7873764
1427152349.274,-1.8486061
1427152349.29,-0.825325
1427152349.305,0.24590302
1427152349.321,1.2907829
1427152349.336,2.2549095
1427152349.352,3.1278877
1427152349.368,3.9910889
1427152349.383,4.962761
1427152349.399,6.168682
1427152349.415,7.640503
1427152349.43,9.3234215
1427152349.446,11.073158
1427152349.461,12.755043
1427152349.477,14.253254
1427152349.493,15.542305
1427152349.508,16.640182
1427152349.524,17.58757
1427152349.54,18.434479
1427152349.555,19.250854
1427152349.571,20.15017
1427152349.586,21.287636
1427152349.602,22.800148
1427152349.618,24.748428
1427152349.633,27.00692
1427152349.649,29.292084
1427152349.665,31.147446
1427152349.68,32.127068
1427152349.696,31.869606
1427152349.711,30.246223
1427152349.727,27.390236
1427152349.743,23.664017
1427152349.758,19.514664
1427152349.774,15.368965
1427152349.79,11.531311
1427152349.805,8.15554
1427152349.821,5.2519684
1427152349.836,2.7726746
1427152349.852,0.62068176
1427152349.868,-1.2705956
1427152349.883,-2.9632797
1427152349.899,-4.47649
1427152349.915,-5.8206596
1427152349.93,-6.980057
1427152349.946,-7.9662437
1427152349.961,-8.816696
1427152349.977,-9.593472
1427152349.993,-10.351433
1427152350.008,-11.112587
1427152350.024,-11.842686
1427152350.04,-12.506161
1427152350.055,-13.070068
1427152350.071,-13.556068
1427152350.086,-14.0168915
1427152350.102,-14.477795
1427152350.118,-14.883446
1427152350.133,-15.133453
1427152350.149,-15.113113
1427152350.165,-14.821487
1427152350.18,-14.3512
1427152350.196,-13.884655
1427152350.211,-13.550873
1427152350.227,-13.362713
1427152350.243,-13.205067
1427152350.258,-12.930035
1427152350.274,-12.443413
1427152350.29,-11.75013
1427152350.305,-10.925259
1427152350.321,-10.070667
1427152350.336,-9.248955
1427152350.352,-8.480633
1427152350.368,-7.7568054
1427152350.383,-7.065872
1427152350.399,-6.3969955
1427152350.415,-5.7504387
1427152350.43,-5.112175
1427152350.446,-4.491081
1427152350.462,-3.9145088
1427152350.477,-3.437889
1427152350.493,-3.1042137
1427152350.508,-2.9025192
1427152350.524,-2.7435722
1427152350.54,-2.5205193
1427152350.555,-2.1375847
1427152350.571,-1.5546532
1427152350.586,-0.78287506
1427152350.602,0.12747955
1427152350.618,1.1375542
1427152350.633,2.1992989
1427152350.649,3.267704
1427152350.665,4.302059
1427152350.68,5.2838745
1427152350.696,6.246498
1427152350.712,7.2673683
1427152350.727,8.420925
1427152350.743,9.7475395
1427152350.758,11.185158
1427152350.774,12.651203
1427152350.79,14.032883
1427152350.805,15.323311
1427152350.821,16.593292
1427152350.837,17.992317
1427152350.852,19.664268
1427152350.868,21.661594
1427152350.883,23.893398
1427152350.899,26.114407
1427152350.915,27.944363
1427152350.93,28.956043
1427152350.946,28.787937
1427152350.962,27.262173
1427152350.977,24.45306
1427152350.993,20.683342
1427152351.008,16.42723
1427152351.024,12.17556
1427152351.04,8.28278
1427152351.055,4.922146
1427152351.071,2.082672
1427152351.087,-0.3048706
1427152351.102,-2.3140678
1427152351.118,-3.9729996
1427152351.133,-5.3011017
1427152351.149,-6.3361473
1427152351.165,-7.180691
1427152351.18,-7.984909
1427152351.196,-8.89719
1427152351.212,-10.000668
1427152351.227,-11.256977
1427152351.243,-12.524555
1427152351.258,-13.63649
1427152351.274,-14.448517
1427152351.29,-14.945248
1427152351.305,-15.209919
1427152351.321,-15.401424
1427152351.337,-15.651043
1427152351.352,-16.017712
1427152351.368,-16.458103
1427152351.383,-16.870346
1427152351.399,-17.150467
1427152351.415,-17.236935
1427152351.43,-17.139694
1427152351.446,-16.913776
1427152351.462,-16.610065
1427152351.477,-16.249577
1427152351.493,-15.796497
1427152351.508,-15.201687
1427152351.524,-14.408726
1427152351.54,-13.4086075
1427152351.555,-12.219131
1427152351.571,-10.921246
1427152351.587,-9.613411
1427152351.602,-8.398155
1427152351.618,-7.3436737
1427152351.633,-6.471859
1427152351.649,-5.733635
1427152351.665,-5.0342216
1427152351.68,-4.2853317
1427152351.696,-3.4591255
1427152351.712,-2.606018
1427152351.727,-1.8348198
1427152351.743,-1.2411957
1427152351.758,-0.85544586
1427152351.774,-0.58467484
1427152351.79,-0.25055313
1427152351.805,0.3448105
1427152351.821,1.3051033
1427152351.837,2.618225
1427152351.852,4.1343
1427152351.868,5.660927
1427152351.883,7.034382
1427152351.899,8.20665
1427152351.915,9.242195
1427152351.93,10.303665
1427152351.946,11.570797
1427152351.962,13.198334
1427152351.977,15.26915
1427152351.993,17.73491
1427152352.008,20.393864
1427152352.024,22.897072
1427152352.04,24.793846
1427152352.055,25.648281
1427152352.071,25.147934
1427152352.087,23.221012
1427152352.102,20.040688
1427152352.118,16.003078
1427152352.133,11.595558
1427152352.149,7.2917023
1427152352.165,3.4694862
1427152352.18,0.3524208
1427152352.196,-2.0031776
1427152352.212,-3.665413
1427152352.227,-4.7884293
1427152352.243,-5.5590515
1427152352.258,-6.1407814
1427152352.274,-6.6399345
1427152352.29,-7.090294
1427152352.305,-7.4731865
1427152352.321,-7.7681885
1427152352.337,-7.9659386
1427152352.352,-8.119221
1427152352.368,-8.316761
1427152352.383,-8.678459
1427152352.399,-9.270584
1427152352.415,-10.083065
1427152352.43,-11.001179
1427152352.446,-11.85677
1427152352.462,-12.493336
1427152352.477,-12.839935
1427152352.493,-12.923164
1427152352.508,-12.813686
1427152352.524,-12.553181
1427152352.54,-12.117271
1427152352.555,-11.39381
1427152352.571,-10.311916
1427152352.587,-8.875961
1427152352.602,-7.213623
1427152352.618,-5.501549
1427152352.633,-3.911087
1427152352.649,-2.518509
1427152352.665,-1.3266335
1427152352.68,-0.29034805
1427152352.696,0.6186638
1427152352.712,1.4186249
1427152352.727,2.1454659
1427152352.743,2.8998985
1427152352.758,3.823475
1427152352.774,5.059433
1427152352.79,6.6607513
1427152352.805,8.563545
1427152352.821,10.575222
1427152352.837,12.492966
1427152352.852,14.195103
1427152352.868,15.739727
1427152352.883,17.300526
1427152352.899,19.092625
1427152352.915,21.21399
1427152352.93,23.572361
1427152352.946,25.876232
1427152352.962,27.724895
1427152352.977,28.73167
1427152352.993,28.602772
1427152353.008,27.21101
1427152353.024,24.598114
1427152353.04,20.941437
1427152353.055,16.58828
1427152353.071,11.948029
1427152353.087,7.4566917
1427152353.102,3.466978
1427152353.118,0.19177437
1427152353.133,-2.3612862
1427152353.149,-4.3174496
1427152353.165,-5.8902607
1427152353.18,-7.241892
1427152353.196,-8.433691
1427152353.212,-9.422028
1427152353.227,-10.142616
1427152353.243,-10.569445
1427152353.258,-10.767145
1427152353.274,-10.862057
1427152353.29,-10.974936
1427152353.305,-11.158655
1427152353.321,-11.403643
1427152353.337,-11.6735115
1427152353.352,-11.987194
1427152353.368,-12.421885
1427152353.384,-13.093634
1427152353.399,-14.025209
1427152353.415,-15.11376
1427152353.43,-16.093174
1427152353.446,-16.67069
1427152353.462,-16.649975
1427152353.477,-16.017076
1427152353.493,-14.949238
1427152353.509,-13.705378
1427152353.524,-12.476765
1427152353.54,-11.339257
1427152353.555,-10.238708
1427152353.571,-9.06983
1427152353.587,-7.772436
1427152353.602,-6.375574
1427152353.618,-4.966853
1427152353.634,-3.6404772
1427152353.649,-2.424346
1427152353.665,-1.2919674
1427152353.68,-0.16571236
1427152353.696,1.0417786
1427152353.712,2.3920965
1427152353.727,3.9112415
1427152353.743,5.6108007
1427152353.759,7.469208
1427152353.774,9.438194
1427152353.79,11.411255
1427152353.805,13.294032
1427152353.821,15.021767
1427152353.837,16.64581
1427152353.852,18.345196
1427152353.868,20.366512
1427152353.884,22.900684
1427152353.899,25.956432
1427152353.915,29.28182
1427152353.93,32.401646
1427152353.946,34.72001
1427152353.962,35.69555
1427152353.977,34.98637
1427152353.993,32.55233
1427152354.009,28.619678
1427152354.024,23.692049
1427152354.04,18.362932
1427152354.055,13.218271
1427152354.071,8.674977
1427152354.087,4.937147
1427152354.102,1.9824257
1427152354.118,-0.37213802
1427152354.134,-2.3660784
1427152354.149,-4.2008324
1427152354.165,-6.0153627
1427152354.18,-7.8729153
1427152354.196,-9.77955
1427152354.212,-11.675764
1427152354.227,-13.465742
1427152354.243,-15.010044
1427152354.259,-16.201426
1427152354.274,-16.98338
1427152354.29,-17.4218
1427152354.305,-17.670137
1427152354.321,-17.924541
1427152354.337,-18.349588
1427152354.352,-19.012953
1427152354.368,-19.863724
1427152354.384,-20.768631
1427152354.399,-21.5755
1427152354.415,-22.141973
1427152354.43,-22.396444
1427152354.446,-22.322212
1427152354.462,-21.959427
1427152354.477,-21.37637
1427152354.493,-20.64214
1427152354.509,-19.835613
1427152354.524,-18.988796
1427152354.54,-18.127964
1427152354.555,-17.22826
1427152354.571,-16.238895
1427152354.587,-15.112537
1427152354.602,-13.833584
1427152354.618,-12.435932
1427152354.634,-11.008934
1427152354.649,-9.659187
1427152354.665,-8.473328
1427152354.68,-7.490799
1427152354.696,-6.6950684
1427152354.712,-6.0188713
1427152354.727,-5.3866463
1427152354.743,-4.7186165
1427152354.759,-3.9583359
1427152354.774,-3.0657005
1427152354.79,-2.0400581
1427152354.805,-0.9182129
1427152354.821,0.23264313
1427152354.837,1.3576965
1427152354.852,2.4626045
1427152354.868,3.6271896
1427152354.884,4.97316
1427152354.899,6.5769196
1427152354.915,8.409943
1427152354.93,10.315765
1427152354.946,12.106049
1427152354.962,13.6849785
1427152354.977,15.109409
1427152354.993,16.590836
1427152355.009,18.374584
1427152355.024,20.654259
1427152355.04,23.445427
1427152355.055,26.628746
1427152355.071,29.952595
1427152355.087,33.13056
1427152355.102,35.801617
1427152355.118,37.543335
1427152355.134,37.93235
1427152355.149,36.633747
1427152355.165,33.565037
1427152355.18,28.957195
1427152355.196,23.349628
1427152355.212,17.447819
1427152355.227,11.912827
1427152355.243,7.1904564
1427152355.259,3.4267273
1427152355.274,0.505394
1427152355.29,-1.8610649
1427152355.305,-3.9631386
1427152355.321,-6.020973
1427152355.337,-8.098465
1427152355.352,-10.139278
1427152355.368,-12.013618
1427152355.384,-13.60762
1427152355.399,-14.891457
1427152355.415,-15.921738
1427152355.43,-16.799488
1427152355.446,-17.609432
1427152355.462,-18.385197
1427152355.477,-19.14872
1427152355.493,-19.931053
1427152355.509,-20.811913
1427152355.524,-21.843765
1427152355.54,-22.985771
1427152355.555,-24.026314
1427152355.571,-24.680271
1427152355.587,-24.681198
1427152355.602,-23.953548
1427152355.618,-22.64597
1427152355.634,-21.067295
1427152355.649,-19.52737
1427152355.665,-18.207478
1427152355.68,-17.10394
1427152355.696,-16.094646
1427152355.712,-15.064312
1427152355.727,-13.967522
1427152355.743,-12.83046
1427152355.759,-11.702976
1427152355.774,-10.594151
1427152355.79,-9.49221
1427152355.805,-8.41153
1427152355.821,-7.4174423
1427152355.837,-6.612072
1427152355.852,-6.0696907
1427152355.868,-5.7625046
1427152355.884,-5.560421
1427152355.899,-5.2907143
1427152355.915,-4.8243065
1427152355.93,-4.126507
1427152355.946,-3.2724953
1427152355.962,-2.3789825
1427152355.977,-1.5357933
1427152355.993,-0.719738
1427152356.009,0.19981766
1427152356.024,1.4296303
1427152356.04,3.1304893
1427152356.056,5.339264
1427152356.071,7.9077034
1427152356.087,10.555061
1427152356.102,12.947758
1427152356.118,14.886093
1427152356.134,16.367683
1427152356.149,17.603329
1427152356.165,18.897137
1427152356.181,20.507103
1427152356.196,22.537487
1427152356.212,24.933834
1427152356.227,27.467152
1427152356.243,29.810875
1427152356.259,31.576385
1427152356.274,32.33308
1427152356.29,31.688892
1427152356.306,29.400928
1427152356.321,25.48169
1427152356.337,20.271698
1427152356.352,14.372036
1427152356.368,8.489662
1427152356.384,3.2313652
1427152356.399,-1.0288239
1427152356.415,-4.2310257
1427152356.431,-6.560566
1427152356.446,-8.350967
1427152356.462,-9.92062
1427152356.477,-11.478405
1427152356.493,-13.04269
1427152356.509,-14.479755
1427152356.524,-15.57341
1427152356.54,-16.152554
1427152356.556,-16.202915
1427152356.571,-15.884274
1427152356.587,-15.440079
1427152356.602,-15.146374
1427152356.618,-15.175274
1427152356.634,-15.590321
1427152356.649,-16.353436
1427152356.665,-17.369652
1427152356.681,-18.507858
1427152356.696,-19.635708
1427152356.712,-20.608189
1427152356.727,-21.282448
1427152356.743,-21.542095
1427152356.759,-21.325378
1427152356.774,-20.632202
1427152356.79,-19.584694
1427152356.806,-18.377178
1427152356.821,-17.246563
1427152356.837,-16.374428
1427152356.852,-15.802662
1427152356.868,-15.367363
1427152356.884,-14.79784
1427152356.899,-13.836987
1427152356.915,-12.388222
1427152356.931,-10.587948
1427152356.946,-8.754623
1427152356.962,-7.2168694
1427152356.977,-6.1793404
1427152356.993,-5.602804
1427152357.009,-5.246599
1427152357.024,-4.768034
1427152357.04,-3.8618126
1427152357.056,-2.3434982
1427152357.071,-0.2403698
1427152357.087,2.2507572
1427152357.102,4.7599297
1427152357.118,6.878359
1427152357.134,8.260294
1427152357.149,8.799829
1427152357.165,8.716436
1427152357.181,8.556099
1427152357.196,8.995719
1427152357.212,10.578499
1427152357.227,13.3989725
1427152357.243,16.947687
1427152357.259,20.148308
1427152357.274,21.668018
1427152357.29,20.3299
1427152357.306,15.5707035
1427152357.321,7.651675
1427152357.337,-2.3261642
1427152357.352,-12.776898
1427152357.368,-22.089886
1427152357.384,-29.110922
1427152357.399,-33.35586
1427152357.415,-34.958168
1427152357.431,-34.415955
1427152357.446,-32.261593
1427152357.462,-28.884693
1427152357.477,-24.521065
1427152357.493,-19.373014
1427152357.509,-13.740009
1427152357.524,-7.990612
1427152357.54,-2.449564
1427152357.556,2.8118877
1427152357.571,8.013599
1427152357.587,13.564997
1427152357.602,19.79109
1427152357.618,26.699295
1427152357.634,33.835842
1427152357.649,40.400745
1427152357.665,45.435265
1427152357.681,48.068455
1427152357.696,47.727634
1427152357.712,44.287033
1427152357.727,38.124653
1427152357.743,30.050358
1427152357.759,21.123405
1427152357.774,12.393238
1427152357.79,4.659153
1427152357.806,-1.632904
1427152357.821,-6.357952
1427152357.837,-9.556042
1427152357.852,-11.267521
1427152357.868,-11.499069
1427152357.884,-10.302975
1427152357.899,-7.8581123
1427152357.915,-4.554096
1427152357.931,-0.9046173
1427152357.946,2.5870438
1427152357.962,5.5979843
1427152357.977,8.011028
1427152357.993,9.907749
1427152358.009,11.432327
1427152358.024,12.731224
1427152358.04,13.883476
1427152358.056,14.895748
1427152358.071,15.7415695
1427152358.087,16.383705
1427152358.102,16.814838
1427152358.118,17.073719
1427152358.134,17.212593
1427152358.149,17.315773
1427152358.165,17.493877
1427152358.181,17.881435
1427152358.196,18.612011
1427152358.212,19.817657
1427152358.227,21.545448
1427152358.243,23.719124
1427152358.259,26.081429
1427152358.274,28.26376
1427152358.29,29.805855
1427152358.306,30.305397
1427152358.321,29.478245
1427152358.337,27.277267
1427152358.352,23.937817
1427152358.368,19.930569
1427152358.384,15.841366
1427152358.399,12.18325
1427152358.415,9.216705
1427152358.431,6.8745155
1427152358.446,4.82135
1427152358.462,2.6488457
1427152358.477,0.07490158
1427152358.493,-2.8979187
1427152358.509,-6.05278
1427152358.524,-9.045803
1427152358.54,-11.591539
1427152358.556,-13.552414
1427152358.571,-14.960205
1427152358.587,-15.9427395
1427152358.602,-16.66577
1427152358.618,-17.258184
1427152358.634,-17.811638
1427152358.649,-18.36651
1427152358.665,-18.93025
1427152358.681,-19.444288
1427152358.696,-19.852741
1427152358.712,-20.093636
1427152358.728,-20.124037
1427152358.743,-19.938452
1427152358.759,-19.576889
1427152358.774,-19.083128
1427152358.79,-18.520943
1427152358.806,-17.93161
1427152358.821,-17.339817
1427152358.837,-16.753849
1427152358.853,-16.191284
1427152358.868,-15.652337
1427152358.884,-15.117513
1427152358.899,-14.514608
1427152358.915,-13.769178
1427152358.931,-12.808384
1427152358.946,-11.633688
1427152358.962,-10.323485
1427152358.978,-9.006656
1427152358.993,-7.801064
1427152359.009,-6.7788687
1427152359.024,-5.9240036
1427152359.04,-5.171377
1427152359.056,-4.426825
1427152359.071,-3.629393
1427152359.087,-2.7386136
1427152359.103,-1.7678566
1427152359.118,-0.7282648
1427152359.134,0.34892702
1427152359.149,1.4575434
1427152359.165,2.5877109
1427152359.181,3.7675095
1427152359.196,5.049981
1427152359.212,6.4985905
1427152359.228,8.152962
1427152359.243,9.98976
1427152359.259,11.90888
1427152359.274,13.772356
1427152359.29,15.46826
1427152359.306,16.994072
1427152359.321,18.434565
1427152359.337,19.955412
1427152359.353,21.695524
1427152359.368,23.728271
1427152359.384,25.980206
1427152359.399,28.259775
1427152359.415,30.198324
1427152359.431,31.341173
1427152359.446,31.19732
1427152359.462,29.379225
1427152359.478,25.735888
1427152359.493,20.44232
1427152359.509,13.995252
1427152359.524,7.0931706
1427152359.54,0.45167613
1427152359.556,-5.36184
1427152359.571,-10.055404
1427152359.587,-13.55372
1427152359.603,-15.987688
1427152359.618,-17.559383
1427152359.634,-18.507168
1427152359.649,-19.004818
1427152359.665,-19.178364
1427152359.681,-19.056044
1427152359.696,-18.639189
1427152359.712,-17.927486
1427152359.728,-16.994972
1427152359.743,-15.991843
1427152359.759,-15.098789
1427152359.774,-14.464977
1427152359.79,-14.171957
1427152359.806,-14.208585
1427152359.821,-14.520687
1427152359.837,-15.033812
1427152359.853,-15.684986
1427152359.868,-16.364147
1427152359.884,-16.936293
1427152359.899,-17.224792
1427152359.915,-17.080635
1427152359.931,-16.44328
1427152359.946,-15.401473
1427152359.962,-14.142335
1427152359.978,-12.894371
1427152359.993,-11.8375435
1427152360.009,-11.025911
1427152360.024,-10.391143
1427152360.04,-9.784311
1427152360.056,-9.044045
1427152360.071,-8.108048
1427152360.087,-7.02754
1427152360.103,-5.947755
1427152360.118,-5.0378714
1427152360.134,-4.4128017
1427152360.149,-4.062128
1427152360.165,-3.8940058
1427152360.181,-3.7499914
1427152360.196,-3.5055828
1427152360.212,-3.073144
1427152360.228,-2.4497614
1427152360.243,-1.6775208
1427152360.259,-0.8301487
1427152360.274,0.010248661
1427152360.29,0.78448343
1427152360.306,1.4628077
1427152360.321,2.0595055
1427152360.337,2.650683
1427152360.353,3.3470354
1427152360.368,4.258319
1427152360.384,5.460513
1427152360.399,6.925334
1427152360.415,8.550485
1427152360.431,10.203454
1427152360.446,11.762966
1427152360.462,13.158651
1427152360.478,14.381501
1427152360.493,15.498534
1427152360.509,16.596258
1427152360.524,17.801863
1427152360.54,19.220871
1427152360.556,20.906155
1427152360.571,22.804272
1427152360.587,24.708853
1427152360.603,26.261097
1427152360.618,27.018091
1427152360.634,26.554966
1427152360.649,24.615618
1427152360.665,21.231985
1427152360.681,16.736012
1427152360.696,11.67424
1427152360.712,6.6775846
1427152360.728,2.2677457
1427152360.743,-1.2204294
1427152360.759,-3.7008793
1427152360.774,-5.258681
1427152360.79,-6.0948
1427152360.806,-6.4264956
1427152360.821,-6.447894
1427152360.837,-6.2992115
1427152360.853,-6.069392
1427152360.868,-5.832364
1427152360.884,-5.667962
1427152360.899,-5.6758637
1427152360.915,-5.9653854
1427152360.931,-6.61505
1427152360.946,-7.6134195
1427152360.962,-8.853504
1427152360.978,-10.156241
1427152360.993,-11.322513
1427152361.009,-12.23769
1427152361.024,-12.903629
1427152361.04,-13.4110365
1427152361.056,-13.864874
1427152361.071,-14.271803
1427152361.087,-14.508519
1427152361.103,-14.406612
1427152361.118,-13.861464
1427152361.134,-12.947967
1427152361.149,-11.89002
1427152361.165,-10.980883
1427152361.181,-10.404441
1427152361.196,-10.186628
1427152361.212,-10.158392
1427152361.228,-10.078729
1427152361.243,-9.693849
1427152361.259,-8.867985
1427152361.274,-7.5856233
1427152361.29,-5.975271
1427152361.306,-4.2251396
1427152361.321,-2.53098
1427152361.337,-1.027458
1427152361.353,0.26886165
1427152361.368,1.4784735
1427152361.384,2.7573218
1427152361.4,4.2397532
1427152361.415,5.955044
1427152361.431,7.8536005
1427152361.446,9.813904
1427152361.462,11.736702
1427152361.478,13.557393
1427152361.493,15.25052
1427152361.509,16.784597
1427152361.524,18.147257
1427152361.54,19.38952
1427152361.556,20.652666
1427152361.571,22.135866
1427152361.587,24.003752
1427152361.603,26.235998
1427152361.618,28.54822
1427152361.634,30.40723
1427152361.65,31.209665
1427152361.665,30.455584
1427152361.681,27.976397
1427152361.696,23.962133
1427152361.712,18.948832
1427152361.728,13.619436
1427152361.743,8.630571
1427152361.759,4.4007626
1427152361.775,1.0705671
1427152361.79,-1.4743385
1427152361.806,-3.4325657
1427152361.821,-4.979987
1427152361.837,-6.2018795
1427152361.853,-7.1359606
1427152361.868,-7.829816
1427152361.884,-8.39691
1427152361.9,-8.964172
1427152361.915,-9.637874
1427152361.931,-10.419224
1427152361.946,-11.249454
1427152361.962,-12.035015
1427152361.978,-12.753145
1427152361.993,-13.420877
1427152362.009,-14.096297
1427152362.025,-14.799946
1427152362.04,-15.511593
1427152362.056,-16.170912
1427152362.071,-16.724468
1427152362.087,-17.117342
1427152362.103,-17.28443
1427152362.118,-17.14512
1427152362.134,-16.626081
1427152362.15,-15.713345
1427152362.165,-14.521582
