1425684952.243,0.0
1425684952.259,0.0
1425684952.274,0.0
1425684952.29,0.0
1425684952.305,0.0
1425684952.321,0.0
1425684952.337,0.0
1425684952.352,0.0
1425684952.368,0.0
1425684952.384,0.0022315353
1425684952.399,-0.0045169927
1425684952.415,-0.011265522
1425684952.43,-0.011383951
1425684952.446,0.0011864507
1425684952.462,0.025910312
1425684952.477,0.050634187
1425684952.493,0.051362894
1425684952.509,-0.0014929791
1425684952.524,-0.1302426
1425684952.54,-0.35562757
1425684952.556,-0.6591247
1425684952.571,-1.0095103
1425684952.587,-1.3709826
1425684952.602,-1.7197359
1425684952.618,-2.0551105
1425684952.634,-2.39945
1425684952.649,-2.7866635
1425684952.665,-3.2399073
1425684952.68,-3.796012
1425684952.696,-4.418684
1425684952.712,-5.0592937
1425684952.727,-5.6644096
1425684952.743,-6.2021537
1425684952.759,-6.6808796
1425684952.774,-7.149598
1425684952.79,-7.6782336
1425684952.806,-8.310739
1425684952.821,-9.143657
1425684952.837,-10.089731
1425684952.852,-11.041313
1425684952.868,-11.8842125
1425684952.884,-12.564316
1425684952.899,-13.13563
1425684952.915,-13.760044
1425684952.931,-14.65232
1425684952.946,-15.962056
1425684952.962,-17.914442
1425684952.977,-20.317299
1425684952.993,-22.903854
1425684953.009,-25.37947
1425684953.024,-27.578028
1425684953.04,-29.57246
1425684953.056,-31.675173
1425684953.071,-34.3178
1425684953.087,-37.813618
1425684953.102,-42.541233
1425684953.118,-48.1463
1425684953.134,-54.104755
1425684953.149,-59.83309
1425684953.165,-64.972374
1425684953.181,-69.58293
1425684953.196,-74.14353
1425684953.212,-79.344986
1425684953.227,-85.70726
1425684953.243,-93.76193
1425684953.259,-102.99779
1425684953.274,-112.61757
1425684953.29,-121.73034
1425684953.306,-129.76602
1425684953.321,-136.75102
1425684953.337,-143.30344
1425684953.352,-150.74623
1425684953.368,-157.77356
1425684953.384,-166.64323
1425684953.399,-177.94798
1425684953.415,-191.79102
1425684953.431,-206.96808
1425684953.446,-220.56592
1425684953.462,-228.24644
1425684953.477,-225.36154
1425684953.493,-208.53198
1425684953.509,-176.87024
1425684953.524,-132.76222
1425684953.54,-80.04997
1425684953.556,-23.069275
1425684953.571,34.94339
1425684953.587,92.43695
1425684953.602,149.15695
1425684953.618,205.22772
1425684953.634,260.36963
1425684953.649,313.74133
1425684953.665,363.87396
1425684953.681,409.83353
1425684953.696,450.90775
1425684953.712,486.50244
1425684953.727,515.73865
1425684953.743,537.2274
1425684953.759,549.22
1425684953.774,549.9613
1425684953.79,538.367
1425684953.806,514.2055
1425684953.821,478.674
1425684953.837,433.87952
1425684953.852,382.45126
1425684953.868,327.02106
1425684953.884,269.84186
1425684953.899,212.63379
1425684953.915,156.6594
1425684953.931,102.95233
1425684953.946,52.373596
1425684953.962,5.9046936
1425684953.977,-35.580414
1425684953.993,-71.42584
1425684954.009,-101.35184
1425684954.024,-125.50113
1425684954.04,-144.3797
1425684954.056,-158.69403
1425684954.071,-169.15071
1425684954.087,-176.3711
1425684954.102,-180.75139
1425684954.118,-182.57419
1425684954.134,-182.06863
1425684954.149,-179.5066
1425684954.165,-175.23325
1425684954.181,-169.65286
1425684954.196,-163.17691
1425684954.212,-156.14568
1425684954.227,-148.80681
1425684954.243,-141.29686
1425684954.259,-133.68983
1425684954.274,-126.01962
1425684954.29,-118.33268
1425684954.306,-110.68864
1425684954.321,-103.15572
1425684954.337,-95.80455
1425684954.352,-88.684166
1425684954.368,-81.82744
1425684954.384,-75.24594
1425684954.399,-68.9526
1425684954.415,-62.949085
1425684954.431,-57.247494
1425684954.446,-51.857185
1425684954.462,-46.78282
1425684954.477,-42.02776
1425684954.493,-37.58521
1425684954.509,-33.451748
1425684954.524,-29.613855
1425684954.54,-26.070963
1425684954.556,-22.808779
1425684954.571,-19.824995
1425684954.587,-17.113392
1425684954.602,-14.666497
1425684954.618,-12.47932
1425684954.634,-10.538469
1425684954.649,-8.833674
1425684954.665,-7.3478527
1425684954.681,-6.067689
1425684954.696,-4.9734235
1425684954.712,-4.046258
1425684954.727,-3.2673752
1425684954.743,-2.6211367
1425684954.759,-2.088365
1425684954.774,-1.6507506
1425684954.79,-1.2976913
1425684954.806,-1.0147024
1425684954.821,-0.79105926
1425684954.837,-0.6133206
1425684954.852,-0.47516227
1425684954.868,-0.3684653
1425684954.884,-0.28461677
1425684954.899,-0.22397345
1425684954.915,-0.17647654
1425684954.931,-0.14055526
1425684954.946,-0.11251485
1425684954.962,-0.0926249
1425684954.977,-0.07977182
1425684954.993,-0.06783539
1425684955.009,-0.05929327
1425684955.024,-0.052183747
1425684955.04,-0.046860814
1425684955.056,-0.044131815
1425684955.071,-0.040358156
1425684955.087,-0.039164305
1425684955.102,-0.034330726
1425684955.118,-0.03515649
1425684955.134,-0.03181714
1425684955.149,-0.030750751
1425684955.165,-0.02810505
1425684955.181,-0.029290557
1425684955.196,-0.027453512
1425684955.212,-0.026081413
1425684955.227,-0.023851603
1425684955.243,-0.022989094
1425684955.259,-0.022172749
1425684955.274,-0.022157341
1425684955.29,-0.020828396
1425684955.306,-0.020277172
1425684955.321,-0.01940465
1425684955.337,-0.018795371
1425684955.352,-0.019169807
1425684955.368,-0.017195046
1425684955.384,-0.016264498
1425684955.399,-0.01676847
1425684955.415,-0.016039208
1425684955.431,-0.016356274
1425684955.446,-0.012255222
1425684955.462,-0.014531761
1425684955.478,-0.013970271
1425684955.493,-0.0151048
1425684955.509,-0.011057541
1425684955.524,-0.0131264925
1425684955.54,-0.011830375
1425684955.556,-0.011561602
1425684955.571,-0.011305705
1425684955.587,-0.011727303
1425684955.603,-0.011160776
1425684955.618,-0.008833125
1425684955.634,-0.009768635
1425684955.649,-0.009507969
1425684955.665,-0.007366672
1425684955.681,-0.011133403
1425684955.696,-0.007894009
1425684955.712,-0.00836058
1425684955.728,-0.007752642
1425684955.743,-0.010777608
1425684955.759,-0.013008222
1425684955.774,-0.024803057
1425684955.79,-0.029743895
1425684955.806,-0.043464288
1425684955.821,-0.061634153
1425684955.837,-0.08234373
1425684955.853,-0.10717541
1425684955.868,-0.13609296
1425684955.884,-0.17273545
1425684955.899,-0.20209405
1425684955.915,-0.24407542
1425684955.931,-0.27977356
1425684955.946,-0.3245433
1425684955.962,-0.36820626
1425684955.978,-0.40748048
1425684955.993,-0.4503227
1425684956.009,-0.49871784
1425684956.024,-0.5428119
1425684956.04,-0.5941527
1425684956.056,-0.6481158
1425684956.071,-0.7050826
1425684956.087,-0.7637101
1425684956.103,-0.83470213
1425684956.118,-0.9103706
1425684956.134,-0.9902401
1425684956.149,-1.0821413
1425684956.165,-1.1840059
1425684956.181,-1.2939814
1425684956.196,-1.4229234
1425684956.212,-1.5725087
1425684956.228,-1.7481356
1425684956.243,-1.9482446
1425684956.259,-2.1520674
1425684956.274,-2.3530836
1425684956.29,-2.5492828
1425684956.306,-2.7282622
1425684956.321,-2.9236667
1425684956.337,-3.1553512
1425684956.353,-3.441211
1425684956.368,-3.7999275
1425684956.384,-4.226276
1425684956.399,-4.6946416
1425684956.415,-5.1679034
1425684956.431,-5.647798
1425684956.446,-6.1152167
1425684956.462,-6.5960884
1425684956.478,-7.129741
1425684956.493,-7.7354913
1425684956.509,-8.440376
1425684956.524,-9.22642
1425684956.54,-10.041929
1425684956.556,-10.846175
1425684956.571,-11.597419
1425684956.587,-12.302628
1425684956.603,-13.002849
1425684956.618,-13.790535
1425684956.634,-14.714328
1425684956.649,-15.810913
1425684956.665,-17.000023
1425684956.681,-18.129148
1425684956.696,-18.975334
1425684956.712,-19.376812
1425684956.728,-19.198202
1425684956.743,-18.458132
1425684956.759,-17.244122
1425684956.774,-15.651407
1425684956.79,-13.73344
1425684956.806,-11.3858185
1425684956.821,-8.418364
1425684956.837,-4.592621
1425684956.853,0.1250763
1425684956.868,5.564436
1425684956.884,11.288042
1425684956.899,16.704636
1425684956.915,21.269924
1425684956.931,24.677462
1425684956.946,26.981014
1425684956.962,28.568634
1425684956.978,29.963142
1425684956.993,31.585129
1425684957.009,33.52647
1425684957.024,35.52905
1425684957.04,37.082245
1425684957.056,37.791176
1425684957.071,37.47703
1425684957.087,36.36322
1425684957.103,35.007908
1425684957.118,33.97433
1425684957.134,33.775215
1425684957.149,34.723164
1425684957.165,36.97956
1425684957.181,40.43291
1425684957.196,44.416534
1425684957.212,47.526985
1425684957.228,47.88783
1425684957.243,43.752193
1425684957.259,34.426994
1425684957.274,20.866932
1425684957.29,5.5805283
1425684957.306,-8.262932
1425684957.321,-18.106804
1425684957.337,-23.007956
1425684957.353,-23.747738
1425684957.368,-22.131212
1425684957.384,-19.89599
1425684957.399,-17.983057
1425684957.415,-16.39941
1425684957.431,-14.741627
1425684957.446,-12.773132
1425684957.462,-10.696735
1425684957.478,-8.99762
1425684957.493,-8.047697
1425684957.509,-7.8364983
1425684957.524,-8.033562
1425684957.54,-8.270491
1425684957.556,-8.3297615
1425684957.571,-8.4569645
1425684957.587,-9.157028
1425684957.603,-10.936504
1425684957.618,-14.110142
1425684957.634,-18.570915
1425684957.649,-23.813313
1425684957.665,-28.99686
1425684957.681,-33.220314
1425684957.696,-35.757732
1425684957.712,-36.388134
1425684957.728,-35.272144
1425684957.743,-32.95849
1425684957.759,-30.096092
1425684957.774,-27.253294
1425684957.79,-24.697653
1425684957.806,-22.404755
1425684957.821,-20.17532
1425684957.837,-17.299332
1425684957.853,-13.737903
1425684957.868,-9.672091
1425684957.884,-5.418244
1425684957.899,-1.3224969
1425684957.915,2.2925243
1425684957.931,5.219117
1425684957.946,7.365556
1425684957.962,8.7549
1425684957.978,9.546265
1425684957.993,9.862067
1425684958.009,9.936672
1425684958.024,9.975407
1425684958.04,10.182964
1425684958.056,10.700384
1425684958.071,11.698135
1425684958.087,13.294363
1425684958.103,15.5798855
1425684958.118,18.527042
1425684958.134,21.901066
1425684958.15,25.407188
1425684958.165,28.728926
1425684958.181,31.644135
1425684958.196,34.133404
1425684958.212,36.38547
1425684958.228,38.72384
1425684958.243,41.480648
1425684958.259,44.87615
1425684958.275,48.830456
1425684958.29,52.95468
1425684958.306,56.5419
1425684958.321,58.649895
1425684958.337,58.335106
1425684958.353,54.903164
1425684958.368,48.120365
1425684958.384,38.301113
1425684958.4,26.24208
1425684958.415,12.946234
1425684958.431,-0.53619957
1425684958.446,-13.30844
1425684958.462,-24.70849
1425684958.478,-34.24482
1425684958.493,-41.617718
1425684958.509,-46.6606
1425684958.525,-49.42869
1425684958.54,-50.142773
1425684958.556,-49.21198
1425684958.571,-47.09395
1425684958.587,-44.22499
1425684958.603,-40.94439
1425684958.618,-37.452652
1425684958.634,-33.874218
1425684958.65,-30.260822
1425684958.665,-26.620256
1425684958.681,-22.992485
1425684958.696,-19.434803
1425684958.712,-16.08691
1425684958.728,-13.120171
1425684958.743,-10.696571
1425684958.759,-8.846249
1425684958.775,-7.4101105
1425684958.79,-6.049038
1425684958.806,-4.384884
1425684958.821,-2.1245346
1425684958.837,0.81066513
1425684958.853,4.275177
1425684958.868,7.989441
1425684958.884,11.686417
1425684958.9,15.209652
1425684958.915,18.55048
1425684958.931,21.799385
1425684958.946,25.131554
1425684958.962,28.679573
1425684958.978,32.56891
1425684958.993,36.770744
1425684959.009,41.112152
1425684959.025,45.1509
1425684959.04,48.29007
1425684959.056,49.786507
1425684959.071,48.93828
1425684959.087,45.2827
1425684959.103,38.669815
1425684959.118,29.376541
1425684959.134,18.033348
1425684959.15,5.54541
1425684959.165,-7.071434
1425684959.181,-18.849297
1425684959.196,-29.03276
1425684959.212,-37.21134
1425684959.228,-43.26718
1425684959.243,-47.346626
1425684959.259,-49.71379
1425684959.275,-50.621925
1425684959.29,-50.24231
1425684959.306,-48.753998
1425684959.321,-46.299026
1425684959.337,-43.17224
1425684959.353,-39.725792
1425684959.368,-36.33072
1425684959.384,-33.316383
1425684959.4,-30.866753
1425684959.415,-28.994461
1425684959.431,-27.581818
1425684959.446,-26.408638
1425684959.462,-25.278854
1425684959.478,-24.005066
1425684959.493,-22.47165
1425684959.509,-20.577744
1425684959.525,-18.280952
1425684959.54,-15.543274
1425684959.556,-12.370071
1425684959.571,-8.820503
1425684959.587,-5.042183
1425684959.603,-1.1627808
1425684959.618,2.6823196
1425684959.634,6.487854
1425684959.65,10.345642
1425684959.665,14.447693
1425684959.681,18.959839
1425684959.696,23.98294
1425684959.712,29.412613
1425684959.728,34.952972
1425684959.743,40.125137
1425684959.759,44.314026
1425684959.775,46.855835
1425684959.79,47.154007
1425684959.806,44.728065
1425684959.821,39.36741
1425684959.837,31.143097
1425684959.853,20.41784
1425684959.868,7.8367767
1425684959.884,-5.729149
1425684959.9,-19.314896
1425684959.915,-31.952835
1425684959.931,-42.81785
1425684959.946,-51.314125
1425684959.962,-57.173546
1425684959.978,-60.371536
1425684959.993,-61.131012
1425684960.009,-59.80816
1425684960.025,-56.84755
1425684960.04,-52.742874
1425684960.056,-47.98539
1425684960.071,-43.032738
1425684960.087,-38.277267
1425684960.103,-33.958427
1425684960.118,-30.145172
1425684960.134,-26.765457
1425684960.15,-23.678658
1425684960.165,-20.752422
1425684960.181,-17.93821
1425684960.196,-15.231243
1425684960.212,-12.673878
1425684960.228,-10.218571
1425684960.243,-7.7696533
1425684960.259,-5.172001
1425684960.275,-2.3178253
1425684960.29,0.8414917
1425684960.306,4.287491
1425684960.321,8.046192
1425684960.337,12.171051
1425684960.353,16.735714
1425684960.368,21.755428
1425684960.384,27.143398
1425684960.4,32.733322
1425684960.415,38.37709
1425684960.431,43.991394
1425684960.446,49.502632
1425684960.462,54.733864
1425684960.478,59.28747
1425684960.493,62.505615
1425684960.509,63.62938
1425684960.525,61.967175
1425684960.54,57.10904
1425684960.556,49.0092
1425684960.571,37.97519
1425684960.587,24.619078
1425684960.603,9.796305
1425684960.618,-5.4729633
1425684960.634,-20.096497
1425684960.65,-33.113182
1425684960.665,-43.826622
1425684960.681,-51.91682
1425684960.696,-57.30557
1425684960.712,-60.098015
1425684960.728,-60.477715
1425684960.743,-58.711624
1425684960.759,-55.20625
1425684960.775,-50.538162
1425684960.79,-45.355713
1425684960.806,-40.22938
1425684960.822,-35.51278
1425684960.837,-31.30452
1425684960.853,-27.530727
1425684960.868,-24.079512
1425684960.884,-20.89996
1425684960.9,-18.029818
1425684960.915,-15.524509
1425684960.931,-13.353962
1425684960.947,-11.392971
1425684960.962,-9.458706
1425684960.978,-7.319376
1425684960.993,-4.8307705
1425684961.009,-1.9252815
1425684961.025,1.3831329
1425684961.04,5.0663986
1425684961.056,9.14278
1425684961.072,13.648365
1425684961.087,18.632828
1425684961.103,24.07676
1425684961.118,29.83678
1425684961.134,35.71462
1425684961.15,41.54101
1425684961.165,47.285656
1425684961.181,53.007866
1425684961.197,58.74657
1425684961.212,64.25898
1425684961.228,68.98654
1425684961.243,72.05627
1425684961.259,72.56526
1425684961.275,69.83891
1425684961.29,63.64384
1425684961.306,54.20076
1425684961.322,42.12487
1425684961.337,28.232468
1425684961.353,13.407417
1425684961.368,-1.4754639
1425684961.384,-15.596817
1425684961.4,-28.249886
1425684961.415,-38.838165
1425684961.431,-46.966835
1425684961.447,-52.49514
1425684961.462,-55.537277
1425684961.478,-56.38285
1425684961.493,-55.48249
1425684961.509,-53.249336
1425684961.525,-50.008736
1425684961.54,-45.975006
1425684961.556,-41.319344
1425684961.572,-36.250267
1425684961.587,-31.112015
1425684961.603,-26.272118
1425684961.618,-22.017593
1425684961.634,-18.40654
1425684961.65,-15.241112
1425684961.665,-12.210747
1425684961.681,-9.078148
1425684961.697,-5.803993
1425684961.712,-2.5053787
1425684961.728,0.67619324
1425684961.743,3.7672958
1425684961.759,6.9981155
1425684961.775,10.695236
1425684961.79,15.087936
1425684961.806,20.161423
1425684961.822,25.63192
1425684961.837,31.06849
1425684961.853,36.099655
1425684961.868,40.535187
1425684961.884,44.440697
1425684961.9,48.030434
1425684961.915,51.63549
1425684961.931,55.56037
1425684961.947,60.0198
1425684961.962,64.96709
1425684961.978,70.0719
1425684961.993,74.67631
1425684962.009,77.90206
1425684962.025,78.81878
1425684962.04,76.693436
1425684962.056,71.16012
1425684962.072,62.31788
1425684962.087,50.680832
1425684962.103,37.072823
1425684962.118,22.458855
1425684962.134,7.7955627
1425684962.15,-6.0265656
1425684962.165,-18.26477
1425684962.181,-28.390533
1425684962.197,-36.07794
1425684962.212,-41.261482
1425684962.228,-44.08737
1425684962.243,-44.856018
1425684962.259,-43.95861
1425684962.275,-41.80406
1425684962.29,-38.801407
1425684962.306,-35.28208
1425684962.322,-31.528465
1425684962.337,-27.78991
1425684962.353,-24.246033
1425684962.368,-21.03791
1425684962.384,-18.212708
1425684962.4,-15.760895
1425684962.415,-13.630829
1425684962.431,-11.79158
1425684962.447,-10.236816
1425684962.462,-9.00238
1425684962.478,-8.050537
1425684962.493,-7.2764053
1425684962.509,-6.4477463
1425684962.525,-5.252632
1425684962.54,-3.4038467
1425684962.556,-0.70417786
1425684962.572,2.86734
1425684962.587,7.1558456
1425684962.603,11.861694
1425684962.618,16.628418
1425684962.634,21.161163
1425684962.65,25.231865
1425684962.665,28.78492
1425684962.681,31.90461
1425684962.697,34.876602
1425684962.712,38.03302
1425684962.728,41.698807
1425684962.743,46.067986
1425684962.759,51.040596
1425684962.775,56.15705
1425684962.79,60.617233
1425684962.806,63.409416
1425684962.822,63.50612
1425684962.837,60.14884
1425684962.853,53.08255
1425684962.868,42.62806
1425684962.884,29.675926
1425684962.9,15.466202
1425684962.915,1.3219032
1425684962.931,-11.611038
1425684962.947,-22.556206
1425684962.962,-31.161732
1425684962.978,-37.45261
1425684962.993,-41.65366
1425684963.009,-44.098255
1425684963.025,-45.057335
1425684963.04,-44.78356
1425684963.056,-43.487534
1425684963.072,-41.388485
1425684963.087,-38.71037
1425684963.103,-35.69847
1425684963.118,-32.599407
1425684963.134,-29.562035
1425684963.15,-26.703228
1425684963.165,-24.049618
1425684963.181,-21.647326
1425684963.197,-19.567701
1425684963.212,-17.923962
1425684963.228,-16.807474
1425684963.243,-16.19702
1425684963.259,-15.942947
1425684963.275,-15.738157
1425684963.29,-15.214415
1425684963.306,-14.060892
1425684963.322,-12.147808
1425684963.337,-9.5193815
1425684963.353,-6.372197
1425684963.368,-2.9328861
1425684963.384,0.6516304
1425684963.4,4.2712765
1425684963.415,7.911735
1425684963.431,11.525225
1425684963.447,15.081858
1425684963.462,18.628407
1425684963.478,22.303398
1425684963.494,26.317915
1425684963.509,30.7712
1425684963.525,35.584675
1425684963.54,40.331863
1425684963.556,44.312828
1425684963.572,46.677708
1425684963.587,46.624733
1425684963.603,43.592354
1425684963.618,37.379066
1425684963.634,28.19789
1425684963.65,16.614311
1425684963.665,3.5438223
1425684963.681,-9.985793
1425684963.697,-22.906466
1425684963.712,-34.369698
1425684963.728,-43.828423
1425684963.744,-51.052227
1425684963.759,-56.067047
1425684963.775,-58.990753
1425684963.79,-60.00388
1425684963.806,-59.277054
1425684963.822,-57.07668
1425684963.837,-53.774193
1425684963.853,-49.812744
1425684963.869,-45.65286
1425684963.884,-41.623
1425684963.9,-37.944572
1425684963.915,-34.618805
1425684963.931,-31.568804
1425684963.947,-28.698158
1425684963.962,-26.036386
1425684963.978,-23.698889
1425684963.994,-21.8814
1425684964.009,-20.696047
1425684964.025,-20.052082
1425684964.04,-19.61976
1425684964.056,-18.87186
1425684964.072,-17.289831
1425684964.087,-14.54586
1425684964.103,-10.610325
1425684964.119,-5.7763195
1425684964.134,-0.447237
1425684964.15,5.0041018
1425684964.165,10.404209
1425684964.181,15.737116
1425684964.197,21.152798
1425684964.212,26.779032
1425684964.228,32.656662
1425684964.244,38.67717
1425684964.259,44.567772
1425684964.275,49.90519
1425684964.29,54.156193
1425684964.306,56.73874
1425684964.322,57.0909
1425684964.337,54.696224
1425684964.353,49.268036
1425684964.369,40.790695
1425684964.384,29.602484
1425684964.4,16.378416
1425684964.415,2.0025897
1425684964.431,-12.531519
1425684964.447,-26.262291
1425684964.462,-38.36702
1425684964.478,-48.19475
1425684964.494,-55.341557
1425684964.509,-59.65016
1425684964.525,-61.23742
1425684964.54,-60.466995
1425684964.556,-57.850616
1425684964.572,-53.94583
1425684964.587,-49.270325
1425684964.603,-44.206955
1425684964.619,-39.0991
1425684964.634,-34.218132
1425684964.65,-29.822382
1425684964.665,-26.074932
1425684964.681,-23.028294
1425684964.697,-20.555763
1425684964.712,-18.45215
1425684964.728,-16.494686
1425684964.744,-14.518938
1425684964.759,-12.375219
1425684964.775,-9.970951
1425684964.79,-7.17577
1425684964.806,-3.881298
1425684964.822,-0.029586792
1425684964.837,4.345085
1425684964.853,9.14072
1425684964.869,14.2107315
1425684964.884,19.452377
1425684964.9,24.781174
1425684964.915,30.133266
1425684964.931,35.385563
1425684964.947,40.477123
1425684964.962,45.34528
1425684964.978,50.067112
1425684964.994,54.74273
1425684965.009,59.369053
1425684965.025,63.72099
1425684965.04,67.33267
1425684965.056,69.55445
1425684965.072,69.76001
1425684965.087,67.415405
1425684965.103,62.127445
1425684965.119,53.625927
1425684965.134,41.896233
1425684965.15,27.261375
1425684965.165,10.546303
1425684965.181,-6.9008484
1425684965.197,-23.446205
1425684965.212,-37.615463
1425684965.228,-48.472267
1425684965.244,-55.852753
1425684965.259,-60.167862
1425684965.275,-62.112
1425684965.29,-62.22329
1425684965.306,-60.785843
1425684965.322,-57.88614
1425684965.337,-53.676636
1425684965.353,-48.51647
1425684965.369,-42.982292
1425684965.384,-37.65779
1425684965.4,-32.942665
1425684965.415,-28.925545
1425684965.431,-25.473434
1425684965.447,-22.34719
1425684965.462,-19.422562
1425684965.478,-16.711311
1425684965.494,-14.294624
1425684965.509,-12.2146
1425684965.525,-10.357254
1425684965.54,-8.431274
1425684965.556,-6.137184
1425684965.572,-3.1958923
1425684965.587,0.48057556
1425684965.603,4.8532867
1425684965.619,9.776848
1425684965.634,15.118492
1425684965.65,20.737358
1425684965.665,26.47905
1425684965.681,32.178345
1425684965.697,37.645485
1425684965.712,42.764755
1425684965.728,47.557167
1425684965.744,52.188904
1425684965.759,56.925964
1425684965.775,62.01033
1425684965.79,67.54405
1425684965.806,73.36445
1425684965.822,79.052956
1425684965.837,83.90194
1425684965.853,87.02751
1425684965.869,87.49094
1425684965.884,84.51136
1425684965.9,77.653015
1425684965.915,67.04159
1425684965.931,53.33634
1425684965.947,37.680756
1425684965.962,21.452324
1425684965.978,5.9688416
1425684965.994,-7.7069473
1425684966.009,-18.930916
1425684966.025,-27.491814
1425684966.04,-33.562332
1425684966.056,-37.542328
1425684966.072,-39.86618
1425684966.087,-40.88806
1425684966.103,-40.75585
1425684966.119,-39.52986
1425684966.134,-37.28125
1425684966.15,-34.205765
1425684966.165,-30.642914
1425684966.181,-26.952034
1425684966.197,-23.39524
1425684966.212,-20.114899
1425684966.228,-17.186195
1425684966.244,-14.697456
1425684966.259,-12.802383
1425684966.275,-11.618004
1425684966.29,-11.083199
1425684966.306,-10.900002
1425684966.322,-10.600632
1425684966.337,-9.764351
1425684966.353,-8.170334
1425684966.369,-5.8696213
1425684966.384,-3.0670547
1425684966.4,-0.014518738
1425684966.416,3.1803818
1425684966.431,6.495018
1425684966.447,9.950851
1425684966.462,13.536774
1425684966.478,17.204048
1425684966.494,20.866524
1425684966.509,24.529572
1425684966.525,28.256454
1425684966.541,32.19529
1425684966.556,36.557465
1425684966.572,41.51561
1425684966.587,47.07134
1425684966.603,52.981606
1425684966.619,58.67798
1425684966.634,63.34074
1425684966.65,66.01174
1425684966.666,65.81993
1425684966.681,62.165924
1425684966.697,54.895115
1425684966.712,44.372017
1425684966.728,31.423737
1425684966.744,17.247902
1425684966.759,3.136074
1425684966.775,-9.792065
1425684966.791,-20.785908
1425684966.806,-29.548155
1425684966.822,-36.163914
1425684966.837,-40.90985
1425684966.853,-44.074604
1425684966.869,-45.858902
1425684966.884,-46.380108
1425684966.9,-45.760075
1425684966.916,-44.15993
1425684966.931,-41.825394
1425684966.947,-39.043602
1425684966.962,-36.0991
1425684966.978,-33.276405
1425684966.994,-30.824234
1425684967.009,-28.939571
1425684967.025,-27.71178
1425684967.041,-27.098028
1425684967.056,-26.930412
1425684967.072,-26.971752
1425684967.087,-26.926683
1425684967.103,-26.515747
1425684967.119,-25.482248
1425684967.134,-23.645115
1425684967.15,-20.967676
1425684967.166,-17.58448
1425684967.181,-13.789868
1425684967.197,-9.904139
1425684967.212,-6.16214
1425684967.228,-2.631092
1425684967.244,0.7585449
1425684967.259,4.145277
1425684967.275,7.5809994
1425684967.291,11.060511
1425684967.306,14.553995
1425684967.322,18.07968
1425684967.337,21.793476
1425684967.353,25.89594
1425684967.369,30.534016
1425684967.384,35.63061
1425684967.4,40.822083
1425684967.416,45.492382
1425684967.431,48.880764
1425684967.447,50.193954
1425684967.462,48.76982
1425684967.478,44.188507
1425684967.494,36.369396
1425684967.509,25.659027
1425684967.525,12.764824
1425684967.541,-1.2651558
1425684967.556,-15.290813
1425684967.572,-28.268154
1425684967.587,-39.440685
1425684967.603,-48.417408
1425684967.619,-55.13599
1425684967.634,-59.73578
1425684967.65,-62.40815
1425684967.666,-63.330753
1425684967.681,-62.642525
1425684967.697,-60.525173
1425684967.712,-57.27505
1425684967.728,-53.33963
1425684967.744,-49.220917
1425684967.759,-45.365738
1425684967.775,-42.054478
1425684967.791,-39.30307
1425684967.806,-36.996044
1425684967.822,-34.965546
1425684967.837,-33.15301
1425684967.853,-31.584843
1425684967.869,-30.293926
1425684967.884,-29.172394
1425684967.9,-27.92614
1425684967.916,-26.173721
1425684967.931,-23.586823
1425684967.947,-20.09335
1425684967.962,-15.897644
1425684967.978,-11.342266
1425684967.994,-6.769821
1425684968.009,-2.3266907
1425684968.025,2.0109863
1425684968.041,6.4064064
1425684968.056,10.991207
1425684968.072,15.826668
1425684968.087,20.83245
1425684968.103,25.911335
1425684968.119,30.990341
1425684968.134,36.05515
1425684968.15,41.13528
1425684968.166,46.214127
1425684968.181,51.10118
1425684968.197,55.377373
1425684968.212,58.387405
1425684968.228,59.371193
1425684968.244,57.6577
1425684968.259,52.835175
1425684968.275,44.847076
1425684968.291,34.000458
1425684968.306,20.889423
1425684968.322,6.2823057
1425684968.337,-8.918179
1425684968.353,-23.737541
1425684968.369,-37.238373
1425684968.384,-48.5712
1425684968.4,-57.1651
1425684968.416,-62.751705
1425684968.431,-65.3563
1425684968.447,-65.240715
1425684968.462,-62.883945
1425684968.478,-58.860176
1425684968.494,-53.830513
1425684968.509,-48.443092
1425684968.525,-43.222813
1425684968.541,-38.516853
1425684968.556,-34.43906
1425684968.572,-30.939432
1425684968.587,-27.891937
1425684968.603,-25.183397
1425684968.619,-22.721811
1425684968.634,-20.437523
1425684968.65,-18.27034
1425684968.666,-16.127003
1425684968.681,-13.942585
1425684968.697,-11.63237
1425684968.712,-9.100071
1425684968.728,-6.21402
1425684968.744,-2.845333
1425684968.759,1.1095047
1425684968.775,5.6609573
1425684968.791,10.708099
1425684968.806,16.090832
1425684968.822,21.602417
1425684968.837,27.056072
1425684968.853,32.257145
1425684968.869,37.069992
1425684968.884,41.453125
1425684968.9,45.539795
1425684968.916,49.603813
1425684968.931,53.948837
1425684968.947,58.75489
1425684968.962,63.897995
1425684968.978,68.91484
1425684968.994,73.09554
1425684969.009,75.64459
1425684969.025,75.845924
1425684969.041,73.16931
1425684969.056,67.34492
1425684969.072,58.415764
1425684969.088,46.71633
1425684969.103,32.926727
1425684969.119,17.956833
1425684969.134,2.832512
1425684969.15,-11.476372
1425684969.166,-24.182068
1425684969.181,-34.737717
1425684969.197,-42.82447
1425684969.213,-48.3636
1425684969.228,-51.433846
1425684969.244,-52.29238
1425684969.259,-51.303345
1425684969.275,-48.90973
1425684969.291,-45.528473
1425684969.306,-41.54444
1425684969.322,-37.29345
1425684969.338,-33.085114
1425684969.353,-29.16536
1425684969.369,-25.730194
1425684969.384,-22.85405
1425684969.4,-20.536385
1425684969.416,-18.644447
1425684969.431,-17.002205
1425684969.447,-15.375404
1425684969.463,-13.5905075
1425684969.478,-11.4819565
1425684969.494,-9.018692
1425684969.509,-6.227951
1425684969.525,-3.2107773
1425684969.541,-0.018249512
1425684969.556,3.3788986
1425684969.572,7.1499023
1425684969.588,11.447357
1425684969.603,16.284393
1425684969.619,21.537773
1425684969.634,26.896927
1425684969.65,32.046448
1425684969.666,36.824852
1425684969.681,41.187332
1425684969.697,45.201645
1425684969.713,48.97711
1425684969.728,52.69191
1425684969.744,56.610268
1425684969.759,61.061104
1425684969.775,66.2024
1425684969.791,71.76512
1425684969.806,76.95198
1425684969.822,80.49951
1425684969.838,81.0813
1425684969.853,77.78383
1425684969.869,70.39793
1425684969.884,59.480232
1425684969.9,46.05668
1425684969.916,31.31105
1425684969.931,16.346992
1425684969.947,2.1021805
1425684969.963,-10.651199
1425684969.978,-21.346382
1425684969.994,-29.673515
1425684970.009,-35.62607
1425684970.025,-39.501587
1425684970.041,-41.65944
1425684970.056,-42.463745
1425684970.072,-42.074898
1425684970.088,-40.592506
1425684970.103,-38.14206
1425684970.119,-34.885727
1425684970.134,-31.093452
1425684970.15,-27.110832
1425684970.166,-23.28376
1425684970.181,-19.915
1425684970.197,-17.274399
1425684970.213,-15.506439
1425684970.228,-14.603172
1425684970.244,-14.412636
1425684970.259,-14.614418
1425684970.275,-14.815002
1425684970.291,-14.622559
1425684970.306,-13.698921
1425684970.322,-11.827652
1425684970.338,-8.988052
1425684970.353,-5.3723907
1425684970.369,-1.3417511
1425684970.384,2.6715012
1425684970.4,6.351425
1425684970.416,9.619644
1425684970.431,12.615074
1425684970.447,15.592186
1425684970.463,18.750908
1425684970.478,22.12336
1425684970.494,25.657326
1425684970.509,29.307816
1425684970.525,33.16855
1425684970.541,37.434563
1425684970.556,42.248917
1425684970.572,47.511513
1425684970.588,52.83026
1425684970.603,57.505272
1425684970.619,60.710213
1425684970.634,61.69973
1425684970.65,59.870094
1425684970.666,54.878967
1425684970.681,46.744434
1425684970.697,35.887566
1425684970.713,23.108139
1425684970.728,9.530743
1425684970.744,-3.649475
1425684970.759,-15.420925
1425684970.775,-25.127136
1425684970.791,-32.52908
1425684970.806,-37.71343
1425684970.822,-40.90306
1425684970.838,-42.380737
1425684970.853,-42.394886
1425684970.869,-41.160324
1425684970.884,-38.94512
1425684970.9,-36.067627
1425684970.916,-32.89808
1425684970.931,-29.801888
1425684970.947,-27.086504
1425684970.963,-24.948864
1425684970.978,-23.434687
1425684970.994,-22.516932
1425684971.009,-22.04909
1425684971.025,-21.860682
1425684971.041,-21.75172
1425684971.056,-21.52343
1425684971.072,-20.98847
1425684971.088,-20.00438
1425684971.103,-18.491085
1425684971.119,-16.445347
1425684971.134,-13.917905
1425684971.15,-11.011705
1425684971.166,-7.8112164
1425684971.181,-4.4027495
1425684971.197,-0.8282633
1425684971.213,2.8631487
1425684971.228,6.6199503
1425684971.244,10.390997
1425684971.259,14.16375
1425684971.275,17.974972
1425684971.291,21.959455
1425684971.306,26.23945
1425684971.322,30.893726
1425684971.338,35.78727
1425684971.353,40.537018
1425684971.369,44.5036
1425684971.384,46.86382
1425684971.4,46.803352
1425684971.416,43.703194
1425684971.431,37.34103
1425684971.447,27.969498
1425684971.463,16.285196
1425684971.478,3.2968063
1425684971.494,-9.914986
1425684971.509,-22.368294
1425684971.525,-33.34346
1425684971.541,-42.429016
1425684971.556,-49.48839
1425684971.572,-54.535175
1425684971.588,-57.65462
1425684971.603,-58.935184
1425684971.619,-58.47883
1425684971.634,-56.44925
1425684971.65,-53.135815
1425684971.666,-48.986584
1425684971.681,-44.51
1425684971.697,-40.18099
1425684971.713,-36.333572
1425684971.728,-33.07712
1425684971.744,-30.39724
1425684971.76,-28.19033
1425684971.775,-26.432842
1425684971.791,-25.116245
1425684971.806,-24.17693
1425684971.822,-23.402653
1425684971.838,-22.463478
1425684971.853,-21.012981
1425684971.869,-18.804157
1425684971.885,-15.813393
1425684971.9,-12.173103
1425684971.916,-8.08873
1425684971.931,-3.7682838
1425684971.947,0.6336212
1425684971.963,4.97406
1425684971.978,9.181492
1425684971.994,13.269867
1425684972.01,17.400864
1425684972.025,21.855644
1425684972.041,26.887371
1425684972.056,32.572117
1425684972.072,38.66501
1425684972.088,44.648197
1425684972.103,49.858467
1425684972.119,53.61243
1425684972.135,55.34516
1425684972.15,54.61484
1425684972.166,51.08762
1425684972.181,44.657555
1425684972.197,35.48769
1425684972.213,24.050877
1425684972.228,11.092865
1425684972.244,-2.520996
1425684972.26,-15.9998665
1425684972.275,-28.67215
1425684972.291,-40.020317
1425684972.306,-49.620583
1425684972.322,-57.080322
1425684972.338,-62.08313
1425684972.353,-64.45211
1425684972.369,-64.20091
1425684972.385,-61.603622
1425684972.4,-57.20807
1425684972.416,-51.74629
1425684972.431,-46.03463
1425684972.447,-40.75295
1425684972.463,-36.32553
1425684972.478,-32.793736
1425684972.494,-29.923328
1425684972.51,-27.358234
1425684972.525,-24.814941
1425684972.541,-22.211071
1425684972.556,-19.546364
1425684972.572,-16.841534
1425684972.588,-14.029126
1425684972.603,-10.93677
1425684972.619,-7.4352217
1425684972.635,-3.4920852
1425684972.65,0.77195024
1425684972.666,5.1855264
1425684972.681,9.572101
1425684972.697,13.882622
1425684972.713,18.12686
1425684972.728,22.319147
1425684972.744,26.482098
1425684972.76,30.59884
1425684972.775,34.692387
1425684972.791,38.857964
1425684972.806,43.282738
1425684972.822,48.16796
1425684972.838,53.63832
1425684972.853,59.62124
1425684972.869,65.705956
1425684972.885,71.20623
1425684972.9,75.18215
1425684972.916,76.6801
1425684972.931,74.96316
1425684972.947,69.69618
1425684972.963,60.95472
1425684972.978,49.19471
1425684972.994,35.107353
1425684973.01,19.498142
1425684973.025,3.2832603
1425684973.041,-12.535591
1425684973.056,-26.920776
1425684973.072,-38.927776
1425684973.088,-47.90888
1425684973.103,-53.669666
1425684973.119,-56.461555
1425684973.135,-56.82584
1425684973.15,-55.4426
1425684973.166,-52.880005
1425684973.181,-49.55018
1425684973.197,-45.70041
1425684973.213,-41.549698
1425684973.228,-37.323387
1425684973.244,-33.32737
1425684973.26,-29.81593
1425684973.275,-26.929062
1425684973.291,-24.614761
1425684973.306,-22.625256
1425684973.322,-20.621922
1425684973.338,-18.358772
1425684973.353,-15.754219
1425684973.369,-12.927673
1425684973.385,-10.0792465
1425684973.4,-7.3494453
1425684973.416,-4.6659546
1425684973.431,-1.7924728
1425684973.447,1.5672722
1425684973.463,5.569683
1425684973.478,10.194637
1425684973.494,15.225571
1425684973.51,20.415386
1425684973.525,25.524467
1425684973.541,30.424698
1425684973.556,35.053707
1425684973.572,39.476974
1425684973.588,43.82139
1425684973.603,48.344067
1425684973.619,53.301514
1425684973.635,58.876762
1425684973.65,65.00185
1425684973.666,71.24541
1425684973.681,76.897705
1425684973.697,81.07073
1425684973.713,82.8726
1425684973.728,81.60212
1425684973.744,76.827194
1425684973.76,68.46231
1425684973.775,56.816456
1425684973.791,42.62792
1425684973.806,26.945423
1425684973.822,11.004986
1425684973.838,-4.0586357
1425684973.853,-17.381424
1425684973.869,-28.432991
1425684973.885,-36.99948
1425684973.9,-43.085594
1425684973.916,-46.885555
1425684973.931,-48.69679
1425684973.947,-48.941975
1425684973.963,-48.08012
1425684973.978,-46.533527
1425684973.994,-44.636436
1425684974.01,-42.580048
1425684974.025,-40.495075
1425684974.041,-38.45269
1425684974.056,-36.50898
1425684974.072,-34.676083
1425684974.088,-32.990704
1425684974.103,-31.465782
1425684974.119,-30.144367
1425684974.135,-29.104435
1425684974.15,-28.391037
1425684974.166,-27.925743
1425684974.181,-27.547745
1425684974.197,-27.021759
1425684974.213,-26.158512
1425684974.228,-24.857975
1425684974.244,-23.098873
1425684974.26,-20.917763
1425684974.275,-18.380188
1425684974.291,-15.579262
1425684974.306,-12.715164
1425684974.322,-10.08979
1425684974.338,-8.037621
1425684974.353,-6.7850456
1425684974.369,-6.3765793
1425684974.385,-6.6430855
1425684974.4,-7.2999954
1425684974.416,-8.097572
1425684974.432,-8.841255
1425684974.447,-9.426979
1425684974.463,-9.761147
1425684974.478,-9.73494
1425684974.494,-9.258797
1425684974.51,-8.271904
1425684974.525,-6.8530045
1425684974.541,-5.1441956
1425684974.556,-3.331337
1425684974.572,-1.511261
1425684974.588,0.29380035
1425684974.603,2.134018
1425684974.619,4.044983
1425684974.635,5.9526978
1425684974.65,7.6473236
1425684974.666,8.874588
1425684974.682,9.454796
1425684974.697,9.385071
1425684974.713,8.830009
1425684974.728,8.116783
1425684974.744,7.5257874
1425684974.76,7.2236176
1425684974.775,7.192108
1425684974.791,7.34272
1425684974.807,7.580391
1425684974.822,7.903282
1425684974.838,8.391907
1425684974.853,9.118134
1425684974.869,10.098862
1425684974.885,11.2740555
1425684974.9,12.534798
1425684974.916,13.807915
1425684974.932,15.071114
1425684974.947,16.347641
1425684974.963,17.679901
1425684974.978,19.108742
1425684974.994,20.625137
1425684975.01,22.240074
1425684975.025,23.955795
1425684975.041,25.82093
1425684975.057,27.879166
1425684975.072,30.185936
1425684975.088,32.758064
1425684975.103,35.5664
1425684975.119,38.489677
1425684975.135,41.382187
1425684975.15,44.101715
1425684975.166,46.652847
1425684975.182,49.235985
1425684975.197,52.195976
1425684975.213,55.829506
1425684975.228,60.1232
1425684975.244,64.58913
1425684975.26,68.306244
1425684975.275,70.08644
1425684975.291,68.875305
1425684975.307,63.96956
1425684975.322,55.254448
1425684975.338,43.182297
1425684975.353,28.686523
1425684975.369,13.030304
1425684975.385,-2.4138184
1425684975.4,-16.42199
1425684975.416,-28.159622
1425684975.432,-37.287415
1425684975.447,-43.956787
1425684975.463,-48.597046
1425684975.478,-51.644073
1425684975.494,-53.39025
1425684975.51,-53.922096
1425684975.525,-53.29184
1425684975.541,-51.590622
1425684975.557,-49.0728
1425684975.572,-46.0595
1425684975.588,-42.85431
1425684975.603,-39.667023
1425684975.619,-36.60746
1425684975.635,-33.736458
1425684975.65,-31.15525
1425684975.666,-29.008629
1425684975.682,-27.453064
1425684975.697,-26.568878
1425684975.713,-26.3124
1425684975.728,-26.496231
1425684975.744,-26.789345
1425684975.76,-26.774765
1425684975.775,-26.061829
1425684975.791,-24.36023
1425684975.807,-21.526955
1425684975.822,-17.63591
1425684975.838,-12.911568
1425684975.853,-7.6823807
1425684975.869,-2.2920685
1425684975.885,2.9630814
1425684975.9,7.909172
1425684975.916,12.621704
1425684975.932,17.386154
1425684975.947,22.64201
1425684975.963,28.713127
1425684975.978,35.577187
1425684975.994,42.728115
1425684976.01,49.204697
1425684976.025,53.90364
1425684976.041,55.91228
1425684976.057,54.720516
1425684976.072,50.26645
1425684976.088,42.809692
1425684976.103,32.78117
1425684976.119,20.731709
1425684976.135,7.3828926
1425684976.15,-6.432377
1425684976.166,-19.755486
1425684976.182,-31.731293
1425684976.197,-41.728092
1425684976.213,-49.449745
1425684976.228,-54.86336
1425684976.244,-58.080513
1425684976.26,-59.26038
1425684976.275,-58.565712
1425684976.291,-56.209072
1425684976.307,-52.45008
1425684976.322,-47.60205
1425684976.338,-42.029083
1425684976.353,-36.12552
1425684976.369,-30.281273
1425684976.385,-24.875526
1425684976.4,-20.211868
1425684976.416,-16.440773
1425684976.432,-13.546463
1425684976.447,-11.319527
1425684976.463,-9.455711
1425684976.478,-7.63311
1425684976.494,-5.5602417
1425684976.51,-3.0201569
1425684976.525,0.09978485
1425684976.541,3.811699
1425684976.557,8.02269
1425684976.572,12.569641
1425684976.588,17.258598
1425684976.603,21.981209
1425684976.619,26.71547
1425684976.635,31.603127
1425684976.65,36.85592
1425684976.666,42.62268
1425684976.682,48.93602
1425684976.697,55.558754
1425684976.713,61.952667
1425684976.728,67.3845
1425684976.744,71.04253
1425684976.76,72.17948
1425684976.775,70.24891
1425684976.791,65.00077
1425684976.807,56.461594
1425684976.822,44.979225
1425684976.838,31.200287
1425684976.853,16.040924
1425684976.869,0.6117096
1425684976.885,-13.940422
1425684976.9,-26.656555
1425684976.916,-36.913353
1425684976.932,-44.51306
1425684976.947,-49.57524
1425684976.963,-52.388588
1425684976.978,-53.26017
1425684976.994,-52.459343
1425684977.01,-50.251106
1425684977.025,-46.956703
1425684977.041,-42.92234
1425684977.057,-38.435837
1425684977.072,-33.618446
1425684977.088,-28.529175
1425684977.103,-23.187202
1425684977.119,-17.75328
1425684977.135,-12.578896
1425684977.15,-8.085274
1425684977.166,-4.6084213
1425684977.182,-2.1799011
1425684977.197,-0.5250931
1425684977.213,0.854229
1425684977.228,2.5036583
1425684977.244,4.8410454
1425684977.26,8.115997
1425684977.275,12.337185
1425684977.291,17.351269
1425684977.307,22.856525
1425684977.322,28.497704
1425684977.338,33.966488
1425684977.354,39.126842
1425684977.369,44.04622
1425684977.385,48.992485
1425684977.4,54.287178
1425684977.416,60.129684
1425684977.432,66.46878
1425684977.447,72.91468
1425684977.463,78.70242
1425684977.479,82.83678
1425684977.494,84.2424
1425684977.51,81.99547
1425684977.525,75.56417
1425684977.541,65.02669
1425684977.557,51.078125
1425684977.572,34.975414
1425684977.588,18.20092
1425684977.604,2.1540012
1425684977.619,-12.120943
1425684977.635,-24.051565
1425684977.65,-33.493126
1425684977.666,-40.591194
1425684977.682,-45.589622
1425684977.697,-48.779144
1425684977.713,-50.412296
1425684977.729,-50.71745
1425684977.744,-49.949474
1425684977.76,-48.37622
1425684977.775,-46.283424
1425684977.791,-43.932045
1425684977.807,-41.52731
1425684977.822,-39.218254
1425684977.838,-37.112343
1425684977.854,-35.28863
1425684977.869,-33.792652
1425684977.885,-32.637573
1425684977.9,-31.784101
1425684977.916,-31.141495
1425684977.932,-30.615322
1425684977.947,-30.064
1425684977.963,-29.380444
1425684977.979,-28.438232
1425684977.994,-27.102507
1425684978.01,-25.23338
1425684978.025,-22.762833
1425684978.041,-19.7267
1425684978.057,-16.319042
1425684978.072,-12.901363
1425684978.088,-9.900499
1425684978.104,-7.6766796
1425684978.119,-6.4289665
1425684978.135,-6.177696
1425684978.15,-6.781418
1425684978.166,-8.036327
1425684978.182,-9.666082
1425684978.197,-11.386955
1425684978.213,-12.982826
1425684978.229,-14.298698
1425684978.244,-15.310146
1425684978.26,-16.061834
1425684978.275,-16.601065
1425684978.291,-16.884254
1425684978.307,-16.798504
1425684978.322,-16.19614
1425684978.338,-14.972919
1425684978.354,-13.152052
1425684978.369,-10.836758
1425684978.385,-8.18494
1425684978.4,-5.393222
1425684978.416,-2.7310724
1425684978.432,-0.5249529
1425684978.447,0.8590455
1425684978.463,1.1601272
1425684978.479,0.41366053
1425684978.494,-1.0727692
1425684978.51,-2.7381701
1425684978.525,-4.0519404
1425684978.541,-4.673312
1425684978.557,-4.5017076
1425684978.572,-3.6405835
1425684978.588,-2.248225
1425684978.604,-0.46209908
1425684978.619,1.5631247
1425684978.635,3.6428266
1425684978.65,5.5231824
1425684978.666,7.005253
1425684978.682,8.040972
1425684978.697,8.826343
1425684978.713,9.734751
1425684978.729,11.163272
1425684978.744,13.428278
1425684978.76,16.631226
1425684978.775,20.623505
1425684978.791,25.131708
1425684978.807,29.790157
1425684978.822,34.258537
1425684978.838,38.289116
1425684978.854,41.806686
1425684978.869,44.900787
1425684978.885,47.82274
1425684978.9,50.90902
1425684978.916,54.46828
1425684978.932,58.71482
1425684978.947,63.61242
1425684978.963,68.78689
1425684978.979,73.52815
1425684978.994,76.77587
1425684979.01,77.37035
1425684979.025,74.29412
1425684979.041,66.97803
1425684979.057,55.49318
1425684979.072,40.617176
1425684979.088,23.68186
1425684979.104,6.2472224
1425684979.119,-10.216761
1425684979.135,-24.604939
1425684979.15,-36.360855
1425684979.166,-45.397762
1425684979.182,-51.98621
1425684979.197,-56.516594
1425684979.213,-59.362816
1425684979.229,-60.765377
1425684979.244,-60.87458
1425684979.26,-59.79824
1425684979.275,-57.687164
1425684979.291,-54.718224
1425684979.307,-51.076683
1425684979.322,-46.9282
1425684979.338,-42.483124
1425684979.354,-37.97264
1425684979.369,-33.749863
1425684979.385,-30.17393
1425684979.4,-27.532816
1425684979.416,-25.88011
1425684979.432,-25.00298
1425684979.447,-24.427557
1425684979.463,-23.606731
1425684979.479,-22.066416
1425684979.494,-19.556168
1425684979.51,-16.081612
1425684979.525,-11.855707
1425684979.541,-7.1577682
1425684979.557,-2.2421188
1425684979.572,2.7169952
1425684979.588,7.649254
1425684979.604,12.508503
1425684979.619,17.26928
1425684979.635,21.886166
1425684979.65,26.377972
1425684979.666,30.783298
1425684979.682,35.278057
1425684979.697,40.02875
1425684979.713,45.077065
1425684979.729,50.187508
1425684979.744,54.74662
1425684979.76,57.84276
1425684979.775,58.43338
1425684979.791,55.656982
1425684979.807,49.020897
1425684979.822,38.61139
1425684979.838,25.025558
1425684979.854,9.32196
1425684979.869,-7.194664
1425684979.885,-23.201763
1425684979.9,-37.564045
1425684979.916,-49.551495
1425684979.932,-58.778603
1425684979.947,-65.23564
1425684979.963,-69.113045
1425684979.979,-70.67459
1425684979.994,-70.22595
1425684980.01,-68.115814
1425684980.026,-64.7482
1425684980.041,-60.528717
1425684980.057,-55.79025
1425684980.072,-50.737564
1425684980.088,-45.48581
1425684980.104,-40.196518
1425684980.119,-35.165497
1425684980.135,-30.778057
1425684980.151,-27.35581
1425684980.166,-24.947474
1425684980.182,-23.266966
1425684980.197,-21.797401
1425684980.213,-20.0135
1425684980.229,-17.541279
1425684980.244,-14.22974
1425684980.26,-10.066872
1425684980.276,-5.11825
1425684980.291,0.5195961
1425684980.307,6.677578
1425684980.322,13.123238
1425684980.338,19.566944
1425684980.354,25.75888
1425684980.369,31.569927
1425684980.385,37.029205
1425684980.401,42.29541
1425684980.416,47.576996
1425684980.432,53.111523
1425684980.447,59.075226
1425684980.463,65.48645
1425684980.479,72.05394
1425684980.494,78.18197
1425684980.51,82.94771
1425684980.526,85.32604
1425684980.541,84.447205
1425684980.557,79.801544
1425684980.572,71.354256
1425684980.588,59.49561
1425684980.604,44.951736
1425684980.619,28.735886
1425684980.635,11.971474
1425684980.651,-4.239151
1425684980.666,-19.0086
1425684980.682,-31.747742
1425684980.697,-42.18811
1425684980.713,-50.264362
1425684980.729,-55.94349
1425684980.744,-59.217915
1425684980.76,-60.110542
1425684980.776,-58.834404
1425684980.791,-55.768578
1425684980.807,-51.437893
1425684980.822,-46.380688
1425684980.838,-41.03723
1425684980.854,-35.704006
1425684980.869,-30.589598
1425684980.885,-25.866621
1425684980.901,-21.661064
1425684980.916,-18.039677
1425684980.932,-14.976101
1425684980.947,-12.341347
1425684980.963,-9.930716
1425684980.979,-7.55418
1425684980.994,-4.980569
1425684981.01,-2.0001671
1425684981.026,1.5688646
1425684981.041,5.8962593
1425684981.057,11.06658
1425684981.072,17.055908
1425684981.088,23.64353
1425684981.104,30.50605
1425684981.119,37.156105
1425684981.135,43.16539
1425684981.151,48.266624
1425684981.166,52.501198
1425684981.182,56.29243
1425684981.197,60.28925
1425684981.213,65.05209
1425684981.229,70.76341
1425684981.244,76.99875
1425684981.26,82.76979
1425684981.276,86.77409
1425684981.291,87.75618
1425684981.307,84.83265
1425684981.322,77.66065
1425684981.338,66.49623
1425684981.354,52.17346
1425684981.369,35.954563
1425684981.385,19.3314
1425684981.401,3.6770515
1425684981.416,-9.998611
1425684981.432,-21.228657
1425684981.447,-30.090046
1425684981.463,-36.99056
1425684981.479,-42.3729
1425684981.494,-46.49628
1425684981.51,-49.3797
1425684981.526,-50.881985
1425684981.541,-50.87837
1425684981.557,-49.37962
1425684981.572,-46.572086
1425684981.588,-42.86832
1425684981.604,-38.730175
1425684981.619,-34.632225
1425684981.635,-30.93441
1425684981.651,-27.859829
1425684981.666,-25.423706
1425684981.682,-23.541382
1425684981.697,-22.052948
1425684981.713,-20.798744
1425684981.729,-19.614716
1425684981.744,-18.30001
1425684981.76,-16.621124
1425684981.776,-14.29821
1425684981.791,-11.151367
1425684981.807,-7.1094894
1425684981.822,-2.288742
1425684981.838,3.0533752
1425684981.854,8.603889
1425684981.869,14.032585
1425684981.885,19.091713
1425684981.901,23.661522
1425684981.916,27.758049
1425684981.932,31.636688
1425684981.947,35.703697
1425684981.963,40.38965
1425684981.979,45.921913
1425684981.994,52.15142
1425684982.01,58.476685
1425684982.026,63.96585
1425684982.041,67.5306
1425684982.057,68.1846
1425684982.072,65.24164
1425684982.088,58.42247
1425684982.104,47.958633
1425684982.119,34.63849
1425684982.135,19.687607
1425684982.151,4.5270386
1425684982.166,-9.546722
1425684982.182,-21.704391
1425684982.197,-31.699875
1425684982.213,-39.76613
1425684982.229,-46.290466
1425684982.244,-51.60559
1425684982.26,-55.8105
1425684982.276,-58.814087
1425684982.291,-60.47061
1425684982.307,-60.692856
1425684982.322,-59.54152
1425684982.338,-57.21553
1425684982.354,-54.07408
1425684982.369,-50.557114
1425684982.385,-47.141754
1425684982.401,-44.218872
1425684982.416,-41.967636
1425684982.432,-40.350494
1425684982.447,-39.156494
1425684982.463,-38.120926
1425684982.479,-36.99585
1425684982.494,-35.541275
1425684982.51,-33.51654
1425684982.526,-30.729065
1425684982.541,-27.108139
1425684982.557,-22.719223
1425684982.572,-17.842255
1425684982.588,-12.809265
1425684982.604,-7.8856964
1425684982.619,-3.189087
1425684982.635,1.3124237
1425684982.651,5.6859436
1425684982.666,10.059143
1425684982.682,14.601517
1425684982.698,19.573181
1425684982.713,25.2191
1425684982.729,31.664886
1425684982.744,38.720978
1425684982.76,45.823364
1425684982.776,52.12857
1425684982.791,56.741333
1425684982.807,58.853622
1425684982.823,57.881866
1425684982.838,53.48024
1425684982.854,45.535202
1425684982.869,34.356384
1425684982.885,20.626678
1425684982.901,5.3999634
1425684982.916,-10.110626
1425684982.932,-24.80243
1425684982.948,-37.861435
1425684982.963,-48.85501
1425684982.979,-57.59587
1425684982.994,-64.046936
1425684983.01,-68.1671
1425684983.026,-69.98265
1425684983.041,-69.6266
1425684983.057,-67.37335
1425684983.073,-63.666916
1425684983.088,-59.057922
1425684983.104,-54.123947
1425684983.119,-49.38037
1425684983.135,-45.16954
1425684983.151,-41.629456
1425684983.166,-38.65152
1425684983.182,-36.00377
1425684983.198,-33.44348
1425684983.213,-30.84845
1425684983.229,-28.235153
1425684983.244,-25.62674
1425684983.26,-22.956085
1425684983.276,-20.076935
1425684983.291,-16.784714
1425684983.307,-12.981415
1425684983.323,-8.702072
1425684983.338,-4.0758514
1425684983.354,0.7800598
1425684983.369,5.810318
1425684983.385,11.008011
1425684983.401,16.340057
1425684983.416,21.718048
1425684983.432,26.990936
1425684983.448,32.090866
1425684983.463,37.027283
1425684983.479,41.959732
1425684983.494,47.078476
1425684983.51,52.49617
1425684983.526,58.138504
1425684983.541,63.75331
1425684983.557,68.85983
1425684983.573,72.85544
1425684983.588,74.993546
1425684983.604,74.51015
1425684983.619,70.7375
1425684983.635,63.277985
1425684983.651,52.14618
1425684983.666,37.826035
1425684983.682,21.263214
1425684983.698,3.661087
1425684983.713,-13.710953
1425684983.729,-29.68985
1425684983.744,-43.430023
1425684983.76,-54.42811
1425684983.776,-62.510048
1425684983.791,-67.764275
1425684983.807,-70.40153
1425684983.823,-70.68226
1425684983.838,-68.96032
1425684983.854,-65.635
1425684983.869,-61.221825
1425684983.885,-56.261276
1425684983.901,-51.234352
1425684983.916,-46.447693
1425684983.932,-42.062088
1425684983.948,-38.102493
1425684983.963,-34.53958
1425684983.979,-31.366364
1425684983.994,-28.549164
1425684984.01,-25.974747
1425684984.026,-23.473083
1425684984.041,-20.8087
1425684984.057,-17.783195
1425684984.073,-14.323067
1425684984.088,-10.503883
1425684984.104,-6.451088
1425684984.119,-2.3265228
1425684984.135,1.8124161
1425684984.151,6.0396957
1425684984.166,10.504372
1425684984.182,15.39772
1425684984.198,20.821815
1425684984.213,26.657616
1425684984.229,32.57646
1425684984.244,38.133484
1425684984.26,42.94262
1425684984.276,46.856953
1425684984.291,50.12727
1425684984.307,53.24494
1425684984.323,56.762806
1425684984.338,61.00642
1425684984.354,65.89404
1425684984.369,70.90291
1425684984.385,75.21303
1425684984.401,77.85248
1425684984.416,77.8271
1425684984.432,74.31738
1425684984.448,66.79277
1425684984.463,55.179783
1425684984.479,40.038864
1425684984.494,22.45205
1425684984.51,3.9042969
1425684984.526,-14.1008835
1425684984.541,-30.302305
1425684984.557,-43.78132
1425684984.573,-54.069504
1425684984.588,-61.061348
1425684984.604,-64.94162
1425684984.619,-66.13153
1425684984.635,-65.23449
1425684984.651,-62.93455
1425684984.666,-59.83264
1425684984.682,-56.388016
1425684984.698,-52.782856
1425684984.713,-49.052994
1425684984.729,-45.132626
1425684984.744,-40.92361
1425684984.76,-36.431602
1425684984.776,-31.77846
1425684984.791,-27.227648
1425684984.807,-23.104483
1425684984.823,-19.711874
1425684984.838,-17.140596
1425684984.854,-15.174272
1425684984.869,-13.327654
1425684984.885,-11.027754
1425684984.901,-7.8649015
1425684984.916,-3.7881193
1425684984.932,0.91337013
1425684984.948,5.768162
1425684984.963,10.378853
1425684984.979,14.614626
1425684984.994,18.586079
1425684985.01,22.532135
1425684985.026,26.650879
1425684985.041,31.007383
1425684985.057,35.563583
1425684985.073,40.22573
1425684985.088,44.951523
1425684985.104,49.750538
1425684985.119,54.720898
1425684985.135,59.98327
1425684985.151,65.58566
1425684985.166,71.48741
1425684985.182,77.399796
1425684985.198,82.84209
1425684985.213,87.070206
1425684985.229,89.22804
1425684985.244,88.446266
1425684985.26,84.07087
1425684985.276,75.79433
1425684985.291,63.829674
1425684985.307,48.940136
1425684985.323,32.335224
1425684985.338,15.428749
1425684985.354,-0.46528625
1425684985.37,-14.401539
1425684985.385,-25.938847
1425684985.401,-35.071976
1425684985.416,-41.99518
1425684985.432,-46.92185
1425684985.448,-49.952484
1425684985.463,-51.183228
1425684985.479,-50.75633
1425684985.494,-48.990612
1425684985.51,-46.31862
1425684985.526,-43.15741
1425684985.541,-39.79805
1425684985.557,-36.375156
1425684985.573,-32.91624
1425684985.588,-29.467403
1425684985.604,-26.159039
1425684985.62,-23.179737
1425684985.635,-20.688175
1425684985.651,-18.741623
1425684985.666,-17.218922
1425684985.682,-15.856846
1425684985.698,-14.33646
1425684985.713,-12.385864
1425684985.729,-9.890747
1425684985.745,-6.920681
1425684985.76,-3.670189
1425684985.776,-0.37744522
1425684985.791,2.8588142
1425684985.807,6.055809
1425684985.823,9.3791275
1425684985.838,13.0093
1425684985.854,17.04918
1425684985.87,21.480701
1425684985.885,26.146202
1425684985.901,30.803425
1425684985.916,35.160023
1425684985.932,39.01136
1425684985.948,42.26354
1425684985.963,45.0344
1425684985.979,47.62088
1425684985.995,50.364845
1425684986.01,53.51934
1425684986.026,57.02215
1425684986.041,60.40739
1425684986.057,62.860813
1425684986.073,63.45776
1425684986.088,61.33615
1425684986.104,55.96969
1425684986.12,47.30481
1425684986.135,35.751198
1425684986.151,22.154867
1425684986.166,7.6695805
1425684986.182,-6.507839
1425684986.198,-19.340519
1425684986.213,-30.14169
1425684986.229,-38.63219
1425684986.245,-44.78449
1425684986.26,-48.725166
1425684986.276,-50.689735
1425684986.291,-50.978188
1425684986.307,-49.99165
1425684986.323,-48.23257
1425684986.338,-46.189533
1425684986.354,-44.163155
1425684986.37,-42.252018
1425684986.385,-40.311615
1425684986.401,-38.16875
1425684986.416,-35.738255
1425684986.432,-33.050896
1425684986.448,-30.251057
1425684986.463,-27.504984
1425684986.479,-24.97429
1425684986.495,-22.725348
1425684986.51,-20.8433
1425684986.526,-19.365822
1425684986.541,-18.235159
1425684986.557,-17.296394
1425684986.573,-16.266998
1425684986.588,-14.845625
1425684986.604,-12.773094
1425684986.62,-9.887512
1425684986.635,-6.1539145
1425684986.651,-1.7192564
1425684986.666,3.0710764
1425684986.682,7.8050756
1425684986.698,11.995429
1425684986.713,15.324307
1425684986.729,17.7678
1425684986.745,19.619957
1425684986.76,21.444721
1425684986.776,23.850235
1425684986.791,27.265486
1425684986.807,31.810373
1425684986.823,37.221176
1425684986.838,42.808624
1425684986.854,47.565567
1425684986.87,50.292118
1425684986.885,49.841866
1425684986.901,45.408054
1425684986.916,36.800323
1425684986.932,24.527958
1425684986.948,9.735993
1425684986.963,-6.079728
1425684986.979,-21.419558
1425684986.995,-35.010506
1425684987.01,-46.0124
1425684987.026,-54.088837
1425684987.041,-59.347904
1425684987.057,-62.222
1425684987.073,-63.29791
1425684987.088,-63.072506
1425684987.104,-61.81458
1425684987.12,-59.59706
1425684987.135,-56.36245
1425684987.151,-52.15615
1425684987.166,-47.27382
1425684987.182,-42.107025
1425684987.198,-37.126457
1425684987.213,-32.688816
1425684987.229,-28.947308
1425684987.245,-25.914734
1425684987.26,-23.532368
1425684987.276,-21.694798
1425684987.291,-20.216747
1425684987.307,-18.88389
1425684987.323,-17.38463
1425684987.338,-15.469685
1425684987.354,-13.035784
1425684987.37,-10.057138
1425684987.385,-6.640024
1425684987.401,-2.888651
1425684987.416,1.1359825
1425684987.432,5.384121
1425684987.448,9.765858
1425684987.463,14.120064
1425684987.479,18.277798
1425684987.495,22.126717
1425684987.51,25.718365
1425684987.526,29.24199
1425684987.541,33.0229
1425684987.557,37.378555
1425684987.573,42.49291
1425684987.588,48.28729
1425684987.604,54.38423
1425684987.62,60.12862
1425684987.635,64.66111
1425684987.651,67.08502
1425684987.666,66.57597
1425684987.682,62.552994
1425684987.698,54.787033
1425684987.713,43.473305
1425684987.729,29.275772
1425684987.745,13.284187
1425684987.76,-3.165985
1425684987.776,-18.7547
1425684987.791,-32.409027
1425684987.807,-43.512787
1425684987.823,-51.86248
1425684987.838,-57.560455
1425684987.854,-60.793358
1425684987.87,-61.789047
1425684987.885,-60.776245
1425684987.901,-58.059578
1425684987.916,-54.06018
1425684987.932,-49.207916
1425684987.948,-43.8994
1425684987.963,-38.45302
1425684987.979,-33.114807
1425684987.995,-28.121017
1425684988.01,-23.7239
1425684988.026,-20.149078
1425684988.042,-17.486488
1425684988.057,-15.639519
1425684988.073,-14.29908
1425684988.088,-13.063965
1425684988.104,-11.553833
1425684988.12,-9.493828
1425684988.135,-6.7733154
1425684988.151,-3.4200592
1425684988.166,0.4340515
1425684988.182,4.5985413
1425684988.198,8.894897
1425684988.213,13.175262
1425684988.229,17.391327
1425684988.245,21.525024
1425684988.26,25.590256
1425684988.276,29.59314
1425684988.292,33.58957
1425684988.307,37.724976
1425684988.323,42.243286
1425684988.338,47.367844
1425684988.354,53.193146
1425684988.37,59.575867
1425684988.385,66.117325
1425684988.401,72.26369
1425684988.417,77.43352
1425684988.432,81.02739
1425684988.448,82.49332
1425684988.463,81.27486
1425684988.479,76.90878
1425684988.495,69.176285
1425684988.51,58.29013
1425684988.526,44.881042
1425684988.542,29.947113
1425684988.557,14.582123
1425684988.573,-0.23451233
1425684988.588,-13.79184
1425684988.604,-25.605194
1425684988.62,-35.418457
1425684988.635,-43.066315
1425684988.651,-48.489227
1425684988.667,-51.722717
1425684988.682,-52.821396
1425684988.698,-51.89859
1425684988.713,-49.187973
1425684988.729,-45.084427
1425684988.745,-40.128128
1425684988.76,-34.944656
1425684988.776,-30.136475
1425684988.792,-26.054413
1425684988.807,-22.82312
1425684988.823,-20.318924
1425684988.838,-18.329758
1425684988.854,-16.643036
1425684988.87,-15.019333
1425684988.885,-13.2300415
1425684988.901,-11.099884
1425684988.917,-8.545044
1425684988.932,-5.642441
1425684988.948,-2.6426392
1425684988.963,0.1967926
1425684988.979,2.7686615
1425684988.995,5.170334
1425684989.01,7.685135
1425684989.026,10.6358795
1425684989.042,14.258621
1425684989.057,18.707367
1425684989.073,24.006592
1425684989.088,30.030289
1425684989.104,36.485535
1425684989.12,42.88199
1425684989.135,48.69403
1425684989.151,53.586304
1425684989.167,57.665848
1425684989.182,61.418335
1425684989.198,65.47557
1425684989.213,70.16879
1425684989.229,75.145065
1425684989.245,79.41196
1425684989.26,81.581436
1425684989.276,80.37186
1425684989.292,75.064804
1425684989.307,65.68611
1425684989.323,52.956604
1425684989.338,38.09198
1425684989.354,22.498077
1425684989.37,7.4906006
1425684989.385,-5.8679047
1425684989.401,-16.939468
1425684989.417,-25.507416
1425684989.432,-31.660782
1425684989.448,-35.719147
1425684989.463,-38.099335
1425684989.479,-39.188446
1425684989.495,-39.321365
1425684989.51,-38.766724
1425684989.526,-37.69925
1425684989.542,-36.195297
1425684989.557,-34.27545
1425684989.573,-31.949997
1425684989.588,-29.312088
1425684989.604,-26.538841
1425684989.62,-23.831367
1425684989.635,-21.400887
1425684989.651,-19.392418
1425684989.667,-17.85125
1425684989.682,-16.753822
1425684989.698,-15.9989395
1425684989.713,-15.419212
1425684989.729,-14.777435
1425684989.745,-13.8218155
1425684989.76,-12.347107
1425684989.776,-10.255753
1425684989.792,-7.5322266
1425684989.807,-4.235176
1425684989.823,-0.46762848
1425684989.838,3.6328888
1425684989.854,7.899994
1425684989.87,12.114716
1425684989.885,16.097893
1425684989.901,19.742401
1425684989.917,23.105988
1425684989.932,26.401802
1425684989.948,29.92604
1425684989.963,33.9189
1425684989.979,38.45379
1425684989.995,43.383423
1425684990.01,48.286697
1425684990.026,52.520447
1425684990.042,55.267258
1425684990.057,55.61889
1425684990.073,52.782883
1425684990.088,46.29624
1425684990.104,36.260616
1425684990.12,23.412918
1425684990.135,9.038563
1425684990.151,-5.342354
1425684990.167,-18.333752
1425684990.182,-28.963802
1425684990.198,-36.84696
1425684990.213,-42.1699
1425684990.229,-45.46148
1425684990.245,-47.341633
1425684990.26,-48.315536
1425684990.276,-48.672714
1425684990.292,-48.465023
1425684990.307,-47.696793
1425684990.323,-46.33665
1425684990.338,-44.46518
1425684990.354,-42.190254
1425684990.37,-39.620842
1425684990.385,-36.824585
1425684990.401,-33.881287
1425684990.417,-30.941153
1425684990.432,-28.228836
1425684990.448,-26.0568
1425684990.463,-24.638062
1425684990.479,-23.978724
1425684990.495,-23.870537
1425684990.51,-23.908127
1425684990.526,-23.66386
1425684990.542,-22.731598
1425684990.557,-20.826447
1425684990.573,-17.789001
1425684990.588,-13.657461
1425684990.604,-8.714714
1425684990.62,-3.3941011
1425684990.635,1.7648544
1425684990.651,6.3405695
1425684990.667,10.231401
1425684990.682,13.634481
1425684990.698,17.005705
1425684990.713,20.797718
1425684990.729,25.287664
1425684990.745,30.53385
1425684990.76,36.305885
1425684990.776,42.132465
1425684990.792,47.291542
1425684990.807,50.8398
1425684990.823,51.768814
1425684990.838,49.216274
1425684990.854,42.77416
1425684990.87,32.644623
1425684990.885,19.68392
1425684990.901,5.1610017
1425684990.917,-9.600706
1425684990.932,-23.435595
1425684990.948,-35.528507
1425684990.964,-45.44886
1425684990.979,-53.036697
1425684990.995,-58.333385
1425684991.01,-61.47662
1425684991.026,-62.65502
1425684991.042,-62.060856
1425684991.057,-59.936043
1425684991.073,-56.59181
1425684991.089,-52.402176
1425684991.104,-47.794544
1425684991.12,-43.094246
1425684991.135,-38.502583
1425684991.151,-34.088894
1425684991.167,-29.904993
1425684991.182,-26.036844
1425684991.198,-22.66271
1425684991.214,-19.982958
1425684991.229,-18.05235
1425684991.245,-16.737736
1425684991.26,-15.665388
1425684991.276,-14.383582
1425684991.292,-12.469398
1425684991.307,-9.700671
1425684991.323,-6.0378027
1425684991.339,-1.6139011
1425684991.354,3.3669891
1425684991.37,8.681336
1425684991.385,14.104216
1425684991.401,19.451126
1425684991.417,24.567749
1425684991.432,29.351126
1425684991.448,33.82852
1425684991.464,38.1615
1425684991.479,42.617607
1425684991.495,47.50586
1425684991.51,52.974648
1425684991.526,58.82409
1425684991.542,64.48958
1425684991.557,69.053955
1425684991.573,71.47069
1425684991.589,70.79954
1425684991.604,66.463135
1425684991.62,58.35675
1425684991.635,46.847366
1425684991.651,32.671562
1425684991.667,16.84491
1425684991.682,0.52669907
1425684991.698,-15.145134
1425684991.714,-29.204662
1425684991.729,-40.952145
1425684991.745,-50.022526
1425684991.76,-56.315243
1425684991.776,-59.93046
1425684991.792,-61.059486
1425684991.807,-60.007397
1425684991.823,-57.16798
1425684991.839,-53.07407
1425684991.854,-48.26302
1425684991.87,-43.20795
1425684991.885,-38.17493
1425684991.901,-33.29781
1425684991.917,-28.598022
1425684991.932,-24.15287
1425684991.948,-20.1335
1425684991.964,-16.721367
1425684991.979,-13.996834
1425684991.995,-11.878559
1425684992.01,-10.0951
1425684992.026,-8.321331
1425684992.042,-6.276623
1425684992.057,-3.7765465
1425684992.073,-0.72574615
1425684992.089,2.879837
1425684992.104,7.038433
1425684992.12,11.6646385
1425684992.135,16.601028
1425684992.151,21.636017
1425684992.167,26.565872
1425684992.182,31.255943
1425684992.198,35.725704
1425684992.214,40.1292
1425684992.229,44.707314
1425684992.245,49.73398
1425684992.26,55.39532
1425684992.276,61.649433
1425684992.292,68.15367
1425684992.307,74.21982
1425684992.323,78.88881
1425684992.339,81.12515
1425684992.354,80.02615
1425684992.37,75.00868
1425684992.385,65.940704
1425684992.401,53.19236
1425684992.417,37.642212
1425684992.432,20.606361
1425684992.448,3.614933
1425684992.464,-11.937897
1425684992.479,-25.077507
1425684992.495,-35.435364
1425684992.51,-43.20937
1425684992.526,-48.849907
1425684992.542,-52.741074
1425684992.557,-55.05643
1425684992.573,-55.723473
1425684992.589,-54.653843
1425684992.604,-51.88506
1425684992.62,-47.67166
1425684992.635,-42.42103
1425684992.651,-36.619305
1425684992.667,-30.786057
1425684992.682,-25.377121
1425684992.698,-20.799732
1425684992.714,-17.314255
1425684992.729,-14.914013
1425684992.745,-13.396088
1425684992.76,-12.385319
1425684992.776,-11.4752655
1425684992.792,-10.307793
1425684992.807,-8.547878
1425684992.823,-5.9176826
1425684992.839,-2.236637
1425684992.854,2.460823
1425684992.87,7.887047
1425684992.885,13.505726
1425684992.901,18.812302
1425684992.917,23.523872
1425684992.932,27.674751
1425684992.948,31.5546
1425684992.964,35.46547
1425684992.979,39.57701
1425684992.995,43.983788
1425684993.01,48.737865
1425684993.026,53.968704
1425684993.042,59.814823
1425684993.057,66.23853
1425684993.073,72.81398
1425684993.089,78.69322
1425684993.104,82.76032
1425684993.12,83.86812
1425684993.135,81.170074
1425684993.151,74.259224
1425684993.167,63.31613
1425684993.182,49.152122
1425684993.198,33.069447
1425684993.214,16.562374
1425684993.229,0.99651575
1425684993.245,-12.748087
1425684993.26,-24.39613
1425684993.276,-34.079548
1425684993.292,-42.081062
1425684993.307,-48.48184
1425684993.323,-53.097637
1425684993.339,-55.65251
1425684993.354,-56.06037
1425684993.37,-54.512604
1425684993.385,-51.52559
1425684993.401,-47.71678
1425684993.417,-43.563866
1425684993.432,-39.40188
1425684993.448,-35.42727
1425684993.464,-31.8251
1425684993.479,-28.768873
1425684993.495,-26.411818
1425684993.51,-24.740467
1425684993.526,-23.564579
1425684993.542,-22.600857
1425684993.557,-21.479992
1425684993.573,-19.947319
1425684993.589,-17.875305
1425684993.604,-15.261024
1425684993.62,-12.205849
1425684993.636,-8.829853
1425684993.651,-5.241394
1425684993.667,-1.501564
1425684993.682,2.3035736
1425684993.698,6.151882
1425684993.714,9.992023
1425684993.729,13.827633
1425684993.745,17.699665
1425684993.761,21.71939
1425684993.776,26.01616
1425684993.792,30.740028
1425684993.807,35.972748
1425684993.823,41.668884
1425684993.839,47.611084
1425684993.854,53.395485
1425684993.87,58.38633
1425684993.886,61.789574
1425684993.901,62.726967
1425684993.917,60.402145
1425684993.932,54.307373
1425684993.948,44.433624
1425684993.964,31.3247
1425684993.979,16.058304
1425684993.995,-0.009277344
1425684994.011,-15.546028
1425684994.026,-29.483322
1425684994.042,-41.169937
1425684994.057,-50.394966
1425684994.073,-57.21132
1425684994.089,-61.801956
1425684994.104,-64.3056
1425684994.12,-64.77647
1425684994.136,-63.305748
1425684994.151,-60.12751
1425684994.167,-55.730698
1425684994.182,-50.77305
1425684994.198,-45.963776
1425684994.214,-41.833046
1425684994.229,-38.590263
1425684994.245,-36.17666
1425684994.261,-34.366592
1425684994.276,-32.94625
1425684994.292,-31.771675
1425684994.307,-30.761398
1425684994.323,-29.790558
1425684994.339,-28.656456
1425684994.354,-27.141716
1425684994.37,-25.01709
1425684994.386,-22.227905
1425684994.401,-18.79361
1425684994.417,-14.808022
1425684994.432,-10.38549
1425684994.448,-5.6523895
1425684994.464,-0.7476883
1425684994.479,4.1978073
1425684994.495,9.13726
1425684994.511,14.134018
1425684994.526,19.299576
1425684994.542,24.708221
1425684994.557,30.32785
1425684994.573,35.994217
1425684994.589,41.496124
1425684994.604,46.71016
1425684994.62,51.536987
1425684994.636,55.781982
1425684994.651,59.01895
1425684994.667,60.56697
1425684994.682,59.62773
1425684994.698,55.557755
1425684994.714,48.030502
1425684994.729,37.129807
1425684994.745,23.37613
1425684994.761,7.5539856
1425684994.776,-9.290985
1425684994.792,-25.936539
1425684994.807,-41.207764
1425684994.823,-54.08519
1425684994.839,-63.93335
1425684994.854,-70.56064
1425684994.87,-74.01264
1425684994.886,-74.484375
1425684994.901,-72.2458
1425684994.917,-67.72066
1425684994.932,-61.57685
1425684994.948,-54.755074
1425684994.964,-48.249542
1425684994.979,-42.76922
1425684994.995,-38.58928
1425684995.011,-35.485695
1425684995.026,-32.97326
1425684995.042,-30.58812
1425684995.057,-27.987778
1425684995.073,-24.991516
1425684995.089,-21.597878
1425684995.104,-17.911873
1425684995.12,-14.120583
1425684995.136,-10.512352
1425684995.151,-7.309822
1425684995.167,-4.5422516
1425684995.182,-2.0026474
1425684995.198,0.70552826
1425684995.214,3.9517136
1425684995.229,7.9251175
1425684995.245,12.664955
1425684995.261,17.99347
1425684995.276,23.689537
1425684995.292,29.526596
1425684995.307,35.28408
1425684995.323,40.8405
1425684995.339,46.188774
1425684995.354,51.48697
1425684995.37,56.926765
1425684995.386,62.591484
1425684995.401,68.2371
1425684995.417,73.15725
1425684995.432,76.37821
1425684995.448,76.8485
1425684995.464,73.70129
1425684995.479,66.53057
1425684995.495,55.402924
1425684995.511,40.858757
1425684995.526,23.807907
1425684995.542,5.4562683
1425684995.557,-12.901878
1425684995.573,-29.986053
1425684995.589,-44.800896
1425684995.604,-56.668755
1425684995.62,-65.25019
1425684995.636,-70.49466
1425684995.651,-72.556046
1425684995.667,-71.81825
1425684995.682,-68.85103
1425684995.698,-64.35836
1425684995.714,-59.075623
1425684995.729,-53.58628
1425684995.745,-48.266693
1425684995.761,-43.25811
1425684995.776,-38.571175
1425684995.792,-34.149986
1425684995.807,-29.972504
1425684995.823,-26.010479
1425684995.839,-22.274433
1425684995.854,-18.798286
1425684995.87,-15.603783
1425684995.886,-12.691704
1425684995.901,-9.974239
1425684995.917,-7.218445
1425684995.932,-4.1598625
1425684995.948,-0.51125336
1425684995.964,3.887436
1425684995.979,8.981117
1425684995.995,14.578289
1425684996.011,20.399708
1425684996.026,26.155956
1425684996.042,31.592709
1425684996.057,36.572884
1425684996.073,41.07539
1425684996.089,45.276295
1425684996.104,49.583145
1425684996.12,54.463554
1425684996.136,60.30208
1425684996.151,67.130936
1425684996.167,74.456894
1425684996.182,81.39204
1425684996.198,86.765976
1425684996.214,89.40844
1425684996.229,88.37178
1425684996.245,83.05049
1425684996.261,73.31014
1425684996.276,59.53994
1425684996.292,42.6812
1425684996.308,24.085918
1425684996.323,5.298191
1425684996.339,-12.285038
1425684996.354,-27.6194
1425684996.37,-40.13599
1425684996.386,-49.62072
1425684996.401,-56.054813
1425684996.417,-59.521336
1425684996.432,-60.156643
1425684996.448,-58.27496
1425684996.464,-54.400677
1425684996.479,-49.23477
1425684996.495,-43.5354
1425684996.511,-37.95965
1425684996.526,-32.938286
1425684996.542,-28.635742
1425684996.558,-24.940338
1425684996.573,-21.592026
1425684996.589,-18.369202
1425684996.604,-15.176014
1425684996.62,-12.119514
1425684996.636,-9.447922
1425684996.651,-7.376873
1425684996.667,-5.935669
1425684996.683,-4.9101486
1425684996.698,-3.894184
1425684996.714,-2.4596024
1425684996.729,-0.27191162
1425684996.745,2.8732147
1425684996.761,7.0123672
1425684996.776,12.056484
1425684996.792,17.73191
1425684996.808,23.618423
1425684996.823,29.207348
1425684996.839,34.08258
1425684996.854,38.127
1425684996.87,41.59663
1425684996.886,45.112064
1425684996.901,49.35646
1425684996.917,54.814453
1425684996.933,61.54188
1425684996.948,69.03199
1425684996.964,76.24997
1425684996.979,81.820984
1425684996.995,84.29094
1425684997.011,82.42436
1425684997.026,75.54741
1425684997.042,63.830647
1425684997.058,48.26793
1425684997.073,30.51015
1425684997.089,12.403965
1425684997.104,-4.425625
1425684997.12,-18.820347
1425684997.136,-30.237865
1425684997.151,-38.660656
1425684997.167,-44.46501
1425684997.183,-48.1828
1425684997.198,-50.403603
1425684997.214,-51.560127
1425684997.229,-51.85293
1425684997.245,-51.30349
1425684997.261,-49.833885
1425684997.276,-47.436333
1425684997.292,-44.23522
1425684997.308,-40.463776
1425684997.323,-36.395256
1425684997.339,-32.330116
1425684997.354,-28.546257
1425684997.37,-25.315132
1425684997.386,-22.897408
1425684997.401,-21.430008
1425684997.417,-20.80368
1425684997.433,-20.691422
1425684997.448,-20.562386
1425684997.464,-19.91616
1425684997.479,-18.490044
1425684997.495,-16.177605
1425684997.511,-13.0187
1425684997.526,-9.0946045
1425684997.542,-4.4331284
1425684997.558,0.8904877
1425684997.573,6.6789093
1425684997.589,12.575912
1425684997.604,18.16652
1425684997.62,23.107483
1425684997.636,27.30899
1425684997.651,30.999763
1425684997.667,34.66078
1425684997.683,38.88066
1425684997.698,44.11239
1425684997.714,50.342644
1425684997.729,57.008774
1425684997.745,63.017975
1425684997.761,66.981125
1425684997.776,67.593544
1425684997.792,64.00366
1425684997.808,55.982048
1425684997.823,43.992455
1425684997.839,29.033043
1425684997.854,12.423065
1425684997.87,-4.4091644
1425684997.886,-20.162384
1425684997.901,-33.90358
1425684997.917,-45.11487
1425684997.933,-53.74916
1425684997.948,-60.026443
1425684997.964,-64.2601
1425684997.979,-66.64026
1425684997.995,-67.254135
1425684998.011,-66.18935
1425684998.026,-63.68669
1425684998.042,-60.18599
1425684998.058,-56.22197
1425684998.073,-52.224945
1425684998.089,-48.407578
1425684998.104,-44.783325
1425684998.12,-41.27559
1425684998.136,-37.895798
1425684998.151,-34.797226
1425684998.167,-32.19551
1425684998.183,-30.255844
1425684998.198,-28.940887
1425684998.214,-27.990845
1425684998.229,-26.95491
1425684998.245,-25.31662
1425684998.261,-22.640533
1425684998.276,-18.721008
1425684998.292,-13.654968
1425684998.308,-7.788849
1425684998.323,-1.5957184
1425684998.339,4.4814606
1425684998.354,10.192993
1425684998.37,15.480225
1425684998.386,20.451859
1425684998.401,25.291489
1425684998.417,30.19719
1425684998.433,35.399338
1425684998.448,41.11609
1425684998.464,47.444626
1425684998.479,54.21068
1425684998.495,60.85289
1425684998.511,66.42595
1425684998.526,69.77374
1425684998.542,69.835785
1425684998.558,65.865814
1425684998.573,57.662216
1425684998.589,45.54773
1425684998.604,30.305542
1425684998.62,13.09742
1425684998.636,-4.7177277
1425684998.651,-21.8143
1425684998.667,-37.10253
1425684998.683,-49.884827
1425684998.698,-59.897224
1425684998.714,-67.20212
1425684998.729,-71.93916
1425684998.745,-74.264984
1425684998.761,-74.25741
1425684998.776,-72.07362
1425684998.792,-68.01887
1425684998.808,-62.54107
1425684998.823,-56.183563
1425684998.839,-49.500267
1425684998.854,-42.98809
1425684998.87,-37.048767
1425684998.886,-32.018272
1425684998.901,-28.075455
1425684998.917,-25.20562
1425684998.933,-23.241928
1425684998.948,-21.874931
1425684998.964,-20.781975
1425684998.98,-19.621094
1425684998.995,-18.025894
1425684999.011,-15.625313
1425684999.026,-12.09594
1425684999.042,-7.336151
1425684999.058,-1.5263519
1425684999.073,4.825737
1425684999.089,11.134277
1425684999.104,16.968338
1425684999.12,22.183258
1425684999.136,26.941513
1425684999.151,31.549858
1425684999.167,36.261803
1425684999.183,41.370255
1425684999.198,47.095825
1425684999.214,53.606544
1425684999.23,60.91488
1425684999.245,68.676926
1425684999.261,76.10842
1425684999.276,82.08898
1425684999.292,85.45796
1425684999.308,85.27018
1425684999.323,81.040115
1425684999.339,72.71875
1425684999.355,60.666843
1425684999.37,45.64028
1425684999.386,28.65337
1425684999.401,10.8631935
1425684999.417,-6.566803
1425684999.433,-22.671345
1425684999.448,-36.781334
1425684999.464,-48.46652
1425684999.48,-57.445972
1425684999.495,-63.498093
1425684999.511,-66.47499
1425684999.526,-66.43289
1425684999.542,-63.765343
1425684999.558,-59.096783
1425684999.573,-53.201187
1425684999.589,-46.842125
1425684999.605,-40.585007
1425684999.62,-34.82726
1425684999.636,-29.814709
1425684999.651,-25.654152
1425684999.667,-22.332235
1425684999.683,-19.703062
1425684999.698,-17.530416
1425684999.714,-15.552643
1425684999.73,-13.58004
1425684999.745,-11.4043045
1425684999.761,-8.894316
1425684999.776,-5.9264374
1425684999.792,-2.4147835
1425684999.808,1.6506424
1425684999.823,6.2247086
1425684999.839,11.219733
1425684999.855,16.55413
1425684999.87,22.153572
1425684999.886,27.937372
1425684999.901,33.74601
1425684999.917,39.40449
1425684999.933,44.781258
1425684999.948,49.929626
1425684999.964,55.107983
1425684999.98,60.69759
1425684999.995,66.97103
1425685000.011,73.85466
1425685000.026,80.80142
1425685000.042,86.83101
1425685000.058,90.72418
1425685000.073,91.33617
1425685000.089,87.82787
1425685000.105,79.89543
1425685000.12,67.8847
1425685000.136,52.686844
1425685000.151,35.568684
1425685000.167,17.91338
1425685000.183,0.90703297
1425685000.198,-14.571098
1425685000.214,-28.022736
1425685000.23,-39.19995
1425685000.245,-47.959057
1425685000.261,-54.191944
1425685000.276,-57.8
1425685000.292,-58.754612
1425685000.308,-57.20745
1425685000.323,-53.5131
1425685000.339,-48.231255
1425685000.355,-42.06291
1425685000.37,-35.69744
1425685000.386,-29.722185
1425685000.401,-24.510248
1425685000.417,-20.181355
1425685000.433,-16.68576
1425685000.448,-13.835281
1425685000.464,-11.45347
1425685000.48,-9.383724
1425685000.495,-7.4945087
1425685000.511,-5.6611958
1425685000.526,-3.7446232
1425685000.542,-1.6254654
1425685000.558,0.78855133
1425685000.573,3.5073967
1425685000.589,6.5045185
1425685000.605,9.728552
1425685000.62,13.123554
1425685000.636,16.640137
1425685000.651,20.197468
1425685000.667,23.750114
1425685000.683,27.300137
1425685000.698,31.0243
1425685000.714,35.194843
1425685000.73,40.118687
1425685000.745,45.98596
1425685000.761,52.63757
1425685000.776,59.53386
1425685000.792,65.82072
1425685000.808,70.44402
1425685000.823,72.41188
1425685000.839,70.98126
1425685000.855,65.7861
1425685000.87,56.9595
1425685000.886,45.053707
1425685000.901,30.964432
1425685000.917,15.719509
1425685000.933,0.3693695
1425685000.948,-14.183594
1425685000.964,-27.266129
1425685000.98,-38.393715
1425685000.995,-47.38604
1425685001.011,-54.195
1425685001.026,-58.927177
1425685001.042,-61.59861
1425685001.058,-62.12036
1425685001.073,-60.325172
1425685001.089,-56.259155
1425685001.105,-50.36953
1425685001.12,-43.558357
1425685001.136,-37.013847
1425685001.151,-31.768707
1425685001.167,-28.303497
1425685001.183,-26.501595
1425685001.198,-25.74038
1425685001.214,-25.335976
1425685001.23,-24.810684
1425685001.245,-23.942673
1425685001.261,-22.681953
1425685001.276,-21.020782
1425685001.292,-18.888573
1425685001.308,-16.240639
1425685001.323,-13.126175
1425685001.339,-9.69339
1425685001.355,-6.1041718
1425685001.37,-2.446045
1425685001.386,1.2786789
1425685001.401,5.1294327
1425685001.417,9.1682205
1425685001.433,13.498566
1425685001.448,18.219894
1425685001.464,23.43245
1425685001.48,29.16307
1425685001.495,35.2891
1425685001.511,41.516113
1425685001.526,47.418884
1425685001.542,52.526093
1425685001.558,56.337227
1425685001.573,58.34928
1425685001.589,57.959526
1425685001.605,54.522324
1425685001.62,47.582886
1425685001.636,37.05049
1425685001.651,23.389427
1425685001.667,7.6230164
1425685001.683,-8.925972
1425685001.698,-24.939812
1425685001.714,-39.409584
1425685001.73,-51.711807
1425685001.745,-61.584213
1425685001.761,-68.9444
1425685001.776,-73.79578
1425685001.792,-76.14548
1425685001.808,-76.04217
1425685001.823,-73.64643
1425685001.839,-69.368935
1425685001.855,-63.81031
1425685001.87,-57.68477
1425685001.886,-51.655556
1425685001.902,-46.181984
1425685001.917,-41.43477
1425685001.933,-37.362724
1425685001.948,-33.80931
1425685001.964,-30.677689
1425685001.98,-27.933655
1425685001.995,-25.558266
1425685002.011,-23.437813
1425685002.027,-21.342072
1425685002.042,-18.94973
1425685002.058,-15.999496
1425685002.073,-12.382332
1425685002.089,-8.203514
1425685002.105,-3.68544
1425685002.12,0.90187836
1425685002.136,5.4253235
1425685002.152,9.885033
1425685002.167,14.383049
1425685002.183,19.064186
1425685002.198,24.047829
1425685002.214,29.385513
1425685002.23,35.071274
1425685002.245,41.081215
1425685002.261,47.30719
1425685002.277,53.538963
1425685002.292,59.429436
1425685002.308,64.367584
1425685002.323,67.59532
1425685002.339,68.223885
1425685002.355,65.46259
1425685002.37,58.82663
1425685002.386,48.311813
1425685002.402,34.415344
1425685002.417,18.091331
1425685002.433,0.5537796
1425685002.448,-16.906418
1425685002.464,-33.126434
1425685002.48,-47.140892
1425685002.495,-58.307327
1425685002.511,-66.261475
1425685002.527,-70.965294
1425685002.542,-72.597
1425685002.558,-71.48927
1425685002.573,-68.05317
1425685002.589,-62.785103
1425685002.605,-56.27397
1425685002.62,-49.16464
1425685002.636,-42.162712
1425685002.652,-35.885426
1425685002.667,-30.705555
1425685002.683,-26.734035
1425685002.698,-23.784061
1425685002.714,-21.518867
1425685002.73,-19.591965
1425685002.745,-17.659122
1425685002.761,-15.477058
1425685002.777,-12.904709
1425685002.792,-9.921745
1425685002.808,-6.6493073
1425685002.823,-3.268978
1425685002.839,0.071941376
1425685002.855,3.4277534
1425685002.87,7.028742
1425685002.886,11.226336
1425685002.902,16.260376
1425685002.917,22.125507
1425685002.933,28.549704
1425685002.948,35.17545
1425685002.964,41.72929
1425685002.98,48.16517
1425685002.995,54.643734
1425685003.011,61.347984
1425685003.027,68.28472
1425685003.042,75.19258
1425685003.058,81.48103
1425685003.073,86.33454
1425685003.089,88.806656
1425685003.105,88.006195
1425685003.12,83.31395
1425685003.136,74.52206
1425685003.152,61.87301
1425685003.167,46.057583
1425685003.183,28.096285
1425685003.198,9.128401
1425685003.214,-9.6534815
1425685003.23,-27.164593
1425685003.245,-42.46331
1425685003.261,-54.798515
1425685003.277,-63.71557
1425685003.292,-69.03
1425685003.308,-70.80264
1425685003.323,-69.34029
1425685003.339,-65.22229
1425685003.355,-59.260002
1425685003.37,-52.42662
1425685003.386,-45.679184
1425685003.402,-39.744465
1425685003.417,-34.926407
1425685003.433,-31.132498
1425685003.448,-28.017323
1425685003.464,-25.233622
1425685003.48,-22.59277
1425685003.495,-19.98754
1425685003.511,-17.353867
1425685003.527,-14.600729
1425685003.542,-11.610571
1425685003.558,-8.357616
1425685003.573,-4.954605
1425685003.589,-1.5921059
1425685003.605,1.6417236
1425685003.62,4.8305893
1425685003.636,8.247688
1425685003.652,12.204464
1425685003.667,16.844887
1425685003.683,22.154404
1425685003.698,27.914093
1425685003.714,33.831852
1425685003.73,39.670498
1425685003.745,45.27153
1425685003.761,50.641327
1425685003.777,55.907173
1425685003.792,61.314453
1425685003.808,67.03431
1425685003.823,73.04643
1425685003.839,78.95384
1425685003.855,83.926956
1425685003.87,86.92366
1425685003.886,86.870575
1425685003.902,82.952225
1425685003.917,74.78982
1425685003.933,62.528236
1425685003.948,46.80504
1425685003.964,28.725601
1425685003.98,9.7182045
1425685003.995,-8.718002
1425685004.011,-25.23098
1425685004.027,-38.921284
1425685004.042,-49.369736
1425685004.058,-56.583447
1425685004.073,-60.74843
1425685004.089,-62.165253
1425685004.105,-61.165596
1425685004.12,-58.188972
1425685004.136,-53.83138
1425685004.152,-48.75457
1425685004.167,-43.58267
1425685004.183,-38.699413
1425685004.198,-34.26145
1425685004.214,-30.226887
1425685004.23,-26.52074
1425685004.245,-23.08453
1425685004.261,-19.91529
1425685004.277,-17.051807
1425685004.292,-14.480328
1425685004.308,-12.163303
1425685004.323,-9.997868
1425685004.339,-7.8905907
1425685004.355,-5.713814
1425685004.37,-3.383377
1425685004.386,-0.79997253
1425685004.402,2.0870285
1425685004.417,5.3283424
1425685004.433,8.983685
1425685004.448,13.128727
1425685004.464,17.774765
1425685004.48,22.82088
1425685004.495,28.0228
1425685004.511,33.036613
1425685004.527,37.573505
1425685004.542,41.589752
1425685004.558,45.322575
1425685004.574,49.28068
1425685004.589,53.94619
1425685004.605,59.53028
1425685004.62,65.729164
1425685004.636,71.7387
1425685004.652,76.34126
1425685004.667,78.1838
1425685004.683,76.12155
1425685004.699,69.49446
1425685004.714,58.3536
1425685004.73,43.488518
1425685004.745,26.25435
1425685004.761,8.3347435
1425685004.777,-8.64399
1425685004.792,-23.438046
1425685004.808,-35.296326
1425685004.824,-44.009823
1425685004.839,-49.782124
1425685004.855,-53.087105
1425685004.87,-54.443947
1425685004.886,-54.32407
1425685004.902,-53.096115
1425685004.917,-50.98348
1425685004.933,-48.209064
1425685004.949,-44.976818
1425685004.964,-41.52272
1425685004.98,-38.053795
1425685004.995,-34.698456
1425685005.011,-31.507162
1425685005.027,-28.503128
1425685005.042,-25.753094
1425685005.058,-23.346592
1425685005.074,-21.441889
1425685005.089,-20.073402
1425685005.105,-19.11732
1425685005.12,-18.32796
1425685005.136,-17.40112
1425685005.152,-16.103111
1425685005.167,-14.294688
1425685005.183,-11.833407
1425685005.199,-8.591307
1425685005.214,-4.4867535
1425685005.23,0.44099617
1425685005.245,5.851722
1425685005.261,11.189787
1425685005.277,15.910498
1425685005.292,19.765566
1425685005.308,22.972046
1425685005.324,26.16507
1425685005.339,30.113832
1425685005.355,35.32671
1425685005.37,41.882256
1425685005.386,49.254196
1425685005.402,56.482567
1425685005.417,62.373524
1425685005.433,65.70207
1425685005.449,65.43056
1425685005.464,60.855988
1425685005.48,51.790535
1425685005.495,38.64386
1425685005.511,22.470541
1425685005.527,4.7536335
1425685005.542,-12.898468
1425685005.558,-29.034702
1425685005.574,-42.669918
1425685005.589,-53.373222
1425685005.605,-61.19654
1425685005.62,-66.451706
1425685005.636,-69.51335
1425685005.652,-70.625275
1425685005.667,-69.90229
1425685005.683,-67.44158
1425685005.699,-63.445503
1425685005.714,-58.334686
1425685005.73,-52.65154
1425685005.745,-46.92108
1425685005.761,-41.519127
1425685005.777,-36.63282
1425685005.792,-32.33876
1425685005.808,-28.664162
1425685005.824,-25.67498
1425685005.839,-23.42631
1425685005.855,-21.845438
1425685005.87,-20.711657
1425685005.886,-19.63769
1425685005.902,-18.20928
1425685005.917,-16.120544
1425685005.933,-13.227137
1425685005.949,-9.5707035
1425685005.964,-5.296465
1425685005.98,-0.6082096
1425685005.995,4.280697
1425685006.011,9.160816
1425685006.027,13.835489
1425685006.042,18.266552
1425685006.058,22.523611
1425685006.074,26.843348
1425685006.089,31.516174
1425685006.105,36.826
1425685006.12,42.896637
1425685006.136,49.600563
1425685006.152,56.47215
1425685006.167,62.7014
1425685006.183,67.20588
1425685006.199,68.85805
1425685006.214,66.697395
1425685006.23,60.22146
1425685006.245,49.518253
1425685006.261,35.27402
1425685006.277,18.591476
1425685006.292,0.800334
1425685006.308,-16.749315
1425685006.324,-32.85245
1425685006.339,-46.54716
1425685006.355,-57.18398
1425685006.37,-64.46657
1425685006.386,-68.46544
1425685006.402,-69.54585
1425685006.417,-68.21375
1425685006.433,-65.04423
1425685006.449,-60.54942
1425685006.464,-55.153347
1425685006.48,-49.254402
1425685006.495,-43.188267
1425685006.511,-37.260483
1425685006.527,-31.740543
1425685006.542,-26.842966
1425685006.558,-22.704882
1425685006.574,-19.38431
1425685006.589,-16.822412
1425685006.605,-14.851469
1425685006.62,-13.233181
1425685006.636,-11.648195
1425685006.652,-9.833002
1425685006.667,-7.564945
1425685006.683,-4.688034
1425685006.699,-1.0908623
1425685006.714,3.261135
1425685006.73,8.326874
1425685006.745,13.982002
1425685006.761,19.960987
1425685006.777,25.942413
1425685006.792,31.611317
1425685006.808,36.747078
1425685006.824,41.29986
1425685006.839,45.44882
1425685006.855,49.570076
1425685006.87,54.206192
1425685006.886,59.842213
1425685006.902,66.593216
1425685006.917,74.06517
1425685006.933,81.23511
1425685006.949,86.648224
1425685006.964,88.82902
1425685006.98,86.700615
1425685006.995,79.8245
1425685007.011,68.45529
1425685007.027,53.42469
1425685007.042,35.90324
1425685007.058,17.250294
1425685007.074,-1.1423302
1425685007.089,-18.032543
1425685007.105,-32.512524
1425685007.12,-44.106377
1425685007.136,-52.795
1425685007.152,-58.83619
1425685007.167,-62.530136
1425685007.183,-64.11604
1425685007.199,-63.728874
1425685007.214,-61.520683
1425685007.23,-57.763756
1425685007.246,-52.835815
1425685007.261,-47.131416
1425685007.277,-41.072014
1425685007.292,-35.06829
1425685007.308,-29.5205
1425685007.324,-24.817253
1425685007.339,-21.2332
1425685007.355,-18.764885
1425685007.371,-17.155792
1425685007.386,-15.942642
1425685007.402,-14.618523
1425685007.417,-12.806519
1425685007.433,-10.243309
1425685007.449,-6.809227
1425685007.464,-2.5450592
1425685007.48,2.4077072
1425685007.496,7.777069
1425685007.511,13.200096
1425685007.527,18.359146
1425685007.542,23.093315
1425685007.558,27.43248
1425685007.574,31.561295
1425685007.589,35.677773
1425685007.605,39.93251
1425685007.621,44.455307
1425685007.636,49.429115
1425685007.652,55.045746
1425685007.667,61.422295
1425685007.683,68.37886
1425685007.699,75.29106
1425685007.714,81.131165
1425685007.73,84.69566
1425685007.746,84.85881
1425685007.761,80.87103
1425685007.777,72.536476
1425685007.792,60.23139
1425685007.808,44.878098
1425685007.824,27.778694
1425685007.839,10.312393
1425685007.855,-6.2788544
1425685007.871,-21.11789
1425685007.886,-33.740814
1425685007.902,-43.97959
1425685007.917,-51.77932
1425685007.933,-57.131805
1425685007.949,-59.985733
1425685007.964,-60.43109
1425685007.98,-58.76252
1425685007.996,-55.440773
1425685008.011,-51.02716
1425685008.027,-46.068977
1425685008.042,-40.992928
1425685008.058,-36.1186
1425685008.074,-31.637405
1425685008.089,-27.672783
1425685008.105,-24.220974
1425685008.121,-21.226845
1425685008.136,-18.594093
1425685008.152,-16.226944
1425685008.167,-14.058369
1425685008.183,-11.953918
1425685008.199,-9.715149
1425685008.214,-7.1245995
1425685008.23,-3.982788
1425685008.246,-0.2513504
1425685008.261,3.9224815
1425685008.277,8.295593
1425685008.292,12.6770935
1425685008.308,16.950901
1425685008.324,21.185417
1425685008.339,25.486053
1425685008.355,29.958912
1425685008.371,34.726982
1425685008.386,39.89744
1425685008.402,45.61146
1425685008.417,51.943253
1425685008.433,58.77619
1425685008.449,65.68288
1425685008.464,71.91023
1425685008.48,76.47218
1425685008.496,78.313095
1425685008.511,76.5424
1425685008.527,70.631454
1425685008.542,60.561787
1425685008.558,46.936054
1425685008.574,30.874062
1425685008.589,13.779692
1425685008.605,-2.983076
1425685008.621,-18.368773
1425685008.636,-31.787
1425685008.652,-42.9982
1425685008.667,-51.913284
1425685008.683,-58.519592
1425685008.699,-62.767517
1425685008.714,-64.68367
1425685008.73,-64.497086
1425685008.746,-62.571426
1425685008.761,-59.391975
1425685008.777,-55.472748
1425685008.792,-51.264023
1425685008.808,-47.173298
1425685008.824,-43.55519
1425685008.839,-40.665962
1425685008.855,-38.567932
1425685008.871,-37.180473
1425685008.886,-36.197975
1425685008.902,-35.262856
1425685008.917,-34.010887
1425685008.933,-32.10108
1425685008.949,-29.297672
1425685008.964,-25.505348
1425685008.98,-20.823532
1425685008.996,-15.549954
1425685009.011,-10.118036
1425685009.027,-4.9321423
1425685009.042,-0.13173783
1425685009.058,4.3757334
1425685009.074,8.9128475
1425685009.089,13.793731
1425685009.105,19.155468
1425685009.121,24.99109
1425685009.136,31.239899
1425685009.152,37.86367
1425685009.167,44.86263
1425685009.183,52.189
1425685009.199,59.57316
1425685009.214,66.49367
1425685009.23,72.22453
1425685009.246,75.90854
1425685009.261,76.72336
1425685009.277,73.975
1425685009.292,67.253716
1425685009.308,56.65961
1425685009.324,42.82466
1425685009.339,26.856903
1425685009.355,10.117007
1425685009.371,-6.1004887
1425685009.386,-20.866138
1425685009.402,-33.679264
1425685009.417,-44.327232
1425685009.433,-52.81641
1425685009.449,-59.12695
1425685009.464,-63.218437
1425685009.48,-65.07119
1425685009.496,-64.674965
1425685009.511,-62.15709
1425685009.527,-57.876106
1425685009.542,-52.383736
1425685009.558,-46.37768
1425685009.574,-40.63271
1425685009.589,-35.754173
1425685009.605,-32.06291
1425685009.621,-29.568699
1425685009.636,-28.031706
1425685009.652,-27.101646
1425685009.667,-26.433931
1425685009.683,-25.624756
1425685009.699,-24.274197
1425685009.714,-22.048002
1425685009.73,-18.74908
1425685009.746,-14.421743
1425685009.761,-9.372051
1425685009.777,-4.028985
1425685009.792,1.2279453
1425685009.808,6.1302633
1425685009.824,10.578743
1425685009.839,14.581568
1425685009.855,18.18285
1425685009.871,21.559883
1425685009.886,24.97939
1425685009.902,28.790987
1425685009.918,33.31399
1425685009.933,38.688972
1425685009.949,44.723083
1425685009.964,50.871574
1425685009.98,56.330414
1425685009.996,60.127377
1425685010.011,61.35117
1425685010.027,59.24927
1425685010.042,53.420155
1425685010.058,43.958073
1425685010.074,31.439568
1425685010.089,16.791248
1425685010.105,1.0560045
1425685010.121,-14.815074
1425685010.136,-30.033445
1425685010.152,-43.93975
1425685010.168,-55.903137
1425685010.183,-65.31573
1425685010.199,-71.63015
1425685010.214,-74.60112
1425685010.23,-74.34831
1425685010.246,-71.333755
1425685010.261,-66.24974
1425685010.277,-59.88366
1425685010.293,-52.93096
1425685010.308,-45.995052
1425685010.324,-39.54452
1425685010.339,-33.916374
1425685010.355,-29.228294
1425685010.371,-25.462498
1425685010.386,-22.42782
1425685010.402,-19.880829
1425685010.418,-17.612236
1425685010.433,-15.419575
1425685010.449,-13.15634
1425685010.464,-10.682968
1425685010.48,-7.903063
1425685010.496,-4.7745533
1425685010.511,-1.3304214
1425685010.527,2.3413544
1425685010.543,6.21089
1425685010.558,10.302986
1425685010.574,14.707949
1425685010.589,19.51021
1425685010.605,24.66929
1425685010.621,30.056889
1425685010.636,35.55104
1425685010.652,41.091286
1425685010.668,46.771297
1425685010.683,52.777233
1425685010.699,59.2588
1425685010.714,66.15036
1425685010.73,73.09685
1425685010.746,79.373474
1425685010.761,84.04497
1425685010.777,86.07565
1425685010.793,84.58904
1425685010.808,79.06918
1425685010.824,69.5049
1425685010.839,56.345722
1425685010.855,40.440495
1425685010.871,22.860199
1425685010.886,4.72686
1425685010.902,-12.870972
1425685010.918,-28.9104
1425685010.933,-42.571556
1425685010.949,-53.23958
1425685010.964,-60.610043
1425685010.98,-64.684
1425685010.996,-65.72665
1425685011.011,-64.17959
1425685011.027,-60.623928
1425685011.043,-55.73916
1425685011.058,-50.159256
1425685011.074,-44.508656
1425685011.089,-39.213287
1425685011.105,-34.464848
1425685011.121,-30.283443
1425685011.136,-26.585407
1425685011.152,-23.26773
1425685011.168,-20.290653
1425685011.183,-17.574501
1425685011.199,-14.974636
1425685011.214,-12.335842
1425685011.23,-9.539917
1425685011.246,-6.5666847
1425685011.261,-3.5047836
1425685011.277,-0.42803955
1425685011.293,2.707985
1425685011.308,6.1240234
1425685011.324,10.089783
1425685011.339,14.795685
1425685011.355,20.196358
1425685011.371,26.088913
1425685011.386,32.19626
1425685011.402,38.276825
1425685011.418,44.22886
1425685011.433,50.043335
1425685011.449,55.80517
1425685011.464,61.579056
1425685011.48,67.434204
1425685011.496,73.227165
1425685011.511,78.5578
1425685011.527,82.703
1425685011.543,84.72474
1425685011.558,83.76683
1425685011.574,79.24708
1425685011.589,71.00797
1425685011.605,59.28236
1425685011.621,44.694122
1425685011.636,28.094269
1425685011.652,10.59166
1425685011.668,-6.5732
1425685011.683,-22.191105
1425685011.699,-35.288197
1425685011.714,-45.356693
1425685011.73,-52.32921
1425685011.746,-56.439194
1425685011.761,-57.98133
1425685011.777,-57.25142
1425685011.793,-54.570854
1425685011.808,-50.417343
1425685011.824,-45.47791
1425685011.839,-40.498432
1425685011.855,-36.032047
1425685011.871,-32.31577
1425685011.886,-29.192776
1425685011.902,-26.366104
1425685011.918,-23.601318
1425685011.933,-20.799965
1425685011.949,-18.009945
1425685011.964,-15.345776
1425685011.98,-12.851673
1425685011.996,-10.517483
1425685012.011,-8.278942
1425685012.027,-6.0905075
1425685012.043,-3.8577423
1425685012.058,-1.4858551
1425685012.074,1.1707802
1425685012.089,4.2508926
1425685012.105,7.796736
1425685012.121,11.826769
1425685012.136,16.25996
1425685012.152,20.96825
1425685012.168,25.800959
1425685012.183,30.61882
1425685012.199,35.32596
1425685012.214,39.955475
1425685012.23,44.659813
1425685012.246,49.606426
1425685012.261,54.85417
1425685012.277,60.128906
1425685012.293,64.78936
1425685012.308,67.90292
1425685012.324,68.427216
1425685012.339,65.45082
1425685012.355,58.47139
1425685012.371,47.526863
1425685012.386,33.2651
1425685012.402,16.85595
1425685012.418,-0.1813407
1425685012.433,-16.326597
1425685012.449,-30.33078
1425685012.464,-41.483902
1425685012.48,-49.654438
1425685012.496,-55.106316
1425685012.511,-58.300102
1425685012.527,-59.621674
1425685012.543,-59.347454
1425685012.558,-57.66658
1425685012.574,-54.828247
1425685012.589,-51.189644
1425685012.605,-47.14482
1425685012.621,-43.100548
1425685012.636,-39.31832
1425685012.652,-35.94412
1425685012.668,-33.00197
1425685012.683,-30.410704
1425685012.699,-28.08283
1425685012.714,-25.948158
1425685012.73,-23.998663
1425685012.746,-22.256578
1425685012.761,-20.715145
1425685012.777,-19.275274
1425685012.793,-17.727018
1425685012.808,-15.804674
1425685012.824,-13.201057
1425685012.84,-9.772469
1425685012.855,-5.5476894
1425685012.871,-0.7141781
1425685012.886,4.4531116
1425685012.902,9.653236
1425685012.918,14.650501
1425685012.933,19.339941
1425685012.949,23.723757
1425685012.965,27.96439
1425685012.98,32.343975
1425685012.996,37.111572
1425685013.011,42.322
1425685013.027,47.71515
1425685013.043,52.764526
1425685013.058,56.823135
1425685013.074,59.229263
1425685013.09,59.330162
1425685013.105,56.4623
1425685013.121,49.979095
1425685013.136,39.464775
1425685013.152,25.063221
1425685013.168,7.6823044
1425685013.183,-11.094036
1425685013.199,-29.40562
1425685013.215,-45.62984
1425685013.23,-58.73669
1425685013.246,-68.31195
1425685013.261,-74.34901
1425685013.277,-77.01933
1425685013.293,-76.578026
1425685013.308,-73.43681
1425685013.324,-68.266655
1425685013.34,-61.973053
1425685013.355,-55.478718
1425685013.371,-49.50744
1425685013.386,-44.37777
1425685013.402,-40.056526
1425685013.418,-36.279793
1425685013.433,-32.673336
1425685013.449,-28.94848
1425685013.465,-25.00943
1425685013.48,-21.060045
1425685013.496,-17.472046
1425685013.511,-14.700628
1425685013.527,-13.001062
1425685013.543,-12.231594
1425685013.558,-11.865807
1425685013.574,-11.152624
1425685013.59,-9.427247
1425685013.605,-6.2997885
1425685013.621,-1.6770306
1425685013.636,4.272341
1425685013.652,11.181701
1425685013.668,18.519873
1425685013.683,25.66233
1425685013.699,32.010323
1425685013.715,37.203766
1425685013.73,41.352787
1425685013.746,44.983067
1425685013.761,48.848305
1425685013.777,53.511112
1425685013.793,59.045452
1425685013.808,64.9982
1425685013.824,70.43679
1425685013.84,74.20902
1425685013.855,75.1239
1425685013.871,72.15198
1425685013.886,64.619316
1425685013.902,52.419403
1425685013.918,36.1894
1425685013.933,17.248901
1425685013.949,-2.620348
1425685013.965,-21.66785
1425685013.98,-38.536896
1425685013.996,-52.42462
1425685014.011,-63.02029
1425685014.027,-70.307396
1425685014.043,-74.37479
1425685014.058,-75.38103
1425685014.074,-73.616135
1425685014.09,-69.63522
1425685014.105,-64.18701
1425685014.121,-58.104057
1425685014.136,-52.03682
1425685014.152,-46.37114
1425685014.168,-41.190895
1425685014.183,-36.332603
1425685014.199,-31.613216
1425685014.215,-26.936737
1425685014.23,-22.402279
1425685014.246,-18.215816
1425685014.261,-14.571804
1425685014.277,-11.566467
1425685014.293,-9.055016
1425685014.308,-6.777088
1425685014.324,-4.4241753
1425685014.34,-1.7601547
1425685014.355,1.3646812
1425685014.371,5.0566483
1425685014.386,9.444412
1425685014.402,14.628899
1425685014.418,20.56849
1425685014.433,27.03421
1425685014.449,33.550697
1425685014.465,39.589504
1425685014.48,44.76289
1425685014.496,48.965004
1425685014.511,52.486206
1425685014.527,55.872765
1425685014.543,59.76655
1425685014.558,64.63819
1425685014.574,70.60825
1425685014.59,77.2322
1425685014.605,83.58942
1425685014.621,88.3565
1425685014.636,90.107544
1425685014.652,87.67795
1425685014.668,80.432434
1425685014.683,68.442696
1425685014.699,52.457115
1425685014.715,33.735687
1425685014.73,13.816994
1425685014.746,-5.6662445
1425685014.761,-23.262352
1425685014.777,-37.94922
1425685014.793,-49.234978
1425685014.808,-57.165672
1425685014.824,-62.169937
1425685014.84,-64.80931
1425685014.855,-65.51153
1425685014.871,-64.54412
1425685014.886,-62.012886
1425685014.902,-58.060165
1425685014.918,-52.910675
1425685014.933,-46.88407
1425685014.949,-40.361687
1425685014.965,-33.817924
1425685014.98,-27.703033
1425685014.996,-22.447556
1425685015.011,-18.418365
1425685015.027,-15.733711
1425685015.043,-14.215385
1425685015.058,-13.457596
1425685015.074,-12.935516
1425685015.09,-12.172119
1425685015.105,-10.843643
1425685015.121,-8.712135
1425685015.136,-5.6334534
1425685015.152,-1.5583878
1425685015.168,3.3891144
1425685015.183,8.877045
1425685015.199,14.400909
1425685015.215,19.499863
1425685015.23,23.952576
1425685015.246,27.82447
1425685015.261,31.412949
1425685015.277,35.053093
1425685015.293,38.997032
1425685015.308,43.49787
1425685015.324,48.794815
1425685015.34,55.082542
1425685015.355,62.369026
1425685015.371,70.27689
1425685015.386,77.9292
1425685015.402,84.11574
1425685015.418,87.55627
1425685015.433,87.22024
1425685015.449,82.51875
1425685015.465,73.37486
1425685015.48,60.202873
1425685015.496,44.0288
1425685015.512,26.253685
1425685015.527,8.445129
1425685015.543,-8.049446
1425685015.558,-22.391052
1425685015.574,-34.382683
1425685015.59,-44.231926
1425685015.605,-52.14646
1425685015.621,-58.12168
1425685015.637,-61.863014
1425685015.652,-63.07006
1425685015.668,-61.67481
1425685015.683,-57.936752
1425685015.699,-52.433723
1425685015.715,-45.913025
1425685015.73,-39.14066
1425685015.746,-32.802563
1425685015.762,-27.45036
1425685015.777,-23.392738
1425685015.793,-20.621006
1425685015.808,-18.82045
1425685015.824,-17.50159
1425685015.84,-16.22097
1425685015.855,-14.699036
1425685015.871,-12.782448
1425685015.887,-10.386738
1425685015.902,-7.4587784
1425685015.918,-3.9745445
1425685015.933,-0.045879364
1425685015.949,4.0907593
1425685015.965,8.150631
1425685015.98,11.953091
1425685015.996,15.522644
1425685016.012,19.068153
1425685016.027,22.810215
1425685016.043,26.8204
1425685016.058,31.065485
1425685016.074,35.410988
1425685016.09,39.76812
1425685016.105,44.21926
1425685016.121,48.93345
1425685016.137,54.06758
1425685016.152,59.552696
1425685016.168,65.0149
1425685016.183,69.649574
1425685016.199,72.40677
1425685016.215,72.13371
1425685016.23,67.908104
1425685016.246,59.37973
1425685016.262,46.92002
1425685016.277,31.564148
1425685016.293,14.759586
1425685016.308,-1.9919157
1425685016.324,-17.438316
1425685016.34,-30.743896
1425685016.355,-41.495773
1425685016.371,-49.633335
1425685016.387,-55.312122
1425685016.402,-58.762806
1425685016.418,-60.231224
1425685016.433,-59.8582
1425685016.449,-57.756264
1425685016.465,-54.097828
1425685016.48,-49.266968
1425685016.496,-43.837322
1425685016.512,-38.492004
1425685016.527,-33.805084
1425685016.543,-30.003345
1425685016.558,-27.004704
1425685016.574,-24.513363
1425685016.59,-22.271812
1425685016.605,-20.190197
1425685016.621,-18.298107
1425685016.637,-16.607697
1425685016.652,-15.000374
1425685016.668,-13.239971
1425685016.683,-11.06237
1425685016.699,-8.297447
1425685016.715,-4.933586
1425685016.73,-1.061966
1425685016.746,3.1756134
1425685016.762,7.610718
1425685016.777,12.031284
1425685016.793,16.256626
1425685016.808,20.20898
1425685016.824,23.993874
1425685016.84,27.913132
1425685016.855,32.313602
1425685016.871,37.438004
1425685016.887,43.208164
1425685016.902,49.20119
1425685016.918,54.727116
1425685016.933,58.97235
1425685016.949,61.089516
1425685016.965,60.32299
1425685016.98,56.02585
1425685016.996,47.878082
1425685017.012,36.026367
1425685017.027,21.187195
1425685017.043,4.6292267
1425685017.058,-12.108124
1425685017.074,-27.57338
1425685017.09,-40.763016
1425685017.105,-51.255005
1425685017.121,-59.177658
1425685017.137,-64.89613
1425685017.152,-68.74352
1425685017.168,-70.79978
1425685017.183,-70.90482
1425685017.199,-68.861176
1425685017.215,-64.737785
1425685017.23,-59.05184
1425685017.246,-52.661064
1425685017.262,-46.517998
1425685017.277,-41.314194
1425685017.293,-37.26065
1425685017.308,-34.12706
1425685017.324,-31.513428
1425685017.34,-29.093147
1425685017.355,-26.732094
1425685017.371,-24.41977
1425685017.387,-22.09864
1425685017.402,-19.590195
1425685017.418,-16.62577
1425685017.433,-12.985672
1425685017.449,-8.650032
1425685017.465,-3.8126297
1425685017.48,1.2176514
1425685017.496,6.1001053
1425685017.512,10.626472
1425685017.527,14.72757
1425685017.543,18.513908
1425685017.558,22.329948
1425685017.574,26.661896
1425685017.59,31.960434
1425685017.605,38.44126
1425685017.621,45.8888
1425685017.637,53.59587
1425685017.652,60.55414
1425685017.668,65.734215
1425685017.683,68.265434
1425685017.699,67.55231
1425685017.715,63.242775
1425685017.73,55.178513
1425685017.746,43.51571
1425685017.762,28.796692
1425685017.777,11.972923
1425685017.793,-5.7096405
1425685017.808,-22.951813
1425685017.824,-38.680565
1425685017.84,-52.18921
1425685017.855,-63.036186
1425685017.871,-71.00199
1425685017.887,-75.90858
1425685017.902,-77.68254
1425685017.918,-76.45319
1425685017.933,-72.58326
1425685017.949,-66.71634
1425685017.965,-59.66369
1425685017.98,-52.209763
1425685017.996,-44.994354
1425685018.012,-38.427536
1425685018.027,-32.690895
1425685018.043,-27.785202
1425685018.058,-23.6436
1425685018.074,-20.168793
1425685018.09,-17.303734
1425685018.105,-14.96402
1425685018.121,-12.930733
1425685018.137,-10.875244
1425685018.152,-8.42239
1425685018.168,-5.2685394
1425685018.184,-1.3485603
1425685018.199,3.1761131
1425685018.215,7.9754333
1425685018.23,12.786873
1425685018.246,17.4664
1425685018.262,22.066723
1425685018.277,26.723099
1425685018.293,31.58567
1425685018.309,36.79804
1425685018.324,42.487305
1425685018.34,48.740074
1425685018.355,55.551937
1425685018.371,62.750095
1425685018.387,69.870476
1425685018.402,76.20152
1425685018.418,80.87348
1425685018.434,82.95504
1425685018.449,81.62924
1425685018.465,76.28348
1425685018.48,66.69272
1425685018.496,53.164726
1425685018.512,36.54821
1425685018.527,18.141804
1425685018.543,-0.5835266
1425685018.559,-18.324482
1425685018.574,-34.167404
1425685018.59,-47.584713
1425685018.605,-58.304447
1425685018.621,-66.13886
1425685018.637,-70.89868
1425685018.652,-72.50022
1425685018.668,-71.113914
1425685018.684,-67.22617
1425685018.699,-61.58504
1425685018.715,-55.053802
1425685018.73,-48.389137
1425685018.746,-42.142494
1425685018.762,-36.619736
1425685018.777,-31.971739
1425685018.793,-28.181551
1425685018.809,-25.190563
1425685018.824,-22.862165
1425685018.84,-20.992083
1425685018.855,-19.33927
1425685018.871,-17.572985
1425685018.887,-15.344773
1425685018.902,-12.375326
1425685018.918,-8.525557
1425685018.934,-3.8718176
1425685018.949,1.3479786
1425685018.965,6.801547
1425685018.98,12.250413
1425685018.996,17.560593
1425685019.012,22.73798
1425685019.027,27.800892
1425685019.043,32.755924
1425685019.059,37.6251
1425685019.074,42.500248
1425685019.09,47.554047
1425685019.105,53.053535
1425685019.121,59.22162
1425685019.137,66.05044
1425685019.152,73.20933
1425685019.168,80.011925
1425685019.184,85.43985
1425685019.199,88.30153
1425685019.215,87.46021
1425685019.23,82.12163
1425685019.246,72.12082
1425685019.262,58.050484
1425685019.277,41.103794
1425685019.293,22.783094
1425685019.309,4.4973874
1425685019.324,-12.707412
1425685019.34,-28.16304
1425685019.355,-41.44279
1425685019.371,-52.20364
1425685019.387,-60.080162
1425685019.402,-64.81834
1425685019.418,-66.384384
1425685019.434,-65.05538
1425685019.449,-61.41891
1425685019.465,-56.24403
1425685019.48,-50.323856
1425685019.496,-44.363823
1425685019.512,-38.865242
1425685019.527,-34.119987
1425685019.543,-30.18015
1425685019.559,-26.96038
1425685019.574,-24.274284
1425685019.59,-21.95932
1425685019.605,-19.927002
1425685019.621,-18.004736
1425685019.637,-15.983087
1425685019.652,-13.640587
1425685019.668,-10.813833
1425685019.684,-7.5179114
1425685019.699,-3.9642067
1425685019.715,-0.407578
1425685019.73,3.037151
1425685019.746,6.4659014
1425685019.762,10.135084
1425685019.777,14.226169
1425685019.793,18.752815
1425685019.809,23.57668
1425685019.824,28.523222
1425685019.84,33.5443
1425685019.855,38.7893
1425685019.871,44.477264
1425685019.887,50.701534
1425685019.902,57.33699
1425685019.918,63.98477
1425685019.934,69.9958
1425685019.949,74.597496
1425685019.965,76.92482
1425685019.98,76.13253
1425685019.996,71.58117
1425685020.012,62.998962
1425685020.027,50.595585
1425685020.043,35.12694
1425685020.059,17.690413
1425685020.074,-0.388
1425685020.09,-17.824156
1425685020.105,-33.49578
1425685020.121,-46.594418
1425685020.137,-56.61139
1425685020.152,-63.352142
1425685020.168,-66.899536
1425685020.184,-67.45788
1425685020.199,-65.37392
1425685020.215,-61.143463
1425685020.23,-55.386105
1425685020.246,-48.84527
1425685020.262,-42.255104
1425685020.277,-36.204063
1425685020.293,-30.983322
1425685020.309,-26.6039
1425685020.324,-22.861885
1425685020.34,-19.54092
1425685020.355,-16.515017
1425685020.371,-13.727621
1425685020.387,-11.164654
1425685020.402,-8.779058
1425685020.418,-6.4403543
1425685020.434,-4.0272274
1425685020.449,-1.4453135
1425685020.465,1.3284273
1425685020.48,4.302429
1425685020.496,7.468569
1425685020.512,10.870285
1425685020.527,14.5124035
1425685020.543,18.39141
1425685020.559,22.4877
1425685020.574,26.75499
1425685020.59,31.132664
1425685020.605,35.576164
1425685020.621,40.113464
1425685020.637,44.84419
1425685020.652,49.898216
1425685020.668,55.344856
1425685020.684,60.93462
1425685020.699,66.0475
1425685020.715,69.62167
1425685020.73,70.457405
1425685020.746,67.52022
1425685020.762,60.29203
1425685020.777,48.878345
1425685020.793,34.00248
1425685020.809,16.833809
1425685020.824,-1.2658863
1425685020.84,-18.938147
1425685020.856,-34.977737
1425685020.871,-48.49816
1425685020.887,-58.976578
1425685020.902,-66.30519
1425685020.918,-70.64214
1425685020.934,-72.22778
1425685020.949,-71.322464
1425685020.965,-68.21911
1425685020.98,-63.37692
1425685020.996,-57.48676
1425685021.012,-51.424347
1425685021.027,-45.979366
1425685021.043,-41.583626
1425685021.059,-38.19587
1425685021.074,-35.415504
1425685021.09,-32.7854
1425685021.106,-30.09007
1425685021.121,-27.41381
1425685021.137,-24.99856
1425685021.152,-23.049982
1425685021.168,-21.50708
1425685021.184,-20.06331
1425685021.199,-18.2709
1425685021.215,-15.755096
1425685021.231,-12.319561
1425685021.246,-8.034622
1425685021.262,-3.1368542
1425685021.277,2.054617
1425685021.293,7.2869625
1425685021.309,12.476223
1425685021.324,17.706161
1425685021.34,23.147375
1425685021.356,28.968803
1425685021.371,35.21336
1425685021.387,41.796555
1425685021.402,48.489494
1425685021.418,55.01979
1425685021.434,60.99408
1425685021.449,65.89218
1425685021.465,68.97227
1425685021.481,69.35687
1425685021.496,66.263535
1425685021.512,59.210007
1425685021.527,48.231785
1425685021.543,33.89089
1425685021.559,17.185303
1425685021.574,-0.67569065
1425685021.59,-18.45352
1425685021.606,-35.004852
1425685021.621,-49.409187
1425685021.637,-60.98534
1425685021.652,-69.300514
1425685021.668,-74.19884
1425685021.684,-75.72306
1425685021.699,-74.139046
1425685021.715,-69.97533
1425685021.731,-63.975464
1425685021.746,-57.03834
1425685021.762,-50.07255
1425685021.777,-43.815975
1425685021.793,-38.619553
1425685021.809,-34.480553
1425685021.824,-31.126719
1425685021.84,-28.174845
1425685021.856,-25.310284
1425685021.871,-22.314623
1425685021.887,-19.056929
1425685021.902,-15.527828
1425685021.918,-11.763957
1425685021.934,-7.8711815
1425685021.949,-3.9464493
1425685021.965,-0.03614998
1425685021.981,3.9077206
1425685021.996,7.9943085
1425685022.012,12.339947
1425685022.027,16.962671
1425685022.043,21.811523
1425685022.059,26.833208
1425685022.074,32.032043
1425685022.09,37.437042
1425685022.106,43.087387
1425685022.121,48.963127
1425685022.137,54.98784
1425685022.152,61.056004
1425685022.168,67.05716
1425685022.184,72.744354
1425685022.199,77.6806
1425685022.215,81.10043
1425685022.231,81.99507
1425685022.246,79.32353
1425685022.262,72.36827
1425685022.277,60.94988
1425685022.293,45.557587
1425685022.309,27.266304
1425685022.324,7.5040016
1425685022.34,-12.216301
1425685022.356,-30.50867
1425685022.371,-46.314445
1425685022.387,-58.94795
1425685022.402,-68.06471
1425685022.418,-73.6255
1425685022.434,-75.777115
1425685022.449,-74.838165
1425685022.465,-71.32309
1425685022.481,-65.959854
1425685022.496,-59.61554
1425685022.512,-53.15859
1425685022.527,-47.224358
1425685022.543,-42.04784
1425685022.559,-37.547375
1425685022.574,-33.430054
1425685022.59,-29.449951
1425685022.606,-25.5206
1425685022.621,-21.664207
1425685022.637,-17.911758
1425685022.652,-14.240425
1425685022.668,-10.58152
1425685022.684,-6.8801727
1425685022.699,-3.1594849
1425685022.715,0.51633453
1425685022.731,4.1885147
1425685022.746,7.958992
1425685022.762,12.067581
1425685022.777,16.722748
1425685022.793,21.993805
1425685022.809,27.751656
1425685022.824,33.73375
1425685022.84,39.593338
1425685022.856,45.097298
1425685022.871,50.22039
1425685022.887,55.14544
1425685022.902,60.245865
1425685022.918,65.872314
1425685022.934,72.0974
1425685022.949,78.5757
1425685022.965,84.46215
1425685022.981,88.60886
1425685022.996,89.86439
1425685023.012,87.339424
1425685023.027,80.58911
1425685023.043,69.662994
1425685023.059,55.098938
1425685023.074,37.81395
1425685023.09,19.049156
1425685023.106,0.25543976
1425685023.121,-17.224846
1425685023.137,-32.307755
1425685023.152,-44.380577
1425685023.168,-53.261497
1425685023.184,-59.025993
1425685023.199,-61.858078
1425685023.215,-61.995598
1425685023.231,-59.79187
1425685023.246,-55.756584
1425685023.262,-50.59025
1425685023.277,-44.99901
1425685023.293,-39.557297
1425685023.309,-34.627228
1425685023.324,-30.328026
1425685023.34,-26.660141
1425685023.356,-23.568924
1425685023.371,-20.89531
1425685023.387,-18.436226
1425685023.402,-15.962471
1425685023.418,-13.327934
1425685023.434,-10.54113
1425685023.449,-7.799408
1425685023.465,-5.3092194
1425685023.481,-3.1762695
1425685023.496,-1.2949982
1425685023.512,0.64845276
1425685023.527,3.0443344
1425685023.543,6.1829605
1425685023.559,10.241913
1425685023.574,15.210381
1425685023.59,20.883102
1425685023.606,26.942825
1425685023.621,32.989487
1425685023.637,38.68348
1425685023.652,43.86949
1425685023.668,48.687286
1425685023.684,53.4897
1425685023.699,58.68113
1425685023.715,64.43264
1425685023.731,70.50233
1425685023.746,76.24361
1425685023.762,80.666306
1425685023.778,82.60288
1425685023.793,80.9316
1425685023.809,74.84502
1425685023.824,64.065186
1425685023.84,49.038025
1425685023.856,30.992088
1425685023.871,11.671856
1425685023.887,-7.0375175
1425685023.903,-23.586674
1425685023.918,-37.05924
1425685023.934,-47.17469
1425685023.949,-54.156986
1425685023.965,-58.444073
1425685023.981,-60.47632
1425685023.996,-60.630054
1425685024.012,-59.24696
1425685024.028,-56.68344
1425685024.043,-53.308086
1425685024.059,-49.46283
1425685024.074,-45.416042
1425685024.09,-41.38146
1425685024.106,-37.51843
1425685024.121,-33.885662
1425685024.137,-30.502975
1425685024.153,-27.385586
1425685024.168,-24.578594
1425685024.184,-22.147625
1425685024.199,-20.174229
1425685024.215,-18.664242
1425685024.231,-17.476368
1425685024.246,-16.351032
1425685024.262,-14.949181
1425685024.278,-12.963758
1425685024.293,-10.170166
1425685024.309,-6.4621315
1425685024.324,-1.8386765
1425685024.34,3.5364437
1425685024.356,9.343821
1425685024.371,15.167715
1425685024.387,20.594662
1425685024.403,25.345844
1425685024.418,29.431517
1425685024.434,33.12552
1425685024.449,36.860775
1425685024.465,41.08757
1425685024.481,46.065308
1425685024.496,51.82552
1425685024.512,58.07046
1425685024.528,64.11688
1425685024.543,68.91673
1425685024.559,71.18033
1425685024.574,69.61499
1425685024.59,63.32568
1425685024.606,52.167877
1425685024.621,36.874577
1425685024.637,18.941658
1425685024.653,0.19634628
1425685024.668,-17.632746
1425685024.684,-33.246803
1425685024.699,-45.929283
1425685024.715,-55.533463
1425685024.731,-62.278515
1425685024.746,-66.53105
1425685024.762,-68.67852
1425685024.778,-69.04073
1425685024.793,-67.85205
1425685024.809,-65.38606
1425685024.824,-61.923874
1425685024.84,-57.80732
1425685024.856,-53.35443
1425685024.871,-48.787933
1425685024.887,-44.21178
1425685024.903,-39.738678
1425685024.918,-35.524876
1425685024.934,-31.826874
1425685024.949,-28.885366
1425685024.965,-26.840519
1425685024.981,-25.551897
1425685024.996,-24.677517
1425685025.012,-23.740292
1425685025.028,-22.31247
1425685025.043,-20.113419
1425685025.059,-16.939976
1425685025.074,-12.718649
1425685025.09,-7.4818163
1425685025.106,-1.4358306
1425685025.121,4.998588
1425685025.137,11.296559
1425685025.153,16.991436
1425685025.168,21.91032
1425685025.184,26.201153
1425685025.199,30.315697
1425685025.215,34.7459
1425685025.231,39.83484
1425685025.246,45.726543
1425685025.262,52.28747
1425685025.278,59.11473
1425685025.293,65.516426
1425685025.309,70.53355
1425685025.324,73.03226
1425685025.34,71.9318
1425685025.356,66.4779
1425685025.371,56.4543
1425685025.387,42.30983
1425685025.403,25.06901
1425685025.418,6.1908045
1425685025.434,-12.70104
1425685025.449,-30.06244
1425685025.465,-44.755737
1425685025.481,-56.161453
1425685025.496,-64.21672
1425685025.512,-69.25322
1425685025.528,-71.74556
1425685025.543,-72.0545
1425685025.559,-70.39586
1425685025.574,-66.92601
1425685025.59,-61.909195
1425685025.606,-55.798542
1425685025.621,-49.139755
1425685025.637,-42.446995
1425685025.653,-36.11586
1425685025.668,-30.380432
1425685025.684,-25.447649
1425685025.699,-21.469995
1425685025.715,-18.53833
1425685025.731,-16.547459
1425685025.746,-15.224703
1425685025.762,-14.112694
1425685025.778,-12.762585
1425685025.793,-10.84837
1425685025.809,-8.174055
1425685025.824,-4.6751785
1425685025.84,-0.37173462
1425685025.856,4.644596
1425685025.871,10.172052
1425685025.887,15.892775
1425685025.903,21.442556
1425685025.918,26.549486
1425685025.934,31.099901
1425685025.949,35.19257
1425685025.965,39.057354
1425685025.981,43.029087
1425685025.996,47.492283
1425685026.012,52.827614
1425685026.028,59.21246
1425685026.043,66.47589
1425685026.059,73.92003
1425685026.074,80.33554
1425685026.09,84.2521
1425685026.106,84.372406
1425685026.121,79.88559
1425685026.137,70.701584
1425685026.153,57.3874
1425685026.168,40.956215
1425685026.184,22.68509
1425685026.199,3.9055634
1425685026.215,-14.173611
1425685026.231,-30.544788
1425685026.246,-44.535267
1425685026.262,-55.78696
1425685026.278,-64.21921
1425685026.293,-69.852875
1425685026.309,-72.76689
1425685026.324,-73.0535
1425685026.34,-70.927704
1425685026.356,-66.78537
1425685026.371,-61.124634
1425685026.387,-54.50732
1425685026.403,-47.48834
1425685026.418,-40.55367
1425685026.434,-34.112186
1425685026.45,-28.48936
1425685026.465,-23.961277
1425685026.481,-20.60828
1425685026.496,-18.340576
1425685026.512,-16.832127
1425685026.528,-15.651672
1425685026.543,-14.309376
1425685026.559,-12.381161
1425685026.575,-9.595741
1425685026.59,-5.9292564
1425685026.606,-1.5654411
1425685026.621,3.178032
1425685026.637,7.9731216
1425685026.653,12.672806
1425685026.668,17.299446
1425685026.684,21.99514
1425685026.7,26.844254
1425685026.715,31.772827
1425685026.731,36.606834
1425685026.746,41.235596
1425685026.762,45.770874
1425685026.778,50.565308
1425685026.793,56.031105
1425685026.809,62.38205
1425685026.825,69.448
1425685026.84,76.593475
1425685026.856,82.88818
1425685026.871,87.219795
1425685026.887,88.51056
1425685026.903,85.86049
1425685026.918,78.721436
1425685026.934,67.07688
1425685026.95,51.548874
1425685026.965,33.360184
1425685026.981,14.0793
1425685026.996,-4.730934
