1435705554.091,0.0
1435705554.106,0.0
1435705554.122,0.0
1435705554.138,0.0
1435705554.153,0.0
1435705554.169,0.0
1435705554.184,0.0
1435705554.2,0.0
1435705554.216,0.0
1435705554.231,0.0022315353
1435705554.247,-0.0045169927
1435705554.263,-0.011265522
1435705554.278,-0.011383951
1435705554.294,0.0011864507
1435705554.309,0.025910312
1435705554.325,0.050634187
1435705554.341,0.051362894
1435705554.356,-0.0014929791
1435705554.372,-0.1302426
1435705554.388,-0.35562757
1435705554.403,-0.6591247
1435705554.419,-1.0095103
1435705554.434,-1.3709826
1435705554.45,-1.7197359
1435705554.466,-2.0551105
1435705554.481,-2.39945
1435705554.497,-2.7866635
1435705554.513,-3.2399073
1435705554.528,-3.796012
1435705554.544,-4.418684
1435705554.559,-5.0592937
1435705554.575,-5.6644096
1435705554.591,-6.2021537
1435705554.606,-6.6808796
1435705554.622,-7.149598
1435705554.638,-7.6782336
1435705554.653,-8.310739
1435705554.669,-9.143657
1435705554.684,-10.089731
1435705554.7,-11.041313
1435705554.716,-11.8842125
1435705554.731,-12.564316
1435705554.747,-13.13563
1435705554.763,-13.760044
1435705554.778,-14.65232
1435705554.794,-15.962056
1435705554.809,-17.914442
1435705554.825,-20.317299
1435705554.841,-22.903854
1435705554.856,-25.37947
1435705554.872,-27.578028
1435705554.888,-29.57246
1435705554.903,-31.675173
1435705554.919,-34.3178
1435705554.934,-37.813618
1435705554.95,-42.541233
1435705554.966,-48.1463
1435705554.981,-54.104755
1435705554.997,-59.83309
1435705555.013,-64.972374
1435705555.028,-69.58293
1435705555.044,-74.14353
1435705555.06,-79.344986
1435705555.075,-85.70726
1435705555.091,-93.76193
1435705555.106,-102.99779
1435705555.122,-112.61757
1435705555.138,-121.73034
1435705555.153,-129.76602
1435705555.169,-136.75102
1435705555.184,-143.30344
1435705555.2,-150.74623
1435705555.216,-157.77356
1435705555.231,-166.64323
1435705555.247,-177.94798
1435705555.263,-191.79102
1435705555.278,-206.96808
1435705555.294,-220.56592
1435705555.31,-228.24644
1435705555.325,-225.36154
1435705555.341,-208.53198
1435705555.356,-176.87024
1435705555.372,-132.76222
1435705555.388,-80.04997
1435705555.403,-23.069275
1435705555.419,34.94339
1435705555.435,92.43695
1435705555.45,149.15695
1435705555.466,205.22772
1435705555.481,260.36963
1435705555.497,313.74133
1435705555.513,363.87396
1435705555.528,409.83353
1435705555.544,450.90775
1435705555.56,486.50244
1435705555.575,515.73865
1435705555.591,537.2274
1435705555.606,549.22
1435705555.622,549.9613
1435705555.638,538.367
1435705555.653,514.2055
1435705555.669,478.674
1435705555.685,433.87952
1435705555.7,382.45126
1435705555.716,327.02106
1435705555.731,269.84186
1435705555.747,212.63379
1435705555.763,156.6594
1435705555.778,102.95233
1435705555.794,52.373596
1435705555.81,5.9046936
1435705555.825,-35.580414
1435705555.841,-71.42584
1435705555.856,-101.35184
1435705555.872,-125.50113
1435705555.888,-144.3797
1435705555.903,-158.69403
1435705555.919,-169.15071
1435705555.935,-176.3711
1435705555.95,-180.75139
1435705555.966,-182.57419
1435705555.981,-182.06863
1435705555.997,-179.5066
1435705556.013,-175.23325
1435705556.028,-169.65286
1435705556.044,-163.17691
1435705556.06,-156.14568
1435705556.075,-148.80681
1435705556.091,-141.29686
1435705556.106,-133.68983
1435705556.122,-126.01962
1435705556.138,-118.33268
1435705556.153,-110.68864
1435705556.169,-103.15572
1435705556.185,-95.80455
1435705556.2,-88.684166
1435705556.216,-81.82744
1435705556.231,-75.24594
1435705556.247,-68.9526
1435705556.263,-62.949085
1435705556.278,-57.247494
1435705556.294,-51.857185
1435705556.31,-46.78282
1435705556.325,-42.02776
1435705556.341,-37.58521
1435705556.356,-33.451748
1435705556.372,-29.613855
1435705556.388,-26.070963
1435705556.403,-22.808779
1435705556.419,-19.824995
1435705556.435,-17.113392
1435705556.45,-14.666497
1435705556.466,-12.47932
1435705556.481,-10.538469
1435705556.497,-8.833674
1435705556.513,-7.3478527
1435705556.528,-6.067689
1435705556.544,-4.9734235
1435705556.56,-4.046258
1435705556.575,-3.2673752
1435705556.591,-2.6211367
1435705556.606,-2.088365
1435705556.622,-1.6507506
1435705556.638,-1.2976913
1435705556.653,-1.0147024
1435705556.669,-0.79105926
1435705556.685,-0.6133206
1435705556.7,-0.47516227
1435705556.716,-0.3684653
1435705556.731,-0.28461677
1435705556.747,-0.22397345
1435705556.763,-0.17647654
1435705556.778,-0.14055526
1435705556.794,-0.11251485
1435705556.81,-0.0926249
1435705556.825,-0.07977182
1435705556.841,-0.06783539
1435705556.856,-0.05929327
1435705556.872,-0.052183747
1435705556.888,-0.046860814
1435705556.903,-0.04409659
1435705556.919,-0.040228814
1435705556.935,-0.03884998
1435705556.95,-0.03377661
1435705556.966,-0.034355104
1435705556.981,-0.030879587
1435705556.997,-0.029877543
1435705557.013,-0.027716875
1435705557.028,-0.030127168
1435705557.044,-0.030585945
1435705557.06,-0.032919377
1435705557.075,-0.03614831
1435705557.091,-0.042789668
1435705557.106,-0.051756144
1435705557.122,-0.06399605
1435705557.138,-0.077480495
1435705557.153,-0.09427217
1435705557.169,-0.113319516
1435705557.185,-0.13505313
1435705557.2,-0.16031656
1435705557.216,-0.18553847
1435705557.231,-0.21396905
1435705557.247,-0.24587938
1435705557.263,-0.2786408
1435705557.278,-0.31436652
1435705557.294,-0.34764653
1435705557.31,-0.38953722
1435705557.325,-0.4308753
1435705557.341,-0.47659814
1435705557.356,-0.5199144
1435705557.372,-0.5724333
1435705557.388,-0.6251905
1435705557.403,-0.6832918
1435705557.419,-0.7462598
1435705557.435,-0.81561637
1435705557.45,-0.8911196
1435705557.466,-0.9730915
1435705557.481,-1.0683374
1435705557.497,-1.1733035
1435705557.513,-1.2883075
1435705557.528,-1.422106
1435705557.544,-1.563106
1435705557.56,-1.7222272
1435705557.575,-1.8953531
1435705557.591,-2.0889149
1435705557.606,-2.2991972
1435705557.622,-2.5391316
1435705557.638,-2.7927444
1435705557.653,-3.076211
1435705557.669,-3.3862019
1435705557.685,-3.7223382
1435705557.7,-4.086311
1435705557.716,-4.4784064
1435705557.731,-4.9048157
1435705557.747,-5.3515477
1435705557.763,-5.8435187
1435705557.778,-6.36231
1435705557.794,-6.9234967
1435705557.81,-7.5180607
1435705557.825,-8.144121
1435705557.841,-8.808714
1435705557.856,-9.51245
1435705557.872,-10.2524
1435705557.888,-11.043375
1435705557.903,-11.891033
1435705557.919,-12.786931
1435705557.935,-13.717645
1435705557.95,-14.672155
1435705557.966,-15.626267
1435705557.982,-16.537363
1435705557.997,-17.352087
1435705558.013,-17.999886
1435705558.028,-18.408915
1435705558.044,-18.525242
1435705558.06,-18.30104
1435705558.075,-17.706635
1435705558.091,-16.733713
1435705558.107,-15.367443
1435705558.122,-13.643297
1435705558.138,-11.593819
1435705558.153,-9.26483
1435705558.169,-6.6991787
1435705558.185,-4.005844
1435705558.2,-1.2664185
1435705558.216,1.4186897
1435705558.232,3.9640503
1435705558.247,6.294094
1435705558.263,8.387619
1435705558.278,10.208408
1435705558.294,11.771027
1435705558.31,13.059132
1435705558.325,14.0355835
1435705558.341,14.693287
1435705558.357,15.021439
1435705558.372,15.0004425
1435705558.388,14.69315
1435705558.403,14.156387
1435705558.419,13.48299
1435705558.435,12.77681
1435705558.45,12.105476
1435705558.466,11.449188
1435705558.482,10.814743
1435705558.497,10.104816
1435705558.513,9.265232
1435705558.528,8.258514
1435705558.544,7.189907
1435705558.56,6.18779
1435705558.575,5.413971
1435705558.591,4.9056625
1435705558.607,4.5940704
1435705558.622,4.4454575
1435705558.638,4.264366
1435705558.653,3.8694077
1435705558.669,3.223877
1435705558.685,2.477127
1435705558.7,1.9100113
1435705558.716,1.7832108
1435705558.732,2.21241
1435705558.747,3.0095444
1435705558.763,4.1033554
1435705558.778,5.097374
1435705558.794,5.6334076
1435705558.81,5.606529
1435705558.825,5.2729263
1435705558.841,5.107582
1435705558.857,5.6082535
1435705558.872,6.989624
1435705558.888,9.016365
1435705558.903,11.653679
1435705558.919,14.3991165
1435705558.935,16.699142
1435705558.95,18.346642
1435705558.966,19.491608
1435705558.982,20.609825
1435705558.997,22.323425
1435705559.013,25.340881
1435705559.028,30.265953
1435705559.044,38.016853
1435705559.06,48.31685
1435705559.075,59.587982
1435705559.091,69.18425
1435705559.107,74.239235
1435705559.122,72.80709
1435705559.138,64.838486
1435705559.153,52.555397
1435705559.169,35.477005
1435705559.185,16.915771
1435705559.2,0.15404129
1435705559.216,-12.821285
1435705559.232,-21.709068
1435705559.247,-27.376308
1435705559.263,-30.982426
1435705559.278,-33.32037
1435705559.294,-34.74712
1435705559.31,-35.497272
1435705559.325,-35.313923
1435705559.341,-34.60691
1435705559.357,-34.007145
1435705559.372,-33.85025
1435705559.388,-34.02275
1435705559.403,-33.989452
1435705559.419,-33.16637
1435705559.435,-31.256607
1435705559.45,-28.493908
1435705559.466,-24.979279
1435705559.482,-21.299831
1435705559.497,-18.049934
1435705559.513,-15.516808
1435705559.528,-13.592621
1435705559.544,-11.922749
1435705559.56,-10.1033325
1435705559.575,-7.898197
1435705559.591,-5.346279
1435705559.607,-2.3468971
1435705559.622,0.960186
1435705559.638,4.4357834
1435705559.653,8.1148205
1435705559.669,12.054037
1435705559.685,16.24985
1435705559.7,20.408514
1435705559.716,23.90412
1435705559.732,25.918451
1435705559.747,25.869741
1435705559.763,23.48351
1435705559.778,18.98323
1435705559.794,13.081575
1435705559.81,6.6905956
1435705559.825,0.6100807
1435705559.841,-4.6889477
1435705559.857,-9.122932
1435705559.872,-12.821079
1435705559.888,-15.909161
1435705559.903,-18.442484
1435705559.919,-20.38307
1435705559.935,-21.674295
1435705559.95,-22.35745
1435705559.966,-22.559263
1435705559.982,-22.49409
1435705559.997,-22.352064
1435705560.013,-22.209679
1435705560.028,-22.001137
1435705560.044,-21.608744
1435705560.06,-20.965408
1435705560.075,-20.11171
1435705560.091,-19.220036
1435705560.107,-18.474573
1435705560.122,-17.96997
1435705560.138,-17.659332
1435705560.153,-17.303549
1435705560.169,-16.60833
1435705560.185,-15.369211
1435705560.2,-13.533901
1435705560.216,-11.226463
1435705560.232,-8.653906
1435705560.247,-5.993656
1435705560.263,-3.356758
1435705560.278,-0.72792816
1435705560.294,1.9273281
1435705560.31,4.6033
1435705560.325,7.2333183
1435705560.341,9.6921215
1435705560.357,11.862574
1435705560.372,13.741827
1435705560.388,15.478016
1435705560.403,17.40356
1435705560.419,19.806334
1435705560.435,22.7892
1435705560.45,26.063461
1435705560.466,28.933777
1435705560.482,30.52322
1435705560.497,30.144672
1435705560.513,27.562172
1435705560.528,23.132042
1435705560.544,17.660099
1435705560.56,12.049873
1435705560.575,6.973015
1435705560.591,2.7460518
1435705560.607,-0.68058777
1435705560.622,-3.478691
1435705560.638,-5.7756424
1435705560.654,-7.5411224
1435705560.669,-8.69413
1435705560.685,-9.199734
1435705560.7,-9.216583
1435705560.716,-9.031113
1435705560.732,-8.977287
1435705560.747,-9.238728
1435705560.763,-9.817898
1435705560.779,-10.535175
1435705560.794,-11.11338
1435705560.81,-11.38633
1435705560.825,-11.328125
1435705560.841,-11.051651
1435705560.857,-10.745876
1435705560.872,-10.507088
1435705560.888,-10.336384
1435705560.904,-10.037979
1435705560.919,-9.375587
1435705560.935,-8.100319
1435705560.95,-6.136608
1435705560.966,-3.5634956
1435705560.982,-0.63871765
1435705560.997,2.3232422
1435705561.013,5.0395317
1435705561.029,7.3988304
1435705561.044,9.46376
1435705561.06,11.445473
1435705561.075,13.564709
1435705561.091,15.99638
1435705561.107,18.785057
1435705561.122,21.823967
1435705561.138,24.872269
1435705561.154,27.585144
1435705561.169,29.494114
1435705561.185,30.139923
1435705561.2,29.142078
1435705561.216,26.351849
1435705561.232,21.927917
1435705561.247,16.356644
1435705561.263,10.342396
1435705561.279,4.586685
1435705561.294,-0.34246826
1435705561.31,-4.1656075
1435705561.325,-6.9239235
1435705561.341,-8.883217
1435705561.357,-10.377544
1435705561.372,-11.6416855
1435705561.388,-12.747845
1435705561.404,-13.585484
1435705561.419,-14.040852
1435705561.435,-14.060913
1435705561.45,-13.779427
1435705561.466,-13.403675
1435705561.482,-13.170391
1435705561.497,-13.14278
1435705561.513,-13.2303505
1435705561.529,-13.23016
1435705561.544,-12.961815
1435705561.56,-12.399273
1435705561.575,-11.663357
1435705561.591,-10.968098
1435705561.607,-10.406807
1435705561.622,-9.903725
1435705561.638,-9.210762
1435705561.654,-7.9856644
1435705561.669,-6.045841
1435705561.685,-3.4330444
1435705561.7,-0.44337463
1435705561.716,2.5368576
1435705561.732,5.154907
1435705561.747,7.3078346
1435705561.763,9.156738
1435705561.779,11.065296
1435705561.794,13.422188
1435705561.81,16.484673
1435705561.825,20.252625
1435705561.841,24.44163
1435705561.857,28.550701
1435705561.872,31.960077
1435705561.888,34.047287
1435705561.904,34.3796
1435705561.919,32.7817
1435705561.935,29.432676
1435705561.95,24.766455
1435705561.966,19.349268
1435705561.982,13.70997
1435705561.997,8.260916
1435705562.013,3.2509441
1435705562.029,-1.1592617
1435705562.044,-4.852852
1435705562.06,-7.799164
1435705562.075,-10.049864
1435705562.091,-11.750343
1435705562.107,-13.144415
1435705562.122,-14.420496
1435705562.138,-15.67
1435705562.154,-16.79699
1435705562.169,-17.621948
1435705562.185,-17.991495
1435705562.2,-17.904636
1435705562.216,-17.50389
1435705562.232,-17.037432
1435705562.247,-16.70296
1435705562.263,-16.584145
1435705562.279,-16.58836
1435705562.294,-16.525307
1435705562.31,-16.228008
1435705562.325,-15.631106
1435705562.341,-14.795125
1435705562.357,-13.854624
1435705562.372,-12.8952875
1435705562.388,-11.912677
1435705562.404,-10.696202
1435705562.419,-8.998353
1435705562.435,-6.6208525
1435705562.45,-3.5821
1435705562.466,-0.15737057
1435705562.482,3.1932974
1435705562.497,6.0590744
1435705562.513,8.236089
1435705562.529,9.855417
1435705562.544,11.329535
1435705562.56,13.154991
1435705562.575,15.669474
1435705562.591,18.924742
1435705562.607,22.628757
1435705562.622,26.249228
1435705562.638,29.148346
1435705562.654,30.727848
1435705562.669,30.558706
1435705562.685,28.497364
1435705562.7,24.698933
1435705562.716,19.607113
1435705562.732,13.839275
1435705562.747,8.070805
1435705562.763,2.8339581
1435705562.779,-1.5361376
1435705562.794,-4.960972
1435705562.81,-7.543411
1435705562.825,-9.531016
1435705562.841,-11.183008
1435705562.857,-12.754891
1435705562.872,-14.352729
1435705562.888,-15.932582
1435705562.904,-17.29674
1435705562.919,-18.175446
1435705562.935,-18.39313
1435705562.95,-18.021427
1435705562.966,-17.353361
1435705562.982,-16.817019
1435705562.997,-16.751497
1435705563.013,-17.255844
1435705563.029,-18.13232
1435705563.044,-19.023746
1435705563.06,-19.628141
1435705563.075,-19.813313
1435705563.091,-19.665741
1435705563.107,-19.359764
1435705563.122,-18.974823
1435705563.138,-18.435812
1435705563.154,-17.499691
1435705563.169,-15.956377
1435705563.185,-13.73985
1435705563.2,-11.022226
1435705563.216,-8.107138
1435705563.232,-5.3297014
1435705563.247,-2.8539479
1435705563.263,-0.6140995
1435705563.279,1.6160638
1435705563.294,4.026528
1435705563.31,6.720889
1435705563.326,9.642137
1435705563.341,12.738391
1435705563.357,15.9803295
1435705563.372,19.452032
1435705563.388,23.150423
1435705563.404,26.829964
1435705563.419,29.937984
1435705563.435,31.741907
1435705563.451,31.602543
1435705563.466,29.29174
1435705563.482,25.115005
1435705563.497,19.827377
1435705563.513,14.2866335
1435705563.529,9.199081
1435705563.544,4.884609
1435705563.56,1.3148108
1435705563.576,-1.7205687
1435705563.591,-4.4448223
1435705563.607,-6.944708
1435705563.622,-9.188089
1435705563.638,-11.08368
1435705563.654,-12.49629
1435705563.669,-13.374502
1435705563.685,-13.751607
1435705563.701,-13.757454
1435705563.716,-13.570178
1435705563.732,-13.38546
1435705563.747,-13.35192
1435705563.763,-13.46607
1435705563.779,-13.628505
1435705563.794,-13.679704
1435705563.81,-13.447947
1435705563.826,-12.930795
1435705563.841,-12.270328
1435705563.857,-11.716336
1435705563.872,-11.467649
1435705563.888,-11.579624
1435705563.904,-11.847042
1435705563.919,-11.8961935
1435705563.935,-11.378105
1435705563.951,-10.141568
1435705563.966,-8.309704
1435705563.982,-6.209774
1435705563.997,-4.1550593
1435705564.013,-2.2879317
1435705564.029,-0.49645185
1435705564.044,1.510119
1435705564.06,4.032361
1435705564.076,7.2131667
1435705564.091,10.983916
1435705564.107,15.040932
1435705564.122,18.98044
1435705564.138,22.325266
1435705564.154,24.63364
1435705564.169,25.55279
1435705564.185,24.883759
1435705564.201,22.6404
1435705564.216,19.08935
1435705564.232,14.722851
1435705564.247,10.089185
1435705564.263,5.670723
1435705564.279,1.7674055
1435705564.294,-1.559474
1435705564.31,-4.3590965
1435705564.326,-6.7612486
1435705564.341,-8.837926
1435705564.357,-10.606926
1435705564.372,-12.033786
1435705564.388,-13.095688
1435705564.404,-13.797212
1435705564.419,-14.161669
1435705564.435,-14.217239
1435705564.451,-13.998497
1435705564.466,-13.539196
1435705564.482,-12.919835
1435705564.497,-12.254129
1435705564.513,-11.668725
1435705564.529,-11.232458
1435705564.544,-10.92695
1435705564.56,-10.615742
1435705564.576,-10.129257
1435705564.591,-9.285713
1435705564.607,-8.010292
1435705564.622,-6.316536
1435705564.638,-4.241337
1435705564.654,-1.8282528
1435705564.669,0.84932137
1435705564.685,3.7118015
1435705564.701,6.5443916
1435705564.716,9.073479
1435705564.732,11.048321
1435705564.747,12.418564
1435705564.763,13.408064
1435705564.779,14.482304
1435705564.794,16.113216
1435705564.81,18.529415
1435705564.826,21.512386
1435705564.841,24.385984
1435705564.857,26.214523
1435705564.872,26.21617
1435705564.888,24.009928
1435705564.904,19.807327
1435705564.919,14.306986
1435705564.935,8.389423
1435705564.951,2.8110924
1435705564.966,-1.990324
1435705564.982,-5.9290257
1435705564.997,-9.112259
1435705565.013,-11.638769
1435705565.029,-13.498232
1435705565.044,-14.605316
1435705565.06,-14.90065
1435705565.076,-14.507803
1435705565.091,-13.695696
1435705565.107,-12.818089
1435705565.122,-12.1486
1435705565.138,-11.771908
1435705565.154,-11.600082
1435705565.169,-11.463797
1435705565.185,-11.211031
1435705565.201,-10.796064
1435705565.216,-10.252733
1435705565.232,-9.684195
1435705565.247,-9.190531
1435705565.263,-8.827198
1435705565.279,-8.579304
1435705565.294,-8.405239
1435705565.31,-8.185677
1435705565.326,-7.796402
1435705565.341,-7.123329
1435705565.357,-6.1450043
1435705565.372,-4.8965187
1435705565.388,-3.47995
1435705565.404,-2.0060387
1435705565.419,-0.4817505
1435705565.435,1.1763039
1435705565.451,3.068264
1435705565.466,5.244644
1435705565.482,7.647148
1435705565.497,10.148254
1435705565.513,12.606331
1435705565.529,15.021027
1435705565.544,17.522583
1435705565.56,20.308533
1435705565.576,23.449448
1435705565.591,26.715637
1435705565.607,29.523357
1435705565.622,31.13792
1435705565.638,30.934284
1435705565.654,28.675697
1435705565.669,24.663837
1435705565.685,19.594692
1435705565.701,14.289364
1435705565.716,9.372707
1435705565.732,5.123844
1435705565.747,1.4991302
1435705565.763,-1.6967583
1435705565.779,-4.5712814
1435705565.794,-7.113693
1435705565.81,-9.18021
1435705565.826,-10.682632
1435705565.841,-11.665604
1435705565.857,-12.322845
1435705565.872,-12.888542
1435705565.888,-13.564587
1435705565.904,-14.368298
1435705565.919,-15.208149
1435705565.935,-15.928932
1435705565.951,-16.408306
1435705565.966,-16.659645
1435705565.982,-16.818531
1435705565.998,-17.051327
1435705566.013,-17.426044
1435705566.029,-17.872646
1435705566.044,-18.162357
1435705566.06,-18.047886
1435705566.076,-17.389408
1435705566.091,-16.255066
1435705566.107,-14.862125
1435705566.122,-13.466888
1435705566.138,-12.1599045
1435705566.154,-10.855118
1435705566.169,-9.310654
1435705566.185,-7.3133926
1435705566.201,-4.840702
1435705566.216,-2.0838661
1435705566.232,0.5975952
1435705566.248,2.9375648
1435705566.263,4.8408318
1435705566.279,6.474304
1435705566.294,8.176014
1435705566.31,10.311249
1435705566.326,13.107906
1435705566.341,16.588715
1435705566.357,20.519718
1435705566.373,24.442642
1435705566.388,27.756699
1435705566.404,29.892372
1435705566.419,30.415058
1435705566.435,29.209877
1435705566.451,26.461353
1435705566.466,22.615757
1435705566.482,18.23317
1435705566.498,13.86755
1435705566.513,9.888382
1435705566.529,6.4885445
1435705566.544,3.684475
1435705566.56,1.3699875
1435705566.576,-0.61813736
1435705566.591,-2.4285698
1435705566.607,-4.135151
1435705566.623,-5.7505913
1435705566.638,-7.1924286
1435705566.654,-8.342537
1435705566.669,-9.122013
1435705566.685,-9.53315
1435705566.701,-9.733345
1435705566.716,-9.952858
1435705566.732,-10.374489
1435705566.748,-11.063328
1435705566.763,-11.914589
1435705566.779,-12.677708
1435705566.794,-13.123016
1435705566.81,-13.139614
1435705566.826,-12.747589
1435705566.841,-12.127045
1435705566.857,-11.501926
1435705566.873,-10.981945
1435705566.888,-10.549675
1435705566.904,-10.002262
1435705566.919,-9.087505
1435705566.935,-7.6037483
1435705566.951,-5.522148
1435705566.966,-3.02359
1435705566.982,-0.4532814
1435705566.998,1.8235817
1435705567.013,3.595848
1435705567.029,4.9044113
1435705567.044,6.0483856
1435705567.06,7.5107346
1435705567.076,9.661324
1435705567.091,12.611813
1435705567.107,16.14215
1435705567.123,19.748428
1435705567.138,22.78331
1435705567.154,24.725143
1435705567.169,25.276001
1435705567.185,24.4487
1435705567.201,22.445648
1435705567.216,19.584648
1435705567.232,16.149055
1435705567.248,12.36488
1435705567.263,8.422989
1435705567.279,4.5545654
1435705567.294,1.01828
1435705567.31,-1.9374695
1435705567.326,-4.184082
1435705567.341,-5.7688293
1435705567.357,-6.8929977
1435705567.373,-7.8406067
1435705567.388,-8.826195
1435705567.404,-9.847206
1435705567.419,-10.739281
1435705567.435,-11.227318
1435705567.451,-11.117264
1435705567.466,-10.384178
1435705567.482,-9.204262
1435705567.498,-7.868225
1435705567.513,-6.680954
1435705567.529,-5.8505516
1435705567.544,-5.4601936
1435705567.56,-5.442745
1435705567.576,-5.605755
1435705567.591,-5.680687
1435705567.607,-5.4256287
1435705567.623,-4.678364
1435705567.638,-3.4229126
1435705567.654,-1.7753754
1435705567.669,0.056354523
1435705567.685,1.8625412
1435705567.701,3.5001755
1435705567.716,4.9323883
1435705567.732,6.234829
1435705567.748,7.562397
1435705567.763,9.121307
1435705567.779,11.149452
1435705567.794,13.779602
1435705567.81,16.990086
1435705567.826,20.487892
1435705567.841,23.681377
1435705567.857,25.851185
1435705567.873,26.363766
1435705567.888,24.887836
1435705567.904,21.59188
1435705567.919,17.009289
1435705567.935,11.918949
1435705567.951,7.0075684
1435705567.966,2.7346916
1435705567.982,-0.7795372
1435705567.998,-3.6260033
1435705568.013,-6.001297
1435705568.029,-8.037048
1435705568.044,-9.73415
1435705568.06,-11.018929
1435705568.076,-11.849583
1435705568.091,-12.266949
1435705568.107,-12.425491
1435705568.123,-12.5515175
1435705568.138,-12.853535
1435705568.154,-13.383293
1435705568.169,-14.057598
1435705568.185,-14.667622
1435705568.201,-15.026436
1435705568.216,-15.027515
1435705568.232,-14.759918
1435705568.248,-14.374336
1435705568.263,-14.041935
1435705568.279,-13.78141
1435705568.294,-13.468727
1435705568.31,-12.856678
1435705568.326,-11.713341
1435705568.341,-9.943634
1435705568.357,-7.638401
1435705568.373,-5.029957
1435705568.388,-2.4161072
1435705568.404,-0.005580902
1435705568.419,2.1023636
1435705568.435,3.9668007
1435705568.451,5.7091064
1435705568.466,7.5311966
1435705568.482,9.61866
1435705568.498,12.169674
1435705568.513,15.26944
1435705568.529,18.821209
1435705568.544,22.498646
1435705568.56,25.722736
1435705568.576,27.83953
1435705568.591,28.254662
1435705568.607,26.6632
1435705568.623,23.161873
1435705568.638,18.229618
1435705568.654,12.610218
1435705568.669,7.0743294
1435705568.685,2.2733917
1435705568.701,-1.4785271
1435705568.716,-4.183071
1435705568.732,-6.187027
1435705568.748,-7.958275
1435705568.763,-9.921024
1435705568.779,-12.244984
1435705568.794,-14.815712
1435705568.81,-17.276844
1435705568.826,-19.256508
1435705568.841,-20.526146
1435705568.857,-21.150864
1435705568.873,-21.387074
1435705568.888,-21.501423
1435705568.904,-21.630413
1435705568.92,-21.716522
1435705568.935,-21.564049
1435705568.951,-21.028156
1435705568.966,-20.089016
1435705568.982,-18.928978
1435705568.998,-17.765488
1435705569.013,-16.764847
1435705569.029,-15.9339905
1435705569.045,-15.122303
1435705569.06,-14.114067
1435705569.076,-12.725048
1435705569.091,-10.8386345
1435705569.107,-8.529243
1435705569.123,-5.960491
1435705569.138,-3.3887672
1435705569.154,-1.0707779
1435705569.17,0.8414993
1435705569.185,2.353283
1435705569.201,3.627018
1435705569.216,4.93861
1435705569.232,6.5508804
1435705569.248,8.635475
1435705569.263,11.262272
1435705569.279,14.427284
1435705569.295,17.97829
1435705569.31,21.649166
1435705569.326,24.959023
1435705569.341,27.306145
1435705569.357,28.083824
1435705569.373,26.923767
1435705569.388,23.828156
1435705569.404,19.26474
1435705569.42,13.994247
1435705569.435,8.798042
1435705569.451,4.2112045
1435705569.466,0.42298126
1435705569.482,-2.7344322
1435705569.498,-5.560398
1435705569.513,-8.302624
1435705569.529,-11.057255
1435705569.545,-13.724728
1435705569.56,-16.107506
1435705569.576,-18.02073
1435705569.591,-19.394337
1435705569.607,-20.293522
1435705569.623,-20.8605
1435705569.638,-21.263107
1435705569.654,-21.551697
1435705569.67,-21.71386
1435705569.685,-21.65976
1435705569.701,-21.34507
1435705569.716,-20.80455
1435705569.732,-20.160439
1435705569.748,-19.509216
1435705569.763,-18.882133
1435705569.779,-18.182182
1435705569.795,-17.190819
1435705569.81,-15.690697
1435705569.826,-13.569611
1435705569.841,-10.893021
1435705569.857,-7.8443375
1435705569.873,-4.6741486
1435705569.888,-1.5797424
1435705569.904,1.326828
1435705569.92,4.018013
1435705569.935,6.47126
1435705569.951,8.603073
1435705569.966,10.342712
1435705569.982,11.582733
1435705569.998,12.359932
1435705570.013,12.80101
1435705570.029,13.211693
1435705570.045,13.877174
1435705570.06,15.023399
1435705570.076,16.652
1435705570.091,18.505875
1435705570.107,20.095291
1435705570.123,20.839958
1435705570.138,20.263878
1435705570.154,18.171257
1435705570.17,14.711006
1435705570.185,10.363594
1435705570.201,5.74205
1435705570.216,1.4110031
1435705570.232,-2.2798996
1435705570.248,-5.179886
1435705570.263,-7.3243866
1435705570.279,-8.809502
1435705570.295,-9.712936
1435705570.31,-10.067665
1435705570.326,-9.936371
1435705570.341,-9.437187
1435705570.357,-8.796165
1435705570.373,-8.330826
1435705570.388,-8.288078
1435705570.404,-8.749596
1435705570.42,-9.576897
1435705570.435,-10.430176
1435705570.451,-10.9326935
1435705570.466,-10.822296
1435705570.482,-10.115761
1435705570.498,-9.029274
1435705570.513,-7.922241
1435705570.529,-7.0462646
1435705570.545,-6.471161
1435705570.56,-6.05072
1435705570.576,-5.535141
1435705570.591,-4.718277
1435705570.607,-3.5359955
1435705570.623,-2.0914307
1435705570.638,-0.58192444
1435705570.654,0.8089142
1435705570.67,1.9734344
1435705570.685,2.9487457
1435705570.701,3.8296814
1435705570.716,4.75383
1435705570.732,5.8314514
1435705570.748,7.13533
1435705570.763,8.680817
1435705570.779,10.452423
1435705570.795,12.367691
1435705570.81,14.291428
1435705570.826,16.019714
1435705570.841,17.25232
1435705570.857,17.634705
1435705570.873,16.854446
1435705570.888,14.733826
1435705570.904,11.390732
1435705570.92,7.2592163
1435705570.935,2.9922638
1435705570.951,-0.7944336
1435705570.966,-3.6532288
1435705570.982,-5.5305786
1435705570.998,-6.652725
1435705571.013,-7.361252
1435705571.029,-7.903839
1435705571.045,-8.33313
1435705571.06,-8.53653
1435705571.076,-8.388687
1435705571.091,-7.894272
1435705571.107,-7.2074127
1435705571.123,-6.565857
1435705571.138,-6.1304016
1435705571.154,-5.9140472
1435705571.17,-5.786377
1435705571.185,-5.554199
1435705571.201,-5.1173553
1435705571.216,-4.5014343
1435705571.232,-3.877533
1435705571.248,-3.4354095
1435705571.263,-3.2959137
1435705571.279,-3.3953552
1435705571.295,-3.533432
1435705571.31,-3.4260101
1435705571.326,-2.8600311
1435705571.341,-1.7627716
1435705571.357,-0.2681427
1435705571.373,1.3867035
1435705571.388,2.9008331
1435705571.404,4.1106873
1435705571.42,5.0180817
1435705571.435,5.831665
1435705571.451,6.8068237
1435705571.466,8.176254
1435705571.482,10.017273
1435705571.498,12.216995
1435705571.513,14.582672
1435705571.529,16.881607
1435705571.545,18.878845
1435705571.56,20.352707
1435705571.576,21.014389
1435705571.592,20.552856
1435705571.607,18.696793
1435705571.623,15.400009
1435705571.638,10.948975
1435705571.654,5.9528503
1435705571.67,1.1729431
1435705571.685,-2.7393188
1435705571.701,-5.4660187
1435705571.717,-7.069748
1435705571.732,-7.9308624
1435705571.748,-8.503159
1435705571.763,-9.144196
1435705571.779,-9.998749
1435705571.795,-10.919785
1435705571.81,-11.582657
1435705571.826,-11.589081
1435705571.842,-10.661652
1435705571.857,-8.828506
1435705571.873,-6.4289703
1435705571.888,-4.056656
1435705571.904,-2.2601929
1435705571.92,-1.3805695
1435705571.935,-1.3197784
1435705571.951,-1.693222
1435705571.967,-2.0298767
1435705571.982,-2.0453033
1435705571.998,-1.7250671
1435705572.013,-1.3100586
1435705572.029,-1.0358887
1435705572.045,-0.9703369
1435705572.06,-0.9663849
1435705572.076,-0.75476074
1435705572.092,-0.12841797
1435705572.107,0.8918457
1435705572.123,2.1148834
1435705572.138,3.2493591
1435705572.154,4.127014
1435705572.17,4.7588196
1435705572.185,5.3609924
1435705572.201,6.1326904
1435705572.217,7.217499
1435705572.232,8.536011
1435705572.248,9.869507
1435705572.263,10.993591
1435705572.279,11.831909
1435705572.295,12.516296
1435705572.31,13.37088
1435705572.326,14.662659
1435705572.342,16.47525
1435705572.357,18.546478
1435705572.373,20.282837
1435705572.388,20.98999
1435705572.404,20.14029
1435705572.42,17.582977
1435705572.435,13.64566
1435705572.451,9.001068
1435705572.467,4.429901
1435705572.482,0.5274048
1435705572.498,-2.4411926
1435705572.513,-4.548889
1435705572.529,-6.026062
1435705572.545,-7.0979004
1435705572.56,-7.8997498
1435705572.576,-8.437622
1435705572.592,-8.689453
1435705572.607,-8.701569
1435705572.623,-8.575684
1435705572.638,-8.452667
1435705572.654,-8.4244995
1435705572.67,-8.469055
1435705572.685,-8.410614
1435705572.701,-8.072693
1435705572.717,-7.3311768
1435705572.732,-6.2311707
1435705572.748,-5.015442
1435705572.763,-4.005707
1435705572.779,-3.4651184
1435705572.795,-3.4597778
1435705572.81,-3.8218994
1435705572.826,-4.2436523
1435705572.842,-4.4590454
1435705572.857,-4.3490295
1435705572.873,-3.9900208
1435705572.888,-3.5766602
1435705572.904,-3.2240295
1435705572.92,-2.9006958
1435705572.935,-2.3908997
1435705572.951,-1.4434814
1435705572.967,0.082611084
1435705572.982,2.1020508
1435705572.998,4.3038635
1435705573.013,6.3334656
1435705573.029,7.8752136
1435705573.045,8.821594
1435705573.06,9.242889
1435705573.076,9.364288
1435705573.092,9.440857
1435705573.107,9.678619
1435705573.123,10.227417
1435705573.138,11.169861
1435705573.154,12.510223
1435705573.17,14.122406
1435705573.185,15.709351
1435705573.201,16.8172
1435705573.217,16.959412
1435705573.232,15.797821
1435705573.248,13.355835
1435705573.263,10.019257
1435705573.279,6.4222717
1435705573.295,3.2009888
1435705573.31,0.7659912
1435705573.326,-0.77249146
1435705573.342,-1.5369263
1435705573.357,-1.7710266
1435705573.373,-1.6939392
1435705573.388,-1.4639587
1435705573.404,-1.2037659
1435705573.42,-1.0045776
1435705573.435,-0.93222046
1435705573.451,-1.0187073
1435705573.467,-1.2354736
1435705573.482,-1.5122986
1435705573.498,-1.8248596
1435705573.513,-2.1700745
1435705573.529,-2.576355
1435705573.545,-3.0713196
1435705573.56,-3.627594
1435705573.576,-4.176483
1435705573.592,-4.600525
1435705573.607,-4.847992
1435705573.623,-4.946686
1435705573.638,-4.9535217
1435705573.654,-4.9091187
1435705573.67,-4.788208
1435705573.685,-4.4964905
1435705573.701,-3.8976746
1435705573.717,-2.9260864
1435705573.732,-1.6413879
1435705573.748,-0.20220947
1435705573.763,1.1843872
1435705573.779,2.3664246
1435705573.795,3.3109741
1435705573.81,4.1573486
1435705573.826,5.056549
1435705573.842,6.1627502
1435705573.857,7.483185
1435705573.873,8.920197
1435705573.888,10.319275
1435705573.904,11.632538
1435705573.92,12.936584
1435705573.935,14.424866
1435705573.951,16.28122
1435705573.967,18.500732
1435705573.982,20.786621
1435705573.998,22.617401
1435705574.013,23.365448
1435705574.029,22.610046
1435705574.045,20.286407
1435705574.06,16.76535
1435705574.076,12.624298
1435705574.092,8.496948
1435705574.107,4.8218994
1435705574.123,1.7494507
1435705574.138,-0.7498169
1435705574.154,-2.7617798
1435705574.17,-4.311249
1435705574.185,-5.3724365
1435705574.201,-5.9134216
1435705574.217,-5.9896545
1435705574.232,-5.75296
1435705574.248,-5.4071045
1435705574.264,-5.1177673
1435705574.279,-4.96286
1435705574.295,-4.9451904
1435705574.31,-4.996643
1435705574.326,-5.0438538
1435705574.342,-4.9753113
1435705574.357,-4.6853943
1435705574.373,-4.0903625
1435705574.389,-3.193756
1435705574.404,-2.0871582
1435705574.42,-0.9345703
1435705574.435,0.11795044
1435705574.451,0.9783325
1435705574.467,1.6737976
1435705574.482,2.2921448
1435705574.498,2.9537048
1435705574.514,3.7141724
1435705574.529,4.6080627
1435705574.545,5.629242
1435705574.56,6.7873535
1435705574.576,8.091675
1435705574.592,9.564178
1435705574.607,11.171387
1435705574.623,12.860626
1435705574.639,14.54306
1435705574.654,16.185394
1435705574.67,17.848114
1435705574.685,19.63858
1435705574.701,21.646622
1435705574.717,23.809952
1435705574.732,25.849258
1435705574.748,27.273666
1435705574.764,27.543518
1435705574.779,26.270493
1435705574.795,23.411652
1435705574.81,19.344788
1435705574.826,14.736343
1435705574.842,10.2777405
1435705574.857,6.4347076
1435705574.873,3.378006
1435705574.889,1.0259857
1435705574.904,-0.7606201
1435705574.92,-2.0445862
1435705574.935,-2.759201
1435705574.951,-2.8805695
1435705574.967,-2.4574127
1435705574.982,-1.750534
1435705574.998,-1.0909882
1435705575.014,-0.76638794
1435705575.029,-0.90174866
1435705575.045,-1.4479218
1435705575.06,-2.2161255
1435705575.076,-3.0534973
1435705575.092,-3.874649
1435705575.107,-4.7046204
1435705575.123,-5.5802765
1435705575.139,-6.494766
1435705575.154,-7.370346
1435705575.17,-8.056641
1435705575.185,-8.465546
1435705575.201,-8.572128
1435705575.217,-8.408112
1435705575.232,-8.007156
1435705575.248,-7.3257294
1435705575.264,-6.215149
1435705575.279,-4.497757
1435705575.295,-2.1358337
1435705575.31,0.7561798
1435705575.326,3.8928986
1435705575.342,6.980728
1435705575.357,9.817795
1435705575.373,12.408752
1435705575.389,14.930817
1435705575.404,17.648956
1435705575.42,20.81688
1435705575.435,24.58194
1435705575.451,28.941284
1435705575.467,33.685516
1435705575.482,38.39038
1435705575.498,42.436188
1435705575.514,45.097954
1435705575.529,45.718056
1435705575.545,43.966316
1435705575.56,39.964333
1435705575.576,34.29577
1435705575.592,27.83899
1435705575.607,21.45691
1435705575.623,15.768837
1435705575.639,10.997559
1435705575.654,7.0173874
1435705575.67,3.5124817
1435705575.685,0.20903015
1435705575.701,-3.016716
1435705575.717,-6.056923
1435705575.732,-8.676796
1435705575.748,-10.665367
1435705575.764,-11.983654
1435705575.779,-12.799595
1435705575.795,-13.417782
1435705575.81,-14.129005
1435705575.826,-15.088505
1435705575.842,-16.227875
1435705575.857,-17.407227
1435705575.873,-18.501762
1435705575.889,-19.496122
1435705575.904,-20.441917
1435705575.92,-21.351707
1435705575.935,-22.134071
1435705575.951,-22.561024
1435705575.967,-22.40907
1435705575.982,-21.578686
1435705575.998,-20.157734
1435705576.014,-18.339113
1435705576.029,-16.28712
1435705576.045,-14.043528
1435705576.06,-11.517723
1435705576.076,-8.607531
1435705576.092,-5.268446
1435705576.107,-1.608841
1435705576.123,2.1989937
1435705576.139,5.966614
1435705576.154,9.560596
1435705576.17,12.920494
1435705576.185,16.048367
1435705576.201,19.076424
1435705576.217,22.262978
1435705576.232,25.961006
1435705576.248,30.390022
1435705576.264,35.50875
1435705576.279,40.81633
1435705576.295,45.420197
1435705576.31,48.31479
1435705576.326,48.662964
1435705576.342,46.13833
1435705576.357,40.973846
1435705576.373,33.875618
1435705576.389,25.713112
1435705576.404,17.34401
1435705576.42,9.3723755
1435705576.435,2.1861038
1435705576.451,-4.0874176
1435705576.467,-9.432632
1435705576.482,-13.947952
1435705576.498,-17.762894
1435705576.514,-21.069046
1435705576.529,-24.045181
1435705576.545,-26.811874
1435705576.56,-29.341583
1435705576.576,-31.483368
1435705576.592,-32.958633
1435705576.607,-33.579056
1435705576.623,-33.342606
1435705576.639,-32.55107
1435705576.654,-31.61943
1435705576.67,-30.964981
1435705576.685,-30.704834
1435705576.701,-30.674713
1435705576.717,-30.494598
1435705576.732,-29.793137
1435705576.748,-28.422852
1435705576.764,-26.446106
1435705576.779,-24.030167
1435705576.795,-21.319183
1435705576.81,-18.340134
1435705576.826,-15.06604
1435705576.842,-11.496826
1435705576.857,-7.801712
1435705576.873,-4.211609
1435705576.889,-0.9942627
1435705576.904,1.703064
1435705576.92,3.8724365
1435705576.936,5.685089
1435705576.951,7.3997498
1435705576.967,9.372559
1435705576.982,11.929596
1435705576.998,15.3732605
1435705577.014,19.87387
1435705577.029,25.397156
1435705577.045,31.67221
1435705577.06,38.174957
1435705577.076,44.107056
1435705577.092,48.518646
1435705577.107,50.414368
1435705577.123,49.060944
1435705577.139,44.16165
1435705577.154,36.141174
1435705577.17,25.991302
1435705577.186,15.054352
1435705577.201,4.586426
1435705577.217,-4.5917664
1435705577.232,-12.234924
1435705577.248,-18.54718
1435705577.264,-23.880676
1435705577.279,-28.483826
1435705577.295,-32.390717
1435705577.311,-35.483765
1435705577.326,-37.669525
1435705577.342,-38.968903
1435705577.357,-39.570587
1435705577.373,-39.70517
1435705577.389,-39.624115
1435705577.404,-39.45175
1435705577.42,-39.29126
1435705577.436,-39.19522
1435705577.451,-39.196716
1435705577.467,-39.287964
1435705577.482,-39.447144
1435705577.498,-39.574036
1435705577.514,-39.520813
1435705577.529,-39.13687
1435705577.545,-38.32715
1435705577.561,-37.043762
1435705577.576,-35.327606
1435705577.592,-33.24002
1435705577.607,-30.842834
1435705577.623,-28.128845
1435705577.639,-25.049072
1435705577.654,-21.522888
1435705577.67,-17.512726
1435705577.686,-13.039978
1435705577.701,-8.234711
1435705577.717,-3.2385254
1435705577.732,1.7539673
1435705577.748,6.628418
1435705577.764,11.328522
1435705577.779,15.946716
1435705577.795,20.69516
1435705577.811,25.85379
1435705577.826,31.617126
1435705577.842,37.896667
1435705577.857,44.214447
1435705577.873,49.654785
1435705577.889,53.06537
1435705577.904,53.451508
1435705577.92,50.275238
1435705577.936,43.665894
1435705577.951,34.39908
1435705577.967,23.653229
1435705577.982,12.715546
1435705577.998,2.630127
1435705578.014,-6.031433
1435705578.029,-13.123138
1435705578.045,-18.913055
1435705578.061,-23.841614
1435705578.076,-28.279175
1435705578.092,-32.349854
1435705578.107,-35.95511
1435705578.123,-38.831818
1435705578.139,-40.76825
1435705578.154,-41.729248
1435705578.17,-41.903076
1435705578.186,-41.59674
1435705578.201,-41.10974
1435705578.217,-40.55487
1435705578.232,-39.90039
1435705578.248,-39.046265
1435705578.264,-37.932556
1435705578.279,-36.59674
1435705578.295,-35.182495
1435705578.311,-33.81787
1435705578.326,-32.505127
1435705578.342,-31.11084
1435705578.357,-29.399902
1435705578.373,-27.133362
1435705578.389,-24.280273
1435705578.404,-20.99115
1435705578.42,-17.570496
1435705578.436,-14.271973
1435705578.451,-11.172791
1435705578.467,-8.153381
1435705578.482,-4.9542236
1435705578.498,-1.3968506
1435705578.514,2.53656
1435705578.529,6.7022095
1435705578.545,10.970093
1435705578.561,15.36145
1435705578.576,20.012451
1435705578.592,25.01001
1435705578.607,30.142883
1435705578.623,34.743713
1435705578.639,37.82257
1435705578.654,38.40912
1435705578.67,35.954163
1435705578.686,30.57782
1435705578.701,23.024536
1435705578.717,14.434326
1435705578.732,5.9470215
1435705578.748,-1.6255493
1435705578.764,-7.920227
1435705578.779,-12.977417
1435705578.795,-17.059204
1435705578.811,-20.442505
1435705578.826,-23.263306
1435705578.842,-25.435242
1435705578.857,-26.841675
1435705578.873,-27.409363
1435705578.889,-27.302673
1435705578.904,-26.803284
1435705578.92,-26.224976
1435705578.936,-25.7193
1435705578.951,-25.280823
1435705578.967,-24.851624
1435705578.982,-24.434021
1435705578.998,-24.201782
1435705579.014,-24.366272
1435705579.029,-24.961792
1435705579.045,-25.717651
1435705579.061,-26.083984
1435705579.076,-25.518555
1435705579.092,-23.73169
1435705579.107,-20.838684
1435705579.123,-17.271912
1435705579.139,-13.522949
1435705579.154,-9.900574
1435705579.17,-6.5127563
1435705579.186,-3.260437
1435705579.201,-0.020324707
1435705579.217,3.3705444
1435705579.232,7.0961914
1435705579.248,11.37085
1435705579.264,16.386292
1435705579.279,22.185364
1435705579.295,28.513672
1435705579.311,34.778442
1435705579.326,40.09839
1435705579.342,43.518127
1435705579.357,44.241272
1435705579.373,41.946167
1435705579.389,36.803345
1435705579.404,29.500061
1435705579.42,20.970642
1435705579.436,12.147125
1435705579.451,3.7142334
1435705579.467,-3.9494019
1435705579.482,-10.7126465
1435705579.498,-16.552856
1435705579.514,-21.512482
1435705579.529,-25.610748
1435705579.545,-28.874054
1435705579.561,-31.33966
1435705579.576,-33.07141
1435705579.592,-34.06781
1435705579.608,-34.341125
1435705579.623,-33.945587
1435705579.639,-33.07672
1435705579.654,-31.977295
1435705579.67,-30.935028
1435705579.686,-30.052124
1435705579.701,-29.24939
1435705579.717,-28.302765
1435705579.732,-26.989532
1435705579.748,-25.255493
1435705579.764,-23.26471
1435705579.779,-21.230255
1435705579.795,-19.28305
1435705579.811,-17.386627
1435705579.826,-15.333099
1435705579.842,-12.880493
1435705579.858,-9.960693
1435705579.873,-6.6786194
1435705579.889,-3.29776
1435705579.904,-0.10992432
1435705579.92,2.7089539
1435705579.936,5.208679
1435705579.951,7.620392
1435705579.967,10.3046875
1435705579.983,13.572266
1435705579.998,17.645935
1435705580.014,22.510132
1435705580.029,27.93103
1435705580.045,33.459442
1435705580.061,38.475006
1435705580.076,42.269196
1435705580.092,44.164185
1435705580.108,43.6521
1435705580.123,40.55078
1435705580.139,35.06076
1435705580.154,27.810822
1435705580.17,19.698944
1435705580.186,11.66983
1435705580.201,4.449829
1435705580.217,-1.5870056
1435705580.233,-6.455597
1435705580.248,-10.406464
1435705580.264,-13.746399
1435705580.279,-16.685272
1435705580.295,-19.262146
1435705580.311,-21.389526
1435705580.326,-22.919128
1435705580.342,-23.714447
1435705580.358,-23.778656
1435705580.373,-23.26175
1435705580.389,-22.47931
1435705580.404,-21.815918
1435705580.42,-21.576202
1435705580.436,-21.8432
1435705580.451,-22.468567
1435705580.467,-23.100769
1435705580.483,-23.405396
1435705580.498,-23.190674
1435705580.514,-22.46457
1435705580.529,-21.345978
1435705580.545,-19.935822
1435705580.561,-18.23349
1435705580.576,-16.185028
1435705580.592,-13.726807
1435705580.608,-10.900574
1435705580.623,-7.8215637
1435705580.639,-4.6289063
1435705580.654,-1.4199829
1435705580.67,1.7842712
1435705580.686,4.9878845
1435705580.701,8.180603
1435705580.717,11.363739
1435705580.733,14.527893
1435705580.748,17.685333
1435705580.764,20.894592
1435705580.779,24.219757
1435705580.795,27.710938
1435705580.811,31.358948
1435705580.826,35.05127
1435705580.842,38.47589
1435705580.858,41.131714
1435705580.873,42.411743
1435705580.889,41.7164
1435705580.904,38.800568
1435705580.92,33.844116
1435705580.936,27.48291
1435705580.951,20.54895
1435705580.967,13.847565
1435705580.983,7.878601
1435705580.998,2.801361
1435705581.014,-1.4842529
1435705581.029,-5.2225037
1435705581.045,-8.636963
1435705581.061,-11.86145
1435705581.076,-14.896484
1435705581.092,-17.55783
1435705581.108,-19.579163
1435705581.123,-20.724884
1435705581.139,-20.90866
1435705581.154,-20.273895
1435705581.17,-19.15448
1435705581.186,-17.931458
1435705581.201,-16.90207
1435705581.217,-16.17421
1435705581.233,-15.704086
1435705581.248,-15.400772
1435705581.264,-15.205826
1435705581.279,-15.074829
1435705581.295,-14.935196
1435705581.311,-14.666275
1435705581.326,-14.125977
1435705581.342,-13.242264
1435705581.358,-12.060089
1435705581.373,-10.739426
1435705581.389,-9.443466
1435705581.404,-8.273071
1435705581.42,-7.14592
1435705581.436,-5.87471
1435705581.451,-4.21875
1435705581.467,-2.0072327
1435705581.483,0.76779175
1435705581.498,3.9554596
1435705581.514,7.2678986
1435705581.529,10.414871
1435705581.545,13.1883545
1435705581.561,15.615936
1435705581.576,17.886185
1435705581.592,20.37535
1435705581.608,23.434616
1435705581.623,27.28331
1435705581.639,31.84375
1435705581.654,36.73987
1435705581.67,41.31279
1435705581.686,44.801147
1435705581.701,46.46521
1435705581.717,45.800156
1435705581.733,42.65364
1435705581.748,37.32425
1435705581.764,30.462418
1435705581.779,22.939026
1435705581.795,15.597565
1435705581.811,9.065247
1435705581.826,3.621109
1435705581.842,-0.71087646
1435705581.858,-4.104599
1435705581.873,-6.774887
1435705581.889,-8.909485
1435705581.904,-10.634888
1435705581.92,-12.04747
1435705581.936,-13.225311
1435705581.951,-14.231232
1435705581.967,-15.135086
1435705581.983,-15.977768
1435705581.998,-16.79715
1435705582.014,-17.61258
1435705582.029,-18.388779
1435705582.045,-19.09111
1435705582.061,-19.620056
1435705582.076,-19.872726
1435705582.092,-19.74179
1435705582.108,-19.16787
1435705582.123,-18.127197
1435705582.139,-16.68409
1435705582.154,-14.983856
1435705582.17,-13.188675
1435705582.186,-11.416512
1435705582.201,-9.685524
1435705582.217,-7.869232
1435705582.233,-5.727463
1435705582.248,-3.070633
1435705582.264,0.12710571
1435705582.279,3.656067
1435705582.295,7.138794
1435705582.311,10.214249
1435705582.326,12.697212
1435705582.342,14.645065
1435705582.358,16.324608
1435705582.373,18.041649
1435705582.389,20.027016
1435705582.404,22.434967
1435705582.42,25.305656
1435705582.436,28.61171
1435705582.451,32.22075
1435705582.467,35.7856
1435705582.483,38.74653
1435705582.498,40.349327
1435705582.514,39.890297
1435705582.53,37.00345
1435705582.545,31.816986
1435705582.561,25.024315
1435705582.576,17.62397
1435705582.592,10.622658
1435705582.608,4.7201004
1435705582.623,0.16467285
1435705582.639,-3.1957932
1435705582.655,-5.703865
1435705582.67,-7.690323
1435705582.686,-9.327431
1435705582.701,-10.640503
1435705582.717,-11.605904
1435705582.733,-12.234756
1435705582.748,-12.6492
1435705582.764,-13.02005
1435705582.78,-13.469318
1435705582.795,-14.033783
1435705582.811,-14.624222
1435705582.826,-15.13998
1435705582.842,-15.488773
1435705582.858,-15.679253
1435705582.873,-15.769226
1435705582.889,-15.822918
1435705582.905,-15.816994
1435705582.92,-15.649685
1435705582.936,-15.137375
1435705582.951,-14.07486
1435705582.967,-12.321159
1435705582.983,-9.79995
1435705582.998,-6.633068
1435705583.014,-3.0863647
1435705583.03,0.472332
1435705583.045,3.6375313
1435705583.061,6.166088
1435705583.076,8.057087
1435705583.092,9.531029
1435705583.108,10.928608
1435705583.123,12.607052
1435705583.139,14.777576
1435705583.155,17.569405
1435705583.17,20.972797
1435705583.186,24.878338
1435705583.201,28.95882
1435705583.217,32.6623
1435705583.233,35.221027
1435705583.248,35.860203
1435705583.264,34.056435
1435705583.28,29.77401
1435705583.295,23.519302
1435705583.311,16.194214
1435705583.326,8.777485
1435705583.342,2.121378
1435705583.358,-3.2703533
1435705583.373,-7.2726383
1435705583.389,-10.015373
1435705583.405,-11.799778
1435705583.42,-12.963394
1435705583.436,-13.768818
1435705583.451,-14.326342
1435705583.467,-14.661861
1435705583.483,-14.730755
1435705583.498,-14.535316
1435705583.514,-14.208908
1435705583.53,-13.942169
1435705583.545,-13.939482
1435705583.561,-14.268944
1435705583.576,-14.87931
1435705583.592,-15.601062
1435705583.608,-16.242424
1435705583.623,-16.659027
1435705583.639,-16.788605
1435705583.655,-16.63602
1435705583.67,-16.245148
1435705583.686,-15.629615
1435705583.701,-14.785483
1435705583.717,-13.645277
1435705583.733,-12.105288
1435705583.748,-10.102419
1435705583.764,-7.669107
1435705583.78,-4.9172983
1435705583.795,-2.1024961
1435705583.811,0.5437306
1435705583.826,2.8449116
1435705583.842,4.825257
1435705583.858,6.62745
1435705583.873,8.454304
1435705583.889,10.456398
1435705583.905,12.7132
1435705583.92,15.233246
1435705583.936,18.020565
1435705583.951,21.061588
1435705583.967,24.300861
1435705583.983,27.505527
1435705583.998,30.243374
1435705584.014,31.89146
1435705584.03,31.80688
1435705584.045,29.557419
1435705584.061,25.11807
1435705584.076,18.963232
1435705584.092,11.958002
1435705584.108,5.1154346
1435705584.123,-0.75725174
1435705584.139,-5.263582
1435705584.155,-8.458355
1435705584.17,-10.719446
1435705584.186,-12.4767475
1435705584.201,-13.998259
1435705584.217,-15.334915
1435705584.233,-16.37794
1435705584.248,-17.007582
1435705584.264,-17.228884
1435705584.28,-17.162655
1435705584.295,-16.99456
1435705584.311,-16.849472
1435705584.326,-16.786037
1435705584.342,-16.78572
1435705584.358,-16.807266
1435705584.373,-16.81284
1435705584.389,-16.832626
1435705584.405,-16.92469
1435705584.42,-17.163925
1435705584.436,-17.53891
1435705584.451,-17.926216
1435705584.467,-18.046398
1435705584.483,-17.617954
1435705584.498,-16.47583
1435705584.514,-14.715752
1435705584.53,-12.656944
1435705584.545,-10.711987
1435705584.561,-9.172073
1435705584.576,-8.071075
1435705584.592,-7.1560173
1435705584.608,-6.069618
1435705584.623,-4.512554
1435705584.639,-2.3771095
1435705584.655,0.25225067
1435705584.67,3.1526947
1435705584.686,6.077194
1435705584.701,8.813164
1435705584.717,11.239906
1435705584.733,13.365715
1435705584.748,15.379959
1435705584.764,17.562645
1435705584.78,20.211739
1435705584.795,23.416908
1435705584.811,27.007248
1435705584.826,30.464859
1435705584.842,33.105133
1435705584.858,34.24195
1435705584.873,33.456734
1435705584.889,30.683716
1435705584.905,26.240524
1435705584.92,20.716927
1435705584.936,14.821274
1435705584.951,9.178658
1435705584.967,4.242874
1435705584.983,0.23081207
1435705584.998,-2.8532715
1435705585.014,-5.1720657
1435705585.03,-6.9102783
1435705585.045,-8.255791
1435705585.061,-9.366295
1435705585.076,-10.40007
1435705585.092,-11.421974
1435705585.108,-12.464279
1435705585.123,-13.469788
1435705585.139,-14.356995
1435705585.155,-15.031418
1435705585.17,-15.502251
1435705585.186,-15.839104
1435705585.202,-16.158058
1435705585.217,-16.467628
1435705585.233,-16.708763
1435705585.248,-16.74614
1435705585.264,-16.48922
1435705585.28,-15.943726
1435705585.295,-15.247002
1435705585.311,-14.537506
1435705585.327,-13.843384
1435705585.342,-13.067688
1435705585.358,-12.017715
1435705585.373,-10.578354
1435705585.389,-8.767059
1435705585.405,-6.772751
1435705585.42,-4.8940887
1435705585.436,-3.3071442
1435705585.452,-2.0518494
1435705585.467,-0.93836975
1435705585.483,0.30064392
1435705585.498,1.9217224
1435705585.514,3.9745789
1435705585.53,6.281891
1435705585.545,8.506699
1435705585.561,10.316589
1435705585.577,11.52594
1435705585.592,12.200699
1435705585.608,12.659561
1435705585.623,13.318451
1435705585.639,14.517197
1435705585.655,16.437592
1435705585.67,18.996567
1435705585.686,21.959976
1435705585.702,24.931625
1435705585.717,27.460785
1435705585.733,29.051697
1435705585.748,29.272476
1435705585.764,27.816177
1435705585.78,24.725693
1435705585.795,20.333023
1435705585.811,15.242401
1435705585.827,10.104202
1435705585.842,5.5106354
1435705585.858,1.8309631
1435705585.873,-0.8201294
1435705585.889,-2.5115204
1435705585.905,-3.4867706
1435705585.92,-4.0433197
1435705585.936,-4.485901
1435705585.952,-5.015869
1435705585.967,-5.6798706
1435705585.983,-6.3796997
1435705585.998,-6.9453583
1435705586.014,-7.2825775
1435705586.03,-7.396164
1435705586.045,-7.4614563
1435705586.061,-7.6517487
1435705586.077,-8.054291
1435705586.092,-8.606506
1435705586.108,-9.161331
1435705586.123,-9.573639
1435705586.139,-9.768143
1435705586.155,-9.732681
1435705586.17,-9.490234
1435705586.186,-9.057465
1435705586.202,-8.416885
1435705586.217,-7.5339355
1435705586.233,-6.4163666
1435705586.248,-5.090332
1435705586.264,-3.6918335
1435705586.28,-2.3824768
1435705586.295,-1.3459167
1435705586.311,-0.6946564
1435705586.327,-0.44436646
1435705586.342,-0.38894653
1435705586.358,-0.17129517
1435705586.373,0.6094971
1435705586.389,2.1981964
1435705586.405,4.542984
1435705586.42,7.3105316
1435705586.436,9.989929
1435705586.452,12.185562
1435705586.467,13.758728
1435705586.483,14.863144
1435705586.498,15.823547
1435705586.514,16.949387
1435705586.53,18.445526
1435705586.545,20.336731
1435705586.561,22.490448
1435705586.577,24.648865
1435705586.592,26.457947
1435705586.608,27.4814
1435705586.623,27.306458
1435705586.639,25.6353
1435705586.655,22.423035
1435705586.67,17.93863
1435705586.686,12.746033
1435705586.702,7.5091095
1435705586.717,2.877884
1435705586.733,-0.7451172
1435705586.748,-3.2538757
1435705586.764,-4.852188
1435705586.78,-5.896225
1435705586.795,-6.750183
1435705586.811,-7.630478
1435705586.827,-8.581421
1435705586.842,-9.485764
1435705586.858,-10.189316
1435705586.873,-10.572006
1435705586.889,-10.676025
1435705586.905,-10.624634
1435705586.92,-10.577301
1435705586.936,-10.596817
1435705586.952,-10.6250305
1435705586.967,-10.512817
1435705586.983,-10.14827
1435705586.998,-9.528503
1435705587.014,-8.810547
1435705587.03,-8.239059
1435705587.045,-8.023895
1435705587.061,-8.149811
1435705587.077,-8.410217
1435705587.092,-8.400085
1435705587.108,-7.763397
1435705587.123,-6.3582764
1435705587.139,-4.3658447
1435705587.155,-2.1788635
1435705587.17,-0.16207886
1435705587.186,1.546051
1435705587.202,3.0671387
1435705587.217,4.6889954
1435705587.233,6.6483765
1435705587.248,8.980621
1435705587.264,11.471344
1435705587.28,13.803986
1435705587.295,15.672089
1435705587.311,16.916046
1435705587.327,17.566986
1435705587.342,17.815796
1435705587.358,17.948608
1435705587.373,18.34961
1435705587.389,19.334137
1435705587.405,21.031189
1435705587.42,23.185425
1435705587.436,25.209137
1435705587.452,26.312775
1435705587.467,25.888184
1435705587.483,23.730347
1435705587.498,20.175537
1435705587.514,15.9019165
1435705587.53,11.630859
1435705587.545,7.8312073
1435705587.561,4.676178
1435705587.577,2.0814514
1435705587.592,-0.120666504
1435705587.608,-1.9984131
1435705587.623,-3.5163574
1435705587.639,-4.6382446
1435705587.655,-5.34964
1435705587.67,-5.763489
1435705587.686,-6.016815
1435705587.702,-6.195801
1435705587.717,-6.2965393
1435705587.733,-6.23468
1435705587.748,-5.8859863
1435705587.764,-5.2445984
1435705587.78,-4.46579
1435705587.795,-3.7897034
1435705587.811,-3.5137024
1435705587.827,-3.7781372
1435705587.842,-4.471695
1435705587.858,-5.276779
1435705587.874,-5.7861176
1435705587.889,-5.7269287
1435705587.905,-5.0196075
1435705587.92,-3.8222504
1435705587.936,-2.3851013
1435705587.952,-0.91893005
1435705587.967,0.47973633
1435705587.983,1.8059387
1435705587.998,3.1194
1435705588.014,4.4651947
1435705588.03,5.8909607
1435705588.045,7.387085
1435705588.061,8.916473
1435705588.077,10.4357605
1435705588.092,11.880234
1435705588.108,13.210785
1435705588.124,14.48642
1435705588.139,15.832733
1435705588.155,17.421844
1435705588.17,19.372894
1435705588.186,21.666443
1435705588.202,24.093246
1435705588.217,26.324158
1435705588.233,27.947708
1435705588.249,28.599869
1435705588.264,28.049896
1435705588.28,26.181152
1435705588.295,23.103317
1435705588.311,19.054276
1435705588.327,14.450119
1435705588.342,9.752701
1435705588.358,5.441391
1435705588.374,1.8551483
1435705588.389,-0.8448944
1435705588.405,-2.6979828
1435705588.42,-3.912735
1435705588.436,-4.735031
1435705588.452,-5.3891296
1435705588.467,-5.9637146
1435705588.483,-6.4421387
1435705588.499,-6.6853027
1435705588.514,-6.6470184
1435705588.53,-6.395569
1435705588.545,-6.162674
1435705588.561,-6.2738647
1435705588.577,-6.9383545
1435705588.592,-8.139511
1435705588.608,-9.630981
1435705588.624,-11.033859
1435705588.639,-12.028305
1435705588.655,-12.466431
1435705588.67,-12.373428
1435705588.686,-11.871826
1435705588.702,-11.07869
1435705588.717,-10.013702
1435705588.733,-8.610733
1435705588.749,-6.824341
1435705588.764,-4.634369
1435705588.78,-2.0651245
1435705588.795,0.75401306
1435705588.811,3.6268463
1435705588.827,6.347168
1435705588.842,8.7043
1435705588.858,10.616913
1435705588.874,12.14566
1435705588.889,13.509094
1435705588.905,14.995132
1435705588.92,16.909485
1435705588.936,19.484192
1435705588.952,22.836456
1435705588.967,26.929062
1435705588.983,31.505768
1435705588.999,36.010666
1435705589.014,39.646088
1435705589.03,41.568542
1435705589.045,41.13199
1435705589.061,38.13665
1435705589.077,32.916298
1435705589.092,26.192795
1435705589.108,18.833397
1435705589.124,11.5739975
1435705589.139,4.896324
1435705589.155,-0.9864273
1435705589.17,-6.0126343
1435705589.186,-10.18483
1435705589.202,-13.551392
1435705589.217,-16.189003
1435705589.233,-18.209549
1435705589.249,-19.728333
1435705589.264,-20.842834
1435705589.28,-21.605408
1435705589.295,-22.06607
1435705589.311,-22.280693
1435705589.327,-22.327202
1435705589.342,-22.276337
1435705589.358,-22.22387
1435705589.374,-22.23413
1435705589.389,-22.388763
1435705589.405,-22.72937
1435705589.42,-23.224289
1435705589.436,-23.767231
1435705589.452,-24.133827
1435705589.467,-24.129261
1435705589.483,-23.59689
1435705589.499,-22.490421
1435705589.514,-20.902866
1435705589.53,-18.942543
1435705589.545,-16.72651
1435705589.561,-14.32589
1435705589.577,-11.784557
1435705589.592,-9.157017
1435705589.608,-6.510044
1435705589.624,-3.8787804
1435705589.639,-1.2527027
1435705589.655,1.4069328
1435705589.67,4.1298237
1435705589.686,6.888445
1435705589.702,9.626385
1435705589.717,12.325285
1435705589.733,15.098655
1435705589.749,18.20689
1435705589.764,21.940617
1435705589.78,26.390526
1435705589.795,31.272512
1435705589.811,35.87376
1435705589.827,39.234768
1435705589.842,40.467262
1435705589.858,39.104996
1435705589.874,35.257072
1435705589.889,29.52338
1435705589.905,22.750973
1435705589.92,15.722624
1435705589.936,8.944355
1435705589.952,2.665224
1435705589.967,-3.044281
1435705589.983,-8.156094
1435705589.999,-12.569164
1435705590.014,-16.20404
1435705590.03,-19.027113
1435705590.045,-21.127884
1435705590.061,-22.698002
1435705590.077,-23.944817
1435705590.092,-24.996223
1435705590.108,-25.86906
1435705590.124,-26.46136
1435705590.139,-26.687206
1435705590.155,-26.509087
1435705590.17,-26.0476
1435705590.186,-25.501526
1435705590.202,-25.068295
1435705590.217,-24.870579
1435705590.233,-24.862236
1435705590.249,-24.848404
1435705590.264,-24.562847
1435705590.28,-23.764626
1435705590.295,-22.363632
1435705590.311,-20.483467
1435705590.327,-18.406364
1435705590.342,-16.409157
1435705590.358,-14.636093
1435705590.374,-12.952141
1435705590.389,-11.086372
1435705590.405,-8.766037
1435705590.42,-5.9240875
1435705590.436,-2.750824
1435705590.452,0.42466736
1435705590.467,3.340088
1435705590.483,5.943733
1435705590.499,8.423935
1435705590.514,11.025543
1435705590.53,13.959602
1435705590.546,17.249283
1435705590.561,20.830261
1435705590.577,24.625198
1435705590.592,28.557259
1435705590.608,32.44532
1435705590.624,35.905724
1435705590.639,38.273705
1435705590.655,38.825165
1435705590.67,37.0198
1435705590.686,32.762764
1435705590.702,26.498749
1435705590.717,19.0541
1435705590.733,11.364296
1435705590.749,4.200325
1435705590.764,-1.992424
1435705590.78,-7.124977
1435705590.796,-11.337074
1435705590.811,-14.855873
1435705590.827,-17.879906
1435705590.842,-20.426521
1435705590.858,-22.441162
1435705590.874,-23.799057
1435705590.889,-24.43602
1435705590.905,-24.426788
1435705590.921,-23.996048
1435705590.936,-23.43068
1435705590.952,-23.01825
1435705590.967,-22.937363
1435705590.983,-23.221786
1435705590.999,-23.779556
1435705591.014,-24.457214
1435705591.03,-25.067474
1435705591.046,-25.490677
1435705591.061,-25.659485
1435705591.077,-25.545578
1435705591.092,-25.073502
1435705591.108,-24.167847
1435705591.124,-22.692001
1435705591.139,-20.59227
1435705591.155,-17.899445
1435705591.171,-14.754654
1435705591.186,-11.355194
1435705591.202,-7.86528
1435705591.217,-4.344406
1435705591.233,-0.78408813
1435705591.249,2.822235
1435705591.264,6.4226227
1435705591.28,9.915253
1435705591.296,13.162689
1435705591.311,16.160019
1435705591.327,18.964676
1435705591.342,21.775269
1435705591.358,24.763458
1435705591.374,27.964767
1435705591.389,31.128448
1435705591.405,33.75769
1435705591.421,35.134964
1435705591.436,34.576874
1435705591.452,31.67546
1435705591.467,26.499573
1435705591.483,19.657364
1435705591.499,12.07872
1435705591.514,4.7355194
1435705591.53,-1.725296
1435705591.546,-7.093628
1435705591.561,-11.516907
1435705591.577,-15.2547
1435705591.592,-18.412506
1435705591.608,-20.89627
1435705591.624,-22.459717
1435705591.639,-23.016602
1435705591.655,-22.718658
1435705591.671,-22.003433
1435705591.686,-21.391922
1435705591.702,-21.245178
1435705591.717,-21.670471
1435705591.733,-22.462921
1435705591.749,-23.282288
1435705591.764,-23.787842
1435705591.78,-23.761795
1435705591.796,-23.22461
1435705591.811,-22.30104
1435705591.827,-21.199112
1435705591.842,-20.060257
1435705591.858,-18.89116
1435705591.874,-17.505875
1435705591.889,-15.645859
1435705591.905,-13.082581
1435705591.921,-9.77626
1435705591.936,-5.952881
1435705591.952,-2.0611267
1435705591.967,1.4413452
1435705591.983,4.2716064
1435705591.999,6.4781494
1435705592.014,8.400864
1435705592.03,10.522873
1435705592.046,13.248978
1435705592.061,16.718658
1435705592.077,20.809326
1435705592.092,25.171417
1435705592.108,29.335587
1435705592.124,32.818436
1435705592.139,35.12039
1435705592.155,35.829025
1435705592.171,34.604904
1435705592.186,31.311218
1435705592.202,26.104218
1435705592.217,19.491241
1435705592.233,12.254852
1435705592.249,5.2758636
1435705592.264,-0.7377167
1435705592.28,-5.4212036
1435705592.296,-8.843674
1435705592.311,-11.380829
1435705592.327,-13.5065
1435705592.342,-15.507355
1435705592.358,-17.417023
1435705592.374,-19.013687
1435705592.389,-20.00055
1435705592.405,-20.197876
1435705592.421,-19.682495
1435705592.436,-18.765976
1435705592.452,-17.913544
1435705592.467,-17.502579
1435705592.483,-17.729553
1435705592.499,-18.492538
1435705592.514,-19.486115
1435705592.53,-20.325943
1435705592.546,-20.715057
1435705592.561,-20.59613
1435705592.577,-20.110306
1435705592.592,-19.472122
1435705592.608,-18.84311
1435705592.624,-18.110779
1435705592.639,-17.005035
1435705592.655,-15.183655
1435705592.671,-12.521042
1435705592.686,-9.193863
1435705592.702,-5.6234283
1435705592.717,-2.2582855
1435705592.733,0.66000366
1435705592.749,3.200531
1435705592.764,5.6463165
1435705592.78,8.286331
1435705592.796,11.255478
1435705592.811,14.519592
1435705592.827,17.947357
1435705592.842,21.480667
1435705592.858,25.13379
1435705592.874,28.886292
1435705592.889,32.488205
1435705592.905,35.401672
1435705592.921,36.875275
1435705592.936,36.22609
1435705592.952,33.112717
1435705592.967,27.779877
1435705592.983,20.983032
1435705592.999,13.746918
1435705593.014,7.04126
1435705593.03,1.4452057
1435705593.046,-2.9164734
1435705593.061,-6.310974
1435705593.077,-9.18692
1435705593.092,-11.859207
1435705593.108,-14.446487
1435705593.124,-16.828476
1435705593.139,-18.812302
1435705593.155,-20.236664
1435705593.171,-21.133255
1435705593.186,-21.651382
1435705593.202,-22.004135
1435705593.217,-22.365585
1435705593.233,-22.787704
1435705593.249,-23.218216
1435705593.264,-23.539291
1435705593.28,-23.608978
1435705593.296,-23.334808
1435705593.311,-22.701492
1435705593.327,-21.787354
1435705593.342,-20.67012
1435705593.358,-19.448639
1435705593.374,-18.111511
1435705593.389,-16.595367
1435705593.405,-14.79155
1435705593.421,-12.666107
1435705593.436,-10.278412
1435705593.452,-7.746048
1435705593.468,-5.1727448
1435705593.483,-2.5665894
1435705593.499,0.14025879
1435705593.514,3.025589
1435705593.53,6.0576935
1435705593.546,9.041687
1435705593.561,11.685043
1435705593.577,13.725891
1435705593.593,15.091171
1435705593.608,15.944702
1435705593.624,16.695786
1435705593.639,17.84578
1435705593.655,19.857132
1435705593.671,22.98024
1435705593.686,27.11229
1435705593.702,31.752548
1435705593.718,36.061554
1435705593.733,39.061966
1435705593.749,39.896317
1435705593.764,38.174835
1435705593.78,34.032394
1435705593.796,28.10463
1435705593.811,21.242416
1435705593.827,14.213776
1435705593.843,7.553055
1435705593.858,1.4891205
1435705593.874,-3.9069061
1435705593.889,-8.610443
1435705593.905,-12.537506
1435705593.921,-15.639236
1435705593.936,-17.965942
1435705593.952,-19.70221
1435705593.968,-21.142792
1435705593.983,-22.529556
1435705593.999,-23.939423
1435705594.014,-25.244293
1435705594.03,-26.1763
1435705594.046,-26.480423
1435705594.061,-26.085678
1435705594.077,-25.184097
1435705594.093,-24.105988
1435705594.108,-23.195557
1435705594.124,-22.598007
1435705594.139,-22.22673
1435705594.155,-21.809662
1435705594.171,-21.058212
1435705594.186,-19.813889
1435705594.202,-18.10022
1435705594.218,-16.058395
1435705594.233,-13.841583
1435705594.249,-11.566757
1435705594.264,-9.307602
1435705594.28,-7.0976105
1435705594.296,-4.994568
1435705594.311,-3.0063171
1435705594.327,-1.0739899
1435705594.343,0.89312744
1435705594.358,3.027008
1435705594.374,5.4200897
1435705594.389,8.068146
1435705594.405,10.933533
1435705594.421,13.892502
1435705594.436,16.854004
1435705594.452,19.756454
1435705594.468,22.596237
1435705594.483,25.464447
1435705594.499,28.519104
1435705594.514,31.971878
1435705594.53,35.882614
1435705594.546,40.06018
1435705594.561,43.90985
1435705594.577,46.528366
1435705594.593,47.0065
1435705594.608,44.737762
1435705594.624,39.69783
1435705594.639,32.49872
1435705594.655,24.174057
1435705594.671,15.831436
1435705594.686,8.311203
1435705594.702,2.0010376
1435705594.718,-3.1124725
1435705594.733,-7.2644196
1435705594.749,-10.689941
1435705594.764,-13.475311
1435705594.78,-15.561142
1435705594.796,-16.865677
1435705594.811,-17.427063
1435705594.827,-17.46341
1435705594.843,-17.332886
1435705594.858,-17.349243
1435705594.874,-17.697311
1435705594.889,-18.319458
1435705594.905,-19.01358
1435705594.921,-19.573227
1435705594.936,-19.911346
1435705594.952,-20.07109
1435705594.968,-20.131897
1435705594.983,-20.088135
1435705594.999,-19.812714
1435705595.014,-19.168808
1435705595.03,-18.07666
1435705595.046,-16.5914
1435705595.061,-14.865372
1435705595.077,-12.993561
1435705595.093,-10.953064
1435705595.108,-8.627426
1435705595.124,-5.8842926
1435705595.139,-2.7156067
1435705595.155,0.7868805
1435705595.171,4.441498
1435705595.186,8.095596
1435705595.202,11.619202
1435705595.218,14.915863
1435705595.233,17.908707
1435705595.249,20.583435
1435705595.264,23.049911
1435705595.28,25.598572
1435705595.296,28.618347
1435705595.311,32.37581
1435705595.327,36.727432
1435705595.343,41.05226
1435705595.358,44.35701
1435705595.374,45.592743
1435705595.389,44.064774
1435705595.405,39.707077
1435705595.421,33.05818
1435705595.436,25.038681
1435705595.452,16.609589
1435705595.468,8.54126
1435705595.483,1.2662659
1435705595.499,-5.0164185
1435705595.514,-10.21492
1435705595.53,-14.2234955
1435705595.546,-16.965408
1435705595.561,-18.498474
1435705595.577,-19.10466
1435705595.593,-19.209259
1435705595.608,-19.251877
1435705595.624,-19.450912
1435705595.639,-19.749283
1435705595.655,-19.957214
1435705595.671,-19.92186
1435705595.686,-19.727722
1435705595.702,-19.67714
1435705595.718,-20.033005
1435705595.733,-20.892868
1435705595.749,-22.034058
1435705595.764,-23.021774
1435705595.78,-23.424026
1435705595.796,-22.978363
1435705595.811,-21.654755
1435705595.827,-19.636673
1435705595.843,-17.195648
1435705595.858,-14.62999
1435705595.874,-12.167969
1435705595.889,-9.941864
1435705595.905,-7.899246
1435705595.921,-5.831482
1435705595.936,-3.4307098
1435705595.952,-0.46635437
1435705595.968,3.0954285
1435705595.983,7.042465
1435705595.999,11.027435
1435705596.014,14.719406
1435705596.03,18.029877
1435705596.046,21.106094
1435705596.061,24.25766
1435705596.077,27.828842
1435705596.093,32.08354
1435705596.108,37.040222
1435705596.124,42.458878
1435705596.14,47.799164
1435705596.155,52.27144
1435705596.171,55.03865
1435705596.186,55.321198
1435705596.202,52.683716
1435705596.218,47.176453
1435705596.233,39.334656
1435705596.249,30.101791
1435705596.265,20.554916
1435705596.28,11.659241
1435705596.296,4.0213013
1435705596.311,-2.1608887
1435705596.327,-7.071884
1435705596.343,-11.090271
1435705596.358,-14.598785
1435705596.374,-17.81784
1435705596.39,-20.764206
1435705596.405,-23.310257
1435705596.421,-25.28749
1435705596.436,-26.606903
1435705596.452,-27.312561
1435705596.468,-27.556595
1435705596.483,-27.531723
1435705596.499,-27.37732
1435705596.515,-27.20082
1435705596.53,-27.02919
1435705596.546,-26.835007
1435705596.561,-26.606155
1435705596.577,-26.319168
1435705596.593,-26.009827
1435705596.608,-25.705994
1435705596.624,-25.41684
1435705596.64,-25.06189
1435705596.655,-24.463623
1435705596.671,-23.492325
1435705596.686,-22.107132
1435705596.702,-20.458344
1435705596.718,-18.727524
1435705596.733,-16.985458
1435705596.749,-15.021225
1435705596.765,-12.454361
1435705596.78,-8.901062
1435705596.796,-4.3195496
1435705596.811,0.90405273
1435705596.827,6.0973663
1435705596.843,10.592987
1435705596.858,14.107468
1435705596.874,16.87465
1435705596.89,19.535217
1435705596.905,22.804718
1435705596.921,27.172455
1435705596.936,32.71367
1435705596.952,39.04901
1435705596.968,45.40854
1435705596.983,50.822098
1435705596.999,54.35466
1435705597.015,55.240417
1435705597.03,53.10417
1435705597.046,48.03398
1435705597.061,40.557434
1435705597.077,31.450424
1435705597.093,21.625443
1435705597.108,11.943558
1435705597.124,3.0944672
1435705597.14,-4.4517975
1435705597.155,-10.505692
1435705597.171,-15.1479645
1435705597.186,-18.653442
1435705597.202,-21.354126
1435705597.218,-23.530457
1435705597.233,-25.326813
1435705597.249,-26.753891
1435705597.265,-27.844406
1435705597.28,-28.654297
1435705597.296,-29.350052
1435705597.311,-30.042068
1435705597.327,-30.78595
1435705597.343,-31.507263
1435705597.358,-32.106598
1435705597.374,-32.48593
1435705597.39,-32.674423
1435705597.405,-32.780334
1435705597.421,-32.91617
1435705597.436,-33.100357
1435705597.452,-33.208496
1435705597.468,-33.00328
1435705597.483,-32.20967
1435705597.499,-30.640945
1435705597.515,-28.26796
1435705597.53,-25.249878
1435705597.546,-21.909317
1435705597.561,-18.581192
1435705597.577,-15.528198
1435705597.593,-12.762131
1435705597.608,-10.090164
1435705597.624,-7.206497
1435705597.64,-3.8948364
1435705597.655,-0.16693115
1435705597.671,3.7480469
1435705597.686,7.474823
1435705597.702,10.713715
1435705597.718,13.381866
1435705597.733,15.630615
1435705597.749,17.800858
1435705597.765,20.304764
1435705597.78,23.522018
1435705597.796,27.704636
1435705597.811,32.879456
1435705597.827,38.746323
1435705597.843,44.64084
1435705597.858,49.563843
1435705597.874,52.4644
1435705597.89,52.51619
1435705597.905,49.394073
1435705597.921,43.398575
1435705597.936,35.316193
1435705597.952,26.119797
1435705597.968,16.764633
1435705597.983,7.978821
1435705597.999,0.22503662
1435705598.015,-6.26149
1435705598.03,-11.460571
1435705598.046,-15.476578
1435705598.061,-18.542435
1435705598.077,-20.929047
1435705598.093,-22.868042
1435705598.108,-24.514542
1435705598.124,-25.87149
1435705598.14,-26.885925
1435705598.155,-27.48375
1435705598.171,-27.668
1435705598.186,-27.517975
1435705598.202,-27.21408
1435705598.218,-26.921875
1435705598.233,-26.80223
1435705598.249,-26.904572
1435705598.265,-27.165573
1435705598.28,-27.455109
1435705598.296,-27.565903
1435705598.311,-27.298752
1435705598.327,-26.579437
1435705598.343,-25.403152
1435705598.358,-23.875092
1435705598.374,-22.1147
1435705598.39,-20.247574
1435705598.405,-18.33081
1435705598.421,-16.373978
1435705598.436,-14.301559
1435705598.452,-12.054459
1435705598.468,-9.578873
1435705598.483,-6.847687
1435705598.499,-3.8811035
1435705598.515,-0.7272186
1435705598.53,2.5655975
1435705598.546,5.945053
1435705598.561,9.338623
1435705598.577,12.657181
1435705598.593,15.903061
1435705598.608,19.190994
1435705598.624,22.779251
1435705598.64,26.979538
1435705598.655,32.025833
1435705598.671,37.79538
1435705598.686,43.77382
1435705598.702,48.97609
1435705598.718,52.32959
1435705598.733,52.88896
1435705598.749,50.210938
1435705598.765,44.480316
1435705598.78,36.449722
1435705598.796,27.157028
1435705598.812,17.66507
1435705598.827,8.775406
1435705598.843,0.9396057
1435705598.858,-5.7384186
1435705598.874,-11.300461
1435705598.89,-15.799042
1435705598.905,-19.171585
1435705598.921,-21.279404
1435705598.936,-22.06511
1435705598.952,-21.669434
1435705598.968,-20.467834
1435705598.983,-19.01155
1435705598.999,-17.783417
1435705599.015,-17.058899
1435705599.03,-16.864624
1435705599.046,-17.054077
1435705599.062,-17.440674
1435705599.077,-17.941437
1435705599.093,-18.507156
1435705599.108,-19.12358
1435705599.124,-19.674042
1435705599.14,-20.01921
1435705599.155,-20.006271
1435705599.171,-19.587646
1435705599.187,-18.79831
1435705599.202,-17.745346
1435705599.218,-16.50859
1435705599.233,-15.057022
1435705599.249,-13.301483
1435705599.265,-11.107162
1435705599.28,-8.368027
1435705599.296,-5.100937
1435705599.312,-1.4588318
1435705599.327,2.3020477
1435705599.343,5.9485016
1435705599.358,9.323105
1435705599.374,12.4639435
1435705599.39,15.5767975
1435705599.405,18.988861
1435705599.421,22.977219
1435705599.437,27.637268
1435705599.452,32.734573
1435705599.468,37.72931
1435705599.483,41.845764
1435705599.499,44.230835
1435705599.515,44.19751
1435705599.53,41.424255
1435705599.546,36.067657
1435705599.562,28.742325
1435705599.577,20.36409
1435705599.593,11.8984375
1435705599.608,4.1454773
1435705599.624,-2.3604736
1435705599.64,-7.4199524
1435705599.655,-11.037338
1435705599.671,-13.372406
1435705599.687,-14.674774
1435705599.702,-15.281342
1435705599.718,-15.548508
1435705599.733,-15.797943
1435705599.749,-16.21965
1435705599.765,-16.83908
1435705599.78,-17.536926
1435705599.796,-18.117249
1435705599.812,-18.472824
1435705599.827,-18.585266
1435705599.843,-18.524414
1435705599.858,-18.396027
1435705599.874,-18.263443
1435705599.89,-18.182602
1435705599.905,-18.125519
1435705599.921,-18.048935
1435705599.937,-17.87799
1435705599.952,-17.522888
1435705599.968,-16.862183
1435705599.983,-15.814789
1435705599.999,-14.276733
1435705600.015,-12.193443
1435705600.03,-9.499825
1435705600.046,-6.20813
1435705600.062,-2.3841095
1435705600.077,1.7551117
1435705600.093,5.9290314
1435705600.108,9.788048
1435705600.124,13.113533
1435705600.14,15.863968
1435705600.155,18.23008
1435705600.171,20.554695
1435705600.187,23.214066
1435705600.202,26.532806
1435705600.218,30.696236
1435705600.233,35.629593
1435705600.249,40.955734
1435705600.265,45.946785
1435705600.28,49.625633
1435705600.296,51.008263
1435705600.312,49.428528
1435705600.327,44.71804
1435705600.343,37.291893
1435705600.358,28.027237
1435705600.374,17.99231
1435705600.39,8.190086
1435705600.405,-0.5933151
1435705600.421,-7.8661423
1435705600.437,-13.439453
1435705600.452,-17.398796
1435705600.468,-20.034546
1435705600.483,-21.742157
1435705600.499,-22.899773
1435705600.515,-23.744232
1435705600.53,-24.353294
1435705600.546,-24.733261
1435705600.562,-24.898018
1435705600.577,-24.982323
1435705600.593,-25.104416
1435705600.608,-25.349907
1435705600.624,-25.67134
1435705600.64,-25.918839
1435705600.655,-25.926956
1435705600.671,-25.634308
1435705600.687,-25.084282
1435705600.702,-24.383896
1435705600.718,-23.57328
1435705600.733,-22.59665
1435705600.749,-21.313454
1435705600.765,-19.604149
1435705600.78,-17.446754
1435705600.796,-14.976158
1435705600.812,-12.370361
1435705600.827,-9.763084
1435705600.843,-7.149666
1435705600.858,-4.387886
1435705600.874,-1.2788773
1435705600.89,2.2833252
1435705600.905,6.2429733
1435705600.921,10.377045
1435705600.937,14.370018
1435705600.952,17.954918
1435705600.968,21.051628
1435705600.983,23.760437
1435705600.999,26.356277
1435705601.015,29.152191
1435705601.03,32.434914
1435705601.046,36.36074
1435705601.062,40.8443
1435705601.077,45.510773
1435705601.093,49.69217
1435705601.108,52.503906
1435705601.124,53.033775
1435705601.14,50.68692
1435705601.155,45.42379
1435705601.171,37.81598
1435705601.187,28.888931
1435705601.202,19.75933
1435705601.218,11.293442
1435705601.233,3.9149628
1435705601.249,-2.3215103
1435705601.265,-7.5271683
1435705601.28,-11.794411
1435705601.296,-15.137985
1435705601.312,-17.561157
1435705601.327,-19.182777
1435705601.343,-20.251114
1435705601.358,-21.09932
1435705601.374,-21.944244
1435705601.39,-22.841537
1435705601.405,-23.67717
1435705601.421,-24.279762
1435705601.437,-24.561584
1435705601.452,-24.609306
1435705601.468,-24.616035
1435705601.484,-24.783318
1435705601.499,-25.196404
1435705601.515,-25.797768
1435705601.53,-26.327042
1435705601.546,-26.471802
1435705601.562,-25.964676
1435705601.577,-24.728813
1435705601.593,-22.870003
1435705601.608,-20.663734
1435705601.624,-18.39006
1435705601.64,-16.240913
1435705601.655,-14.221939
1435705601.671,-12.138054
1435705601.687,-9.733208
1435705601.702,-6.8113403
1435705601.718,-3.3103714
1435705601.734,0.6175537
1435705601.749,4.6941223
1435705601.765,8.568466
1435705601.78,12.024063
1435705601.796,14.988647
1435705601.812,17.591164
1435705601.827,20.102676
1435705601.843,22.866295
1435705601.859,26.160553
1435705601.874,30.165024
1435705601.89,34.852013
1435705601.905,40.000633
1435705601.921,45.09899
1435705601.937,49.35804
1435705601.952,51.841606
1435705601.968,51.649536
1435705601.984,48.248253
1435705601.999,41.734863
1435705602.015,32.86293
1435705602.03,22.86586
1435705602.046,13.079468
1435705602.062,4.528679
1435705602.077,-2.3203506
1435705602.093,-7.533081
1435705602.109,-11.497238
1435705602.124,-14.65477
1435705602.14,-17.274849
1435705602.155,-19.431282
1435705602.171,-21.03975
1435705602.187,-22.02687
1435705602.202,-22.422424
1435705602.218,-22.393387
1435705602.234,-22.213081
1435705602.249,-22.10138
1435705602.265,-22.209183
1435705602.28,-22.488335
1435705602.296,-22.80906
1435705602.312,-23.060608
1435705602.327,-23.24311
1435705602.343,-23.505318
1435705602.359,-24.024368
1435705602.374,-24.78601
1435705602.39,-25.596115
1435705602.405,-26.065186
1435705602.421,-25.804
1435705602.437,-24.64582
1435705602.452,-22.690765
1435705602.468,-20.220695
1435705602.484,-17.507607
1435705602.499,-14.681404
1435705602.515,-11.707947
1435705602.53,-8.431793
1435705602.546,-4.7490616
1435705602.562,-0.68977356
1435705602.577,3.5816116
1435705602.593,7.794403
1435705602.609,11.675537
1435705602.624,15.064995
1435705602.64,17.974037
1435705602.655,20.680931
1435705602.671,23.65046
1435705602.687,27.339401
1435705602.702,31.969414
1435705602.718,37.282585
1435705602.734,42.499565
1435705602.749,46.508102
1435705602.765,48.20523
1435705602.78,46.898888
1435705602.796,42.493637
1435705602.812,35.52449
1435705602.827,26.919083
1435705602.843,17.73748
1435705602.859,8.892693
1435705602.874,1.0235825
1435705602.89,-5.5200806
1435705602.905,-10.599014
1435705602.921,-14.251984
1435705602.937,-16.57492
1435705602.952,-17.779045
1435705602.968,-18.165985
1435705602.984,-18.123482
1435705602.999,-18.02449
1435705603.015,-18.139381
1435705603.03,-18.538155
1435705603.046,-19.108795
1435705603.062,-19.65136
1435705603.077,-20.062675
1435705603.093,-20.350159
1435705603.109,-20.675453
1435705603.124,-21.155403
1435705603.14,-21.815498
1435705603.155,-22.5205
1435705603.171,-23.041695
1435705603.187,-23.169945
1435705603.202,-22.803078
1435705603.218,-21.938446
1435705603.234,-20.652222
1435705603.249,-18.99244
1435705603.265,-16.973244
1435705603.28,-14.558678
1435705603.296,-11.727753
1435705603.312,-8.494598
1435705603.327,-4.950577
1435705603.343,-1.24337
1435705603.359,2.422081
1435705603.374,5.8619995
1435705603.39,8.955055
1435705603.405,11.7454605
1435705603.421,14.400238
1435705603.437,17.230194
1435705603.452,20.563004
1435705603.468,24.623032
1435705603.484,29.438087
1435705603.499,34.709488
1435705603.515,39.797333
1435705603.53,43.8163
1435705603.546,45.79731
1435705603.562,45.02849
1435705603.577,41.26783
1435705603.593,34.938004
1435705603.609,26.964447
1435705603.624,18.516594
1435705603.64,10.597
1435705603.655,3.822403
1435705603.671,-1.6803818
1435705603.687,-6.0678253
1435705603.702,-9.593391
1435705603.718,-12.399567
1435705603.734,-14.5314865
1435705603.749,-15.978355
1435705603.765,-16.734634
1435705603.78,-16.851433
1435705603.796,-16.446098
1435705603.812,-15.651939
1435705603.827,-14.669693
1435705603.843,-13.7465515
1435705603.859,-13.129364
1435705603.874,-12.987228
1435705603.89,-13.345711
1435705603.905,-14.021736
1435705603.921,-14.779991
1435705603.937,-15.372238
1435705603.952,-15.650497
1435705603.968,-15.566956
1435705603.984,-15.081169
1435705603.999,-14.123863
1435705604.015,-12.575287
1435705604.03,-10.369942
1435705604.046,-7.587532
1435705604.062,-4.4712143
1435705604.077,-1.3554001
1435705604.093,1.4655075
1435705604.109,3.86483
1435705604.124,5.9476776
1435705604.14,7.972786
1435705604.155,10.348061
1435705604.171,13.4412155
1435705604.187,17.559914
1435705604.202,22.755783
1435705604.218,28.71267
1435705604.234,34.695007
1435705604.249,39.629257
1435705604.265,42.399292
1435705604.28,42.226196
1435705604.296,38.887337
1435705604.312,32.8554
1435705604.327,25.106201
1435705604.343,16.810883
1435705604.359,8.907394
1435705604.374,1.9620285
1435705604.39,-3.886322
1435705604.406,-8.743164
1435705604.421,-12.76078
1435705604.437,-16.011421
1435705604.452,-18.48111
1435705604.468,-20.204453
1435705604.484,-21.32093
1435705604.499,-22.049225
1435705604.515,-22.59938
1435705604.531,-23.053871
1435705604.546,-23.356064
1435705604.562,-23.370415
1435705604.577,-23.03984
1435705604.593,-22.444496
1435705604.609,-21.809715
1435705604.624,-21.319305
1435705604.64,-21.054901
1435705604.656,-20.858551
1435705604.671,-20.494987
1435705604.687,-19.756233
1435705604.702,-18.600624
1435705604.718,-17.089264
1435705604.734,-15.332817
1435705604.749,-13.341843
1435705604.765,-11.087746
1435705604.781,-8.502434
1435705604.796,-5.6062164
1435705604.812,-2.4977646
1435705604.827,0.6339264
1435705604.843,3.6538544
1435705604.859,6.4821854
1435705604.874,9.15226
1435705604.89,11.771324
1435705604.906,14.558838
1435705604.921,17.756584
1435705604.937,21.608322
1435705604.952,26.172195
1435705604.968,31.269028
1435705604.984,36.354874
1435705604.999,40.610428
1435705605.015,43.115707
1435705605.031,43.128517
1435705605.046,40.36264
1435705605.062,35.022705
1435705605.077,27.807907
1435705605.093,19.705757
1435705605.109,11.66497
1435705605.124,4.4092712
1435705605.14,-1.7685852
1435705605.156,-6.8990173
1435705605.171,-11.225128
1435705605.187,-14.94474
1435705605.202,-18.146477
1435705605.218,-20.790833
1435705605.234,-22.856949
1435705605.249,-24.412323
1435705605.265,-25.619644
1435705605.281,-26.640175
1435705605.296,-27.542732
1435705605.312,-28.23558
1435705605.327,-28.616539
1435705605.343,-28.650902
1435705605.359,-28.440079
1435705605.374,-28.201462
1435705605.39,-28.143883
1435705605.406,-28.33416
1435705605.421,-28.672974
1435705605.437,-28.910446
1435705605.452,-28.78283
1435705605.468,-28.036446
1435705605.484,-26.565704
1435705605.499,-24.383682
1435705605.515,-21.69426
1435705605.531,-18.771866
1435705605.546,-15.910484
1435705605.562,-13.281654
1435705605.577,-10.878609
1435705605.593,-8.5278015
1435705605.609,-6.01416
1435705605.624,-3.1980286
1435705605.64,-0.0631485
1435705605.656,3.3185272
1435705605.671,6.8481903
1435705605.687,10.433094
1435705605.702,13.985859
1435705605.718,17.422512
1435705605.734,20.671753
1435705605.749,23.769577
1435705605.765,26.90726
1435705605.781,30.375763
1435705605.796,34.353436
1435705605.812,38.690994
1435705605.827,42.777107
1435705605.843,45.665913
1435705605.859,46.38815
1435705605.874,44.34027
1435705605.89,39.53497
1435705605.906,32.600986
1435705605.921,24.512852
1435705605.937,16.284698
1435705605.952,8.682396
1435705605.968,2.1032486
1435705605.984,-3.384262
1435705605.999,-7.895035
1435705606.015,-11.628151
1435705606.031,-14.693436
1435705606.046,-17.14714
1435705606.062,-19.030136
1435705606.077,-20.431412
1435705606.093,-21.49216
1435705606.109,-22.41114
1435705606.124,-23.33096
1435705606.14,-24.292336
1435705606.156,-25.20135
1435705606.171,-25.907583
1435705606.187,-26.28008
1435705606.202,-26.319487
1435705606.218,-26.139229
1435705606.234,-25.917618
1435705606.249,-25.784159
1435705606.265,-25.73565
1435705606.281,-25.617706
1435705606.296,-25.174934
1435705606.312,-24.175146
1435705606.327,-22.503511
1435705606.343,-20.233389
1435705606.359,-17.57405
1435705606.374,-14.801842
1435705606.39,-12.154515
1435705606.406,-9.664277
1435705606.421,-7.2276583
1435705606.437,-4.619071
1435705606.452,-1.6518111
1435705606.468,1.6922174
1435705606.484,5.2674494
1435705606.499,8.809374
1435705606.515,12.088441
1435705606.531,14.927318
1435705606.546,17.300701
1435705606.562,19.293098
1435705606.577,21.045788
1435705606.593,22.77713
1435705606.609,24.73363
1435705606.624,27.147495
1435705606.64,30.094463
1435705606.656,33.43289
1435705606.671,36.703217
1435705606.687,39.2256
1435705606.702,40.24943
1435705606.718,39.1658
1435705606.734,35.711967
1435705606.749,30.054232
1435705606.765,22.749035
1435705606.781,14.665134
1435705606.796,6.7352257
1435705606.812,-0.2213707
1435705606.827,-5.712408
1435705606.843,-9.671358
1435705606.859,-12.3858795
1435705606.874,-14.353561
1435705606.89,-16.040455
1435705606.906,-17.662842
1435705606.921,-19.153526
1435705606.937,-20.240627
1435705606.952,-20.671547
1435705606.968,-20.326065
1435705606.984,-19.340271
1435705606.999,-18.026592
1435705607.015,-16.76498
1435705607.031,-15.808815
1435705607.046,-15.272572
1435705607.062,-15.05164
1435705607.078,-14.967632
1435705607.093,-14.844082
1435705607.109,-14.5962105
1435705607.124,-14.225063
1435705607.14,-13.764732
1435705607.156,-13.158375
1435705607.171,-12.310822
1435705607.187,-11.059559
1435705607.203,-9.348202
1435705607.218,-7.2914696
1435705607.234,-5.125206
1435705607.249,-3.0692825
1435705607.265,-1.2331085
1435705607.281,0.51049423
1435705607.296,2.3889046
1435705607.312,4.6004333
1435705607.328,7.1421127
1435705607.343,9.830322
1435705607.359,12.379227
1435705607.374,14.591637
1435705607.39,16.507652
1435705607.406,18.39827
1435705607.421,20.683777
1435705607.437,23.721138
1435705607.453,27.578552
1435705607.468,31.925644
1435705607.484,36.047157
1435705607.499,39.043785
1435705607.515,40.08645
1435705607.531,38.73253
1435705607.546,35.022835
1435705607.562,29.493309
1435705607.578,22.934029
1435705607.593,16.162056
1435705607.609,9.76226
1435705607.624,4.0507355
1435705607.64,-0.88368225
1435705607.656,-5.030815
1435705607.671,-8.385536
1435705607.687,-10.900848
1435705607.703,-12.495338
1435705607.718,-13.18499
1435705607.734,-13.136818
1435705607.749,-12.633591
1435705607.765,-12.067619
1435705607.781,-11.726822
1435705607.796,-11.770302
1435705607.812,-12.138092
1435705607.828,-12.662193
1435705607.843,-13.137009
1435705607.859,-13.468887
1435705607.874,-13.70314
1435705607.89,-13.938217
1435705607.906,-14.219658
1435705607.921,-14.4436035
1435705607.937,-14.351715
1435705607.953,-13.674286
1435705607.968,-12.238213
1435705607.984,-10.0987625
1435705607.999,-7.53463
1435705608.015,-4.8908005
1435705608.031,-2.4190216
1435705608.046,-0.21786499
1435705608.062,1.7844925
1435705608.078,3.718727
1435705608.093,5.690338
1435705608.109,7.686661
1435705608.124,9.616158
1435705608.14,11.3515625
1435705608.156,12.858665
1435705608.171,14.251053
1435705608.187,15.778183
1435705608.203,17.770737
1435705608.218,20.526772
1435705608.234,24.117477
1435705608.249,28.263474
1435705608.265,32.297462
1435705608.281,35.342575
1435705608.296,36.510963
1435705608.312,35.247314
1435705608.328,31.482132
1435705608.343,25.714745
1435705608.359,18.79158
1435705608.374,11.645691
1435705608.39,4.984314
1435705608.406,-0.78961945
1435705608.421,-5.571411
1435705608.437,-9.406448
1435705608.453,-12.340485
1435705608.468,-14.405296
1435705608.484,-15.639328
1435705608.499,-16.192436
1435705608.515,-16.337975
1435705608.531,-16.366661
1435705608.546,-16.503517
1435705608.562,-16.743614
1435705608.578,-16.950111
1435705608.593,-16.973969
1435705608.609,-16.783356
1435705608.624,-16.512993
1435705608.64,-16.426926
1435705608.656,-16.69909
1435705608.671,-17.29911
1435705608.687,-17.979622
1435705608.703,-18.383354
1435705608.718,-18.213913
1435705608.734,-17.316269
1435705608.749,-15.765762
1435705608.765,-13.786102
1435705608.781,-11.622437
1435705608.796,-9.469063
1435705608.812,-7.434143
1435705608.828,-5.5626373
1435705608.843,-3.7617188
1435705608.859,-1.9307327
1435705608.874,0.059677124
1435705608.89,2.2961044
1435705608.906,4.8032684
1435705608.921,7.5304565
1435705608.937,10.39064
1435705608.953,13.318466
1435705608.968,16.24237
1435705608.984,19.15738
1435705608.999,22.073166
1435705609.015,25.056473
1435705609.031,28.238388
1435705609.046,31.74266
1435705609.062,35.606995
1435705609.078,39.621597
1435705609.093,43.323425
1435705609.109,45.96286
1435705609.124,46.76889
1435705609.14,45.139084
1435705609.156,40.929016
1435705609.171,34.512955
1435705609.187,26.73552
1435705609.203,18.61943
1435705609.218,11.125992
1435705609.234,4.8623962
1435705609.249,0.03995514
1435705609.265,-3.499176
1435705609.281,-6.1111374
1435705609.296,-8.168678
1435705609.312,-9.916321
1435705609.328,-11.48214
1435705609.343,-12.895157
1435705609.359,-14.211372
1435705609.374,-15.477921
1435705609.39,-16.77562
1435705609.406,-18.090546
1435705609.421,-19.324074
1435705609.437,-20.318169
1435705609.453,-20.968369
1435705609.468,-21.28714
1435705609.484,-21.397469
1435705609.499,-21.447906
1435705609.515,-21.55001
1435705609.531,-21.64685
1435705609.546,-21.561203
1435705609.562,-21.090477
1435705609.578,-20.119926
1435705609.593,-18.654884
1435705609.609,-16.822723
1435705609.624,-14.791481
1435705609.64,-12.717087
1435705609.656,-10.666954
1435705609.671,-8.672485
1435705609.687,-6.6802673
1435705609.703,-4.6423035
1435705609.718,-2.4802551
1435705609.734,-0.121910095
1435705609.75,2.436119
1435705609.765,5.1601105
1435705609.781,7.9995575
1435705609.796,10.851212
1435705609.812,13.62516
1435705609.828,16.236694
1435705609.843,18.64428
1435705609.859,20.843857
1435705609.875,22.95887
1435705609.89,25.236443
1435705609.906,27.95971
1435705609.921,31.345749
1435705609.937,35.382515
1435705609.953,39.65528
1435705609.968,43.39604
1435705609.984,45.645004
1435705610,45.588966
1435705610.015,42.832092
1435705610.031,37.573944
1435705610.046,30.572296
1435705610.062,22.867516
1435705610.078,15.445068
1435705610.093,8.957275
1435705610.109,3.635826
1435705610.125,-0.6684494
1435705610.14,-4.285187
1435705610.156,-7.449478
1435705610.171,-10.26049
1435705610.187,-12.639748
1435705610.203,-14.461533
1435705610.218,-15.685295
1435705610.234,-16.422531
1435705610.25,-16.88021
1435705610.265,-17.30931
1435705610.281,-17.851364
1435705610.296,-18.49588
1435705610.312,-19.116905
1435705610.328,-19.602112
1435705610.343,-19.911125
1435705610.359,-20.189354
1435705610.375,-20.656494
1435705610.39,-21.501915
1435705610.406,-22.741997
1435705610.421,-24.175858
1435705610.437,-25.418938
1435705610.453,-26.053307
1435705610.468,-25.78904
1435705610.484,-24.6138
1435705610.5,-22.745583
1435705610.515,-20.547195
1435705610.531,-18.324806
1435705610.546,-16.22602
1435705610.562,-14.221664
1435705610.578,-12.140419
1435705610.593,-9.831566
1435705610.609,-7.184456
1435705610.625,-4.1880493
1435705610.64,-0.93847656
1435705610.656,2.4255219
1435705610.671,5.729088
1435705610.687,8.859093
1435705610.703,11.753929
1435705610.718,14.507599
1435705610.734,17.230667
1435705610.75,20.068787
1435705610.765,23.141449
1435705610.781,26.519897
1435705610.796,30.28505
1435705610.812,34.517494
1435705610.828,39.175816
1435705610.843,43.968674
1435705610.859,48.227844
1435705610.875,51.03625
1435705610.89,51.4508
1435705610.906,48.96174
1435705610.921,43.69817
1435705610.937,36.440426
1435705610.953,28.293373
1435705610.968,20.281063
1435705610.984,13.006142
1435705611,6.632065
1435705611.015,1.0095406
1435705611.031,-4.0834236
1435705611.046,-8.751633
1435705611.062,-12.996414
1435705611.078,-16.748894
1435705611.093,-19.955986
1435705611.109,-22.64746
1435705611.125,-24.875473
1435705611.14,-26.705093
1435705611.156,-28.113518
1435705611.171,-29.038216
1435705611.187,-29.357151
1435705611.203,-29.03199
1435705611.218,-28.149235
1435705611.234,-26.959206
1435705611.25,-25.80547
1435705611.265,-25.002058
1435705611.281,-24.646862
1435705611.296,-24.61526
1435705611.312,-24.58495
1435705611.328,-24.20146
1435705611.343,-23.196253
1435705611.359,-21.499683
1435705611.375,-19.194565
1435705611.39,-16.502726
1435705611.406,-13.640381
1435705611.421,-10.827744
1435705611.437,-8.192856
1435705611.453,-5.7812805
1435705611.468,-3.4903278
1435705611.484,-1.1502113
1435705611.5,1.4089193
1435705611.515,4.245678
1435705611.531,7.270069
1435705611.546,10.270623
1435705611.562,13.063751
1435705611.578,15.561722
1435705611.593,17.848215
1435705611.609,20.140747
1435705611.625,22.688734
1435705611.64,25.69954
1435705611.656,29.325985
1435705611.671,33.53493
1435705611.687,38.138428
1435705611.703,42.681267
1435705611.718,46.434692
1435705611.734,48.504704
1435705611.75,48.07437
1435705611.765,44.65445
1435705611.781,38.356773
1435705611.796,29.883333
1435705611.812,20.361134
1435705611.828,10.987168
1435705611.843,2.703765
1435705611.859,-4.0358305
1435705611.875,-9.272752
1435705611.89,-13.340161
1435705611.906,-16.620338
1435705611.921,-19.321062
1435705611.937,-21.442339
1435705611.953,-22.90423
1435705611.968,-23.659815
1435705611.984,-23.846937
1435705612,-23.735693
1435705612.015,-23.615995
1435705612.031,-23.638144
1435705612.046,-23.80999
1435705612.062,-23.990473
1435705612.078,-24.060331
1435705612.093,-23.976994
1435705612.109,-23.808151
1435705612.125,-23.663177
1435705612.14,-23.584026
1435705612.156,-23.49554
1435705612.171,-23.199242
1435705612.187,-22.431973
1435705612.203,-20.99681
1435705612.218,-18.814476
1435705612.234,-15.987484
1435705612.25,-12.722122
1435705612.265,-9.31432
1435705612.281,-5.9724274
1435705612.296,-2.7660637
1435705612.312,0.4237213
1435705612.328,3.7735825
1435705612.343,7.418686
1435705612.359,11.31707
1435705612.375,15.260178
1435705612.39,18.939693
1435705612.406,22.231796
1435705612.422,25.291874
1435705612.437,28.564117
1435705612.453,32.550358
1435705612.468,37.4672
1435705612.484,43.017494
1435705612.5,48.32302
1435705612.515,52.140167
1435705612.531,53.318123
1435705612.546,51.195885
1435705612.562,45.831116
1435705612.578,37.943336
1435705612.593,28.660866
1435705612.609,19.102356
1435705612.625,10.081718
1435705612.64,2.0479355
1435705612.656,-4.8602295
1435705612.672,-10.624176
1435705612.687,-15.229752
1435705612.703,-18.703888
1435705612.718,-21.15831
1435705612.734,-22.832375
1435705612.75,-24.071777
1435705612.765,-25.15776
1435705612.781,-26.216743
1435705612.797,-27.186172
1435705612.812,-27.917717
1435705612.828,-28.323952
1435705612.843,-28.438934
1435705612.859,-28.441582
1435705612.875,-28.480713
1435705612.89,-28.621544
1435705612.906,-28.760994
1435705612.922,-28.714172
1435705612.937,-28.30468
1435705612.953,-27.429901
1435705612.968,-26.07016
1435705612.984,-24.280365
1435705613,-22.133125
1435705613.015,-19.708176
1435705613.031,-17.070045
1435705613.047,-14.239677
1435705613.062,-11.1839905
1435705613.078,-7.8250275
1435705613.093,-4.0786896
1435705613.109,0.03591919
1435705613.125,4.3754883
1435705613.14,8.669693
1435705613.156,12.685074
1435705613.172,16.298935
1435705613.187,19.63945
1435705613.203,22.988571
1435705613.218,26.726334
1435705613.234,31.128586
1435705613.25,36.292496
1435705613.265,42.017273
1435705613.281,47.816605
1435705613.297,52.95529
1435705613.312,56.57953
1435705613.328,57.82846
1435705613.343,56.093155
1435705613.359,51.134277
1435705613.375,43.271713
1435705613.39,33.255447
1435705613.406,22.167511
1435705613.422,11.133713
1435705613.437,1.0858154
1435705613.453,-7.4435425
1435705613.468,-14.26622
1435705613.484,-19.527878
1435705613.5,-23.544159
1435705613.515,-26.663757
1435705613.531,-29.146088
1435705613.547,-31.130417
1435705613.562,-32.621628
1435705613.578,-33.54956
1435705613.593,-33.85843
1435705613.609,-33.594635
1435705613.625,-32.914307
1435705613.64,-32.098602
1435705613.656,-31.40657
1435705613.672,-31.045456
1435705613.687,-31.03061
1435705613.703,-31.255417
1435705613.718,-31.50354
1435705613.734,-31.552856
1435705613.75,-31.224579
1435705613.765,-30.429733
1435705613.781,-29.131363
1435705613.797,-27.362091
1435705613.812,-25.191895
1435705613.828,-22.742737
1435705613.843,-20.154556
1435705613.859,-17.609299
1435705613.875,-15.194244
1435705613.89,-12.915192
1435705613.906,-10.649277
1435705613.922,-8.176529
1435705613.937,-5.271332
1435705613.953,-1.8150787
1435705613.968,2.1855774
1435705613.984,6.538559
1435705614,10.9783325
1435705614.015,15.241577
1435705614.031,19.213272
1435705614.047,23.028748
1435705614.062,27.06923
1435705614.078,31.831131
1435705614.093,37.690628
1435705614.109,44.592697
1435705614.125,51.91461
1435705614.14,58.48256
1435705614.156,62.919724
1435705614.172,64.046875
1435705614.187,61.348267
1435705614.203,55.0719
1435705614.218,46.168457
1435705614.234,35.891678
1435705614.25,25.414413
1435705614.265,15.537659
1435705614.281,6.6546173
1435705614.297,-1.1281586
1435705614.312,-7.808441
1435705614.328,-13.384155
1435705614.343,-17.8555
1435705614.359,-21.287872
1435705614.375,-23.841965
1435705614.39,-25.774918
1435705614.406,-27.360764
1435705614.422,-28.75145
1435705614.437,-29.984116
1435705614.453,-31.003601
1435705614.468,-31.714905
1435705614.484,-32.15892
1435705614.5,-32.49829
1435705614.515,-32.998993
1435705614.531,-33.89348
1435705614.547,-35.27545
1435705614.562,-37.002365
1435705614.578,-38.76335
1435705614.593,-40.177277
1435705614.609,-40.96414
1435705614.625,-41.006836
1435705614.64,-40.3127
1435705614.656,-38.965424
1435705614.672,-37.050125
1435705614.687,-34.65602
1435705614.703,-31.870193
1435705614.718,-28.76184
1435705614.734,-25.40149
1435705614.75,-21.78592
1435705614.765,-17.870651
1435705614.781,-13.639923
1435705614.797,-9.167313
1435705614.812,-4.6315155
1435705614.828,-0.22351074
1435705614.843,3.9159393
1435705614.859,7.76947
1435705614.875,11.45668
1435705614.89,15.17691
1435705614.906,19.188614
1435705614.922,23.807648
1435705614.937,29.35498
1435705614.953,36.051315
1435705614.968,43.80217
1435705614.984,51.99797
1435705615,59.48561
1435705615.015,64.79874
1435705615.031,66.64441
1435705615.047,64.33685
1435705615.062,58.05504
1435705615.078,48.746582
1435705615.093,37.8143
1435705615.109,26.639038
1435705615.125,16.27449
1435705615.14,7.228607
1435705615.156,-0.41567993
1435705615.172,-6.8891144
1435705615.187,-12.508438
1435705615.203,-17.504013
1435705615.218,-21.912888
1435705615.234,-25.68338
1435705615.25,-28.696472
1435705615.265,-30.91809
1435705615.281,-32.457336
1435705615.297,-33.43048
1435705615.312,-33.964844
1435705615.328,-34.091446
1435705615.344,-33.832077
1435705615.359,-33.271378
1435705615.375,-32.640625
1435705615.39,-32.26303
1435705615.406,-32.396027
1435705615.422,-33.082825
1435705615.437,-34.025436
1435705615.453,-34.73001
1435705615.469,-34.664856
1435705615.484,-33.45961
1435705615.5,-31.105576
1435705615.515,-27.916962
1435705615.531,-24.419235
1435705615.547,-21.126526
1435705615.562,-18.380783
1435705615.578,-16.215317
1435705615.594,-14.370789
1435705615.609,-12.42981
1435705615.625,-10.011139
1435705615.64,-6.9581604
1435705615.656,-3.3420258
1435705615.672,0.54190063
1435705615.687,4.3507385
1435705615.703,7.825577
1435705615.719,10.894669
1435705615.734,13.6406555
1435705615.75,16.27713
1435705615.765,19.08554
1435705615.781,22.38144
1435705615.797,26.449844
1435705615.812,31.398102
1435705615.828,37.076797
1435705615.844,42.92215
1435705615.859,48.06546
1435705615.875,51.433777
1435705615.89,52.114548
1435705615.906,49.587387
1435705615.922,43.916702
1435705615.937,35.763947
1435705615.953,26.1792
1435705615.969,16.339127
1435705615.984,7.2515106
1435705616,-0.43804932
1435705616.015,-6.5828247
1435705616.031,-11.390671
1435705616.047,-15.246094
1435705616.062,-18.480057
1435705616.078,-21.227432
1435705616.094,-23.45259
1435705616.109,-25.001236
1435705616.125,-25.85405
1435705616.14,-26.085342
1435705616.156,-25.946411
1435705616.172,-25.668625
1435705616.187,-25.413986
1435705616.203,-25.240295
1435705616.219,-25.152206
1435705616.234,-25.222229
1435705616.25,-25.517975
1435705616.265,-26.098907
1435705616.281,-26.878983
1435705616.297,-27.613846
1435705616.312,-27.962204
1435705616.328,-27.606506
1435705616.344,-26.40422
1435705616.359,-24.439774
1435705616.375,-22.006012
1435705616.39,-19.442596
1435705616.406,-16.981491
1435705616.422,-14.608139
1435705616.437,-12.123779
1435705616.453,-9.202545
1435705616.469,-5.6471863
1435705616.484,-1.4668732
1435705616.5,3.0884552
1435705616.515,7.6131134
1435705616.531,11.723785
1435705616.547,15.188843
1435705616.562,18.042816
1435705616.578,20.53688
1435705616.594,23.04927
1435705616.609,25.979996
1435705616.625,29.577896
1435705616.64,33.853806
1435705616.656,38.472626
1435705616.672,42.78885
1435705616.687,45.950317
1435705616.703,47.13199
1435705616.719,45.764145
1435705616.734,41.727295
1435705616.75,35.334183
1435705616.765,27.243256
1435705616.781,18.295105
1435705616.797,9.333176
1435705616.812,1.1022339
1435705616.828,-5.8667603
1435705616.844,-11.324265
1435705616.859,-15.30304
1435705616.875,-18.07074
1435705616.89,-19.98053
1435705616.906,-21.296844
1435705616.922,-22.111023
1435705616.937,-22.393875
1435705616.953,-22.106262
1435705616.969,-21.359238
1435705616.984,-20.424149
1435705617,-19.621521
1435705617.015,-19.15181
1435705617.031,-19.055496
1435705617.047,-19.232132
1435705617.062,-19.55362
1435705617.078,-19.91835
1435705617.094,-20.254776
1435705617.109,-20.45694
1435705617.125,-20.349487
1435705617.14,-19.71936
1435705617.156,-18.400772
1435705617.172,-16.319916
1435705617.187,-13.528015
1435705617.203,-10.175552
1435705617.219,-6.480591
1435705617.234,-2.6528778
1435705617.25,1.0218353
1435705617.265,4.28804
1435705617.281,6.9460907
1435705617.297,8.972107
1435705617.312,10.547989
1435705617.328,12.067947
1435705617.344,14.014008
1435705617.359,16.8553
1435705617.375,20.875397
1435705617.39,26.072723
1435705617.406,32.062286
1435705617.422,38.102448
1435705617.437,43.195877
1435705617.453,46.32222
1435705617.469,46.749832
1435705617.484,44.25174
1435705617.5,39.121796
1435705617.515,32.09874
1435705617.531,24.06047
1435705617.547,15.861626
1435705617.562,8.136414
1435705617.578,1.2907562
1435705617.594,-4.496933
1435705617.609,-9.228195
1435705617.625,-13.014168
1435705617.64,-16.047508
1435705617.656,-18.514565
1435705617.672,-20.53064
1435705617.687,-22.083008
1435705617.703,-23.073532
1435705617.719,-23.444542
1435705617.734,-23.175507
1435705617.75,-22.389488
1435705617.765,-21.33857
1435705617.781,-20.345413
1435705617.797,-19.7219
1435705617.812,-19.680809
1435705617.828,-20.264778
1435705617.844,-21.306816
1435705617.859,-22.462196
1435705617.875,-23.323204
1435705617.89,-23.548973
1435705617.906,-22.973663
1435705617.922,-21.628517
1435705617.937,-19.724014
1435705617.953,-17.509766
1435705617.969,-15.172127
1435705617.984,-12.787399
1435705618,-10.346687
1435705618.016,-7.782898
1435705618.031,-5.030533
1435705618.047,-2.080368
1435705618.062,1.0499725
1435705618.078,4.3120575
1435705618.094,7.6349792
1435705618.109,10.948929
1435705618.125,14.173729
1435705618.141,17.284721
1435705618.156,20.320328
1435705618.172,23.486519
1435705618.187,27.038628
1435705618.203,31.24385
1435705618.219,36.117943
1435705618.234,41.29171
1435705618.25,45.92491
1435705618.266,48.923904
1435705618.281,49.264515
1435705618.297,46.43881
1435705618.312,40.696102
1435705618.328,32.94457
1435705618.344,24.405647
1435705618.359,16.162365
1435705618.375,8.822811
1435705618.391,2.4823837
1435705618.406,-3.0828667
1435705618.422,-8.05188
1435705618.437,-12.43721
1435705618.453,-16.08147
1435705618.469,-18.82621
1435705618.484,-20.66389
1435705618.5,-21.803127
1435705618.516,-22.569874
1435705618.531,-23.238781
1435705618.547,-23.912136
1435705618.562,-24.549183
1435705618.578,-25.058891
1435705618.594,-25.402843
1435705618.609,-25.654537
1435705618.625,-25.96265
1435705618.641,-26.468338
1435705618.656,-27.234016
1435705618.672,-28.171885
1435705618.687,-29.091007
1435705618.703,-29.753141
1435705618.719,-29.95265
1435705618.734,-29.573883
1435705618.75,-28.646301
1435705618.766,-27.282883
1435705618.781,-25.644053
1435705618.797,-23.818085
1435705618.812,-21.853703
1435705618.828,-19.76384
1435705618.844,-17.543457
1435705618.859,-15.212035
1435705618.875,-12.793068
1435705618.891,-10.296327
1435705618.906,-7.676715
1435705618.922,-4.844319
1435705618.937,-1.7505887
1435705618.953,1.6243043
1435705618.969,5.193961
1435705618.984,8.81133
1435705619,12.318096
1435705619.016,15.6256485
1435705619.031,18.742767
1435705619.047,21.77816
1435705619.062,24.92994
1435705619.078,28.393303
1435705619.094,32.35029
1435705619.109,36.874283
1435705619.125,41.86545
1435705619.141,47.027252
1435705619.156,51.78932
1435705619.172,55.412766
1435705619.187,57.083763
1435705619.203,56.18977
1435705619.219,52.497375
1435705619.234,46.2973
1435705619.25,38.334923
1435705619.266,29.631275
1435705619.281,21.12365
1435705619.297,13.476345
1435705619.312,6.9112396
1435705619.328,1.3122215
1435705619.344,-3.5824127
1435705619.359,-7.9827194
1435705619.375,-11.945148
1435705619.391,-15.383911
1435705619.406,-18.193249
1435705619.422,-20.290894
1435705619.437,-21.70422
1435705619.453,-22.528862
1435705619.469,-22.898453
1435705619.484,-22.944294
1435705619.5,-22.820534
1435705619.516,-22.643867
1435705619.531,-22.563126
1435705619.547,-22.648499
1435705619.562,-22.913445
1435705619.578,-23.254967
1435705619.594,-23.526161
1435705619.609,-23.534256
1435705619.625,-23.170502
1435705619.641,-22.408737
1435705619.656,-21.334381
1435705619.672,-20.056732
1435705619.687,-18.66806
1435705619.703,-17.195572
1435705619.719,-15.5905075
1435705619.734,-13.768677
1435705619.75,-11.728081
1435705619.766,-9.541122
1435705619.781,-7.3779526
1435705619.797,-5.3912125
1435705619.812,-3.6573257
1435705619.828,-2.0931091
1435705619.844,-0.5113754
1435705619.859,1.2359543
1435705619.875,3.192192
1435705619.891,5.300537
1435705619.906,7.435562
1435705619.922,9.540985
1435705619.937,11.664818
1435705619.953,13.940285
1435705619.969,16.475395
1435705619.984,19.310173
1435705620,22.351341
1435705620.016,25.546837
1435705620.031,28.925766
1435705620.047,32.615402
1435705620.062,36.704254
1435705620.078,41.090973
1435705620.094,45.30162
1435705620.109,48.54757
1435705620.125,49.913536
1435705620.141,48.67482
1435705620.156,44.612274
1435705620.172,38.126938
1435705620.187,30.103027
1435705620.203,21.64714
1435705620.219,13.714462
1435705620.234,6.9024353
1435705620.25,1.3502045
1435705620.266,-3.1091309
1435705620.281,-6.782028
1435705620.297,-9.900864
1435705620.312,-12.600006
1435705620.328,-14.860916
1435705620.344,-16.646378
1435705620.359,-17.93454
1435705620.375,-18.76033
1435705620.391,-19.223862
1435705620.406,-19.459442
1435705620.422,-19.603088
1435705620.437,-19.763382
1435705620.453,-20.007034
1435705620.469,-20.33461
1435705620.484,-20.678482
1435705620.5,-20.992676
1435705620.516,-21.224152
1435705620.531,-21.433578
1435705620.547,-21.648575
1435705620.562,-21.876617
1435705620.578,-21.98642
1435705620.594,-21.788834
1435705620.609,-21.087158
1435705620.625,-19.830612
1435705620.641,-18.162354
1435705620.656,-16.358032
1435705620.672,-14.66243
1435705620.688,-13.129929
1435705620.703,-11.665497
1435705620.719,-10.05545
1435705620.734,-8.166794
1435705620.75,-6.0488586
1435705620.766,-3.8920593
1435705620.781,-1.9044037
1435705620.797,-0.11315918
1435705620.813,1.6058655
1435705620.828,3.5455933
1435705620.844,5.9594574
1435705620.859,8.91217
1435705620.875,12.229095
1435705620.891,15.57579
1435705620.906,18.636353
1435705620.922,21.296295
1435705620.938,23.711746
1435705620.953,26.27829
1435705620.969,29.463882
1435705620.984,33.545578
1435705621,38.40422
1435705621.016,43.51924
1435705621.031,47.998
1435705621.047,50.84674
1435705621.063,51.258133
1435705621.078,48.885437
1435705621.094,43.914764
1435705621.109,37.029785
1435705621.125,29.161362
1435705621.141,21.20465
1435705621.156,13.78009
1435705621.172,7.1954346
1435705621.188,1.4897461
1435705621.203,-3.3834534
1435705621.219,-7.4345093
1435705621.234,-10.607315
1435705621.25,-12.842667
1435705621.266,-14.1827545
1435705621.281,-14.817093
1435705621.297,-15.006058
1435705621.313,-15.047256
1435705621.328,-15.13829
1435705621.344,-15.354019
1435705621.359,-15.669479
1435705621.375,-16.026321
1435705621.391,-16.390823
1435705621.406,-16.789001
1435705621.422,-17.276215
1435705621.438,-17.94307
1435705621.453,-18.769302
1435705621.469,-19.658463
1435705621.484,-20.392517
1435705621.5,-20.736359
1435705621.516,-20.497467
1435705621.531,-19.582489
1435705621.547,-17.996536
1435705621.563,-15.843933
1435705621.578,-13.259827
1435705621.594,-10.410934
1435705621.609,-7.5213165
1435705621.625,-4.823639
1435705621.641,-2.5028992
1435705621.656,-0.62323
1435705621.672,0.9604645
1435705621.688,2.5445557
1435705621.703,4.458084
1435705621.719,6.8865356
1435705621.734,9.7999115
1435705621.75,12.970886
1435705621.766,16.110397
1435705621.781,18.99646
1435705621.797,21.6165
1435705621.813,24.120392
1435705621.828,26.777924
1435705621.844,29.822067
1435705621.859,33.387436
1435705621.875,37.36592
1435705621.891,41.40741
1435705621.906,44.925415
1435705621.922,47.24211
1435705621.938,47.690536
1435705621.953,45.87599
1435705621.969,41.770966
1435705621.984,35.773605
1435705622,28.576538
1435705622.016,20.991913
1435705622.031,13.716537
1435705622.047,7.238434
1435705622.063,1.7960052
1435705622.078,-2.5625305
1435705622.094,-5.8796844
1435705622.109,-8.244873
1435705622.125,-9.812668
1435705622.141,-10.7812195
1435705622.156,-11.420776
1435705622.172,-11.9852295
1435705622.188,-12.65303
1435705622.203,-13.435135
1435705622.219,-14.237183
1435705622.234,-14.882721
1435705622.25,-15.307724
1435705622.266,-15.582291
1435705622.281,-15.929733
1435705622.297,-16.579468
1435705622.313,-17.646957
1435705622.328,-18.995163
1435705622.344,-20.279953
1435705622.359,-21.085556
1435705622.375,-21.116104
1435705622.391,-20.255203
1435705622.406,-18.62593
1435705622.422,-16.454468
1435705622.438,-13.973602
1435705622.453,-11.332016
1435705622.469,-8.581009
1435705622.484,-5.7529907
1435705622.5,-2.8725739
1435705622.516,0.017471313
1435705622.531,2.8592682
1435705622.547,5.6139984
1435705622.563,8.28421
1435705622.578,10.902161
1435705622.594,13.4878235
1435705622.609,16.053772
1435705622.625,18.594513
1435705622.641,21.124756
1435705622.656,23.725632
1435705622.672,26.566452
1435705622.688,29.873306
1435705622.703,33.85176
1435705622.719,38.510803
1435705622.734,43.55638
1435705622.75,48.287064
1435705622.766,51.729065
1435705622.781,52.878464
1435705622.797,51.09828
1435705622.813,46.309265
1435705622.828,39.095062
1435705622.844,30.475632
1435705622.859,21.56607
1435705622.875,13.215179
1435705622.891,5.8727875
1435705622.906,-0.38224792
1435705622.922,-5.657303
1435705622.938,-10.065781
1435705622.953,-13.64447
1435705622.969,-16.38327
1435705622.984,-18.284958
1435705623,-19.495255
1435705623.016,-20.226334
1435705623.031,-20.72258
1435705623.047,-21.174225
1435705623.063,-21.675293
1435705623.078,-22.188126
1435705623.094,-22.608795
1435705623.109,-22.838745
1435705623.125,-22.85019
1435705623.141,-22.707382
1435705623.156,-22.544373
1435705623.172,-22.50415
1435705623.188,-22.631943
1435705623.203,-22.831635
1435705623.219,-22.887497
1435705623.234,-22.532967
1435705623.25,-21.615463
1435705623.266,-20.09655
1435705623.281,-18.10981
1435705623.297,-15.892296
1435705623.313,-13.642754
1435705623.328,-11.451965
1435705623.344,-9.251732
1435705623.36,-6.8094788
1435705623.375,-3.878624
1435705623.391,-0.32437134
1435705623.406,3.7477112
1435705623.422,8.010468
1435705623.438,11.999802
1435705623.453,15.342873
1435705623.469,17.879715
1435705623.484,19.777878
1435705623.5,21.417908
1435705623.516,23.292046
1435705623.531,25.852623
1435705623.547,29.435905
1435705623.563,34.16034
1435705623.578,39.825333
1435705623.594,45.813667
1435705623.61,51.128647
1435705623.625,54.5503
1435705623.641,55.019196
1435705623.656,52.00779
1435705623.672,45.78134
1435705623.688,37.29232
1435705623.703,27.849731
1435705623.719,18.674095
1435705623.735,10.623032
1435705623.75,3.986946
1435705623.766,-1.370163
1435705623.781,-5.791767
1435705623.797,-9.648277
1435705623.813,-13.195114
1435705623.828,-16.523552
1435705623.844,-19.600235
1435705623.86,-22.350208
1435705623.875,-24.73059
1435705623.891,-26.762764
1435705623.906,-28.519604
1435705623.922,-30.022568
1435705623.938,-31.220692
1435705623.953,-32.01545
1435705623.969,-32.330402
1435705623.985,-32.214684
1435705624,-31.916529
1435705624.016,-31.748371
1435705624.031,-31.909576
1435705624.047,-32.391605
1435705624.063,-32.89218
1435705624.078,-32.92441
1435705624.094,-32.074978
1435705624.11,-30.075302
1435705624.125,-27.007786
1435705624.141,-23.207813
1435705624.156,-19.177223
1435705624.172,-15.339743
1435705624.188,-11.921632
1435705624.203,-8.85955
1435705624.219,-5.89493
1435705624.235,-2.725686
1435705624.25,0.81860113
1435705624.266,4.6852036
1435705624.281,8.62271
1435705624.297,12.361324
1435705624.313,15.698561
1435705624.328,18.62521
1435705624.344,21.28096
1435705624.36,23.887161
1435705624.375,26.714615
1435705624.391,30.044643
1435705624.406,34.130913
1435705624.422,39.11302
1435705624.438,44.85886
1435705624.453,50.82561
1435705624.469,56.04278
1435705624.485,59.35556
1435705624.5,59.744587
1435705624.516,56.650936
1435705624.531,50.160164
1435705624.547,41.018333
1435705624.563,30.33826
1435705624.578,19.32946
1435705624.594,9.00642
1435705624.61,0.022937775
1435705624.625,-7.383957
1435705624.641,-13.314987
1435705624.656,-18.071228
1435705624.672,-21.960274
1435705624.688,-25.209412
1435705624.703,-27.876068
1435705624.719,-29.94262
1435705624.735,-31.387901
1435705624.75,-32.32263
1435705624.766,-32.946808
1435705624.781,-33.496994
1435705624.797,-34.09385
1435705624.813,-34.720764
1435705624.828,-35.23639
1435705624.844,-35.526382
1435705624.86,-35.60572
1435705624.875,-35.633293
1435705624.891,-35.79026
1435705624.906,-36.14781
1435705624.922,-36.51973
1435705624.938,-36.5316
1435705624.953,-35.776566
1435705624.969,-34.03859
1435705624.985,-31.408226
1435705625,-28.252205
1435705625.016,-25.023254
1435705625.031,-22.067596
1435705625.047,-19.409798
1435705625.063,-16.806343
1435705625.078,-13.864471
1435705625.094,-10.265701
1435705625.11,-5.909149
1435705625.125,-0.9978485
1435705625.141,4.064598
1435705625.156,8.791405
1435705625.172,12.819305
1435705625.188,16.02649
1435705625.203,18.624557
1435705625.219,21.071411
1435705625.235,23.958298
1435705625.25,27.7798
1435705625.266,32.785675
1435705625.281,38.81659
1435705625.297,45.325775
1435705625.313,51.414047
1435705625.328,56.030228
1435705625.344,58.19626
1435705625.36,57.184937
1435705625.375,52.74417
1435705625.391,45.173706
1435705625.406,35.295425
1435705625.422,24.33522
1435705625.438,13.616623
1435705625.453,4.247925
1435705625.469,-3.1620636
1435705625.485,-8.582397
1435705625.5,-12.474808
1435705625.516,-15.467194
1435705625.531,-18.113846
1435705625.547,-20.679245
1435705625.563,-23.156357
1435705625.578,-25.362396
1435705625.594,-27.113144
1435705625.61,-28.303375
1435705625.625,-28.984238
1435705625.641,-29.312119
1435705625.656,-29.510239
1435705625.672,-29.795837
1435705625.688,-30.319305
1435705625.703,-31.155151
1435705625.719,-32.26013
1435705625.735,-33.455338
1435705625.75,-34.508865
1435705625.766,-35.168137
1435705625.781,-35.260223
1435705625.797,-34.657333
1435705625.813,-33.343796
1435705625.828,-31.328552
1435705625.844,-28.692719
1435705625.86,-25.509903
1435705625.875,-21.865433
1435705625.891,-17.848495
1435705625.906,-13.544571
1435705625.922,-9.018417
1435705625.938,-4.3452454
1435705625.953,0.3937683
1435705625.969,5.113083
1435705625.985,9.7677
1435705626,14.385376
1435705626.016,19.073624
1435705626.032,24.002487
1435705626.047,29.345657
1435705626.063,35.178467
1435705626.078,41.355896
1435705626.094,47.41469
1435705626.11,52.602173
1435705626.125,55.95752
1435705626.141,56.60565
1435705626.156,53.979156
1435705626.172,48.093323
1435705626.188,39.55623
1435705626.203,29.406967
1435705626.219,18.804184
1435705626.235,8.775131
1435705626.25,-0.022705078
1435705626.266,-7.325592
1435705626.282,-13.158127
1435705626.297,-17.722488
1435705626.313,-21.255615
1435705626.328,-23.941025
1435705626.344,-25.899734
1435705626.36,-27.143692
1435705626.375,-27.66394
1435705626.391,-27.538498
1435705626.407,-26.987381
1435705626.422,-26.357544
1435705626.438,-26.009003
1435705626.453,-26.120987
1435705626.469,-26.654404
1435705626.485,-27.358917
1435705626.5,-27.94513
1435705626.516,-28.203812
1435705626.532,-28.115326
1435705626.547,-27.735672
1435705626.563,-27.114609
1435705626.578,-26.167633
1435705626.594,-24.70163
1435705626.61,-22.53444
1435705626.625,-19.613098
1435705626.641,-16.09343
1435705626.657,-12.271378
1435705626.672,-8.464066
1435705626.688,-4.88266
1435705626.703,-1.5410919
1435705626.719,1.7240295
1435705626.735,5.190384
1435705626.75,9.092194
1435705626.766,13.582352
1435705626.782,18.62918
1435705626.797,24.161575
1435705626.813,30.042969
1435705626.828,36.13272
1435705626.844,42.09059
1435705626.86,47.312378
1435705626.875,50.885468
1435705626.891,51.86937
1435705626.907,49.601685
1435705626.922,44.08397
1435705626.938,35.9821
1435705626.953,26.42038
1435705626.969,16.487823
1435705626.985,6.9480286
1435705627,-1.9211731
1435705627.016,-10.116913
1435705627.032,-17.661346
1435705627.047,-24.431824
1435705627.063,-30.176605
1435705627.078,-34.683167
1435705627.094,-37.88907
1435705627.11,-39.87039
1435705627.125,-40.798004
1435705627.141,-40.834076
1435705627.157,-40.17395
1435705627.172,-39.076263
1435705627.188,-37.88611
1435705627.203,-36.91739
1435705627.219,-36.351227
1435705627.235,-36.11621
1435705627.25,-35.96991
1435705627.266,-35.59897
1435705627.282,-34.82135
1435705627.297,-33.59207
1435705627.313,-31.958862
1435705627.328,-29.990662
1435705627.344,-27.71988
1435705627.36,-25.119476
1435705627.375,-22.209778
1435705627.391,-19.063843
1435705627.407,-15.779907
1435705627.422,-12.413193
1435705627.438,-8.909897
1435705627.453,-5.114151
1435705627.469,-0.9191284
1435705627.485,3.6926422
1435705627.5,8.515991
1435705627.516,13.184525
1435705627.532,17.277893
1435705627.547,20.552216
1435705627.563,23.062485
1435705627.578,25.224304
1435705627.594,27.709152
1435705627.61,31.152618
1435705627.625,35.82921
1435705627.641,41.428818
1435705627.657,47.03676
1435705627.672,51.447388
1435705627.688,53.50644
1435705627.703,52.53473
1435705627.719,48.465714
1435705627.735,41.814453
1435705627.75,33.401886
1435705627.766,24.074722
1435705627.782,14.532318
1435705627.797,5.2698975
1435705627.813,-3.318695
1435705627.828,-10.880569
1435705627.844,-17.115341
1435705627.86,-21.85321
1435705627.875,-25.176285
1435705627.891,-27.448975
1435705627.907,-29.18367
1435705627.922,-30.822449
1435705627.938,-32.586044
1435705627.953,-34.332092
1435705627.969,-35.743027
1435705627.985,-36.496017
1435705628,-36.463516
1435705628.016,-35.821426
1435705628.032,-34.99269
1435705628.047,-34.386414
1435705628.063,-34.25731
1435705628.078,-34.579865
1435705628.094,-35.116135
1435705628.11,-35.546463
1435705628.125,-35.604965
1435705628.141,-35.145172
1435705628.157,-34.165222
1435705628.172,-32.699387
1435705628.188,-30.792603
1435705628.203,-28.468735
1435705628.219,-25.764465
1435705628.235,-22.752518
1435705628.25,-19.52594
1435705628.266,-16.14006
1435705628.282,-12.590912
1435705628.297,-8.7877655
1435705628.313,-4.68869
1435705628.328,-0.28700256
1435705628.344,4.277954
1435705628.36,8.787872
1435705628.375,12.996567
1435705628.391,16.729996
1435705628.407,19.992508
1435705628.422,23.003815
1435705628.438,26.114166
1435705628.453,29.759293
1435705628.469,34.27217
1435705628.485,39.718903
1435705628.5,45.74193
1435705628.516,51.558655
