1425518095.125,0.0
1425518095.141,0.0
1425518095.157,0.0
1425518095.172,0.0
1425518095.188,0.0
1425518095.204,0.0
1425518095.219,0.0
1425518095.235,0.0
1425518095.25,0.0
1425518095.266,0.0022315353
1425518095.282,-0.0045169927
1425518095.297,-0.011265522
1425518095.313,-0.011383951
1425518095.328,0.0011864507
1425518095.344,0.025910312
1425518095.36,0.050634187
1425518095.375,0.051362894
1425518095.391,-0.0014929791
1425518095.407,-0.1302426
1425518095.422,-0.35562757
1425518095.438,-0.6591247
1425518095.454,-1.0095103
1425518095.469,-1.3709826
1425518095.485,-1.7197359
1425518095.5,-2.0551105
1425518095.516,-2.39945
1425518095.532,-2.7866635
1425518095.547,-3.2399073
1425518095.563,-3.796012
1425518095.579,-4.418684
1425518095.594,-5.0592937
1425518095.61,-5.6644096
1425518095.625,-6.2021537
1425518095.641,-6.6808796
1425518095.657,-7.149598
1425518095.672,-7.6782336
1425518095.688,-8.310739
1425518095.704,-9.143657
1425518095.719,-10.089731
1425518095.735,-11.041313
1425518095.75,-11.8842125
1425518095.766,-12.564316
1425518095.782,-13.13563
1425518095.797,-13.760044
1425518095.813,-14.65232
1425518095.829,-15.962056
1425518095.844,-17.914442
1425518095.86,-20.317299
1425518095.875,-22.903854
1425518095.891,-25.37947
1425518095.907,-27.578028
1425518095.922,-29.57246
1425518095.938,-31.675173
1425518095.954,-34.3178
1425518095.969,-37.813618
1425518095.985,-42.541233
1425518096,-48.1463
1425518096.016,-54.104755
1425518096.032,-59.83309
1425518096.047,-64.972374
1425518096.063,-69.58293
1425518096.079,-74.14353
1425518096.094,-79.344986
1425518096.11,-85.70726
1425518096.125,-93.76193
1425518096.141,-102.99779
1425518096.157,-112.61757
1425518096.172,-121.73034
1425518096.188,-129.76602
1425518096.204,-136.75102
1425518096.219,-143.30344
1425518096.235,-150.74623
1425518096.25,-157.77356
1425518096.266,-166.64323
1425518096.282,-177.94798
1425518096.297,-191.79102
1425518096.313,-206.96808
1425518096.329,-220.56592
1425518096.344,-228.24644
1425518096.36,-225.36154
1425518096.375,-208.53197
1425518096.391,-176.87024
1425518096.407,-132.76219
1425518096.422,-80.04994
1425518096.438,-23.069427
1425518096.454,34.94287
1425518096.469,92.43588
1425518096.485,149.15558
1425518096.5,205.2269
1425518096.516,260.37045
1425518096.532,313.74432
1425518096.547,363.8777
1425518096.563,409.83417
1425518096.579,450.9004
1425518096.594,486.48465
1425518096.61,515.71454
1425518096.625,537.20996
1425518096.641,549.2296
1425518096.657,550.01965
1425518096.672,538.48914
1425518096.688,514.3927
1425518096.704,478.91235
1425518096.719,434.14468
1425518096.735,382.71918
1425518096.75,327.27884
1425518096.766,270.09375
1425518096.782,212.8999
1425518096.797,156.96661
1425518096.813,103.32095
1425518096.829,52.806335
1425518096.844,6.3840027
1425518096.86,-35.086395
1425518096.875,-70.94641
1425518096.891,-100.89606
1425518096.907,-125.047516
1425518096.922,-143.87772
1425518096.938,-158.08269
1425518096.954,-168.38554
1425518096.969,-175.44916
1425518096.985,-179.71808
1425518097,-181.50748
1425518097.016,-181.03757
1425518097.032,-178.52571
1425518097.047,-174.23734
1425518097.063,-168.50351
1425518097.079,-161.71239
1425518097.094,-154.2505
1425518097.11,-146.47311
1425518097.125,-138.63983
1425518097.141,-130.9064
1425518097.157,-123.29163
1425518097.172,-115.722404
1425518097.188,-108.08278
1425518097.204,-100.27998
1425518097.219,-92.329056
1425518097.235,-84.365295
1425518097.25,-76.63
1425518097.266,-69.37451
1425518097.282,-62.7735
1425518097.297,-56.815228
1425518097.313,-51.31132
1425518097.329,-45.970493
1425518097.344,-40.519882
1425518097.36,-34.86073
1425518097.375,-29.111462
1425518097.391,-23.589972
1425518097.407,-18.621223
1425518097.422,-14.452659
1425518097.438,-11.0870905
1425518097.454,-8.314619
1425518097.469,-5.8220115
1425518097.485,-3.2673779
1425518097.5,-0.37131053
1425518097.516,3.0809374
1425518097.532,7.1171403
1425518097.547,11.445684
1425518097.563,15.306007
1425518097.579,17.518394
1425518097.594,16.885952
1425518097.61,12.679279
1425518097.625,5.183692
1425518097.641,-4.281355
1425518097.657,-13.726355
1425518097.672,-21.250954
1425518097.688,-25.725687
1425518097.704,-27.118774
1425518097.719,-26.25805
1425518097.735,-24.252714
1425518097.75,-22.00909
1425518097.766,-19.899508
1425518097.782,-17.947546
1425518097.797,-16.0725
1425518097.813,-14.324665
1425518097.829,-12.879665
1425518097.844,-11.860111
1425518097.86,-11.202145
1425518097.875,-10.618771
1425518097.891,-9.819796
1425518097.907,-8.588831
1425518097.922,-7.005125
1425518097.938,-5.379053
1425518097.954,-4.1130753
1425518097.969,-3.5715218
1425518097.985,-3.9030838
1425518098,-5.0306854
1425518098.016,-6.6449623
1425518098.032,-8.351845
1425518098.047,-9.734947
1425518098.063,-10.53812
1425518098.079,-10.684143
1425518098.094,-10.2943535
1425518098.11,-9.609177
1425518098.126,-8.816017
1425518098.141,-8.001984
1425518098.157,-7.1101494
1425518098.172,-6.047024
1425518098.188,-4.754032
1425518098.204,-3.2946243
1425518098.219,-1.8174591
1425518098.235,-0.4399376
1425518098.251,0.7233124
1425518098.266,1.6192627
1425518098.282,2.1816406
1425518098.297,2.319252
1425518098.313,1.9793892
1425518098.329,1.2064056
1425518098.344,0.19927979
1425518098.36,-0.7522507
1425518098.376,-1.3633804
1425518098.391,-1.5114136
1425518098.407,-1.2450447
1425518098.422,-0.7685547
1425518098.438,-0.27366257
1425518098.454,0.14084625
1425518098.469,0.50756836
1425518098.485,0.93216324
1425518098.501,1.4343681
1425518098.516,1.9696045
1425518098.532,2.376789
1425518098.547,2.5222702
1425518098.563,2.4042015
1425518098.579,2.1737156
1425518098.594,2.0723553
1425518098.61,2.2938995
1425518098.626,2.861044
1425518098.641,3.5620155
1425518098.657,4.0897007
1425518098.672,4.1753407
1425518098.688,3.750349
1425518098.704,2.960331
1425518098.719,2.0949097
1425518098.735,1.4598656
1425518098.751,1.2281609
1425518098.766,1.3966064
1425518098.782,1.8181114
1425518098.797,2.2911873
1425518098.813,2.641262
1425518098.829,2.7688274
1425518098.844,2.6794949
1425518098.86,2.4449558
1425518098.876,2.1719017
1425518098.891,1.951231
1425518098.907,1.888094
1425518098.922,2.0888195
1425518098.938,2.656952
1425518098.954,3.6179504
1425518098.969,4.826792
1425518098.985,5.9086
1425518099.001,6.366598
1425518099.016,5.752228
1425518099.032,3.90592
1425518099.047,1.058424
1425518099.063,-2.1354446
1425518099.079,-4.927271
1425518099.094,-6.7163506
1425518099.11,-7.334261
1425518099.126,-6.9708996
1425518099.141,-6.0422955
1425518099.157,-4.907387
1425518099.172,-3.7275639
1425518099.188,-2.4553852
1425518099.204,-1.0174389
1425518099.219,0.56250954
1425518099.235,2.1175575
1425518099.251,3.4037514
1425518099.266,4.2297573
1425518099.282,4.5406666
1425518099.297,4.4364147
1425518099.313,4.119894
1425518099.329,3.8041458
1425518099.344,3.6845036
1425518099.36,3.834711
1425518099.376,4.2594814
1425518099.391,4.8365192
1425518099.407,5.385296
1425518099.422,5.7066345
1425518099.438,5.7044296
1425518099.454,5.45858
1425518099.469,5.174467
1425518099.485,5.1018925
1425518099.501,5.3313217
1425518099.516,5.746435
1425518099.532,6.0316772
1425518099.547,5.8620777
1425518099.563,5.0836487
1425518099.579,3.81748
1425518099.594,2.363922
1425518099.61,1.0164318
1425518099.626,-0.069374084
1425518099.641,-0.98288345
1425518099.657,-1.9305973
1425518099.672,-3.1299915
1425518099.688,-4.6472874
1425518099.704,-6.391613
1425518099.719,-8.144342
1425518099.735,-9.693682
1425518099.751,-10.900524
1425518099.766,-11.75514
1425518099.782,-12.316603
1425518099.797,-12.735907
1425518099.813,-13.146479
1425518099.829,-13.652996
1425518099.844,-14.256561
1425518099.86,-14.917263
1425518099.876,-15.520319
1425518099.891,-15.946075
1425518099.907,-16.043537
1425518099.922,-15.766439
1425518099.938,-15.06937
1425518099.954,-13.982014
1425518099.969,-12.57826
1425518099.985,-11.004778
1425518100.001,-9.483536
1425518100.016,-8.2781925
1425518100.032,-7.5605755
1425518100.047,-7.409569
1425518100.063,-7.5514603
1425518100.079,-7.585762
1425518100.094,-7.0887184
1425518100.11,-5.8105373
1425518100.126,-3.7213745
1425518100.141,-1.1058254
1425518100.157,1.6835918
1425518100.172,4.295204
1425518100.188,6.5467157
1425518100.204,8.402547
1425518100.219,9.905009
1425518100.235,11.103305
1425518100.251,11.991212
1425518100.266,12.534253
1425518100.282,12.740111
1425518100.297,12.621005
1425518100.313,12.2336
1425518100.329,11.601478
1425518100.344,10.75918
1425518100.36,9.715823
1425518100.376,8.54626
1425518100.391,7.303074
1425518100.407,6.1325693
1425518100.422,5.0988336
1425518100.438,4.2902107
1425518100.454,3.7518702
1425518100.469,3.5040197
1425518100.485,3.539544
1425518100.501,3.8241334
1425518100.516,4.2712884
1425518100.532,4.7638984
1425518100.547,5.155463
1425518100.563,5.346589
1425518100.579,5.3235373
1425518100.594,5.142327
1425518100.61,4.916045
1425518100.626,4.795924
1425518100.641,4.854393
1425518100.657,5.106196
1425518100.672,5.4531846
1425518100.688,5.7927394
1425518100.704,5.994094
1425518100.719,6.0229654
1425518100.735,5.883707
1425518100.751,5.6580353
1425518100.766,5.4196844
1425518100.782,5.285207
1425518100.798,5.312125
1425518100.813,5.5038176
1425518100.829,5.8288627
1425518100.844,6.21381
1425518100.86,6.6106973
1425518100.876,6.991835
1425518100.891,7.3623366
1425518100.907,7.76475
1425518100.923,8.317844
1425518100.938,9.153675
1425518100.954,10.352907
1425518100.969,11.916547
1425518100.985,13.687492
1425518101.001,15.368349
1425518101.016,16.535496
1425518101.032,16.824953
1425518101.048,15.602657
1425518101.063,12.690017
1425518101.079,8.251456
1425518101.094,2.7741594
1425518101.11,-3.0903025
1425518101.126,-8.68831
1425518101.141,-13.514634
1425518101.157,-17.289228
1425518101.173,-19.95478
1425518101.188,-21.607561
1425518101.204,-22.356226
1425518101.219,-22.301807
1425518101.235,-21.526009
1425518101.251,-20.058128
1425518101.266,-17.973743
1425518101.282,-15.439592
1425518101.298,-12.746521
1425518101.313,-10.257257
1425518101.329,-8.342836
1425518101.344,-7.1768503
1425518101.36,-6.7606983
1425518101.376,-6.9336443
1425518101.391,-7.4663363
1425518101.407,-8.155761
1425518101.423,-8.895452
1425518101.438,-9.622044
1425518101.454,-10.297872
1425518101.469,-10.847
1425518101.485,-11.129901
1425518101.501,-10.991885
1425518101.516,-10.362178
1425518101.532,-9.240205
1425518101.548,-7.7772684
1425518101.563,-6.181468
1425518101.579,-4.640313
1425518101.594,-3.261159
1425518101.61,-2.0251312
1425518101.626,-0.82068825
1425518101.641,0.47119617
1425518101.657,1.8913898
1425518101.673,3.4187994
1425518101.688,4.9944687
1425518101.704,6.5754557
1425518101.719,8.177622
1425518101.735,9.822386
1425518101.751,11.519021
1425518101.766,13.188129
1425518101.782,14.724378
1425518101.798,16.00703
1425518101.813,17.000107
1425518101.829,17.764208
1425518101.844,18.448154
1425518101.86,19.234734
1425518101.876,20.325829
1425518101.891,21.899364
1425518101.907,24.041052
1425518101.923,26.676598
1425518101.938,29.444107
1425518101.954,31.71066
1425518101.969,32.680817
1425518101.985,31.645185
1425518102.001,28.280827
1425518102.016,22.791315
1425518102.032,15.885418
1425518102.048,8.508057
1425518102.063,1.5388203
1425518102.079,-4.4837227
1425518102.094,-9.367529
1425518102.11,-13.193279
1425518102.126,-16.115181
1425518102.141,-18.256044
1425518102.157,-19.657492
1425518102.173,-20.34553
1425518102.188,-20.393942
1425518102.204,-19.965445
1425518102.219,-19.250439
1425518102.235,-18.458118
1425518102.251,-17.760561
1425518102.266,-17.27674
1425518102.282,-17.038437
1425518102.298,-17.032999
1425518102.313,-17.210028
1425518102.329,-17.494251
1425518102.344,-17.843985
1425518102.36,-18.251106
1425518102.376,-18.719673
1425518102.391,-19.228392
1425518102.407,-19.681921
1425518102.423,-19.945658
1425518102.438,-19.834328
1425518102.454,-19.254372
1425518102.469,-18.209875
1425518102.485,-16.847248
1425518102.501,-15.3811
1425518102.516,-13.96636
1425518102.532,-12.639683
1425518102.548,-11.307692
1425518102.563,-9.800774
1425518102.579,-8.004511
1425518102.594,-5.9651184
1425518102.61,-3.8492775
1425518102.626,-1.8922558
1425518102.641,-0.26485825
1425518102.657,1.0399551
1425518102.673,2.229927
1425518102.688,3.6023655
1425518102.704,5.367298
1425518102.719,7.5698757
1425518102.735,10.003386
1425518102.751,12.369265
1425518102.766,14.382835
1425518102.782,15.937403
1425518102.798,17.149286
1425518102.813,18.268679
1425518102.829,19.582794
1425518102.844,21.29672
1425518102.86,23.501898
1425518102.876,26.17263
1425518102.891,29.165104
1425518102.907,32.18341
1425518102.923,34.729473
1425518102.938,36.177277
1425518102.954,35.90103
1425518102.969,33.521114
1425518102.985,29.057135
1425518103.001,22.969875
1425518103.016,15.995905
1425518103.032,8.941488
1425518103.048,2.4155617
1425518103.063,-3.2189617
1425518103.079,-7.86541
1425518103.094,-11.5668335
1425518103.11,-14.375769
1425518103.126,-16.310472
1425518103.141,-17.3936
1425518103.157,-17.702927
1425518103.173,-17.416986
1425518103.188,-16.783798
1425518103.204,-16.075731
1425518103.219,-15.494694
1425518103.235,-15.139608
1425518103.251,-14.990679
1425518103.266,-14.985258
1425518103.282,-15.081596
1425518103.298,-15.334951
1425518103.313,-15.834644
1425518103.329,-16.66786
1425518103.344,-17.792198
1425518103.36,-19.02296
1425518103.376,-20.074663
1425518103.391,-20.642128
1425518103.407,-20.540213
1425518103.423,-19.754242
1425518103.438,-18.398878
1425518103.454,-16.70287
1425518103.47,-14.888521
1425518103.485,-13.149393
1425518103.501,-11.558066
1425518103.516,-10.095908
1425518103.532,-8.667703
1425518103.548,-7.158451
1425518103.563,-5.4861507
1425518103.579,-3.661705
1425518103.594,-1.7728586
1425518103.61,0.011540413
1425518103.626,1.5503969
1425518103.641,2.7468405
1425518103.657,3.6150398
1425518103.673,4.2379055
1425518103.688,4.7642717
1425518103.704,5.362646
1425518103.72,6.1886463
1425518103.735,7.3528633
1425518103.751,8.904726
1425518103.766,10.792659
1425518103.782,12.920952
1425518103.798,15.135733
1425518103.813,17.261723
1425518103.829,19.175793
1425518103.845,20.819893
1425518103.86,22.250282
1425518103.876,23.664928
1425518103.891,25.338804
1425518103.907,27.517286
1425518103.923,30.269274
1425518103.938,33.354748
1425518103.954,36.20295
1425518103.97,38.04033
1425518103.985,38.060387
1425518104.001,35.727726
1425518104.016,30.943249
1425518104.032,24.112871
1425518104.048,16.018871
1425518104.063,7.616123
1425518104.079,-0.22887039
1425518104.095,-6.894704
1425518104.11,-12.062192
1425518104.126,-15.683271
1425518104.141,-17.894566
1425518104.157,-18.921822
1425518104.173,-19.016872
1425518104.188,-18.41644
1425518104.204,-17.361677
1425518104.22,-16.090588
1425518104.235,-14.849125
1425518104.251,-13.847927
1425518104.266,-13.221948
1425518104.282,-12.9957485
1425518104.298,-13.09448
1425518104.313,-13.4089985
1425518104.329,-13.864849
1425518104.345,-14.431333
1425518104.36,-15.146556
1425518104.376,-16.023098
1425518104.391,-17.014866
1425518104.407,-17.977882
1425518104.423,-18.73207
1425518104.438,-19.091942
1425518104.454,-18.964046
1425518104.47,-18.330925
1425518104.485,-17.278282
1425518104.501,-15.927924
1425518104.516,-14.419655
1425518104.532,-12.852953
1425518104.548,-11.306918
1425518104.563,-9.778606
1425518104.579,-8.206663
1425518104.595,-6.5450478
1425518104.61,-4.7590246
1425518104.626,-2.9246807
1425518104.641,-1.1872878
1425518104.657,0.28437424
1425518104.673,1.3902578
1425518104.688,2.154664
1425518104.704,2.7061758
1425518104.72,3.2834232
1425518104.735,4.1136484
1425518104.751,5.3697276
1425518104.766,7.0838327
1425518104.782,9.151171
1425518104.798,11.339755
1425518104.813,13.35484
1425518104.829,14.956388
1425518104.845,16.063372
1425518104.86,16.79705
1425518104.876,17.43828
1425518104.891,18.322845
1425518104.907,19.731998
1425518104.923,21.811817
1425518104.938,24.54989
1425518104.954,27.74234
1425518104.97,30.994694
1425518104.985,33.714382
1425518105.001,35.229614
1425518105.016,34.90879
1425518105.032,32.43552
1425518105.048,27.909119
1425518105.063,21.820625
1425518105.079,14.923485
1425518105.095,7.9222584
1425518105.11,1.3449461
1425518105.126,-4.513701
1425518105.141,-9.539481
1425518105.157,-13.639955
1425518105.173,-16.737373
1425518105.188,-18.757158
1425518105.204,-19.71153
1425518105.22,-19.728235
1425518105.235,-19.054382
1425518105.251,-17.98358
1425518105.266,-16.813986
1425518105.282,-15.777708
1425518105.298,-15.064393
1425518105.313,-14.747166
1425518105.329,-14.821211
1425518105.345,-15.199966
1425518105.36,-15.759107
1425518105.376,-16.387043
1425518105.391,-16.995893
1425518105.407,-17.51974
1425518105.423,-17.88875
1425518105.438,-18.012308
1425518105.454,-17.81396
1425518105.47,-17.240654
1425518105.485,-16.352234
1425518105.501,-15.2539425
1425518105.516,-14.087391
1425518105.532,-12.939863
1425518105.548,-11.787202
1425518105.563,-10.533678
1425518105.579,-9.06983
1425518105.595,-7.3329344
1425518105.61,-5.3638096
1425518105.626,-3.2716641
1425518105.641,-1.2117198
1425518105.657,0.7099817
1425518105.673,2.434633
1425518105.688,3.9886358
1425518105.704,5.433073
1425518105.72,6.870281
1425518105.735,8.406428
1425518105.751,10.133024
1425518105.766,12.052013
1425518105.782,14.087662
1425518105.798,16.08822
1425518105.813,17.87703
1425518105.829,19.37753
1425518105.845,20.617954
1425518105.86,21.750008
1425518105.876,22.98841
1425518105.891,24.524784
1425518105.907,26.478867
1425518105.923,28.837166
1425518105.938,31.480167
1425518105.954,34.08182
1425518105.97,36.18419
1425518105.985,37.19446
1425518106.001,36.557465
1425518106.016,33.9386
1425518106.032,29.366158
1425518106.048,23.272816
1425518106.063,16.351276
1425518106.079,9.312832
1425518106.095,2.6998057
1425518106.11,-3.1945722
1425518106.126,-8.270126
1425518106.142,-12.519436
1425518106.157,-15.866051
1425518106.173,-18.201864
1425518106.188,-19.429852
1425518106.204,-19.58917
1425518106.22,-18.854752
1425518106.235,-17.538834
1425518106.251,-15.983173
1425518106.266,-14.506144
1425518106.282,-13.3580065
1425518106.298,-12.699563
1425518106.313,-12.608853
1425518106.329,-13.074804
1425518106.345,-14.008724
1425518106.36,-15.247947
1425518106.376,-16.581722
1425518106.392,-17.803381
1425518106.407,-18.733923
1425518106.423,-19.27466
1425518106.438,-19.380379
1425518106.454,-19.110626
1425518106.47,-18.54434
1425518106.485,-17.79081
1425518106.501,-16.93339
1425518106.517,-15.99475
1425518106.532,-14.8882475
1425518106.548,-13.496194
1425518106.563,-11.700886
1425518106.579,-9.514248
1425518106.595,-7.0757904
1425518106.61,-4.612232
1425518106.626,-2.3163338
1425518106.642,-0.3141079
1425518106.657,1.4152822
1425518106.673,2.9471893
1425518106.688,4.399995
1425518106.704,5.8542356
1425518106.72,7.348297
1425518106.735,8.894418
1425518106.751,10.511805
1425518106.767,12.229376
1425518106.782,14.098355
1425518106.798,16.12975
1425518106.813,18.29538
1425518106.829,20.536179
1425518106.845,22.814764
1425518106.86,25.142855
1425518106.876,27.551365
1425518106.892,29.977505
1425518106.907,32.206573
1425518106.923,33.779324
1425518106.938,34.099648
1425518106.954,32.63138
1425518106.97,29.144121
1425518106.985,23.83648
1425518107.001,17.31174
1425518107.017,10.386133
1425518107.032,3.7795258
1425518107.048,-2.066249
1425518107.063,-7.0225325
1425518107.079,-11.196785
1425518107.095,-14.696936
1425518107.11,-17.560287
1425518107.126,-19.702091
1425518107.142,-21.028822
1425518107.157,-21.478365
1425518107.173,-21.146673
1425518107.188,-20.230484
1425518107.204,-19.017702
1425518107.22,-17.802307
1425518107.235,-16.818003
1425518107.251,-16.190796
1425518107.267,-15.952395
1425518107.282,-16.048649
1425518107.298,-16.425568
1425518107.313,-17.05154
1425518107.329,-17.911003
1425518107.345,-18.955774
1425518107.36,-20.076818
1425518107.376,-21.056692
1425518107.392,-21.633057
1425518107.407,-21.57903
1425518107.423,-20.837353
1425518107.438,-19.486431
1425518107.454,-17.756725
1425518107.47,-15.879392
1425518107.485,-14.032722
1425518107.501,-12.283218
1425518107.517,-10.60971
1425518107.532,-8.970003
1425518107.548,-7.3038845
1425518107.563,-5.5878057
1425518107.579,-3.8293562
1425518107.595,-2.056488
1425518107.61,-0.3151846
1425518107.626,1.3343382
1425518107.642,2.8292112
1425518107.657,4.1457405
1425518107.673,5.2842846
1425518107.688,6.3103337
1425518107.704,7.3127127
1425518107.72,8.399408
1425518107.735,9.643675
1425518107.751,11.100975
1425518107.767,12.780425
1425518107.782,14.678524
1425518107.798,16.769978
1425518107.813,19.041542
1425518107.829,21.51205
1425518107.845,24.23397
1425518107.86,27.233465
1425518107.876,30.411219
1425518107.892,33.43735
1425518107.907,35.77981
1425518107.923,36.813133
1425518107.938,36.04472
1425518107.954,33.305817
1425518107.97,28.828585
1425518107.985,23.160007
1425518108.001,16.956112
1425518108.017,10.731746
1425518108.032,4.7969494
1425518108.048,-0.752579
1425518108.063,-5.82374
1425518108.079,-10.281112
1425518108.095,-13.856543
1425518108.11,-16.310587
1425518108.126,-17.548788
1425518108.142,-17.717468
1425518108.157,-17.184935
1425518108.173,-16.384455
1425518108.188,-15.667176
1425518108.204,-15.181921
1425518108.22,-14.877972
1425518108.235,-14.611233
1425518108.251,-14.268815
1425518108.267,-13.864347
1425518108.282,-13.537495
1425518108.298,-13.494937
1425518108.313,-13.861881
1425518108.329,-14.623264
1425518108.345,-15.601142
1425518108.36,-16.55983
1425518108.376,-17.271975
1425518108.392,-17.63845
1425518108.407,-17.673647
1425518108.423,-17.467287
1425518108.438,-17.06779
1425518108.454,-16.432692
1425518108.47,-15.452632
1425518108.485,-14.055929
1425518108.501,-12.264809
1425518108.517,-10.249538
1425518108.532,-8.20261
1425518108.548,-6.2903447
1425518108.563,-4.5308332
1425518108.579,-2.864274
1425518108.595,-1.2007718
1425518108.61,0.46919107
1425518108.626,2.082819
1425518108.642,3.5327396
1425518108.657,4.778183
1425518108.673,5.8940845
1425518108.688,7.02952
1425518108.704,8.337339
1425518108.72,9.856829
1425518108.735,11.494279
1425518108.751,13.083567
1425518108.767,14.477791
1425518108.782,15.633471
1425518108.798,16.59926
1425518108.813,17.504833
1425518108.829,18.49947
1425518108.845,19.73811
1425518108.86,21.372047
1425518108.876,23.527065
1425518108.892,26.187374
1425518108.907,29.150267
1425518108.923,31.936533
1425518108.938,33.86921
1425518108.954,34.229404
1425518108.97,32.508358
1425518108.985,28.582432
1425518109.001,22.778511
1425518109.017,15.765737
1425518109.032,8.319824
1425518109.048,1.1220932
1425518109.064,-5.3853693
1425518109.079,-11.013594
1425518109.095,-15.693085
1425518109.11,-19.44984
1425518109.126,-22.298584
1425518109.142,-24.316109
1425518109.157,-25.64081
1425518109.173,-26.511843
1425518109.189,-27.184223
1425518109.204,-27.838781
1425518109.22,-28.490685
1425518109.235,-29.055016
1425518109.251,-29.439459
1425518109.267,-29.703842
1425518109.282,-30.09505
1425518109.298,-30.990082
1425518109.314,-32.676926
1425518109.329,-35.243675
1425518109.345,-38.501656
1425518109.36,-42.106606
1425518109.376,-45.713543
1425518109.392,-49.081684
1425518109.407,-52.114414
1425518109.423,-54.7826
1425518109.439,-57.057693
1425518109.454,-58.89505
1425518109.47,-60.31832
1425518109.485,-61.482906
1425518109.501,-62.64837
1425518109.517,-64.14452
1425518109.532,-66.09834
1425518109.548,-68.426544
1425518109.564,-70.75023
1425518109.579,-72.575745
1425518109.595,-73.316
1425518109.61,-72.56173
1425518109.626,-70.017555
1425518109.642,-65.56307
1425518109.657,-59.15695
1425518109.673,-50.801674
1425518109.689,-40.52816
1425518109.704,-28.42028
1425518109.72,-14.673035
1425518109.735,0.37316895
1425518109.751,16.215446
1425518109.767,32.209732
1425518109.782,47.681396
1425518109.798,61.983475
1425518109.814,74.61513
1425518109.829,85.260315
1425518109.845,93.803925
1425518109.86,100.26863
1425518109.876,104.8329
1425518109.892,107.732635
1425518109.907,109.28137
1425518109.923,109.77956
1425518109.939,109.420135
1425518109.954,108.18451
1425518109.97,105.83305
1425518109.985,101.98186
1425518110.001,96.29863
1425518110.017,88.69058
1425518110.032,79.47597
1425518110.048,69.302505
1425518110.064,58.96936
1425518110.079,49.140762
1425518110.095,40.211136
1425518110.11,32.236633
1425518110.126,25.12619
1425518110.142,18.77623
1425518110.157,13.206863
1425518110.173,8.526382
1425518110.189,4.8705444
1425518110.204,2.2457275
1425518110.22,0.53160095
1425518110.235,-0.517807
1425518110.251,-1.1849976
1425518110.267,-1.7334595
1425518110.282,-2.314331
1425518110.298,-3.035202
1425518110.314,-3.9292755
1425518110.329,-5.021988
1425518110.345,-6.358444
1425518110.36,-7.992859
1425518110.376,-9.927643
1425518110.392,-12.105972
1425518110.407,-14.337677
1425518110.423,-16.315857
1425518110.439,-17.706116
1425518110.454,-18.262192
1425518110.47,-17.94194
1425518110.485,-16.944656
1425518110.501,-15.644119
1425518110.517,-14.430145
1425518110.532,-13.5239105
1425518110.548,-12.9079895
1425518110.564,-12.33136
1425518110.579,-11.492554
1425518110.595,-10.189301
1425518110.61,-8.446655
1425518110.626,-6.480789
1425518110.642,-4.5769196
1425518110.657,-2.9291534
1425518110.673,-1.5604401
1425518110.689,-0.3209076
1425518110.704,1.0011902
1425518110.72,2.5519714
1425518110.735,4.361496
1425518110.751,6.3376007
1425518110.767,8.339874
1425518110.782,10.24588
1425518110.798,11.996429
1425518110.814,13.583801
1425518110.829,15.021683
1425518110.845,16.35463
1425518110.86,17.630035
1425518110.876,18.957245
1425518110.892,20.487656
1425518110.907,22.410553
1425518110.923,24.80394
1425518110.939,27.547821
1425518110.954,30.226181
1425518110.97,32.17537
1425518110.985,32.659515
1425518111.001,31.120438
1425518111.017,27.42633
1425518111.032,21.96489
1425518111.048,15.47905
1425518111.064,8.842697
1425518111.079,2.7471771
1425518111.095,-2.4356384
1425518111.11,-6.680847
1425518111.126,-10.124374
1425518111.142,-12.886002
1425518111.157,-14.964355
1425518111.173,-16.23317
1425518111.189,-16.55365
1425518111.204,-15.904236
1425518111.22,-14.4505005
1425518111.235,-12.518692
1425518111.251,-10.466629
1425518111.267,-8.606613
1425518111.282,-7.1225433
1425518111.298,-6.1113586
1425518111.314,-5.613861
1425518111.329,-5.6725616
1425518111.345,-6.277298
1425518111.36,-7.3530273
1425518111.376,-8.716446
1425518111.392,-10.127609
1425518111.407,-11.338165
1425518111.423,-12.21817
1425518111.439,-12.726852
1425518111.454,-12.910034
1425518111.47,-12.800674
1425518111.485,-12.383347
1425518111.501,-11.598785
1425518111.517,-10.436783
1425518111.532,-8.949112
1425518111.548,-7.3080444
1425518111.564,-5.714737
1425518111.579,-4.302002
1425518111.595,-3.0676575
1425518111.61,-1.901886
1425518111.626,-0.6227112
1425518111.642,0.94699097
1425518111.657,2.8625793
1425518111.673,5.0387573
1425518111.689,7.297638
1425518111.704,9.365189
1425518111.72,11.033051
1425518111.736,12.189117
1425518111.751,12.905746
1425518111.767,13.389587
1425518111.782,13.974258
1425518111.798,14.989616
1425518111.814,16.703354
1425518111.829,19.178314
1425518111.845,22.207344
1425518111.861,25.26715
1425518111.876,27.618378
1425518111.892,28.469841
1425518111.907,27.259094
1425518111.923,23.855782
1425518111.939,18.645424
1425518111.954,12.37513
1425518111.97,5.9343414
1425518111.986,0.0048294067
1425518112.001,-5.078224
1425518112.017,-9.314583
1425518112.032,-12.834236
1425518112.048,-15.741562
1425518112.064,-18.021683
1425518112.079,-19.557709
1425518112.095,-20.236351
1425518112.111,-20.070114
1425518112.126,-19.19957
1425518112.142,-17.889618
1425518112.157,-16.416351
1425518112.173,-15.056145
1425518112.189,-14.005455
1425518112.204,-13.390877
1425518112.22,-13.248741
1425518112.236,-13.561417
1425518112.251,-14.222839
1425518112.267,-15.109543
1425518112.282,-16.067383
1425518112.298,-16.943954
1425518112.314,-17.584793
1425518112.329,-17.88491
1425518112.345,-17.818214
1425518112.361,-17.426216
1425518112.376,-16.833794
1425518112.392,-16.197052
1425518112.407,-15.588676
1425518112.423,-14.993439
1425518112.439,-14.293755
1425518112.454,-13.334671
1425518112.47,-11.934158
1425518112.486,-9.99575
1425518112.501,-7.4950333
1425518112.517,-4.5252075
1425518112.532,-1.3107071
1425518112.548,1.8439255
1425518112.564,4.6234894
1425518112.579,6.801697
1425518112.595,8.337753
1425518112.611,9.401886
1425518112.626,10.303055
1425518112.642,11.371193
1425518112.657,12.858124
1425518112.673,14.852516
1425518112.689,17.34156
1425518112.704,20.241463
1425518112.72,23.45282
1425518112.736,26.783966
1425518112.751,29.924492
1425518112.767,32.378365
1425518112.782,33.567253
1425518112.798,32.985172
1425518112.814,30.409698
1425518112.829,25.97443
1425518112.845,20.17583
1425518112.861,13.682968
1425518112.876,7.1653786
1425518112.892,1.0905609
1425518112.907,-4.280239
1425518112.923,-8.876087
1425518112.939,-12.680595
1425518112.954,-15.678951
1425518112.97,-17.816238
1425518112.986,-19.053146
1425518113.001,-19.425411
1425518113.017,-19.085896
1425518113.032,-18.282421
1425518113.048,-17.305843
1425518113.064,-16.416588
1425518113.079,-15.791618
1425518113.095,-15.496792
1425518113.111,-15.510338
1425518113.126,-15.73843
1425518113.142,-16.10833
1425518113.157,-16.570885
1425518113.173,-17.102375
1425518113.189,-17.656818
1425518113.204,-18.14212
1425518113.22,-18.41499
1425518113.236,-18.356533
1425518113.251,-17.886791
1425518113.267,-17.04216
1425518113.282,-15.900639
1425518113.298,-14.561989
1425518113.314,-13.0770035
1425518113.329,-11.45377
1425518113.345,-9.676655
1425518113.361,-7.76519
1425518113.376,-5.7598724
1425518113.392,-3.7644768
1425518113.407,-1.8461761
1425518113.423,-0.058933258
1425518113.439,1.6349602
1425518113.454,3.304226
1425518113.47,5.0369453
1425518113.486,6.9033203
1425518113.501,8.916901
1425518113.517,11.012554
1425518113.532,13.055588
1425518113.548,14.871788
1425518113.564,16.326195
1425518113.579,17.423145
1425518113.595,18.335129
1425518113.611,19.33324
1425518113.626,20.741585
1425518113.642,22.76965
1425518113.657,25.468903
1425518113.673,28.65493
1425518113.689,31.966621
1425518113.704,34.812954
1425518113.72,36.514072
1425518113.736,36.418034
1425518113.751,34.09555
1425518113.767,29.503908
1425518113.782,23.050066
1425518113.798,15.46554
1425518113.814,7.6245155
1425518113.829,0.24663353
1425518113.845,-6.213396
1425518113.861,-11.579437
1425518113.876,-15.831291
1425518113.892,-18.961964
1425518113.907,-20.932665
1425518113.923,-21.726482
1425518113.939,-21.4444
1425518113.954,-20.372
1425518113.97,-18.941864
1425518113.986,-17.63767
1425518114.001,-16.79667
1425518114.017,-16.564425
1425518114.032,-16.831022
1425518114.048,-17.369482
1425518114.064,-17.957054
1425518114.079,-18.464622
1425518114.095,-18.872599
1425518114.111,-19.2449
1425518114.126,-19.617039
1425518114.142,-19.976383
1425518114.157,-20.23854
1425518114.173,-20.306324
1425518114.189,-20.078182
1425518114.204,-19.51523
1425518114.22,-18.622631
1425518114.236,-17.443666
1425518114.251,-16.045021
1425518114.267,-14.510443
1425518114.282,-12.892836
1425518114.298,-11.22856
1425518114.314,-9.48624
1425518114.329,-7.6364193
1425518114.345,-5.6537952
1425518114.361,-3.591733
1425518114.376,-1.5655279
1425518114.392,0.26204395
1425518114.408,1.7724762
1425518114.423,2.9664345
1425518114.439,3.9865885
1425518114.454,5.0384426
1425518114.47,6.3434696
1425518114.486,8.025509
1425518114.501,10.078278
1425518114.517,12.356338
1425518114.533,14.652666
1425518114.548,16.75883
1425518114.564,18.562914
1425518114.579,20.060898
1425518114.595,21.39575
1425518114.611,22.802172
1425518114.626,24.551178
1425518114.642,26.82298
1425518114.658,29.626421
1425518114.673,32.674835
1425518114.689,35.418674
1425518114.704,37.143734
1425518114.72,37.17909
1425518114.736,35.08888
1425518114.751,30.837646
1425518114.767,24.765465
1425518114.783,17.489109
1425518114.798,9.753636
1425518114.814,2.237978
1425518114.829,-4.5679975
1425518114.845,-10.351114
1425518114.861,-14.923079
1425518114.876,-18.196272
1425518114.892,-20.147259
1425518114.908,-20.802822
1425518114.923,-20.361874
1425518114.939,-19.154236
1425518114.954,-17.66256
1425518114.97,-16.369083
1425518114.986,-15.657499
1425518115.001,-15.626142
1425518115.017,-16.127857
1425518115.033,-16.82347
1425518115.048,-17.413933
1425518115.064,-17.765175
1425518115.079,-17.986889
1425518115.095,-18.319653
1425518115.111,-18.9847
1425518115.126,-19.994432
1425518115.142,-21.14452
1425518115.158,-22.06252
1425518115.173,-22.430984
1425518115.189,-22.087687
1425518115.204,-21.126331
1425518115.22,-19.769445
1425518115.236,-18.316742
1425518115.251,-16.9306
1425518115.267,-15.654842
1425518115.283,-14.408431
1425518115.298,-13.061399
1425518115.314,-11.521623
1425518115.329,-9.792091
1425518115.345,-7.96935
1425518115.361,-6.2082024
1425518115.376,-4.6497774
1425518115.392,-3.3464065
1425518115.408,-2.2315907
1425518115.423,-1.1416907
1425518115.439,0.108160496
1425518115.454,1.6178818
1425518115.47,3.4071841
1425518115.486,5.3581686
1425518115.501,7.3655853
1425518115.517,9.330511
1425518115.533,11.2210655
1425518115.548,13.024476
1425518115.564,14.748408
1425518115.579,16.43119
1425518115.595,18.183102
1425518115.611,20.192734
1425518115.626,22.704233
1425518115.642,25.797628
1425518115.658,29.269907
1425518115.673,32.53134
1425518115.689,34.77971
1425518115.704,35.230175
1425518115.72,33.457306
1425518115.736,29.562286
1425518115.751,24.102722
1425518115.767,17.859474
1425518115.783,11.535773
1425518115.798,5.5470085
1425518115.814,0.032482147
1425518115.829,-4.9926195
1425518115.845,-9.46323
1425518115.861,-13.210404
1425518115.876,-16.003334
1425518115.892,-17.686398
1425518115.908,-18.258152
1425518115.923,-17.866243
1425518115.939,-16.727425
1425518115.954,-15.053949
1425518115.97,-13.045967
1425518115.986,-10.955832
1425518116.001,-9.102714
1425518116.017,-7.815628
1425518116.033,-7.3498526
1425518116.048,-7.7434053
1425518116.064,-8.806384
1425518116.079,-10.189305
1425518116.095,-11.51444
1425518116.111,-12.548032
1425518116.126,-13.165363
1425518116.142,-13.358649
1425518116.158,-13.157368
1425518116.173,-12.59953
1425518116.189,-11.739402
1425518116.204,-10.6613245
1425518116.22,-9.443177
1425518116.236,-8.097322
1425518116.251,-6.5669575
1425518116.267,-4.735694
1425518116.283,-2.5290356
1425518116.298,0.010649681
1425518116.314,2.6764145
1425518116.329,5.1853924
1425518116.345,7.2923403
1425518116.361,8.883486
1425518116.376,10.070179
1425518116.392,11.042584
1425518116.408,12.058825
1425518116.423,13.242248
1425518116.439,14.575446
1425518116.454,15.942386
1425518116.47,17.204618
1425518116.486,18.30708
1425518116.501,19.31688
1425518116.517,20.440464
1425518116.533,21.906406
1425518116.548,23.910631
1425518116.564,26.50521
1425518116.579,29.529945
1425518116.595,32.637894
1425518116.611,35.302628
1425518116.626,36.947655
1425518116.642,37.033997
1425518116.658,35.224724
1425518116.673,31.451397
1425518116.689,25.984219
1425518116.704,19.339659
1425518116.72,12.198273
1425518116.736,5.2374015
1425518116.751,-1.0128169
1425518116.767,-6.235546
1425518116.783,-10.325741
1425518116.798,-13.334463
1425518116.814,-15.401095
1425518116.829,-16.701035
1425518116.845,-17.398731
1425518116.861,-17.664642
1425518116.876,-17.606018
1425518116.892,-17.32754
1425518116.908,-16.875023
1425518116.923,-16.32856
1425518116.939,-15.791849
1425518116.954,-15.421841
1425518116.97,-15.333761
1425518116.986,-15.605429
1425518117.001,-16.186846
1425518117.017,-16.954136
1425518117.033,-17.76121
1425518117.048,-18.504559
1425518117.064,-19.107052
1425518117.08,-19.504309
1425518117.095,-19.600584
1425518117.111,-19.274456
1425518117.126,-18.47918
1425518117.142,-17.252218
1425518117.158,-15.745816
1425518117.173,-14.157056
1425518117.189,-12.605888
1425518117.204,-11.114255
1425518117.22,-9.618324
1425518117.236,-8.01573
1425518117.251,-6.197193
1425518117.267,-4.067896
1425518117.283,-1.5591087
1425518117.298,1.3211155
1425518117.314,4.4521866
1425518117.33,7.5765476
1425518117.345,10.371504
1425518117.361,12.569403
1425518117.376,14.080965
1425518117.392,15.037628
1425518117.408,15.716282
1425518117.423,16.42621
1425518117.439,17.4289
1425518117.455,18.922544
1425518117.47,21.04613
1425518117.486,23.816214
1425518117.501,27.043629
1425518117.517,30.217182
1425518117.533,32.5536
1425518117.548,33.16266
1425518117.564,31.411055
1425518117.58,27.14767
1425518117.595,20.823055
1425518117.611,13.319155
1425518117.626,5.6354256
1425518117.642,-1.3891182
1425518117.658,-7.2700005
1425518117.673,-11.908215
1425518117.689,-15.440994
1425518117.705,-18.058681
1425518117.72,-19.896112
1425518117.736,-21.003454
1425518117.751,-21.391474
1425518117.767,-21.150784
1425518117.783,-20.480822
1425518117.798,-19.687313
1425518117.814,-19.035225
1425518117.83,-18.674429
1425518117.845,-18.567348
1425518117.861,-18.58392
1425518117.876,-18.61111
1425518117.892,-18.65876
1425518117.908,-18.850555
1425518117.923,-19.3199
1425518117.939,-20.06612
1425518117.955,-20.903374
1425518117.97,-21.519154
1425518117.986,-21.644833
1425518118.001,-21.165655
1425518118.017,-20.158848
1425518118.033,-18.78409
1425518118.048,-17.252071
1425518118.064,-15.673893
1425518118.08,-14.082441
1425518118.095,-12.436142
1425518118.111,-10.681301
1425518118.126,-8.786188
1425518118.142,-6.761883
1425518118.158,-4.650776
1425518118.173,-2.5062885
1425518118.189,-0.35269737
1425518118.205,1.8672085
1425518118.22,4.236204
1425518118.236,6.80217
1425518118.251,9.533863
1425518118.267,12.27132
1425518118.283,14.801395
1425518118.298,16.952625
1425518118.314,18.703623
1425518118.33,20.186462
1425518118.345,21.653625
1425518118.361,23.335396
1425518118.376,25.394695
1425518118.392,27.914532
1425518118.408,30.88461
1425518118.423,34.1473
1425518118.439,37.34938
1425518118.455,39.883686
1425518118.47,41.0065
1425518118.486,40.047783
1425518118.501,36.67218
1425518118.517,31.04307
1425518118.533,23.807196
1425518118.548,15.845289
1425518118.564,8.055365
1425518118.58,1.0896511
1425518118.595,-4.700342
1425518118.611,-9.2648945
1425518118.626,-12.724043
1425518118.642,-15.241201
1425518118.658,-16.943483
1425518118.673,-17.90068
1425518118.689,-18.15101
1425518118.705,-17.804842
1425518118.72,-17.07167
1425518118.736,-16.235502
1425518118.751,-15.564854
1425518118.767,-15.182108
1425518118.783,-15.017248
1425518118.798,-14.917795
1425518118.814,-14.809643
1425518118.83,-14.793825
1425518118.845,-15.104059
1425518118.861,-15.943947
1425518118.876,-17.242304
1425518118.892,-18.681673
1425518118.908,-19.765299
1425518118.923,-20.133408
1425518118.939,-19.705406
1425518118.955,-18.687773
1425518118.97,-17.38704
1425518118.986,-16.037506
1425518119.001,-14.676743
1425518119.017,-13.190567
1425518119.033,-11.436991
1425518119.048,-9.379307
1425518119.064,-7.0843773
1425518119.08,-4.7506847
1425518119.095,-2.5655155
1425518119.111,-0.6925812
1425518119.126,0.8377476
1425518119.142,2.1246204
1425518119.158,3.3897972
1425518119.173,4.8839417
1425518119.189,6.780489
1425518119.205,9.066837
1425518119.22,11.562513
1425518119.236,13.971025
1425518119.251,16.016747
1425518119.267,17.582388
1425518119.283,18.740185
1425518119.298,19.73984
1425518119.314,20.902452
1425518119.33,22.584204
1425518119.345,25.04389
1425518119.361,28.334002
1425518119.376,32.23358
1425518119.392,36.136932
1425518119.408,39.215397
1425518119.423,40.54601
1425518119.439,39.476845
1425518119.455,35.794067
1425518119.47,29.863125
1425518119.486,22.44757
1425518119.501,14.491711
1425518119.517,6.8351517
1425518119.533,0.05154419
1425518119.548,-5.5961494
1425518119.564,-10.089947
1425518119.58,-13.532673
1425518119.595,-16.037846
1425518119.611,-17.701488
1425518119.626,-18.593735
1425518119.642,-18.834236
1425518119.658,-18.586197
1425518119.673,-18.074657
1425518119.689,-17.469597
1425518119.705,-16.896736
1425518119.72,-16.354546
1425518119.736,-15.831753
1425518119.751,-15.362911
1425518119.767,-15.074039
1425518119.783,-15.158588
1425518119.798,-15.76495
1425518119.814,-16.89299
1425518119.83,-18.36488
1425518119.845,-19.8923
1425518119.861,-21.193436
1425518119.876,-22.059185
1425518119.892,-22.41911
1425518119.908,-22.263733
1425518119.923,-21.598877
1425518119.939,-20.428932
1425518119.955,-18.789974
1425518119.97,-16.777325
1425518119.986,-14.5500145
1425518120.002,-12.303307
1425518120.017,-10.186535
1425518120.033,-8.252975
1425518120.048,-6.484291
1425518120.064,-4.7920265
1425518120.08,-3.1182518
1425518120.095,-1.4397011
1425518120.111,0.17436981
1425518120.127,1.6409569
1425518120.142,2.9029503
1425518120.158,4.0175858
1425518120.173,5.1391945
1425518120.189,6.4717407
1425518120.205,8.12241
1425518120.22,10.0515785
1425518120.236,12.058285
1425518120.252,13.892933
1425518120.267,15.430813
1425518120.283,16.729618
1425518120.298,18.021866
1425518120.314,19.604916
1425518120.33,21.724876
1425518120.345,24.47219
1425518120.361,27.734436
1425518120.377,31.187943
1425518120.392,34.289864
1425518120.408,36.354965
1425518120.423,36.68451
1425518120.439,34.771526
1425518120.455,30.503616
1425518120.47,24.225697
1425518120.486,16.650963
1425518120.502,8.637451
1425518120.517,0.964859
1425518120.533,-5.818863
1425518120.548,-11.433472
1425518120.564,-15.790768
1425518120.58,-18.941914
1425518120.595,-20.994236
1425518120.611,-22.096153
1425518120.627,-22.423073
1425518120.642,-22.136414
1425518120.658,-21.39925
1425518120.673,-20.402813
1425518120.689,-19.359089
1425518120.705,-18.516071
1425518120.72,-18.054176
1425518120.736,-18.051651
1425518120.752,-18.429764
1425518120.767,-19.05246
1425518120.783,-19.782227
1425518120.798,-20.577976
1425518120.814,-21.43467
1425518120.83,-22.30315
1425518120.845,-23.015968
1425518120.861,-23.318783
1425518120.877,-22.990421
1425518120.892,-21.957533
1425518120.908,-20.369877
1425518120.923,-18.51105
1425518120.939,-16.672651
1425518120.955,-15.039825
1425518120.97,-13.60041
1425518120.986,-12.236982
1425518121.002,-10.754595
1425518121.017,-9.005846
1425518121.033,-6.9074764
1425518121.048,-4.528734
1425518121.064,-2.002039
1425518121.08,0.46394157
1425518121.095,2.71249
1425518121.111,4.688452
1425518121.127,6.488285
1425518121.142,8.284119
1425518121.158,10.248968
1425518121.173,12.421869
1425518121.189,14.692671
1425518121.205,16.908638
1425518121.22,18.93446
1425518121.236,20.726994
1425518121.252,22.367958
1425518121.267,24.011192
1425518121.283,25.864775
1425518121.298,28.109821
1425518121.314,30.874565
1425518121.33,34.071934
1425518121.345,37.35076
1425518121.361,40.06115
1425518121.377,41.4191
1425518121.392,40.77945
1425518121.408,37.889465
1425518121.423,32.9842
1425518121.439,26.696926
1425518121.455,19.789934
1425518121.47,12.936975
1425518121.486,6.5781193
1425518121.502,0.93696976
1425518121.517,-3.883191
1425518121.533,-7.787833
1425518121.548,-10.701506
1425518121.564,-12.585676
1425518121.58,-13.511488
1425518121.595,-13.622236
1425518121.611,-13.150934
1425518121.627,-12.351772
1425518121.642,-11.47101
1425518121.658,-10.708886
1425518121.673,-10.212696
1425518121.689,-10.064564
1425518121.705,-10.294204
1425518121.72,-10.874934
1425518121.736,-11.739763
1425518121.752,-12.798631
1425518121.767,-13.942547
1425518121.783,-15.054922
1425518121.798,-16.042978
1425518121.814,-16.82797
1425518121.83,-17.336235
1425518121.845,-17.488218
1425518121.861,-17.207981
1425518121.877,-16.440697
1425518121.892,-15.209038
1425518121.908,-13.619415
1425518121.923,-11.848421
1425518121.939,-10.017101
1425518121.955,-8.1647415
1425518121.97,-6.2053623
1425518121.986,-4.017069
1425518122.002,-1.5235605
1425518122.017,1.2260599
1425518122.033,4.0796585
1425518122.048,6.844824
1425518122.064,9.3621855
1425518122.08,11.540333
1425518122.095,13.340172
1425518122.111,14.775185
1425518122.127,15.898785
1425518122.142,16.867136
1425518122.158,17.949955
1425518122.173,19.48554
1425518122.189,21.769768
1425518122.205,24.86776
1425518122.22,28.514793
1425518122.236,32.078743
1425518122.252,34.71599
1425518122.267,35.591805
1425518122.283,34.166
1425518122.298,30.35744
1425518122.314,24.580921
1425518122.33,17.61171
1425518122.345,10.332764
1425518122.361,3.4761562
1425518122.377,-2.5275288
1425518122.392,-7.575695
1425518122.408,-11.736725
1425518122.423,-15.110453
1425518122.439,-17.72362
1425518122.455,-19.526096
1425518122.47,-20.446117
1425518122.486,-20.524845
1425518122.502,-19.907639
1425518122.517,-18.857561
1425518122.533,-17.645573
1425518122.548,-16.519943
1425518122.564,-15.643715
1425518122.58,-15.113182
1425518122.595,-14.930895
1425518122.611,-15.0520115
1425518122.627,-15.393051
1425518122.642,-15.865337
1425518122.658,-16.400845
1425518122.674,-16.935469
1425518122.689,-17.38613
1425518122.705,-17.612291
1425518122.72,-17.46265
1425518122.736,-16.841124
1425518122.752,-15.741837
1425518122.767,-14.279848
1425518122.783,-12.579472
1425518122.799,-10.775484
1425518122.814,-8.901468
1425518122.83,-6.9926224
1425518122.845,-5.0798645
1425518122.861,-3.2619915
1425518122.877,-1.6116238
1425518122.892,-0.113399506
1425518122.908,1.3840466
1425518122.924,3.1386986
1425518122.939,5.3589706
1425518122.955,8.060244
1425518122.97,11.0535755
1425518122.986,14.004522
1425518123.002,16.588993
1425518123.017,18.64279
1425518123.033,20.19847
1425518123.049,21.43994
1425518123.064,22.685814
1425518123.08,24.249472
1425518123.095,26.41385
1425518123.111,29.271824
1425518123.127,32.62133
1425518123.142,35.88234
1425518123.158,38.211864
1425518123.174,38.70842
1425518123.189,36.753788
1425518123.205,32.219368
1425518123.22,25.504423
1425518123.236,17.39917
1425518123.252,8.827023
1425518123.267,0.6235924
1425518123.283,-6.6057053
1425518123.299,-12.544247
1425518123.314,-17.080992
1425518123.33,-20.289993
1425518123.345,-22.315205
1425518123.361,-23.36894
1425518123.377,-23.69641
1425518123.392,-23.565367
1425518123.408,-23.230522
1425518123.424,-22.907112
1425518123.439,-22.698053
1425518123.455,-22.597528
1425518123.47,-22.497793
1425518123.486,-22.26025
1425518123.502,-21.837212
1425518123.517,-21.301071
1425518123.533,-20.82424
1425518123.549,-20.61363
1425518123.564,-20.770363
1425518123.58,-21.259327
1425518123.595,-21.888588
1425518123.611,-22.423302
1425518123.627,-22.625994
1425518123.642,-22.327421
1425518123.658,-21.452728
1425518123.674,-20.017124
1425518123.689,-18.118288
1425518123.705,-15.915503
1425518123.72,-13.555656
1425518123.736,-11.165863
1425518123.752,-8.781183
1425518123.767,-6.4108286
1425518123.783,-4.052496
1425518123.799,-1.7339525
1425518123.814,0.52153015
1425518123.83,2.7075071
1425518123.845,4.9070034
1425518123.861,7.2123833
1425518123.877,9.653823
1425518123.892,12.127761
1425518123.908,14.426269
1425518123.924,16.337196
1425518123.939,17.806192
1425518123.955,18.993183
1425518123.97,20.200874
1425518123.986,21.77678
1425518124.002,23.951881
1425518124.017,26.817936
1425518124.033,30.331738
1425518124.049,34.305252
1425518124.064,38.38788
1425518124.08,42.012135
1425518124.095,44.41418
1425518124.111,44.80726
1425518124.127,42.642406
1425518124.142,37.806072
1425518124.158,30.747467
1425518124.174,22.308228
1425518124.189,13.499439
1425518124.205,5.212136
1425518124.22,-1.9363847
1425518124.236,-7.6697693
1425518124.252,-11.986067
1425518124.267,-15.05876
1425518124.283,-17.130217
1425518124.299,-18.405487
1425518124.314,-19.008972
1425518124.33,-19.019032
1425518124.345,-18.505026
1425518124.361,-17.668268
1425518124.377,-16.800554
1425518124.392,-16.2505
1425518124.408,-16.229849
1425518124.424,-16.755207
1425518124.439,-17.601084
1425518124.455,-18.44792
1425518124.47,-19.039974
1425518124.486,-19.324648
1425518124.502,-19.431133
1425518124.517,-19.566658
1425518124.533,-19.859674
1425518124.549,-20.257008
1425518124.564,-20.558037
1425518124.58,-20.465935
1425518124.595,-19.774313
1425518124.611,-18.462208
1425518124.627,-16.690456
1425518124.642,-14.717418
1425518124.658,-12.751418
1425518124.674,-10.855362
1425518124.689,-8.918704
1425518124.705,-6.8101535
1425518124.72,-4.4833045
1425518124.736,-2.0698667
1425518124.752,0.18777215
1425518124.767,2.0768523
1425518124.783,3.5536547
1425518124.799,4.7541347
1425518124.814,5.956983
1425518124.83,7.3928447
1425518124.845,9.141027
1425518124.861,11.117108
1425518124.877,13.134258
1425518124.892,14.971606
1425518124.908,16.525673
1425518124.924,17.770863
1425518124.939,18.799612
1425518124.955,19.782389
1425518124.97,20.989538
1425518124.986,22.716043
1425518125.002,25.236986
1425518125.017,28.643478
1425518125.033,32.733326
1425518125.049,36.922005
1425518125.064,40.304607
1425518125.08,41.90517
1425518125.095,40.96668
1425518125.111,37.213757
1425518125.127,30.97193
1425518125.142,23.114904
1425518125.158,14.73789
1425518125.174,6.8087587
1425518125.189,-0.050056458
1425518125.205,-5.6445255
1425518125.22,-10.033125
1425518125.236,-13.355915
1425518125.252,-15.658731
1425518125.267,-16.945934
1425518125.283,-17.266132
1425518125.299,-16.838234
1425518125.314,-16.02952
1425518125.33,-15.209025
1425518125.346,-14.621699
1425518125.361,-14.318918
1425518125.377,-14.198864
1425518125.392,-14.164757
1425518125.408,-14.210035
1425518125.424,-14.447924
1425518125.439,-15.015983
1425518125.455,-15.997717
1425518125.471,-17.312014
1425518125.486,-18.78737
1425518125.502,-20.20331
1425518125.517,-21.346815
1425518125.533,-22.056456
1425518125.549,-22.246874
1425518125.564,-21.914164
1425518125.58,-21.168552
1425518125.596,-20.180197
1425518125.611,-19.128513
1425518125.627,-18.10535
1425518125.642,-17.065422
1425518125.658,-15.835279
1425518125.674,-14.238495
1425518125.689,-12.207657
1425518125.705,-9.852572
1425518125.721,-7.409068
1425518125.736,-5.150261
1425518125.752,-3.2352467
1425518125.767,-1.6597586
1425518125.783,-0.25075245
1425518125.799,1.1945639
1425518125.814,2.814886
1425518125.83,4.598669
1425518125.846,6.420662
1425518125.861,8.117083
1425518125.877,9.598995
1425518125.892,10.927752
1425518125.908,12.2727785
1425518125.924,13.812572
1425518125.939,15.6471195
1425518125.955,17.748415
1425518125.971,20.069546
1425518125.986,22.594744
1425518126.002,25.38134
1425518126.017,28.437916
1425518126.033,31.594318
1425518126.049,34.351536
1425518126.064,35.99765
1425518126.08,35.821465
1425518126.096,33.430893
1425518126.111,28.931162
1425518126.127,22.884682
1425518126.142,16.087732
1425518126.158,9.279287
1425518126.174,2.96109
1425518126.189,-2.6494389
1425518126.205,-7.504986
1425518126.221,-11.560711
1425518126.236,-14.716143
1425518126.252,-16.798632
1425518126.267,-17.663761
1425518126.283,-17.290726
1425518126.299,-15.8839855
1425518126.314,-13.858156
1425518126.33,-11.763557
1425518126.346,-10.094976
1425518126.361,-9.192614
1425518126.377,-9.093412
1425518126.392,-9.617262
1425518126.408,-10.451195
1425518126.424,-11.31517
1425518126.439,-12.063549
1425518126.455,-12.699541
1425518126.471,-13.272259
1425518126.486,-13.844557
1425518126.502,-14.384207
1425518126.517,-14.79789
1425518126.533,-14.940073
1425518126.549,-14.691769
1425518126.564,-13.975214
1425518126.58,-12.828207
1425518126.596,-11.334091
1425518126.611,-9.634678
1425518126.627,-7.856205
1425518126.642,-6.0466633
1425518126.658,-4.1998463
1425518126.674,-2.265833
1425518126.689,-0.19729996
1425518126.705,2.0004978
1425518126.721,4.258642
1425518126.736,6.4876347
1425518126.752,8.64036
1425518126.767,10.682045
1425518126.783,12.603136
1425518126.799,14.343151
1425518126.814,15.837927
1425518126.83,17.048338
1425518126.846,18.003965
1425518126.861,18.818789
1425518126.877,19.697332
1425518126.892,20.898111
1425518126.908,22.67605
1425518126.924,25.192303
1425518126.939,28.357727
1425518126.955,31.716942
1425518126.971,34.486534
1425518126.986,35.709465
1425518127.002,34.603214
1425518127.017,30.877665
1425518127.033,24.890875
1425518127.049,17.524456
1425518127.064,9.850964
1425518127.08,2.743929
1425518127.096,-3.3549423
1425518127.111,-8.37915
1425518127.127,-12.494169
1425518127.142,-15.844938
1425518127.158,-18.451006
1425518127.174,-20.271338
1425518127.189,-21.28127
1425518127.205,-21.549717
1425518127.221,-21.22308
1425518127.236,-20.49959
1425518127.252,-19.539492
1425518127.267,-18.485895
1425518127.283,-17.438616
1425518127.299,-16.532967
1425518127.314,-15.899141
1425518127.33,-15.691053
1425518127.346,-15.968199
1425518127.361,-16.734415
1425518127.377,-17.849308
1425518127.392,-19.075485
1425518127.408,-20.127684
1425518127.424,-20.760078
1425518127.439,-20.83854
1425518127.455,-20.346308
1425518127.471,-19.350721
1425518127.486,-17.96452
1425518127.502,-16.240726
1425518127.517,-14.215628
1425518127.533,-11.925436
1425518127.549,-9.473169
1425518127.564,-7.023184
1425518127.58,-4.7034225
1425518127.596,-2.569254
1425518127.611,-0.55921364
1425518127.627,1.4826298
1425518127.642,3.6655903
1425518127.658,6.031996
1425518127.674,8.491528
1425518127.689,10.851625
1425518127.705,12.9326
1425518127.721,14.631039
1425518127.736,15.961119
1425518127.752,17.054953
1425518127.767,18.131401
1425518127.783,19.425749
1425518127.799,21.16194
1425518127.814,23.503435
1425518127.83,26.496359
1425518127.846,30.036276
1425518127.861,33.74379
1425518127.877,37.01455
1425518127.892,39.067223
1425518127.908,39.16616
1425518127.924,36.856464
1425518127.939,32.176
1425518127.955,25.71313
1425518127.971,18.386093
1425518127.986,11.117409
1425518128.002,4.527729
1425518128.018,-1.1892262
1425518128.033,-6.1320744
1425518128.049,-10.49202
1425518128.064,-14.300861
1425518128.08,-17.425522
1425518128.096,-19.644432
1425518128.111,-20.853163
1425518128.127,-21.137348
1425518128.142,-20.758455
1425518128.158,-20.01735
1425518128.174,-19.174955
1425518128.189,-18.37437
1425518128.205,-17.69276
1425518128.221,-17.184034
1425518128.236,-16.89128
1425518128.252,-16.847933
1425518128.268,-17.076754
1425518128.283,-17.550138
1425518128.299,-18.22447
1425518128.314,-19.014776
1425518128.33,-19.773373
1425518128.346,-20.301115
1425518128.361,-20.400963
1425518128.377,-19.95581
1425518128.393,-19.007336
1425518128.408,-17.754707
1425518128.424,-16.441216
1425518128.439,-15.242065
1425518128.455,-14.15889
1425518128.471,-13.011456
1425518128.486,-11.563339
1425518128.502,-9.632561
1425518128.518,-7.205879
1425518128.533,-4.4697647
1425518128.549,-1.742672
1425518128.564,0.6687927
1425518128.58,2.5903168
1425518128.596,4.0586777
1425518128.611,5.2823715
1425518128.627,6.5580177
1425518128.643,8.11042
1425518128.658,10.034874
1425518128.674,12.226044
1425518128.689,14.458504
1425518128.705,16.514938
1425518128.721,18.257027
1425518128.736,19.706707
1425518128.752,21.021233
1425518128.768,22.419518
1425518128.783,24.150375
1425518128.799,26.405163
1425518128.814,29.326542
1425518128.83,32.8409
1425518128.846,36.63949
1425518128.861,40.088238
1425518128.877,42.378025
1425518128.893,42.70103
1425518128.908,40.550694
1425518128.924,35.880024
1425518128.939,29.157585
1425518128.955,21.198578
1425518128.971,12.924023
1425518128.986,5.1019516
1425518129.002,-1.7811203
1425518129.018,-7.5255356
1425518129.033,-12.094105
1425518129.049,-15.558498
1425518129.064,-18.007172
1425518129.08,-19.552292
1425518129.096,-20.342682
1425518129.111,-20.543839
1425518129.127,-20.323734
1425518129.143,-19.809708
1425518129.158,-19.082718
1425518129.174,-18.199806
1425518129.189,-17.224442
1425518129.205,-16.280304
1425518129.221,-15.527733
1425518129.236,-15.141308
1425518129.252,-15.226189
1425518129.268,-15.773544
1425518129.283,-16.635128
1425518129.299,-17.617146
1425518129.314,-18.506844
1425518129.33,-19.149387
1425518129.346,-19.422886
1425518129.361,-19.266895
1425518129.377,-18.644337
1425518129.393,-17.581726
1425518129.408,-16.16248
1425518129.424,-14.5438
1425518129.439,-12.907188
1425518129.455,-11.379677
1425518129.471,-9.976189
1425518129.486,-8.607891
1425518129.502,-7.0799446
1425518129.518,-5.258293
1425518129.533,-3.1053162
1425518129.549,-0.78920746
1425518129.564,1.4168282
1425518129.58,3.2110825
1425518129.596,4.4597015
1425518129.611,5.2508163
1425518129.627,5.876892
1425518129.643,6.7027397
1425518129.658,7.94804
1425518129.674,9.583519
1425518129.689,11.35202
1425518129.705,12.894886
1425518129.721,13.97953
1425518129.736,14.622269
1425518129.752,15.1081085
1425518129.768,15.822075
1425518129.783,17.136486
1425518129.799,19.214363
1425518129.814,22.01043
1425518129.83,25.251232
1425518129.846,28.503468
1425518129.861,31.211567
1425518129.877,32.75835
1425518129.893,32.606586
1425518129.908,30.416172
1425518129.924,26.191055
1425518129.939,20.310726
1425518129.955,13.4366455
1425518129.971,6.329998
1425518129.986,-0.3823967
1425518130.002,-6.2562675
1425518130.018,-11.08675
1425518130.033,-14.813732
1425518130.049,-17.470444
1425518130.064,-19.136078
1425518130.08,-19.939304
1425518130.096,-20.046684
1425518130.111,-19.625603
1425518130.127,-18.799194
1425518130.143,-17.676315
1425518130.158,-16.337276
1425518130.174,-14.9337845
1425518130.189,-13.645126
1425518130.205,-12.676315
1425518130.221,-12.140919
1425518130.236,-12.017311
1425518130.252,-12.175133
1425518130.268,-12.458313
1425518130.283,-12.747269
1425518130.299,-13.00499
1425518130.314,-13.224228
1425518130.33,-13.349972
1425518130.346,-13.269642
1425518130.361,-12.879993
1425518130.377,-12.138332
1425518130.393,-11.123592
1425518130.408,-9.96883
1425518130.424,-8.803806
1425518130.439,-7.6456375
1425518130.455,-6.40818
1425518130.471,-4.939934
1425518130.486,-3.1715279
1425518130.502,-1.1423149
1425518130.518,0.99222183
1425518130.533,3.062786
1425518130.549,4.9469376
1425518130.564,6.650753
1425518130.58,8.2934
1425518130.596,10.0094795
1425518130.611,11.870434
1425518130.627,13.837643
1425518130.643,15.778564
1425518130.658,17.57267
1425518130.674,19.140564
1425518130.689,20.490715
1425518130.705,21.680214
1425518130.721,22.78965
1425518130.736,23.906746
1425518130.752,25.167175
1425518130.768,26.759361
1425518130.783,28.835388
1425518130.799,31.309166
1425518130.814,33.729362
1425518130.83,35.26184
1425518130.846,34.98281
1425518130.861,32.20803
1425518130.877,26.846905
1425518130.893,19.44423
1425518130.908,11.020157
1425518130.924,2.6701279
1425518130.94,-4.721657
1425518130.955,-10.714363
1425518130.971,-15.305702
1425518130.986,-18.808746
1425518131.002,-21.681671
1425518131.018,-24.372856
1425518131.033,-27.127838
1425518131.049,-29.944054
1425518131.065,-32.557594
1425518131.08,-34.53141
1425518131.096,-35.379547
1425518131.111,-34.812035
1425518131.127,-32.942398
1425518131.143,-30.520912
1425518131.158,-29.054138
1425518131.174,-30.692413
1425518131.19,-37.718132
1425518131.205,-51.735855
1425518131.221,-72.80525
1425518131.236,-99.03544
1425518131.252,-126.8413
1425518131.268,-151.99893
1425518131.283,-170.8581
1425518131.299,-181.37279
1425518131.315,-183.29413
1425518131.33,-177.64409
1425518131.346,-165.83629
1425518131.361,-148.99173
1425518131.377,-127.767914
1425518131.393,-102.736786
1425518131.408,-74.84671
1425518131.424,-45.707825
1425518131.44,-17.381165
1425518131.455,8.196091
1425518131.471,29.756882
1425518131.486,47.0226
1425518131.502,60.634827
1425518131.518,71.721344
1425518131.533,81.26901
1425518131.549,89.80734
1425518131.565,97.207855
1425518131.58,102.88295
1425518131.596,106.27109
1425518131.611,107.17369
1425518131.627,105.76648
1425518131.643,102.20241
1425518131.658,96.282974
1425518131.674,87.5482
1425518131.69,75.880646
1425518131.705,62.18466
1425518131.721,48.55713
1425518131.736,37.676422
1425518131.752,31.492615
1425518131.768,30.105728
1425518131.783,31.601318
1425518131.799,33.02063
1425518131.815,31.933167
1425518131.83,27.827942
1425518131.846,22.283356
1425518131.861,18.04071
1425518131.877,17.428223
1425518131.893,21.20279
1425518131.908,28.36728
1425518131.924,36.95984
1425518131.94,45.25482
1425518131.955,52.6261
1425518131.971,59.708466
1425518131.986,67.82431
1425518132.002,78.342834
1425518132.018,92.04727
1425518132.033,108.8439
1425518132.049,127.92136
1425518132.065,148.13281
1425518132.08,168.2326
1425518132.096,186.94948
1425518132.111,202.93158
1425518132.127,214.74475
1425518132.143,221.11974
1425518132.158,221.43105
1425518132.174,216.10107
1425518132.19,206.70131
1425518132.205,195.40341
1425518132.221,184.1374
1425518132.236,173.86906
1425518132.252,164.327
1425518132.268,154.47269
1425518132.283,143.24939
1425518132.299,130.274
1425518132.315,116.02257
1425518132.33,101.61534
1425518132.346,88.30114
1425518132.361,77.086136
1425518132.377,68.53798
1425518132.393,62.710922
1425518132.408,58.969765
1425518132.424,55.712147
1425518132.44,50.35007
1425518132.455,39.684967
1425518132.471,20.913454
1425518132.486,-7.2450657
1425518132.502,-43.77794
1425518132.518,-85.509384
1425518132.533,-128.06326
1425518132.549,-167.3176
1425518132.565,-200.52786
1425518132.58,-226.7669
1425518132.596,-246.63516
1425518132.611,-261.583
1425518132.627,-273.20908
1425518132.643,-282.8732
1425518132.658,-291.46127
1425518132.674,-299.2619
1425518132.69,-305.83
1425518132.705,-310.05176
1425518132.721,-310.42017
1425518132.736,-305.65945
1425518132.752,-295.2755
1425518132.768,-279.96
1425518132.783,-261.3867
1425518132.799,-241.71039
1425518132.815,-222.85338
1425518132.83,-205.96883
1425518132.846,-191.30264
1425518132.861,-178.2617
1425518132.877,-165.66084
1425518132.893,-151.99411
1425518132.908,-135.75581
1425518132.924,-115.933105
1425518132.94,-92.38434
1425518132.955,-66.15461
1425518132.971,-39.211594
1425518132.986,-13.928055
1425518133.002,7.8328857
1425518133.018,25.298737
1425518133.033,38.95823
1425518133.049,50.13407
1425518133.065,60.3114
1425518133.08,70.4875
1425518133.096,80.94922
1425518133.111,91.30042
1425518133.127,100.71997
1425518133.143,108.204895
1425518133.158,112.759346
1425518133.174,113.56244
1425518133.19,110.194115
1425518133.205,102.79402
1425518133.221,92.07402
1425518133.236,79.07012
1425518133.252,64.90988
1425518133.268,50.484634
1425518133.283,36.447617
1425518133.299,23.196913
1425518133.315,11.049845
1425518133.33,0.26130295
1425518133.346,-8.943893
1425518133.361,-16.443699
1425518133.377,-22.207073
1425518133.393,-26.232803
1425518133.408,-28.583385
1425518133.424,-29.45414
1425518133.44,-29.191307
1425518133.455,-28.319931
1425518133.471,-27.325844
1425518133.486,-26.50698
1425518133.502,-25.768936
1425518133.518,-24.678055
1425518133.533,-22.600716
1425518133.549,-18.99855
1425518133.565,-13.545776
1425518133.58,-6.1815796
1425518133.596,2.9439392
1425518133.612,13.444656
1425518133.627,24.713715
1425518133.643,35.899765
1425518133.658,46.052475
1425518133.674,54.3105
1425518133.69,60.184113
1425518133.705,63.656647
1425518133.721,65.161835
1425518133.737,65.3828
1425518133.752,65.05769
1425518133.768,64.81795
1425518133.783,65.08392
1425518133.799,66.02019
1425518133.815,67.50354
1425518133.83,69.100006
1425518133.846,70.26042
1425518133.862,70.49309
1425518133.877,69.63696
1425518133.893,67.96176
1425518133.908,66.15564
1425518133.924,65.004715
1425518133.94,65.07565
1425518133.955,66.4892
1425518133.971,68.86369
1425518133.987,71.51547
1425518134.002,73.71306
1425518134.018,74.95984
1425518134.033,75.16002
1425518134.049,74.60286
1425518134.065,73.85652
1425518134.08,73.49129
1425518134.096,73.8526
1425518134.112,74.85637
1425518134.127,75.984375
1425518134.143,76.43169
1425518134.158,75.38364
1425518134.174,72.27556
1425518134.19,66.9767
1425518134.205,59.768585
1425518134.221,51.2959
1425518134.237,42.333664
1425518134.252,33.679672
1425518134.268,25.944641
1425518134.283,19.510666
1425518134.299,14.417648
1425518134.315,10.446747
1425518134.33,7.170807
1425518134.346,4.1243744
1425518134.362,0.9505005
1425518134.377,-2.4682007
1425518134.393,-6.0357513
1425518134.408,-9.482582
1425518134.424,-12.527428
1425518134.44,-14.9787445
1425518134.455,-16.83561
1425518134.471,-18.266006
1425518134.487,-19.559578
1425518134.502,-20.983177
1425518134.518,-22.725914
1425518134.533,-24.829819
1425518134.549,-27.269241
1425518134.565,-29.967384
1425518134.58,-32.89955
1425518134.596,-36.010143
1425518134.612,-39.20314
1425518134.627,-42.275776
1425518134.643,-44.961952
1425518134.658,-47.032772
1425518134.674,-48.40199
1425518134.69,-49.1552
1425518134.705,-49.496082
1425518134.721,-49.634865
1425518134.737,-49.658073
1425518134.752,-49.512722
1425518134.768,-49.036514
1425518134.783,-48.043518
1425518134.799,-46.437496
1425518134.815,-44.254047
1425518134.83,-41.66432
1425518134.846,-38.88826
1425518134.862,-36.141853
1425518134.877,-33.5527
1425518134.893,-31.092295
1425518134.908,-28.618217
1425518134.924,-25.96183
1425518134.94,-23.022667
1425518134.955,-19.848839
1425518134.971,-16.594522
1425518134.987,-13.455313
1425518135.002,-10.566643
1425518135.018,-7.9504013
1425518135.033,-5.456028
1425518135.049,-2.8557014
1425518135.065,0.12286377
1425518135.08,3.6581955
1425518135.096,7.744774
1425518135.112,12.0629425
1425518135.127,15.998058
1425518135.143,18.77826
1425518135.158,19.717827
1425518135.174,18.477142
1425518135.19,15.130619
1425518135.205,10.143387
1425518135.221,4.1635246
1425518135.237,-2.1704407
1425518135.252,-8.318077
1425518135.268,-13.863571
1425518135.283,-18.481102
1425518135.299,-21.956535
1425518135.315,-24.201172
1425518135.33,-25.315868
1425518135.346,-25.512424
1425518135.362,-25.078342
1425518135.377,-24.251766
1425518135.393,-23.238232
1425518135.408,-22.206676
1425518135.424,-21.348427
1425518135.44,-20.838078
1425518135.455,-20.789787
1425518135.471,-21.18295
1425518135.487,-21.884663
1425518135.502,-22.729034
1425518135.518,-23.575329
1425518135.533,-24.333115
1425518135.549,-24.950916
1425518135.565,-25.353077
1425518135.58,-25.45758
1425518135.596,-25.170235
1425518135.612,-24.484013
1425518135.627,-23.449028
1425518135.643,-22.172623
1425518135.658,-20.71421
1425518135.674,-19.134502
1425518135.69,-17.454979
1425518135.705,-15.700657
1425518135.721,-13.876759
1425518135.737,-11.969517
1425518135.752,-9.908722
1425518135.768,-7.6126213
1425518135.783,-5.0669556
1425518135.799,-2.351303
1425518135.815,0.3415451
1425518135.83,2.8184814
1425518135.846,4.9617424
1425518135.862,6.7762184
1425518135.877,8.387272
1425518135.893,9.925823
1425518135.908,11.518652
1425518135.924,13.255438
1425518135.94,15.233469
1425518135.955,17.524399
1425518135.971,20.14787
1425518135.987,22.998016
1425518136.002,25.860392
1425518136.018,28.46156
1425518136.033,30.643875
1425518136.049,32.449223
1425518136.065,34.15052
1425518136.08,36.112625
1425518136.096,38.615944
1425518136.112,41.62742
1425518136.127,44.70939
1425518136.143,47.0793
1425518136.158,47.85163
1425518136.174,46.311035
1425518136.19,42.168068
1425518136.205,35.64509
1425518136.221,27.415848
1425518136.237,18.349808
1425518136.252,9.316282
1425518136.268,0.99476624
1425518136.284,-6.1851425
1425518136.299,-12.00037
1425518136.315,-16.368374
1425518136.33,-19.340725
1425518136.346,-21.085234
1425518136.362,-21.891762
1425518136.377,-22.08907
1425518136.393,-21.9733
1425518136.409,-21.695457
1425518136.424,-21.284317
1425518136.44,-20.668625
1425518136.455,-19.799976
1425518136.471,-18.691269
1425518136.487,-17.453365
1425518136.502,-16.261492
1425518136.518,-15.315378
1425518136.534,-14.770184
1425518136.549,-14.712461
1425518136.565,-15.122982
1425518136.58,-15.833233
1425518136.596,-16.611391
1425518136.612,-17.190117
1425518136.627,-17.373875
1425518136.643,-17.107801
1425518136.659,-16.449322
1425518136.674,-15.531574
1425518136.69,-14.438244
1425518136.705,-13.191181
1425518136.721,-11.727819
1425518136.737,-10.001619
1425518136.752,-8.0352745
1425518136.768,-5.917782
1425518136.784,-3.7774754
1425518136.799,-1.7027817
1425518136.815,0.2847557
1425518136.83,2.2239141
1425518136.846,4.1468725
1425518136.862,6.0633707
1425518136.877,7.9553833
1425518136.893,9.800002
1425518136.909,11.599748
1425518136.924,13.377148
1425518136.94,15.170011
1425518136.955,16.949406
1425518136.971,18.663265
1425518136.987,20.247112
1425518137.002,21.718788
1425518137.018,23.173828
1425518137.034,24.837952
1425518137.049,26.923344
1425518137.065,29.518745
1425518137.08,32.44777
1425518137.096,35.243584
1425518137.112,37.216682
1425518137.127,37.64935
1425518137.143,36.00198
1425518137.159,32.114574
1425518137.174,26.23874
1425518137.19,18.96669
1425518137.205,11.057674
1425518137.221,3.2536259
1425518137.237,-3.8776436
1425518137.252,-9.987624
1425518137.268,-14.948305
1425518137.284,-18.760422
1425518137.299,-21.51802
1425518137.315,-23.335613
1425518137.33,-24.340815
1425518137.346,-24.663832
1425518137.362,-24.444008
1425518137.377,-23.80141
1425518137.393,-22.840897
1425518137.409,-21.596043
1425518137.424,-20.0672
1425518137.44,-18.246101
1425518137.455,-16.241886
1425518137.471,-14.263771
1425518137.487,-12.640126
1425518137.502,-11.641478
1425518137.518,-11.401682
1425518137.534,-11.787974
1425518137.549,-12.493853
1425518137.565,-13.13514
1425518137.58,-13.4256525
1425518137.596,-13.243028
1425518137.612,-12.631133
1425518137.627,-11.709796
1425518137.643,-10.61189
1425518137.659,-9.428771
1425518137.674,-8.245423
1425518137.69,-7.1270733
1425518137.705,-6.109149
1425518137.721,-5.1775103
1425518137.737,-4.235962
1425518137.752,-3.1372156
1425518137.768,-1.7469721
1425518137.784,0.02643776
1425518137.799,2.152748
1425518137.815,4.558819
1425518137.83,7.115142
1425518137.846,9.724525
1425518137.862,12.298115
1425518137.877,14.745999
1425518137.893,16.943909
1425518137.909,18.788605
1425518137.924,20.215908
1425518137.94,21.27954
1425518137.955,22.15569
1425518137.971,23.129208
1425518137.987,24.49798
1425518138.002,26.512762
1425518138.018,29.178444
1425518138.034,32.24968
1425518138.049,35.16969
1425518138.065,37.188652
1425518138.08,37.54381
1425518138.096,35.70232
1425518138.112,31.50755
1425518138.127,25.288223
1425518138.143,17.728699
1425518138.159,9.708988
1425518138.174,2.025896
1425518138.19,-4.7649593
1425518138.205,-10.420433
1425518138.221,-14.948547
1425518138.237,-18.476686
1425518138.252,-21.103176
1425518138.268,-22.880463
1425518138.284,-23.784279
1425518138.299,-23.820574
1425518138.315,-23.049501
1425518138.33,-21.637613
1425518138.346,-19.79713
1425518138.362,-17.77378
1425518138.377,-15.769526
1425518138.393,-13.967407
1425518138.409,-12.478621
1425518138.424,-11.384241
1425518138.44,-10.7224045
1425518138.455,-10.475212
1425518138.471,-10.568514
1425518138.487,-10.917816
1425518138.502,-11.398445
1425518138.518,-11.923178
1425518138.534,-12.379568
1425518138.549,-12.674654
1425518138.565,-12.707743
1425518138.58,-12.432985
1425518138.596,-11.831694
1425518138.612,-10.945038
1425518138.627,-9.810141
1425518138.643,-8.4858055
1425518138.659,-6.9961967
1425518138.674,-5.418127
1425518138.69,-3.8413773
1425518138.705,-2.3570232
1425518138.721,-0.9791107
1425518138.737,0.39143372
1425518138.752,1.938158
1425518138.768,3.8092937
1425518138.784,6.056551
1425518138.799,8.528906
1425518138.815,10.98419
1425518138.83,13.14818
1425518138.846,14.872557
1425518138.862,16.166304
1425518138.877,17.163265
1425518138.893,18.060022
1425518138.909,19.091946
1425518138.924,20.493658
1425518138.94,22.457546
1425518138.956,25.02816
1425518138.971,28.011467
1425518138.987,30.818127
1425518139.002,32.62539
1425518139.018,32.56488
1425518139.034,30.070919
1425518139.049,25.117441
1425518139.065,18.290724
1425518139.08,10.517351
1425518139.096,2.7945137
1425518139.112,-4.1458282
1425518139.127,-9.957354
1425518139.143,-14.631611
1425518139.159,-18.250544
1425518139.174,-20.905478
1425518139.19,-22.576332
1425518139.206,-23.222282
1425518139.221,-22.898829
1425518139.237,-21.785034
1425518139.252,-20.153784
1425518139.268,-18.281366
1425518139.284,-16.341333
1425518139.299,-14.395611
1425518139.315,-12.448767
1425518139.331,-10.576952
1425518139.346,-8.920769
1425518139.362,-7.751732
1425518139.377,-7.2837944
1425518139.393,-7.604496
1425518139.409,-8.594128
1425518139.424,-9.963638
1425518139.44,-11.323936
1425518139.456,-12.369289
1425518139.471,-12.892273
1425518139.487,-12.865086
1425518139.502,-12.376865
1425518139.518,-11.562294
1425518139.534,-10.553226
1425518139.549,-9.445148
1425518139.565,-8.319164
1425518139.581,-7.230049
1425518139.596,-6.236065
1425518139.612,-5.354603
1425518139.627,-4.5179825
1425518139.643,-3.5750923
1425518139.659,-2.3106918
1425518139.674,-0.58193207
1425518139.69,1.6183052
1425518139.706,4.110691
1425518139.721,6.584507
1425518139.737,8.727142
1425518139.752,10.374241
1425518139.768,11.589533
1425518139.784,12.585434
1425518139.799,13.667221
1425518139.815,15.076019
1425518139.831,16.920736
1425518139.846,19.167374
1425518139.862,21.636122
1425518139.877,24.017714
1425518139.893,25.866325
1425518139.909,26.695435
1425518139.924,26.061493
1425518139.94,23.756517
1425518139.956,19.85728
1425518139.971,14.750996
1425518139.987,8.98419
1425518140.002,3.1038342
1425518140.018,-2.4768639
1425518140.034,-7.4606495
1425518140.049,-11.663399
1425518140.065,-14.946373
1425518140.081,-17.215626
1425518140.096,-18.458382
1425518140.112,-18.79159
1425518140.127,-18.424442
1425518140.143,-17.612967
1425518140.159,-16.539095
1425518140.174,-15.256737
1425518140.19,-13.73345
1425518140.206,-11.923405
1425518140.221,-9.855207
1425518140.237,-7.700886
1425518140.252,-5.7502594
1425518140.268,-4.31501
1425518140.284,-3.6090145
1425518140.299,-3.6638508
1425518140.315,-4.3020096
1425518140.331,-5.1890182
1425518140.346,-5.9746513
1425518140.362,-6.424755
1425518140.377,-6.4566154
1425518140.393,-6.1526756
1425518140.409,-5.6526318
1425518140.424,-5.079708
1425518140.44,-4.4429893
1425518140.456,-3.6735916
1425518140.471,-2.6572914
1425518140.487,-1.3137321
1425518140.502,0.3757515
1425518140.518,2.3320084
1425518140.534,4.439083
1425518140.549,6.5719185
1425518140.565,8.61422
1425518140.581,10.49021
1425518140.596,12.158768
1425518140.612,13.604771
1425518140.627,14.879847
1425518140.643,16.065998
1425518140.659,17.362484
1425518140.674,18.966457
1425518140.69,21.009773
1425518140.706,23.368956
1425518140.721,25.632437
1425518140.737,27.113205
1425518140.752,27.08116
1425518140.768,25.013811
1425518140.784,20.872187
1425518140.799,15.093523
1425518140.815,8.462734
1425518140.831,1.8012772
1425518140.846,-4.271864
1425518140.862,-9.458237
1425518140.877,-13.695164
1425518140.893,-17.044832
1425518140.909,-19.513264
1425518140.924,-21.09673
1425518140.94,-21.774757
1425518140.956,-21.621475
1425518140.971,-20.764458
1425518140.987,-19.40324
1425518141.002,-17.7038
1425518141.018,-15.796986
1425518141.034,-13.780144
1425518141.049,-11.778492
1425518141.065,-9.958046
1425518141.081,-8.522957
1425518141.096,-7.663826
1425518141.112,-7.4706573
1425518141.127,-7.8746033
1425518141.143,-8.652832
1425518141.159,-9.459057
1425518141.174,-9.957432
1425518141.19,-9.912815
1425518141.206,-9.29583
1425518141.221,-8.24971
1425518141.237,-7.053692
1425518141.252,-5.936554
1425518141.268,-5.0174026
1425518141.284,-4.2318
1425518141.299,-3.391222
1425518141.315,-2.2744083
1425518141.331,-0.7442398
1425518141.346,1.2382832
1425518141.362,3.6089878
1425518141.377,6.2195625
1425518141.393,8.878304
1425518141.409,11.41411
1425518141.424,13.6723175
1425518141.44,15.609549
1425518141.456,17.290337
1425518141.471,18.935682
1425518141.487,20.783106
1425518141.502,22.98908
1425518141.518,25.4499
1425518141.534,27.785065
1425518141.549,29.380959
1425518141.565,29.600626
1425518141.581,27.977867
1425518141.596,24.409492
1425518141.612,19.144796
1425518141.628,12.72361
1425518141.643,5.8014946
1425518141.659,-1.0088196
1425518141.674,-7.2040176
1425518141.69,-12.40844
1425518141.706,-16.378407
1425518141.721,-18.923288
1425518141.737,-20.037086
1425518141.752,-19.873833
1425518141.768,-18.793755
1425518141.784,-17.20686
1425518141.799,-15.515511
1425518141.815,-13.941101
1425518141.831,-12.544491
1425518141.846,-11.262402
1425518141.862,-10.044106
1425518141.878,-8.911488
1425518141.893,-7.964859
1425518141.909,-7.29797
1425518141.924,-6.9065475
1425518141.94,-6.7164383
1425518141.956,-6.623348
1425518141.971,-6.5351753
1425518141.987,-6.4558907
1425518142.003,-6.395912
1425518142.018,-6.3319855
1425518142.034,-6.147583
1425518142.049,-5.726898
1425518142.065,-4.949856
1425518142.081,-3.813099
1425518142.096,-2.3701477
1425518142.112,-0.6905556
1425518142.128,1.154316
1425518142.143,3.1324043
1425518142.159,5.1990623
1425518142.174,7.2901497
1425518142.19,9.305519
1425518142.206,11.152073
1425518142.221,12.796749
1425518142.237,14.264687
1425518142.253,15.683987
1425518142.268,17.215485
1425518142.284,19.06094
1425518142.299,21.35918
1425518142.315,24.136913
1425518142.331,27.164234
1425518142.346,29.986374
1425518142.362,31.944118
1425518142.378,32.358894
1425518142.393,30.7458
1425518142.409,26.986729
1425518142.424,21.383194
1425518142.44,14.590656
1425518142.456,7.3829956
1425518142.471,0.49298477
1425518142.487,-5.574749
1425518142.503,-10.539806
1425518142.518,-14.359928
1425518142.534,-17.081913
1425518142.549,-18.826698
1425518142.565,-19.671894
1425518142.581,-19.719612
1425518142.596,-19.064564
1425518142.612,-17.883415
1425518142.628,-16.367409
1425518142.643,-14.749374
1425518142.659,-13.210522
1425518142.674,-11.845089
1425518142.69,-10.687
1425518142.706,-9.748585
1425518142.721,-9.041397
1425518142.737,-8.645851
1425518142.753,-8.618038
1425518142.768,-8.978497
1425518142.784,-9.631851
1425518142.799,-10.39753
1425518142.815,-11.00983
1425518142.831,-11.262062
1425518142.846,-11.013504
1425518142.862,-10.267998
1425518142.878,-9.144501
1425518142.893,-7.8036156
1425518142.909,-6.387703
1425518142.924,-4.9717674
1425518142.94,-3.5415344
1425518142.956,-2.02454
1425518142.971,-0.3430977
1425518142.987,1.5220184
1425518143.003,3.5199203
1425518143.018,5.543312
1425518143.034,7.5126114
1425518143.049,9.380295
1425518143.065,11.183872
1425518143.081,12.959465
1425518143.096,14.783905
1425518143.112,16.710209
1425518143.128,18.803028
1425518143.143,21.071812
1425518143.159,23.420147
1425518143.174,25.54774
1425518143.19,26.953796
1425518143.206,27.036385
1425518143.221,25.379421
1425518143.237,21.869175
1425518143.253,16.824879
1425518143.268,10.819824
1425518143.284,4.493164
1425518143.299,-1.6444016
1425518143.315,-7.2867966
1425518143.331,-12.267746
1425518143.346,-16.453865
1425518143.362,-19.68277
1425518143.378,-21.7928
1425518143.393,-22.727737
1425518143.409,-22.534912
1425518143.424,-21.391823
1425518143.44,-19.545517
1425518143.456,-17.314972
1425518143.471,-14.995934
1425518143.487,-12.9314575
1425518143.503,-11.371826
1425518143.518,-10.463211
1425518143.534,-10.186317
1425518143.549,-10.389961
1425518143.565,-10.87191
1425518143.581,-11.48172
1425518143.596,-12.108879
1425518143.612,-12.67379
1425518143.628,-13.096062
1425518143.643,-13.284409
1425518143.659,-13.160416
1425518143.674,-12.723679
1425518143.69,-12.047432
1425518143.706,-11.265984
1425518143.721,-10.456512
1425518143.737,-9.636993
1425518143.753,-8.688698
1425518143.768,-7.45665
1425518143.784,-5.7567444
1425518143.799,-3.4959564
1425518143.815,-0.7297058
1425518143.831,2.3435898
1425518143.846,5.424759
1425518143.862,8.171532
1425518143.878,10.326866
1425518143.893,11.791908
1425518143.909,12.665298
1425518143.924,13.225204
1425518143.94,13.907425
1425518143.956,15.148537
1425518143.971,17.33857
1425518143.987,20.590393
1425518144.003,24.630798
1425518144.018,28.746613
1425518144.034,31.950554
1425518144.049,33.253838
1425518144.065,32.042442
1425518144.081,28.269058
1425518144.096,22.438354
1425518144.112,15.413147
1425518144.128,8.084061
1425518144.143,1.1446075
1425518144.159,-4.94384
1425518144.174,-9.927811
1425518144.19,-13.673439
1425518144.206,-16.133957
1425518144.221,-17.359299
1425518144.237,-17.535332
1425518144.253,-16.925896
1425518144.268,-15.809944
1425518144.284,-14.42511
1425518144.299,-12.928169
1425518144.315,-11.422501
1425518144.331,-10.016602
1425518144.346,-8.792053
1425518144.362,-7.8598557
1425518144.378,-7.3117065
1425518144.393,-7.2125854
1425518144.409,-7.592537
1425518144.424,-8.414299
1425518144.44,-9.544556
1425518144.456,-10.762032
1425518144.471,-11.7836075
1425518144.487,-12.375847
1425518144.503,-12.416321
1425518144.518,-11.929848
1425518144.534,-11.018234
1425518144.55,-9.841492
1425518144.565,-8.475609
1425518144.581,-6.967186
1425518144.596,-5.3242493
1425518144.612,-3.591362
1425518144.628,-1.8134689
1425518144.643,-0.021408081
1425518144.659,1.7875671
1425518144.675,3.6682968
1425518144.69,5.6588974
1425518144.706,7.7148666
1425518144.721,9.72554
1425518144.737,11.541946
1425518144.753,13.0707855
1425518144.768,14.339813
1425518144.784,15.544144
1425518144.8,16.937874
1425518144.815,18.76358
1425518144.831,21.054588
1425518144.846,23.583664
1425518144.862,25.825157
1425518144.878,27.08834
1425518144.893,26.701706
1425518144.909,24.280998
1425518144.925,19.877975
1425518144.94,13.951698
1425518144.956,7.2271194
1425518144.971,0.44104767
1425518144.987,-5.86306
1425518145.003,-11.383011
1425518145.018,-15.992943
1425518145.034,-19.604813
1425518145.05,-22.116653
1425518145.065,-23.427933
1425518145.081,-23.54757
1425518145.096,-22.6064
1425518145.112,-20.9096
1425518145.128,-18.803925
1425518145.143,-16.622597
1425518145.159,-14.603554
1425518145.175,-12.928497
1425518145.19,-11.682831
1425518145.206,-10.931015
1425518145.221,-10.686821
1425518145.237,-10.913803
1425518145.253,-11.518997
1425518145.268,-12.35363
1425518145.284,-13.198006
1425518145.3,-13.816666
1425518145.315,-14.00251
1425518145.331,-13.657616
1425518145.346,-12.81588
1425518145.362,-11.658714
1425518145.378,-10.389641
1425518145.393,-9.178474
1425518145.409,-8.0653
1425518145.425,-6.9814186
1425518145.44,-5.789978
1425518145.456,-4.377392
1425518145.471,-2.6345901
1425518145.487,-0.49864578
1425518145.503,2.0486526
1425518145.518,4.9456177
1425518145.534,8.032688
1425518145.55,11.0133705
1425518145.565,13.585262
1425518145.581,15.522335
1425518145.596,16.79596
1425518145.612,17.581493
1425518145.628,18.178001
1425518145.643,18.910236
1425518145.659,20.09306
1425518145.675,21.927025
1425518145.69,24.479565
1425518145.706,27.550312
1425518145.721,30.656727
1425518145.737,33.019638
1425518145.753,33.784916
1425518145.768,32.276333
1425518145.784,28.307678
1425518145.8,22.2514
1425518145.815,14.935753
1425518145.831,7.345516
1425518145.846,0.33275223
1425518145.862,-5.577282
1425518145.878,-10.192814
1425518145.893,-13.569561
1425518145.909,-15.859856
1425518145.925,-17.229553
1425518145.94,-17.812748
1425518145.956,-17.739689
1425518145.971,-17.090244
1425518145.987,-15.971157
1425518146.003,-14.514259
1425518146.018,-12.903919
1425518146.034,-11.348831
1425518146.05,-10.062248
1425518146.065,-9.210247
1425518146.081,-8.878811
1425518146.096,-9.054935
1425518146.112,-9.66013
1425518146.128,-10.562096
1425518146.143,-11.616421
1425518146.159,-12.650501
1425518146.175,-13.498482
1425518146.19,-13.985283
1425518146.206,-14.000622
1425518146.221,-13.458862
1425518146.237,-12.381889
1425518146.253,-10.848637
1425518146.268,-9.025478
1425518146.284,-7.0967636
1425518146.3,-5.249069
1425518146.315,-3.599102
1425518146.331,-2.1736374
1425518146.346,-0.91968155
1425518146.362,0.26290894
1425518146.378,1.5014191
1425518146.393,2.9123154
1425518146.409,4.592636
1425518146.425,6.575489
1425518146.44,8.829102
1425518146.456,11.180611
1425518146.471,13.390686
1425518146.487,15.197178
1425518146.503,16.476234
1425518146.518,17.30717
1425518146.534,17.996876
1425518146.55,18.94094
1425518146.565,20.479946
1425518146.581,22.736069
1425518146.596,25.578548
1425518146.612,28.603119
1425518146.628,31.249535
1425518146.643,32.875195
1425518146.659,32.894028
1425518146.675,30.903267
1425518146.69,26.82957
1425518146.706,20.953487
1425518146.721,13.901375
1425518146.737,6.472889
1425518146.753,-0.55711365
1425518146.768,-6.634369
1425518146.784,-11.461983
1425518146.8,-15.002453
1425518146.815,-17.347271
1425518146.831,-18.64827
1425518146.846,-19.051365
1425518146.862,-18.721943
1425518146.878,-17.824375
1425518146.893,-16.57283
1425518146.909,-15.1786995
1425518146.925,-13.84745
1425518146.94,-12.7427635
1425518146.956,-11.981522
1425518146.971,-11.582706
1425518146.987,-11.532139
1425518147.003,-11.779648
1425518147.018,-12.271091
1425518147.034,-12.957264
1425518147.05,-13.786598
1425518147.065,-14.657379
1425518147.081,-15.440441
1425518147.096,-15.986572
1425518147.112,-16.168694
1425518147.128,-15.935257
1425518147.143,-15.301289
1425518147.159,-14.296913
1425518147.175,-12.967743
1425518147.19,-11.33054
1425518147.206,-9.42606
1425518147.222,-7.3012047
1425518147.237,-5.093376
1425518147.253,-2.9531937
1425518147.268,-1.0423088
1425518147.284,0.5124512
1425518147.3,1.6841545
1425518147.315,2.5509338
1425518147.331,3.2861366
1425518147.347,4.152466
1425518147.362,5.3823776
1425518147.378,7.087185
1425518147.393,9.19194
1425518147.409,11.441822
1425518147.425,13.477612
1425518147.44,15.041561
1425518147.456,16.04346
1425518147.472,16.65514
1425518147.487,17.21389
1425518147.503,18.122196
1425518147.518,19.693321
1425518147.534,22.061447
1425518147.55,25.086464
1425518147.565,28.316513
1425518147.581,31.015736
1425518147.597,32.31474
1425518147.612,31.460014
1425518147.628,28.069294
1425518147.643,22.313126
1425518147.659,14.874367
1425518147.675,6.752491
1425518147.69,-1.0628929
1425518147.706,-7.8353767
1425518147.722,-13.143459
1425518147.737,-16.890858
1425518147.753,-19.133366
1425518147.768,-20.054276
1425518147.784,-19.875992
1425518147.8,-18.89333
1425518147.815,-17.447605
1425518147.831,-15.878349
1425518147.847,-14.474243
1425518147.862,-13.417973
1425518147.878,-12.801472
1425518147.893,-12.614353
1425518147.909,-12.726482
1425518147.925,-12.954521
1425518147.94,-13.113804
1425518147.956,-13.097202
1425518147.972,-12.922123
1425518147.987,-12.764458
1425518148.003,-12.802078
1425518148.018,-13.125484
1425518148.034,-13.639744
1425518148.05,-14.107147
1425518148.065,-14.225121
1425518148.081,-13.821217
1425518148.097,-12.8504715
1425518148.112,-11.44912
1425518148.128,-9.834145
1425518148.143,-8.225777
1425518148.159,-6.785801
1425518148.175,-5.5991974
1425518148.19,-4.6305046
1425518148.206,-3.756279
1425518148.222,-2.8137054
1425518148.237,-1.6698647
1425518148.253,-0.2986412
1425518148.268,1.18824
1425518148.284,2.6640396
1425518148.3,4.03463
1425518148.315,5.3268776
1425518148.331,6.6396713
1425518148.347,8.068356
1425518148.362,9.570644
1425518148.378,11.001904
1425518148.393,12.170742
1425518148.409,12.979694
1425518148.425,13.499512
1425518148.44,13.952217
1425518148.456,14.580284
1425518148.472,15.626732
1425518148.487,17.224773
1425518148.503,19.443169
1425518148.518,22.229671
1425518148.534,25.414284
1425518148.55,28.592728
1425518148.565,31.171429
1425518148.581,32.434456
1425518148.597,31.756382
1425518148.612,28.809887
1425518148.628,23.725067
1425518148.643,17.039562
1425518148.659,9.577034
1425518148.675,2.2153664
1425518148.69,-4.3305206
1425518148.706,-9.634953
1425518148.722,-13.557198
1425518148.737,-16.179806
1425518148.753,-17.681133
1425518148.768,-18.254162
1425518148.784,-18.052055
1425518148.8,-17.224792
1425518148.815,-15.923279
1425518148.831,-14.3736725
1425518148.847,-12.82766
1425518148.862,-11.536926
1425518148.878,-10.667858
1425518148.893,-10.275806
1425518148.909,-10.297569
1425518148.925,-10.613434
1425518148.94,-11.100815
1425518148.956,-11.681934
1425518148.972,-12.328655
1425518148.987,-13.048641
1425518149.003,-13.811077
1425518149.018,-14.539379
1425518149.034,-15.059296
1425518149.05,-15.166752
1425518149.065,-14.714191
1425518149.081,-13.679119
1425518149.097,-12.203686
1425518149.112,-10.592583
1425518149.128,-9.140982
1425518149.143,-8.031752
1425518149.159,-7.266878
1425518149.175,-6.655054
1425518149.19,-5.9417477
1425518149.206,-4.923706
1425518149.222,-3.5223503
1425518149.237,-1.8225441
1425518149.253,0.0049705505
1425518149.268,1.7317543
1425518149.284,3.2201748
1425518149.3,4.394699
1425518149.315,5.308956
1425518149.331,6.1084023
1425518149.347,6.9502125
1425518149.362,7.9578037
1425518149.378,9.164757
1425518149.393,10.528776
1425518149.409,12.009651
1425518149.425,13.598623
1425518149.44,15.305016
1425518149.456,17.095137
1425518149.472,18.906805
1425518149.487,20.609512
1425518149.503,22.180515
1425518149.518,23.718075
1425518149.534,25.463507
1425518149.55,27.57539
1425518149.565,29.940771
1425518149.581,32.059708
1425518149.597,33.181572
1425518149.612,32.595505
1425518149.628,29.953905
1425518149.643,25.384117
1425518149.659,19.447086
1425518149.675,12.84137
1425518149.69,6.1815166
1425518149.706,-0.10556984
1425518149.722,-5.7550316
1425518149.737,-10.5585575
1425518149.753,-14.297688
1425518149.768,-16.80363
1425518149.784,-17.9367
1425518149.8,-17.748451
1425518149.815,-16.433765
1425518149.831,-14.372095
1425518149.847,-12.0064125
1425518149.862,-9.834599
1425518149.878,-8.262289
1425518149.894,-7.527651
1425518149.909,-7.6509075
1425518149.925,-8.45566
1425518149.94,-9.657213
1425518149.956,-10.976557
1425518149.972,-12.169882
1425518149.987,-13.091942
1425518150.003,-13.666187
1425518150.018,-13.889872
1425518150.034,-13.795357
1425518150.05,-13.487804
1425518150.065,-13.062368
1425518150.081,-12.60865
1425518150.097,-12.170746
1425518150.112,-11.738699
1425518150.128,-11.273933
1425518150.144,-10.713173
1425518150.159,-9.931133
1425518150.175,-8.786026
1425518150.19,-7.1753044
1425518150.206,-5.101555
1425518150.222,-2.7629623
1425518150.237,-0.5077648
1425518150.253,1.3028183
1425518150.269,2.473503
1425518150.284,3.0910606
1425518150.3,3.4787292
1425518150.315,4.028919
1425518150.331,4.9519157
1425518150.347,6.2465706
1425518150.362,7.69643
1425518150.378,9.0830345
1425518150.394,10.296238
1425518150.409,11.373726
1425518150.425,12.412384
1425518150.44,13.468082
1425518150.456,14.503582
1425518150.472,15.46088
1425518150.487,16.370598
1425518150.503,17.413956
1425518150.519,18.865856
1425518150.534,20.958061
1425518150.55,23.6418
1425518150.565,26.477615
1425518150.581,28.667618
1425518150.597,29.337265
1425518150.612,27.826061
1425518150.628,24.001183
1425518150.644,18.267742
1425518150.659,11.464893
1425518150.675,4.4933662
1425518150.69,-1.9473648
1425518150.706,-7.5122643
1425518150.722,-12.132389
1425518150.737,-15.875023
1425518150.753,-18.75829
1425518150.769,-20.730743
1425518150.784,-21.725338
1425518150.8,-21.779827
1425518150.815,-21.082924
1425518150.831,-19.935833
1425518150.847,-18.665913
1425518150.862,-17.525513
1425518150.878,-16.65105
1425518150.894,-16.11074
1425518150.909,-15.899544
1425518150.925,-15.992134
1425518150.94,-16.31586
1425518150.956,-16.792912
1425518150.972,-17.317757
1425518150.987,-17.808037
1425518151.003,-18.218369
1425518151.019,-18.5476
1425518151.034,-18.786568
1425518151.05,-18.921406
1425518151.065,-18.864754
1425518151.081,-18.496655
1425518151.097,-17.68898
1425518151.112,-16.3984
1425518151.128,-14.719776
1425518151.144,-12.880638
1425518151.159,-11.133545
1425518151.175,-9.683052
1425518151.19,-8.545441
1425518151.206,-7.573864
1425518151.222,-6.531967
1425518151.237,-5.2240257
1425518151.253,-3.6026382
1425518151.269,-1.7980919
1425518151.284,0.0016403198
1425518151.3,1.6427612
1425518151.315,3.0735168
1425518151.331,4.363844
1425518151.347,5.6472454
1425518151.362,6.996195
1425518151.378,8.428228
1425518151.394,9.863356
1425518151.409,11.206867
1425518151.425,12.398499
1425518151.44,13.465008
1425518151.456,14.496965
1425518151.472,15.666866
1425518151.487,17.15218
1425518151.503,19.088293
1425518151.519,21.507526
1425518151.534,24.348177
1425518151.55,27.373695
1425518151.565,30.185022
1425518151.581,32.253647
1425518151.597,32.990467
1425518151.612,31.898848
1425518151.628,28.777443
1425518151.644,23.799307
1425518151.659,17.557045
1425518151.675,10.8591
1425518151.69,4.4972763
1425518151.706,-1.02034
1425518151.722,-5.505892
1425518151.737,-9.08497
1425518151.753,-11.959497
1425518151.769,-14.248758
1425518151.784,-15.9452095
1425518151.8,-16.952969
1425518151.815,-17.19499
1425518151.831,-16.7564
1425518151.847,-15.842834
1425518151.862,-14.753904
1425518151.878,-13.794036
1425518151.894,-13.17427
1425518151.909,-12.963287
1425518151.925,-13.083545
1425518151.94,-13.3417425
1425518151.956,-13.515744
1425518151.972,-13.460209
1425518151.987,-13.168265
1425518152.003,-12.802332
1425518152.019,-12.621055
1425518152.034,-12.7617235
1425518152.05,-13.186956
1425518152.065,-13.658042
1425518152.081,-13.847211
1425518152.097,-13.501638
1425518152.112,-12.592736
1425518152.128,-11.2873125
1425518152.144,-9.870225
1425518152.159,-8.567741
1425518152.175,-7.4453855
1425518152.19,-6.3941765
1425518152.206,-5.258278
1425518152.222,-3.891255
1425518152.237,-2.2776992
1425518152.253,-0.52224517
1425518152.269,1.1841052
1425518152.284,2.6697836
1425518152.3,3.8523638
1425518152.315,4.7910643
1425518152.331,5.6459517
1425518152.347,6.5910816
1425518152.362,7.729846
1425518152.378,9.032078
1425518152.394,10.35267
1425518152.409,11.547184
1425518152.425,12.549261
1425518152.44,13.440613
1425518152.456,14.361514
1425518152.472,15.453716
1425518152.487,16.781082
1425518152.503,18.33424
1425518152.519,20.106495
1425518152.534,22.134487
1425518152.55,24.49018
1425518152.566,27.168964
1425518152.581,29.95117
1425518152.597,32.388885
1425518152.612,33.836403
1425518152.628,33.6838
1425518152.644,31.540535
1425518152.659,27.413828
1425518152.675,21.702868
1425518152.69,15.058985
1425518152.706,8.218708
1425518152.722,1.8047123
1425518152.737,-3.7718506
1425518152.753,-8.316577
1425518152.769,-11.786736
1425518152.784,-14.217871
1425518152.8,-15.67794
1425518152.816,-16.247528
1425518152.831,-16.068455
1425518152.847,-15.324896
1425518152.862,-14.285158
1425518152.878,-13.202103
1425518152.894,-12.301712
1425518152.909,-11.694305
1425518152.925,-11.412833
1425518152.941,-11.403795
1425518152.956,-11.59058
1425518152.972,-11.870285
1425518152.987,-12.177388
1425518153.003,-12.487302
1425518153.019,-12.823427
1425518153.034,-13.235786
1425518153.05,-13.765242
1425518153.066,-14.360363
1425518153.081,-14.921613
1425518153.097,-15.260597
1425518153.112,-15.231909
1425518153.128,-14.765276
1425518153.144,-13.932427
1425518153.159,-12.843034
1425518153.175,-11.6131935
1425518153.191,-10.289913
1425518153.206,-8.869321
1425518153.222,-7.3124847
1425518153.237,-5.6352015
1425518153.253,-3.8976345
1425518153.269,-2.223054
1425518153.284,-0.72606945
1425518153.3,0.5160675
1425518153.316,1.5078154
1425518153.331,2.298626
1425518153.347,3.0320368
1425518153.362,3.8483734
1425518153.378,4.8694763
1425518153.394,6.1282463
1425518153.409,7.5899925
1425518153.425,9.135082
1425518153.441,10.657936
1425518153.456,12.065323
1425518153.472,13.334808
1425518153.487,14.463652
1425518153.503,15.508392
1425518153.519,16.541912
1425518153.534,17.753418
1425518153.55,19.393656
1425518153.566,21.698154
1425518153.581,24.67751
1425518153.597,28.01049
1425518153.612,31.006662
1425518153.628,32.83007
1425518153.644,32.761246
1425518153.659,30.5059
1425518153.675,26.270683
1425518153.691,20.663898
1425518153.706,14.45676
1425518153.722,8.346571
1425518153.737,2.7779999
1425518153.753,-2.0235615
1425518153.769,-6.065399
1425518153.784,-9.3685055
1425518153.8,-12.008562
1425518153.816,-13.979128
1425518153.831,-15.287846
1425518153.847,-15.937389
1425518153.862,-15.9880085
1425518153.878,-15.556524
1425518153.894,-14.795027
1425518153.909,-13.822268
1425518153.925,-12.744926
1425518153.941,-11.665356
1425518153.956,-10.716436
1425518153.972,-10.054344
1425518153.987,-9.862886
1425518154.003,-10.248285
1425518154.019,-11.179174
1425518154.034,-12.473084
1425518154.05,-13.867208
1425518154.066,-15.075785
1425518154.081,-15.911966
1425518154.097,-16.232578
1425518154.112,-15.987694
1425518154.128,-15.178837
1425518154.144,-13.922512
1425518154.159,-12.420561
1425518154.175,-10.976578
1425518154.191,-9.844446
1425518154.206,-9.136938
1425518154.222,-8.72591
1425518154.237,-8.322329
1425518154.253,-7.5725956
1425518154.269,-6.2868347
1425518154.284,-4.470541
1425518154.3,-2.3452587
1425518154.316,-0.23179817
1425518154.331,1.579155
1425518154.347,2.9686108
1425518154.362,3.963255
1425518154.378,4.724121
1425518154.394,5.431305
1425518154.409,6.246641
1425518154.425,7.248169
1425518154.441,8.476093
1425518154.456,9.893532
1425518154.472,11.480129
1425518154.487,13.185816
1425518154.503,14.9420185
1425518154.519,16.688988
1425518154.534,18.416206
1425518154.55,20.177893
1425518154.566,22.092802
1425518154.581,24.247522
1425518154.597,26.590574
1425518154.612,28.8007
1425518154.628,30.337831
1425518154.644,30.567211
1425518154.659,29.039444
1425518154.675,25.66863
1425518154.691,20.772821
1425518154.706,14.964045
1425518154.722,8.939907
1425518154.737,3.2456894
1425518154.753,-1.7814064
1425518154.769,-6.032297
1425518154.784,-9.497078
1425518154.8,-12.211601
1425518154.816,-14.184879
1425518154.831,-15.449223
1425518154.847,-16.04658
1425518154.862,-16.065811
1425518154.878,-15.61422
1425518154.894,-14.816191
1425518154.909,-13.795187
1425518154.925,-12.688087
1425518154.941,-11.638117
1425518154.956,-10.794647
1425518154.972,-10.288557
1425518154.987,-10.217722
1425518155.003,-10.613935
1425518155.019,-11.437252
1425518155.034,-12.549488
1425518155.05,-13.735819
1425518155.066,-14.767483
1425518155.081,-15.473745
1425518155.097,-15.731949
1425518155.112,-15.542152
1425518155.128,-14.975113
1425518155.144,-14.131689
1425518155.159,-13.136126
1425518155.175,-12.092756
1425518155.191,-11.054871
1425518155.206,-10.029722
1425518155.222,-8.936184
1425518155.237,-7.642803
1425518155.253,-6.045208
1425518155.269,-4.1147385
1425518155.284,-1.9362087
1425518155.3,0.28580856
1425518155.316,2.3365898
1425518155.331,4.074774
1425518155.347,5.4961414
1425518155.362,6.717039
1425518155.378,7.933422
1425518155.394,9.272493
1425518155.409,10.793083
1425518155.425,12.4146385
1425518155.441,14.020538
1425518155.456,15.458302
1425518155.472,16.675692
1425518155.488,17.714453
1425518155.503,18.712189
1425518155.519,19.86118
1425518155.534,21.322384
1425518155.55,23.141167
1425518155.566,25.217367
1425518155.581,27.282118
1425518155.597,28.986998
1425518155.613,29.936392
1425518155.628,29.790537
1425518155.644,28.29938
1425518155.659,25.413404
1425518155.675,21.251997
1425518155.691,16.12666
1425518155.706,10.47855
1425518155.722,4.7889805
1425518155.738,-0.50240517
1425518155.753,-5.056484
1425518155.769,-8.639908
1425518155.784,-11.106283
1425518155.8,-12.401688
1425518155.816,-12.602814
1425518155.831,-11.935187
1425518155.847,-10.733413
1425518155.863,-9.4095745
1425518155.878,-8.304946
1425518155.894,-7.6278143
1425518155.909,-7.409601
1425518155.925,-7.5606546
1425518155.941,-7.862462
1425518155.956,-8.127187
1425518155.972,-8.159243
1425518155.988,-7.9149494
1425518156.003,-7.4811735
1425518156.019,-7.1289415
1425518156.034,-7.113168
1425518156.05,-7.620205
1425518156.066,-8.563073
1425518156.081,-9.651234
1425518156.097,-10.484537
1425518156.113,-10.78355
1425518156.128,-10.502713
1425518156.144,-9.816273
1425518156.159,-8.899326
1425518156.175,-7.8208313
1425518156.191,-6.51087
1425518156.206,-4.8795714
1425518156.222,-2.9597807
1425518156.238,-0.95655954
1425518156.253,0.8840228
1425518156.269,2.4089684
1425518156.284,3.6938865
1425518156.3,4.9749928
1425518156.316,6.478793
1425518156.331,8.23683
1425518156.347,10.116439
1425518156.363,11.836891
1425518156.378,13.20182
1425518156.394,14.223442
1425518156.409,15.137224
1425518156.425,16.270336
1425518156.441,17.882181
1425518156.456,19.98462
1425518156.472,22.283085
1425518156.488,24.247192
1425518156.503,25.25499
1425518156.519,24.774372
1425518156.534,22.614395
1425518156.55,18.90625
1425518156.566,14.102937
1425518156.581,8.760413
1425518156.597,3.3947678
1425518156.613,-1.6575832
1425518156.628,-6.2289543
1425518156.644,-10.269751
1425518156.659,-13.736597
1425518156.675,-16.540293
1425518156.691,-18.58058
1425518156.706,-19.770857
1425518156.722,-20.085379
1425518156.738,-19.60684
1425518156.753,-18.511068
1425518156.769,-17.070375
1425518156.784,-15.577843
1425518156.8,-14.310848
1425518156.816,-13.453791
1425518156.831,-13.091757
1425518156.847,-13.185591
1425518156.863,-13.638765
1425518156.878,-14.308674
1425518156.894,-15.0899315
1425518156.909,-15.868942
1425518156.925,-16.563448
1425518156.941,-17.063562
1425518156.956,-17.269337
1425518156.972,-17.101608
1425518156.988,-16.55845
1425518157.003,-15.718279
1425518157.019,-14.6917
1425518157.034,-13.583094
1425518157.05,-12.444246
1425518157.066,-11.241156
1425518157.081,-9.922424
1425518157.097,-8.414896
1425518157.113,-6.7119026
1425518157.128,-4.8431225
1425518157.144,-2.9094238
1425518157.159,-0.9878998
1425518157.175,0.86507416
1425518157.191,2.6455193
1425518157.206,4.370455
1425518157.222,6.050913
1425518157.238,7.693142
1425518157.253,9.301386
1425518157.269,10.883244
1425518157.284,12.524101
1425518157.3,14.335243
1425518157.316,16.442091
1425518157.331,18.898472
1425518157.347,21.616003
1425518157.363,24.326265
1425518157.378,26.616047
1425518157.394,27.972403
1425518157.409,27.944738
1425518157.425,26.254513
1425518157.441,22.894117
1425518157.456,18.103952
1425518157.472,12.353449
1425518157.488,6.1952953
1425518157.503,0.1592102
1425518157.519,-5.371689
1425518157.534,-10.134541
1425518157.55,-14.044756
1425518157.566,-17.118965
1425518157.581,-19.440668
1425518157.597,-21.1178
1425518157.613,-22.277742
1425518157.628,-22.994167
1425518157.644,-23.312426
1425518157.659,-23.152647
1425518157.675,-22.39825
1425518157.691,-20.952929
1425518157.706,-18.86493
1425518157.722,-16.349115
1425518157.738,-13.781647
1425518157.753,-11.549604
1425518157.769,-9.953205
1425518157.784,-9.102882
1425518157.8,-8.932083
1425518157.816,-9.261328
1425518157.831,-9.89517
1425518157.847,-10.638556
1425518157.863,-11.342537
1425518157.878,-11.892338
1425518157.894,-12.1955185
1425518157.909,-12.180033
1425518157.925,-11.801374
1425518157.941,-11.015724
1425518157.956,-9.809044
1425518157.972,-8.201027
1425518157.988,-6.273838
1425518158.003,-4.173296
1425518158.019,-2.065424
1425518158.034,0.002319336
1425518158.05,2.0838375
1425518158.066,4.3409195
1425518158.081,6.8882265
1425518158.097,9.705373
1425518158.113,12.563016
1425518158.128,15.137893
1425518158.144,17.163528
1425518158.16,18.572746
1425518158.175,19.538471
1425518158.191,20.354763
1425518158.206,21.28602
1425518158.222,22.472504
1425518158.238,23.89986
1425518158.253,25.534573
1425518158.269,27.348618
1425518158.285,29.371841
1425518158.3,31.556267
1425518158.316,33.673164
1425518158.331,35.25346
1425518158.347,35.69361
1425518158.363,34.428177
1425518158.378,31.18039
1425518158.394,26.06485
1425518158.41,19.591833
1425518158.425,12.502509
1425518158.441,5.5472984
1425518158.456,-0.6940584
1425518158.472,-5.9024944
1425518158.488,-9.995832
1425518158.503,-13.055435
1425518158.519,-15.2233925
1425518158.535,-16.629433
1425518158.55,-17.404507
1425518158.566,-17.60939
1425518158.581,-17.30315
1425518158.597,-16.521387
1425518158.613,-15.381613
1425518158.628,-14.063358
1425518158.644,-12.829233
1425518158.66,-11.933186
1425518158.675,-11.547528
1425518158.691,-11.705047
1425518158.706,-12.308028
1425518158.722,-13.173818
1425518158.738,-14.130926
1425518158.753,-15.012587
1425518158.769,-15.695593
1425518158.785,-16.051527
1425518158.8,-16.002338
1425518158.816,-15.514318
1425518158.831,-14.664692
1425518158.847,-13.614174
1425518158.863,-12.556604
1425518158.878,-11.58987
1425518158.894,-10.726109
1425518158.91,-9.866272
1425518158.925,-8.922386
1425518158.941,-7.8698807
1425518158.956,-6.756645
1425518158.972,-5.638956
1425518158.988,-4.501667
1425518159.003,-3.2807455
1425518159.019,-1.8804684
1425518159.035,-0.2574072
1425518159.05,1.5276251
1425518159.066,3.3508444
1425518159.081,5.0720644
1425518159.097,6.595087
1425518159.113,7.9114122
1425518159.128,9.111533
1425518159.144,10.319706
1425518159.16,11.714391
1425518159.175,13.454469
1425518159.191,15.684631
1425518159.206,18.482853
1425518159.222,21.819473
1425518159.238,25.48345
1425518159.253,29.0788
1425518159.269,32.02027
1425518159.285,33.64457
1425518159.3,33.388107
1425518159.316,30.972292
1425518159.331,26.530931
1425518159.347,20.608974
1425518159.363,13.974091
1425518159.378,7.38536
1425518159.394,1.3591356
1425518159.41,-3.8342686
1425518159.425,-8.163976
1425518159.441,-11.61813
1425518159.456,-14.168796
1425518159.472,-15.755664
1425518159.488,-16.36834
1425518159.503,-16.152742
1425518159.519,-15.379703
1425518159.535,-14.350097
1425518159.55,-13.290142
1425518159.566,-12.299372
1425518159.581,-11.395854
1425518159.597,-10.589807
1425518159.613,-9.965427
1425518159.628,-9.655312
1425518159.644,-9.78528
1425518159.66,-10.382254
1425518159.675,-11.368374
1425518159.691,-12.528439
1425518159.706,-13.610361
1425518159.722,-14.336164
1425518159.738,-14.525005
1425518159.753,-14.076012
1425518159.769,-13.073469
1425518159.785,-11.69442
1425518159.8,-10.161404
1425518159.816,-8.668568
1425518159.831,-7.3054924
1425518159.847,-6.0447254
1425518159.863,-4.810032
1425518159.878,-3.5456848
1425518159.894,-2.2469463
1425518159.91,-0.9013901
1425518159.925,0.54621696
1425518159.941,2.234438
1425518159.956,4.2921715
1425518159.972,6.757038
1425518159.988,9.486004
1425518160.003,12.175055
1425518160.019,14.494911
1425518160.035,16.244665
1425518160.05,17.419954
1425518160.066,18.2036
1425518160.081,18.836304
1425518160.097,19.573854
1425518160.113,20.594213
1425518160.128,22.01765
1425518160.144,23.867617
1425518160.16,26.091154
1425518160.175,28.427032
1425518160.191,30.424486
1425518160.206,31.506279
1425518160.222,31.153059
1425518160.238,29.072348
1425518160.253,25.371716
1425518160.269,20.452068
1425518160.285,14.923548
1425518160.3,9.336893
1425518160.316,4.0464363
1425518160.331,-0.83628464
1425518160.347,-5.3390903
1425518160.363,-9.485025
1425518160.378,-13.187975
1425518160.394,-16.22429
1425518160.41,-18.338749
1425518160.425,-19.361277
1425518160.441,-19.302505
1425518160.456,-18.4171
1425518160.472,-17.06719
1425518160.488,-15.640484
1425518160.503,-14.413361
1425518160.519,-13.555637
1425518160.535,-13.067709
1425518160.55,-12.917309
1425518160.566,-13.03429
1425518160.581,-13.357109
1425518160.597,-13.841732
1425518160.613,-14.425266
1425518160.628,-15.027489
1425518160.644,-15.58186
1425518160.66,-15.986668
1425518160.675,-16.149086
1425518160.691,-16.004532
1425518160.706,-15.4845085
1425518160.722,-14.559494
1425518160.738,-13.241745
1425518160.753,-11.607044
1425518160.769,-9.767036
1425518160.785,-7.87212
1425518160.8,-6.05917
1425518160.816,-4.3913765
1425518160.832,-2.876423
1425518160.847,-1.3879585
1425518160.863,0.2130127
1425518160.878,2.036312
1425518160.894,4.0617905
1425518160.91,6.1535797
1425518160.925,8.083145
1425518160.941,9.680767
1425518160.957,10.925079
1425518160.972,11.931953
1425518160.988,12.915226
1425518161.003,14.091511
1425518161.019,15.609154
1425518161.035,17.55915
1425518161.05,19.935585
1425518161.066,22.632126
1425518161.082,25.362389
1425518161.097,27.662048
1425518161.113,28.884766
1425518161.128,28.470226
1425518161.144,26.090652
1425518161.16,21.85218
1425518161.175,16.256409
1425518161.191,10.042198
1425518161.207,3.9091797
1425518161.222,-1.6385689
1425518161.238,-6.3812637
1425518161.253,-10.311012
1425518161.269,-13.509602
1425518161.285,-16.014454
1425518161.3,-17.82264
1425518161.316,-18.888657
1425518161.332,-19.209488
1425518161.347,-18.861732
1425518161.363,-18.02628
1425518161.378,-16.961441
1425518161.394,-15.94117
1425518161.41,-15.134693
1425518161.425,-14.621773
1425518161.441,-14.34383
1425518161.457,-14.196785
1425518161.472,-14.099033
1425518161.488,-14.055439
1425518161.503,-14.140739
1425518161.519,-14.431751
1425518161.535,-14.947334
1425518161.55,-15.598648
1425518161.566,-16.203777
1425518161.582,-16.560177
1425518161.597,-16.494484
1425518161.613,-15.941208
1425518161.628,-14.938583
1425518161.644,-13.656006
1425518161.66,-12.244484
1425518161.675,-10.851761
1425518161.691,-9.511471
1425518161.707,-8.18681
1425518161.722,-6.783432
1425518161.738,-5.2427444
1425518161.753,-3.5504837
1425518161.769,-1.7498741
1425518161.785,0.15669632
1425518161.8,2.1914063
1425518161.816,4.422909
1425518161.832,6.859741
1425518161.847,9.421501
1425518161.863,11.894619
1425518161.878,14.03717
1425518161.894,15.666264
1425518161.91,16.783382
1425518161.925,17.545006
1425518161.941,18.257484
1425518161.957,19.283016
1425518161.972,20.953037
1425518161.988,23.44939
1425518162.003,26.727455
1425518162.019,30.373726
1425518162.035,33.677322
1425518162.05,35.763706
1425518162.066,35.882534
1425518162.082,33.674538
1425518162.097,29.285828
1425518162.113,23.25047
1425518162.128,16.317596
1425518162.144,9.155998
1425518162.16,2.33189
1425518162.175,-3.7556992
1425518162.191,-8.808723
1425518162.207,-12.669052
1425518162.222,-15.343212
1425518162.238,-17.031387
1425518162.253,-18.082172
1425518162.269,-18.827385
1425518162.285,-19.457066
1425518162.3,-19.956242
1425518162.316,-20.202232
1425518162.332,-20.106709
1425518162.347,-19.719242
1425518162.363,-19.23151
1425518162.378,-18.87669
1425518162.394,-18.832378
1425518162.41,-19.125767
1425518162.425,-19.689365
1425518162.441,-20.389305
1425518162.457,-21.094429
1425518162.472,-21.678852
1425518162.488,-22.04457
1425518162.503,-22.073387
1425518162.519,-21.69878
1425518162.535,-20.84512
1425518162.55,-19.52262
1425518162.566,-17.82572
1425518162.582,-15.931778
1425518162.597,-14.036419
1425518162.613,-12.30567
1425518162.628,-10.797194
1425518162.644,-9.441702
1425518162.66,-8.097431
1425518162.675,-6.630167
1425518162.691,-4.981819
1425518162.707,-3.212923
1425518162.722,-1.4411106
1425518162.738,0.2243805
1425518162.753,1.7737598
1425518162.769,3.270605
1425518162.785,4.8527584
1425518162.8,6.590763
1425518162.816,8.483885
1425518162.832,10.412119
1425518162.847,12.248325
1425518162.863,13.871201
1425518162.878,15.247997
1425518162.894,16.395237
1425518162.91,17.40486
1425518162.925,18.40081
1425518162.941,19.5484
1425518162.957,21.036964
1425518162.972,23.03629
1425518162.988,25.578678
1425518163.003,28.508255
1425518163.019,31.418156
1425518163.035,33.692223
1425518163.05,34.669975
1425518163.066,33.84886
1425518163.082,31.020935
1425518163.097,26.435368
1425518163.113,20.647022
1425518163.128,14.3683195
1425518163.144,8.210173
1425518163.16,2.55655
1425518163.175,-2.4792557
1425518163.191,-6.9162245
1425518163.207,-10.76943
1425518163.222,-13.958256
1425518163.238,-16.312973
1425518163.253,-17.668467
1425518163.269,-18.025043
1425518163.285,-17.543856
1425518163.3,-16.538395
1425518163.316,-15.328947
1425518163.332,-14.169795
1425518163.347,-13.17128
1425518163.363,-12.362997
1425518163.378,-11.747207
1425518163.394,-11.381796
1425518163.41,-11.330494
1425518163.425,-11.662514
1425518163.441,-12.334988
1425518163.457,-13.218051
1425518163.472,-14.059605
1425518163.488,-14.629205
1425518163.504,-14.755123
1425518163.519,-14.419264
1425518163.535,-13.724052
1425518163.55,-12.867564
1425518163.566,-12.0212345
1425518163.582,-11.271116
1425518163.597,-10.5938835
1425518163.613,-9.906368
1425518163.628,-9.1008415
1425518163.644,-8.113194
1425518163.66,-6.909275
1425518163.675,-5.491296
1425518163.691,-3.8896418
1425518163.707,-2.193018
1425518163.722,-0.48479652
1425518163.738,1.0783577
1425518163.754,2.4181519
1425518163.769,3.52283
1425518163.785,4.485304
1425518163.8,5.464485
1425518163.816,6.648529
1425518163.832,8.143021
1425518163.847,9.979715
1425518163.863,12.068628
1425518163.879,14.231922
1425518163.894,16.25396
1425518163.91,18.000193
1425518163.925,19.429415
1425518163.941,20.711048
1425518163.957,22.166803
1425518163.972,24.17853
1425518163.988,26.997616
1425518164.004,30.554016
1425518164.019,34.364433
1425518164.035,37.682404
1425518164.05,39.694595
1425518164.066,39.802795
1425518164.082,37.7849
1425518164.097,33.82451
1425518164.113,28.375721
1425518164.129,22.018412
1425518164.144,15.318094
1425518164.16,8.728331
1425518164.175,2.6198082
1425518164.191,-2.7265663
1425518164.207,-7.1246967
1425518164.222,-10.42461
1425518164.238,-12.606115
1425518164.254,-13.751326
1425518164.269,-14.046648
1425518164.285,-13.736994
1425518164.3,-13.089058
1425518164.316,-12.319706
1425518164.332,-11.603966
1425518164.347,-11.075899
1425518164.363,-10.812294
1425518164.379,-10.851612
1425518164.394,-11.187431
1425518164.41,-11.734758
1425518164.425,-12.357817
1425518164.441,-12.936905
1425518164.457,-13.376379
1425518164.472,-13.68816
1425518164.488,-13.920914
1425518164.504,-14.106272
1425518164.519,-14.229496
1425518164.535,-14.189512
1425518164.55,-13.870876
1425518164.566,-13.223521
1425518164.582,-12.286802
1425518164.597,-11.143882
1425518164.613,-9.878476
1425518164.629,-8.522203
1425518164.644,-7.0424614
1425518164.66,-5.3879757
1425518164.675,-3.594884
1425518164.691,-1.7408819
1425518164.707,0.015828133
1425518164.722,1.5657339
1425518164.738,2.8652334
1425518164.754,3.9831057
1425518164.769,5.059366
1425518164.785,6.263644
1425518164.8,7.6824903
1425518164.816,9.301092
1425518164.832,11.009126
1425518164.847,12.638468
1425518164.863,14.039142
1425518164.879,15.169229
1425518164.894,16.114418
1425518164.91,17.043098
1425518164.925,18.204475
1425518164.941,19.828817
1425518164.957,22.023298
1425518164.972,24.731335
1425518164.988,27.629684
1425518165.004,30.175343
1425518165.019,31.652779
1425518165.035,31.472837
1425518165.05,29.284908
1425518165.066,25.193466
1425518165.082,19.662773
1425518165.097,13.365673
1425518165.113,6.9674377
1425518165.129,0.9525769
1425518165.144,-4.4219856
1425518165.16,-9.013199
1425518165.175,-12.744799
1425518165.191,-15.548848
1425518165.207,-17.406801
1425518165.222,-18.364712
1425518165.238,-18.58734
1425518165.254,-18.25414
1425518165.269,-17.543438
1425518165.285,-16.58686
1425518165.3,-15.494577
1425518165.316,-14.396135
1425518165.332,-13.46777
1425518165.347,-12.853157
1425518165.363,-12.648903
1425518165.379,-12.850584
1425518165.394,-13.385443
1425518165.41,-14.121679
1425518165.425,-14.961725
1425518165.441,-15.801013
1425518165.457,-16.550411
1425518165.472,-17.11524
1425518165.488,-17.403408
1425518165.504,-17.324768
1425518165.519,-16.850119
1425518165.535,-15.962014
1425518165.55,-14.689979
1425518165.566,-13.092701
1425518165.582,-11.279736
1425518165.597,-9.369195
1425518165.613,-7.5153294
1425518165.629,-5.833873
1425518165.644,-4.350212
1425518165.66,-3.005227
1425518165.675,-1.6491747
1425518165.691,-0.108760834
1425518165.707,1.7350283
1425518165.722,3.9121943
1425518165.738,6.331129
1425518165.754,8.800948
1425518165.769,11.057005
1425518165.785,12.898767
1425518165.8,14.208808
1425518165.816,15.075066
1425518165.832,15.752905
1425518165.847,16.615812
1425518165.863,17.997152
1425518165.879,20.095345
1425518165.894,22.86282
1425518165.91,26.015507
1425518165.925,29.056417
1425518165.941,31.362373
1425518165.957,32.27222
1425518165.972,31.275282
1425518165.988,28.120836
1425518166.004,22.951345
1425518166.019,16.310663
1425518166.035,8.981298
1425518166.05,1.7705574
1425518166.066,-4.698085
1425518166.082,-10.125841
1425518166.097,-14.433351
1425518166.113,-17.676783
1425518166.129,-19.926071
1425518166.144,-21.26706
1425518166.16,-21.797132
1425518166.175,-21.704433
1425518166.191,-21.221718
1425518166.207,-20.5476
1425518166.222,-19.827589
1425518166.238,-19.111492
1425518166.254,-18.455538
1425518166.269,-17.94085
1425518166.285,-17.655031
1425518166.3,-17.666431
1425518166.316,-17.963211
1425518166.332,-18.445415
1425518166.347,-18.942978
1425518166.363,-19.338528
1425518166.379,-19.566103
1425518166.394,-19.653996
1425518166.41,-19.659004
1425518166.426,-19.607832
1425518166.441,-19.444487
1425518166.457,-19.063736
1425518166.472,-18.316357
1425518166.488,-17.093178
1425518166.504,-15.386102
1425518166.519,-13.281133
1425518166.535,-10.934039
1425518166.551,-8.547477
1425518166.566,-6.262166
1425518166.582,-4.1864758
1425518166.597,-2.3317366
1425518166.613,-0.6286688
1425518166.629,1.0519471
1425518166.644,2.8476434
1425518166.66,4.871783
1425518166.676,7.1321836
1425518166.691,9.522115
1425518166.707,11.850966
1425518166.722,13.925397
1425518166.738,15.64156
1425518166.754,17.045477
1425518166.769,18.296844
1425518166.785,19.63746
1425518166.801,21.288145
1425518166.816,23.43092
1425518166.832,26.133482
1425518166.847,29.350124
1425518166.863,32.80923
1425518166.879,36.00678
1425518166.894,38.240486
1425518166.91,38.783356
1425518166.926,37.134495
1425518166.941,33.214954
1425518166.957,27.446
1425518166.972,20.560951
1425518166.988,13.397774
1425518167.004,6.6106787
1425518167.019,0.5818951
1425518167.035,-4.5290604
1425518167.051,-8.728807
1425518167.066,-12.038236
1425518167.082,-14.504339
1425518167.097,-16.173891
1425518167.113,-17.159698
1425518167.129,-17.574335
1425518167.144,-17.577692
1425518167.16,-17.300152
1425518167.176,-16.871769
1425518167.191,-16.415396
1425518167.207,-16.017155
1425518167.222,-15.711485
1425518167.238,-15.497145
1425518167.254,-15.374875
1425518167.269,-15.383134
1425518167.285,-15.598141
1425518167.301,-16.125381
1425518167.316,-16.958588
1425518167.332,-17.964714
1425518167.347,-18.857698
1425518167.363,-19.344145
1425518167.379,-19.255032
1425518167.394,-18.620922
1425518167.41,-17.591473
1425518167.426,-16.361874
1425518167.441,-15.021592
1425518167.457,-13.567419
1425518167.472,-11.925835
1425518167.488,-10.05903
1425518167.504,-8.009118
1425518167.519,-5.8642683
1425518167.535,-3.717677
1425518167.551,-1.648984
1425518167.566,0.28364086
1425518167.582,2.0222673
1425518167.597,3.5690384
1425518167.613,4.971792
1425518167.629,6.370804
1425518167.644,7.914522
1425518167.66,9.705935
1425518167.676,11.69108
1425518167.691,13.691711
1425518167.707,15.476593
1425518167.722,16.902317
1425518167.738,17.987347
1425518167.754,18.91728
1425518167.769,19.974773
1425518167.785,21.429083
1425518167.801,23.476046
1425518167.816,26.186872
1425518167.832,29.438978
1425518167.847,32.92587
1425518167.863,36.07596
1425518167.879,38.176247
1425518167.894,38.526825
1425518167.91,36.672314
1425518167.926,32.611183
1425518167.941,26.847733
1425518167.957,20.22858
1425518167.972,13.660385
1425518167.988,7.8139706
1425518168.004,2.930025
1425518168.019,-1.15728
1425518168.035,-4.78516
1425518168.051,-8.252956
1425518168.066,-11.59766
1425518168.082,-14.60434
1425518168.097,-16.93418
1425518168.113,-18.358337
1425518168.129,-18.869692
1425518168.144,-18.66257
1425518168.16,-17.966866
1425518168.176,-16.96743
1425518168.191,-15.745569
1425518168.207,-14.38632
1425518168.222,-13.059029
1425518168.238,-12.069027
1425518168.254,-11.730978
1425518168.269,-12.222139
1425518168.285,-13.461115
1425518168.301,-15.134636
1425518168.316,-16.797922
1425518168.332,-18.089739
1425518168.347,-18.784208
1425518168.363,-18.844269
1425518168.379,-18.3687
1425518168.394,-17.48269
1425518168.41,-16.336409
1425518168.426,-15.095921
1425518168.441,-13.883919
1425518168.457,-12.798796
1425518168.472,-11.836699
1425518168.488,-10.902573
1425518168.504,-9.844532
1425518168.519,-8.550447
1425518168.535,-6.9227695
1425518168.551,-5.0157013
1425518168.566,-2.9666996
1425518168.582,-0.9757328
1425518168.597,0.79070663
1425518168.613,2.267582
1425518168.629,3.531145
1425518168.644,4.7507343
1425518168.66,6.1181946
1425518168.676,7.7201614
1425518168.691,9.515694
1425518168.707,11.334593
1425518168.722,13.024254
1425518168.738,14.495235
1425518168.754,15.810341
1425518168.769,17.125908
1425518168.785,18.672052
1425518168.801,20.657309
1425518168.816,23.256033
1425518168.832,26.506021
1425518168.847,30.258146
1425518168.863,34.061768
1425518168.879,37.24138
1425518168.894,39.00872
1425518168.91,38.755867
1425518168.926,36.255234
1425518168.941,31.755508
1425518168.957,25.878902
1425518168.972,19.367687
1425518168.988,12.826145
1425518169.004,6.6008625
1425518169.019,0.81941414
1425518169.035,-4.433769
1425518169.051,-9.023827
1425518169.066,-12.728731
1425518169.082,-15.353842
1425518169.098,-16.80196
1425518169.113,-17.20885
1425518169.129,-16.862804
1425518169.144,-16.115765
1425518169.16,-15.278246
1425518169.176,-14.547842
1425518169.191,-13.976027
1425518169.207,-13.568857
1425518169.223,-13.319031
1425518169.238,-13.268232
1425518169.254,-13.498516
1425518169.269,-14.05209
1425518169.285,-14.848305
1425518169.301,-15.695677
1425518169.316,-16.318035
1425518169.332,-16.51646
1425518169.348,-16.204895
1425518169.363,-15.508442
1425518169.379,-14.619637
1425518169.394,-13.741762
1425518169.41,-12.96974
1425518169.426,-12.270348
1425518169.441,-11.510048
1425518169.457,-10.516249
1425518169.473,-9.110453
1425518169.488,-7.219099
1425518169.504,-4.882229
1425518169.519,-2.2709293
1425518169.535,0.33496475
1425518169.551,2.657896
1425518169.566,4.5218925
