1434150576.992,0.0
1434150577.007,0.0
1434150577.023,0.0
1434150577.038,0.0
1434150577.054,0.0
1434150577.07,0.0
1434150577.085,0.0
1434150577.101,0.0
1434150577.117,0.0
1434150577.132,0.0022315353
1434150577.148,-0.0045169927
1434150577.163,-0.011265522
1434150577.179,-0.011383951
1434150577.195,0.0011864507
1434150577.21,0.025910312
1434150577.226,0.050634187
1434150577.242,0.051362894
1434150577.257,-0.0014929791
1434150577.273,-0.1302426
1434150577.288,-0.35562757
1434150577.304,-0.6591247
1434150577.32,-1.0095103
1434150577.335,-1.3709826
1434150577.351,-1.7197359
1434150577.367,-2.0551105
1434150577.382,-2.39945
1434150577.398,-2.7866635
1434150577.413,-3.2399073
1434150577.429,-3.796012
1434150577.445,-4.418684
1434150577.46,-5.0592937
1434150577.476,-5.6644096
1434150577.492,-6.2021537
1434150577.507,-6.6808796
1434150577.523,-7.149598
1434150577.538,-7.6782336
1434150577.554,-8.310739
1434150577.57,-9.143657
1434150577.585,-10.089731
1434150577.601,-11.041313
1434150577.617,-11.8842125
1434150577.632,-12.564316
1434150577.648,-13.13563
1434150577.664,-13.760044
1434150577.679,-14.65232
1434150577.695,-15.962056
1434150577.71,-17.914442
1434150577.726,-20.317299
1434150577.742,-22.903854
1434150577.757,-25.37947
1434150577.773,-27.578028
1434150577.789,-29.57246
1434150577.804,-31.675173
1434150577.82,-34.3178
1434150577.835,-37.813618
1434150577.851,-42.541233
1434150577.867,-48.1463
1434150577.882,-54.104755
1434150577.898,-59.83309
1434150577.914,-64.972374
1434150577.929,-69.58293
1434150577.945,-74.14353
1434150577.96,-79.344986
1434150577.976,-85.70726
1434150577.992,-93.76193
1434150578.007,-102.99779
1434150578.023,-112.61757
1434150578.039,-121.73034
1434150578.054,-129.76602
1434150578.07,-136.75102
1434150578.085,-143.30344
1434150578.101,-150.74623
1434150578.117,-157.77356
1434150578.132,-166.64323
1434150578.148,-177.94798
1434150578.164,-191.79102
1434150578.179,-206.96808
1434150578.195,-220.56592
1434150578.21,-228.24644
1434150578.226,-225.36154
1434150578.242,-208.53198
1434150578.257,-176.87024
1434150578.273,-132.76222
1434150578.289,-80.04997
1434150578.304,-23.069275
1434150578.32,34.94339
1434150578.335,92.43695
1434150578.351,149.15695
1434150578.367,205.22772
1434150578.382,260.36963
1434150578.398,313.74133
1434150578.414,363.87396
1434150578.429,409.83353
1434150578.445,450.90775
1434150578.46,486.50244
1434150578.476,515.73865
1434150578.492,537.2274
1434150578.507,549.22
1434150578.523,549.9613
1434150578.539,538.367
1434150578.554,514.2055
1434150578.57,478.674
1434150578.585,433.87952
1434150578.601,382.45126
1434150578.617,327.02106
1434150578.632,269.84186
1434150578.648,212.63379
1434150578.664,156.6594
1434150578.679,102.95233
1434150578.695,52.373596
1434150578.71,5.9046936
1434150578.726,-35.580414
1434150578.742,-71.42584
1434150578.757,-101.35184
1434150578.773,-125.50113
1434150578.789,-144.3797
1434150578.804,-158.69403
1434150578.82,-169.15071
1434150578.835,-176.3711
1434150578.851,-180.75139
1434150578.867,-182.57419
1434150578.882,-182.06863
1434150578.898,-179.5066
1434150578.914,-175.23325
1434150578.929,-169.65286
1434150578.945,-163.17691
1434150578.96,-156.14568
1434150578.976,-148.80681
1434150578.992,-141.29686
1434150579.007,-133.68983
1434150579.023,-126.01962
1434150579.039,-118.33268
1434150579.054,-110.68864
1434150579.07,-103.15572
1434150579.085,-95.80455
1434150579.101,-88.684166
1434150579.117,-81.82744
1434150579.132,-75.24594
1434150579.148,-68.9526
1434150579.164,-62.949085
1434150579.179,-57.247494
1434150579.195,-51.857185
1434150579.21,-46.78282
1434150579.226,-42.02776
1434150579.242,-37.58521
1434150579.257,-33.451748
1434150579.273,-29.613855
1434150579.289,-26.070963
1434150579.304,-22.808779
1434150579.32,-19.824995
1434150579.335,-17.113392
1434150579.351,-14.666497
1434150579.367,-12.47932
1434150579.382,-10.538469
1434150579.398,-8.833674
1434150579.414,-7.3478527
1434150579.429,-6.067689
1434150579.445,-4.9734235
1434150579.46,-4.046258
1434150579.476,-3.2673752
1434150579.492,-2.6211367
1434150579.507,-2.088365
1434150579.523,-1.6507506
1434150579.539,-1.2976913
1434150579.554,-1.0147024
1434150579.57,-0.79105926
1434150579.585,-0.6133206
1434150579.601,-0.47516227
1434150579.617,-0.3684653
1434150579.632,-0.28461677
1434150579.648,-0.22397345
1434150579.664,-0.17647654
1434150579.679,-0.14055526
1434150579.695,-0.11251485
1434150579.71,-0.0926249
1434150579.726,-0.07977182
1434150579.742,-0.06783539
1434150579.757,-0.05929327
1434150579.773,-0.052183747
1434150579.789,-0.046860814
1434150579.804,-0.044131815
1434150579.82,-0.040358156
1434150579.835,-0.039156854
1434150579.851,-0.034233183
1434150579.867,-0.034868598
1434150579.882,-0.031262994
1434150579.898,-0.029878885
1434150579.914,-0.026913434
1434150579.929,-0.02791804
1434150579.945,-0.026312023
1434150579.96,-0.025900543
1434150579.976,-0.02586019
1434150579.992,-0.02894777
1434150580.007,-0.034342796
1434150580.023,-0.043419152
1434150580.039,-0.054490566
1434150580.054,-0.06993684
1434150580.07,-0.088841945
1434150580.085,-0.11177191
1434150580.101,-0.13924223
1434150580.117,-0.16781965
1434150580.132,-0.20023692
1434150580.148,-0.23631907
1434150580.164,-0.27300334
1434150580.179,-0.31201982
1434150580.195,-0.34752584
1434150580.21,-0.39020997
1434150580.226,-0.43093675
1434150580.242,-0.47459364
1434150580.257,-0.51516736
1434150580.273,-0.5644584
1434150580.289,-0.61367685
1434150580.304,-0.66803145
1434150580.32,-0.7267271
1434150580.336,-0.7904854
1434150580.351,-0.8584238
1434150580.367,-0.9321437
1434150580.382,-1.0201145
1434150580.398,-1.1225122
1434150580.414,-1.2395806
1434150580.429,-1.3760688
1434150580.445,-1.5127057
1434150580.461,-1.6512426
1434150580.476,-1.7807614
1434150580.492,-1.9079182
1434150580.507,-2.038899
1434150580.523,-2.2004583
1434150580.539,-2.3943365
1434150580.554,-2.6437013
1434150580.57,-2.9406066
1434150580.586,-3.2706923
1434150580.601,-3.6173913
1434150580.617,-3.96707
1434150580.632,-4.3232803
1434150580.648,-4.6847734
1434150580.664,-5.0948677
1434150580.679,-5.5609264
1434150580.695,-6.1064177
1434150580.711,-6.7091246
1434150580.726,-7.336811
1434150580.742,-7.9585466
1434150580.757,-8.547889
1434150580.773,-9.095526
1434150580.789,-9.645906
1434150580.804,-10.251926
1434150580.82,-10.987561
1434150580.836,-11.873764
1434150580.851,-12.884635
1434150580.867,-13.928799
1434150580.882,-14.8966055
1434150580.898,-15.69705
1434150580.914,-16.27564
1434150580.929,-16.648111
1434150580.945,-16.863861
1434150580.961,-16.94695
1434150580.976,-16.858618
1434150580.992,-16.428406
1434150581.007,-15.400042
1434150581.023,-13.523489
1434150581.039,-10.642433
1434150581.054,-6.7887
1434150581.07,-2.2315655
1434150581.086,2.6582203
1434150581.101,7.4257183
1434150581.117,11.767937
1434150581.132,15.604567
1434150581.148,19.062948
1434150581.164,22.39308
1434150581.179,25.755154
1434150581.195,29.126862
1434150581.211,32.260963
1434150581.226,34.757668
1434150581.242,36.311577
1434150581.257,36.830162
1434150581.273,36.512466
1434150581.289,35.832222
1434150581.304,35.30333
1434150581.32,35.36594
1434150581.336,36.317574
1434150581.351,38.254074
1434150581.367,41.005013
1434150581.382,43.999966
1434150581.398,46.192062
1434150581.414,46.284306
1434150581.429,43.143875
1434150581.445,36.371716
1434150581.461,26.657787
1434150581.476,15.6259365
1434150581.492,5.2707157
1434150581.507,-2.8182278
1434150581.523,-8.021172
1434150581.539,-10.714588
1434150581.554,-11.859781
1434150581.57,-12.35895
1434150581.586,-12.650927
1434150581.601,-12.679428
1434150581.617,-12.188862
1434150581.632,-11.06027
1434150581.648,-9.599936
1434150581.664,-8.448429
1434150581.679,-8.345282
1434150581.695,-9.799874
1434150581.711,-12.92141
1434150581.726,-17.357912
1434150581.742,-22.382654
1434150581.757,-27.178595
1434150581.773,-31.071428
1434150581.789,-33.662052
1434150581.804,-34.932316
1434150581.82,-35.076183
1434150581.836,-34.389088
1434150581.851,-33.09226
1434150581.867,-31.30914
1434150581.882,-29.0854
1434150581.898,-26.53291
1434150581.914,-23.814915
1434150581.929,-21.19476
1434150581.945,-18.93985
1434150581.961,-17.225088
1434150581.976,-16.07202
1434150581.992,-15.360997
1434150582.007,-14.878418
1434150582.023,-14.449803
1434150582.039,-13.9885645
1434150582.054,-13.523432
1434150582.07,-13.122434
1434150582.086,-12.788425
1434150582.101,-12.4540825
1434150582.117,-11.987287
1434150582.132,-11.236424
1434150582.148,-10.098562
1434150582.164,-8.533961
1434150582.179,-6.646246
1434150582.195,-4.576544
1434150582.211,-2.4483852
1434150582.226,-0.32694626
1434150582.242,1.8184204
1434150582.257,4.0868855
1434150582.273,6.633608
1434150582.289,9.584639
1434150582.304,12.987131
1434150582.32,16.72033
1434150582.336,20.535637
1434150582.351,24.146734
1434150582.367,27.340868
1434150582.382,30.159485
1434150582.398,32.89676
1434150582.414,36.055893
1434150582.429,40.087494
1434150582.445,45.156143
1434150582.461,50.88452
1434150582.476,56.389557
1434150582.492,60.384327
1434150582.507,61.59581
1434150582.523,59.09852
1434150582.539,52.652664
1434150582.554,42.710457
1434150582.57,30.349564
1434150582.586,16.89516
1434150582.601,3.591837
1434150582.617,-8.608946
1434150582.632,-19.150452
1434150582.648,-27.807438
1434150582.664,-34.560463
1434150582.679,-39.494286
1434150582.695,-42.796104
1434150582.711,-44.729935
1434150582.726,-45.642845
1434150582.742,-45.914787
1434150582.757,-45.834297
1434150582.773,-45.585983
1434150582.789,-45.18992
1434150582.804,-44.60742
1434150582.82,-43.78958
1434150582.836,-42.753555
1434150582.851,-41.516808
1434150582.867,-40.093216
1434150582.882,-38.461334
1434150582.898,-36.56627
1434150582.914,-34.36476
1434150582.929,-31.890003
1434150582.945,-29.196892
1434150582.961,-26.336956
1434150582.976,-23.290989
1434150582.992,-19.98655
1434150583.008,-16.280441
1434150583.023,-12.074371
1434150583.039,-7.321369
1434150583.054,-2.067421
1434150583.07,3.568077
1434150583.086,9.424694
1434150583.101,15.307812
1434150583.117,21.020493
1434150583.132,26.42524
1434150583.148,31.460712
1434150583.164,36.202312
1434150583.179,40.87839
1434150583.195,45.826363
1434150583.211,51.411903
1434150583.226,57.848606
1434150583.242,65.006516
1434150583.258,72.31604
1434150583.273,78.758865
1434150583.289,83.098206
1434150583.304,84.2328
1434150583.32,81.53534
1434150583.336,75.091415
1434150583.351,65.65342
1434150583.367,54.366608
1434150583.383,42.450974
1434150583.398,30.887753
1434150583.414,20.337662
1434150583.429,11.128605
1434150583.445,3.42305
1434150583.461,-2.7136497
1434150583.476,-7.2840614
1434150583.492,-10.362911
1434150583.508,-12.129246
1434150583.523,-12.862085
1434150583.539,-12.936258
1434150583.554,-12.761848
1434150583.57,-12.727541
1434150583.586,-13.108868
1434150583.601,-13.996849
1434150583.617,-15.300716
1434150583.633,-16.77355
1434150583.648,-18.138657
1434150583.664,-19.168554
1434150583.679,-19.748903
1434150583.695,-19.864769
1434150583.711,-19.54657
1434150583.726,-18.76881
1434150583.742,-17.487871
1434150583.758,-15.627594
1434150583.773,-13.170309
1434150583.789,-10.190458
1434150583.804,-6.8368287
1434150583.82,-3.2776265
1434150583.836,0.320364
1434150583.851,3.8679123
1434150583.867,7.3426495
1434150583.883,10.809986
1434150583.898,14.436431
1434150583.914,18.487757
1434150583.929,23.273584
1434150583.945,29.033978
1434150583.961,35.800697
1434150583.976,43.291283
1434150583.992,50.794136
1434150584.008,57.283764
1434150584.023,61.550457
1434150584.039,62.527733
1434150584.054,59.56422
1434150584.07,52.633904
1434150584.086,42.34361
1434150584.101,29.800423
1434150584.117,16.295055
1434150584.133,3.0229187
1434150584.148,-9.160568
1434150584.164,-19.77629
1434150584.179,-28.674606
1434150584.195,-35.88733
1434150584.211,-41.521595
1434150584.226,-45.703003
1434150584.242,-48.627243
1434150584.258,-50.52536
1434150584.273,-51.731926
1434150584.289,-52.54873
1434150584.304,-53.206596
1434150584.32,-53.758896
1434150584.336,-54.119232
1434150584.351,-54.094727
1434150584.367,-53.542343
1434150584.383,-52.413467
1434150584.398,-50.790062
1434150584.414,-48.84102
1434150584.429,-46.721687
1434150584.445,-44.488297
1434150584.461,-42.113014
1434150584.476,-39.457397
1434150584.492,-36.38102
1434150584.508,-32.74946
1434150584.523,-28.541039
1434150584.539,-23.80088
1434150584.554,-18.642578
1434150584.57,-13.212631
1434150584.586,-7.690857
1434150584.601,-2.218628
1434150584.617,3.0700073
1434150584.633,8.119354
1434150584.648,12.949501
1434150584.664,17.66925
1434150584.679,22.47895
1434150584.695,27.656113
1434150584.711,33.530067
1434150584.726,40.389336
1434150584.742,48.230103
1434150584.758,56.580734
1434150584.773,64.37207
1434150584.789,70.10581
1434150584.804,72.2088
1434150584.82,69.62154
1434150584.836,62.163094
1434150584.851,50.677452
1434150584.867,36.675934
1434150584.883,21.853226
1434150584.898,7.5852203
1434150584.914,-5.3179855
1434150584.929,-16.53659
1434150584.945,-26.044365
1434150584.961,-33.84272
1434150584.976,-39.933784
1434150584.992,-44.382576
1434150585.008,-47.377594
1434150585.023,-49.266678
1434150585.039,-50.434402
1434150585.054,-51.189133
1434150585.07,-51.67437
1434150585.086,-51.955696
1434150585.101,-52.051277
1434150585.117,-52.01396
1434150585.133,-51.920464
1434150585.148,-51.798187
1434150585.164,-51.54499
1434150585.179,-50.943558
1434150585.195,-49.76374
1434150585.211,-47.835083
1434150585.226,-45.142212
1434150585.242,-41.83303
1434150585.258,-38.137886
1434150585.273,-34.25939
1434150585.289,-30.300629
1434150585.304,-26.25734
1434150585.32,-22.00837
1434150585.336,-17.454659
1434150585.351,-12.524254
1434150585.367,-7.284157
1434150585.383,-1.8955688
1434150585.398,3.4143753
1434150585.414,8.446274
1434150585.429,13.132408
1434150585.445,17.537743
1434150585.461,21.873367
1434150585.476,26.467865
1434150585.492,31.658203
1434150585.508,37.71476
1434150585.523,44.66616
1434150585.539,52.16191
1434150585.554,59.363113
1434150585.57,65.0303
1434150585.586,67.81805
1434150585.601,66.68958
1434150585.617,61.289444
1434150585.633,52.1148
1434150585.648,40.330566
1434150585.664,27.41668
1434150585.679,14.7204895
1434150585.695,3.1691666
1434150585.711,-6.7592087
1434150585.726,-14.881981
1434150585.742,-21.185741
1434150585.758,-25.696342
1434150585.773,-28.499023
1434150585.789,-29.753056
1434150585.804,-29.786457
1434150585.82,-29.015987
1434150585.836,-27.905785
1434150585.851,-26.849495
1434150585.867,-26.083138
1434150585.883,-25.636429
1434150585.898,-25.333027
1434150585.914,-24.92574
1434150585.93,-24.16983
1434150585.945,-22.926659
1434150585.961,-21.240353
1434150585.976,-19.23751
1434150585.992,-17.112366
1434150586.008,-14.979115
1434150586.023,-12.876373
1434150586.039,-10.717812
1434150586.055,-8.358719
1434150586.07,-5.642517
1434150586.086,-2.4552345
1434150586.101,1.2191124
1434150586.117,5.3011017
1434150586.133,9.630177
1434150586.148,14.016922
1434150586.164,18.307392
1434150586.18,22.421831
1434150586.195,26.34217
1434150586.211,30.137661
1434150586.226,33.964203
1434150586.242,38.071213
1434150586.258,42.777283
1434150586.273,48.293503
1434150586.289,54.5371
1434150586.305,60.884098
1434150586.32,66.21469
1434150586.336,69.10161
1434150586.351,68.3387
1434150586.367,63.350708
1434150586.383,54.468445
1434150586.398,42.77883
1434150586.414,29.78668
1434150586.43,16.88342
1434150586.445,5.022106
1434150586.461,-5.3473682
1434150586.476,-14.131365
1434150586.492,-21.354246
1434150586.508,-27.002398
1434150586.523,-31.06519
1434150586.539,-33.60866
1434150586.555,-34.891357
1434150586.57,-35.328815
1434150586.586,-35.393448
1434150586.601,-35.450424
1434150586.617,-35.662075
1434150586.633,-35.956596
1434150586.648,-36.149925
1434150586.664,-36.007072
1434150586.68,-35.39911
1434150586.695,-34.33863
1434150586.711,-32.96894
1434150586.726,-31.46303
1434150586.742,-29.97505
1434150586.758,-28.510109
1434150586.773,-26.972649
1434150586.789,-25.147497
1434150586.805,-22.809216
1434150586.82,-19.77832
1434150586.836,-16.000309
1434150586.851,-11.579737
1434150586.867,-6.7478085
1434150586.883,-1.7920074
1434150586.898,3.0272923
1434150586.914,7.5916824
1434150586.93,11.937436
1434150586.945,16.289738
1434150586.961,20.972925
1434150586.976,26.36348
1434150586.992,32.691814
1434150587.008,39.95607
1434150587.023,47.752945
1434150587.039,55.267597
1434150587.055,61.309395
1434150587.07,64.63844
1434150587.086,64.28854
1434150587.101,59.891083
1434150587.117,51.820564
1434150587.133,41.047455
1434150587.148,28.891508
1434150587.164,16.590935
1434150587.18,5.0826445
1434150587.195,-5.109253
1434150587.211,-13.7857065
1434150587.226,-20.910152
1434150587.242,-26.524298
1434150587.258,-30.674648
1434150587.273,-33.508812
1434150587.289,-35.24347
1434150587.305,-36.202255
1434150587.32,-36.71233
1434150587.336,-37.046795
1434150587.351,-37.37028
1434150587.367,-37.711487
1434150587.383,-38.013527
1434150587.398,-38.174454
1434150587.414,-38.06214
1434150587.43,-37.5822
1434150587.445,-36.677475
1434150587.461,-35.363525
1434150587.476,-33.679203
1434150587.492,-31.683327
1434150587.508,-29.392225
1434150587.523,-26.780699
1434150587.539,-23.777906
1434150587.555,-20.365562
1434150587.57,-16.531876
1434150587.586,-12.343123
1434150587.601,-7.870146
1434150587.617,-3.1345224
1434150587.633,1.8559246
1434150587.648,7.101572
1434150587.664,12.49603
1434150587.68,17.878626
1434150587.695,23.045141
1434150587.711,27.95049
1434150587.726,32.789856
1434150587.742,37.9497
1434150587.758,43.87092
1434150587.773,50.666466
1434150587.789,57.92347
1434150587.805,64.57753
1434150587.82,69.18424
1434150587.836,70.358055
1434150587.851,67.26532
1434150587.867,59.918327
1434150587.883,49.20873
1434150587.898,36.57319
1434150587.914,23.538181
1434150587.93,11.27022
1434150587.945,0.43377304
1434150587.961,-8.747057
1434150587.976,-16.291033
1434150587.992,-22.24744
1434150588.008,-26.622135
1434150588.023,-29.508408
1434150588.039,-31.131554
1434150588.055,-31.920506
1434150588.07,-32.37529
1434150588.086,-32.90267
1434150588.101,-33.67598
1434150588.117,-34.626453
1434150588.133,-35.49724
1434150588.148,-36.028843
1434150588.164,-36.06025
1434150588.18,-35.543636
1434150588.195,-34.55563
1434150588.211,-33.22977
1434150588.226,-31.688038
1434150588.242,-30.039894
1434150588.258,-28.319988
1434150588.273,-26.473629
1434150588.289,-24.323772
1434150588.305,-21.650127
1434150588.32,-18.214909
1434150588.336,-13.939289
1434150588.351,-8.9047165
1434150588.367,-3.385746
1434150588.383,2.275032
1434150588.398,7.7944984
1434150588.414,13.018345
1434150588.43,17.984486
1434150588.445,22.888378
1434150588.461,28.02835
1434150588.476,33.72811
1434150588.492,40.202362
1434150588.508,47.463844
1434150588.523,55.09096
1434150588.539,62.244194
1434150588.555,67.77534
1434150588.57,70.533844
1434150588.586,69.7303
1434150588.602,65.23137
1434150588.617,57.56573
1434150588.633,47.785248
1434150588.648,37.077583
1434150588.664,26.513916
1434150588.68,16.843918
1434150588.695,8.530048
1434150588.711,1.7997704
1434150588.727,-3.2354698
1434150588.742,-6.625271
1434150588.758,-8.583969
1434150588.773,-9.533207
1434150588.789,-9.971741
1434150588.805,-10.394875
1434150588.82,-11.0602455
1434150588.836,-11.967823
1434150588.852,-12.883114
1434150588.867,-13.482674
1434150588.883,-13.553307
1434150588.898,-13.091476
1434150588.914,-12.32856
1434150588.93,-11.583378
1434150588.945,-11.085152
1434150588.961,-10.8368
1434150588.977,-10.568172
1434150588.992,-9.880402
1434150589.008,-8.375462
1434150589.023,-5.8740997
1434150589.039,-2.431404
1434150589.055,1.6501541
1434150589.07,6.014187
1434150589.086,10.326748
1434150589.102,14.455288
1434150589.117,18.445503
1434150589.133,22.54321
1434150589.148,27.093681
1434150589.164,32.455837
1434150589.18,38.847385
1434150589.195,46.153736
1434150589.211,53.83364
1434150589.227,60.896454
1434150589.242,66.068535
1434150589.258,68.1365
1434150589.273,66.302216
1434150589.289,60.488815
1434150589.305,51.332123
1434150589.32,40.008926
1434150589.336,27.84316
1434150589.352,15.939479
1434150589.367,4.99549
1434150589.383,-4.698501
1434150589.398,-13.058491
1434150589.414,-20.06001
1434150589.43,-25.632063
1434150589.445,-29.709118
1434150589.461,-32.393272
1434150589.477,-33.961887
1434150589.492,-34.84778
1434150589.508,-35.46129
1434150589.523,-36.041855
1434150589.539,-36.569164
1434150589.555,-36.83239
1434150589.57,-36.61853
1434150589.586,-35.855316
1434150589.602,-34.65671
1434150589.617,-33.24459
1434150589.633,-31.7986
1434150589.648,-30.286388
1434150589.664,-28.503075
1434150589.68,-26.151424
1434150589.695,-23.024765
1434150589.711,-19.107285
1434150589.727,-14.597584
1434150589.742,-9.778763
1434150589.758,-4.9485703
1434150589.773,-0.2858429
1434150589.789,4.220215
1434150589.805,8.722885
1434150589.82,13.549652
1434150589.836,19.1137
1434150589.852,25.784332
1434150589.867,33.673645
1434150589.883,42.429962
1434150589.898,51.109375
1434150589.914,58.291115
1434150589.93,62.422714
1434150589.945,62.305214
1434150589.961,57.496002
1434150589.977,48.46512
1434150589.992,36.415146
1434150590.008,22.869835
1434150590.023,9.223656
1434150590.039,-3.5818558
1434150590.055,-15.064728
1434150590.07,-25.11023
1434150590.086,-33.71792
1434150590.102,-40.869774
1434150590.117,-46.515045
1434150590.133,-50.641357
1434150590.148,-53.373894
1434150590.164,-54.997528
1434150590.18,-55.909256
1434150590.195,-56.478317
1434150590.211,-56.972137
1434150590.227,-57.448105
1434150590.242,-57.795326
1434150590.258,-57.808014
1434150590.273,-57.290512
1434150590.289,-56.115433
1434150590.305,-54.272987
1434150590.32,-51.825233
1434150590.336,-48.890396
1434150590.352,-45.585083
1434150590.367,-42.000214
1434150590.383,-38.166336
1434150590.398,-34.07614
1434150590.414,-29.63446
1434150590.43,-24.75145
1434150590.445,-19.384323
1434150590.461,-13.634598
1434150590.477,-7.720566
1434150590.492,-1.9628296
1434150590.508,3.3392944
1434150590.523,8.052032
1434150590.539,12.240952
1434150590.555,16.146088
1434150590.57,20.081749
1434150590.586,24.38617
1434150590.602,29.36042
1434150590.617,35.21711
1434150590.633,41.92006
1434150590.648,49.08278
1434150590.664,55.812157
1434150590.68,60.7865
1434150590.695,62.616875
1434150590.711,60.24524
1434150590.727,53.428894
1434150590.742,42.821564
1434150590.758,29.780792
1434150590.773,15.8858795
1434150590.789,2.4895859
1434150590.805,-9.579102
1434150590.82,-19.91552
1434150590.836,-28.434242
1434150590.852,-35.146507
1434150590.867,-40.103065
1434150590.883,-43.439278
1434150590.898,-45.426094
1434150590.914,-46.463417
1434150590.93,-46.968597
1434150590.945,-47.281868
1434150590.961,-47.588745
1434150590.977,-47.910225
1434150590.992,-48.16749
1434150591.008,-48.25138
1434150591.023,-48.075233
1434150591.039,-47.617226
1434150591.055,-46.91597
1434150591.07,-46.03096
1434150591.086,-45.03315
1434150591.102,-43.872307
1434150591.117,-42.42608
1434150591.133,-40.49256
1434150591.148,-37.909195
1434150591.164,-34.65934
1434150591.18,-30.92656
1434150591.195,-27.021996
1434150591.211,-23.260887
1434150591.227,-19.829048
1434150591.242,-16.674446
1434150591.258,-13.569939
1434150591.274,-10.219059
1434150591.289,-6.424858
1434150591.305,-2.182148
1434150591.32,2.3517418
1434150591.336,6.9119186
1434150591.352,11.266396
1434150591.367,15.264606
1434150591.383,18.93008
1434150591.399,22.433247
1434150591.414,26.098
1434150591.43,30.321888
1434150591.445,35.46016
1434150591.461,41.602325
1434150591.477,48.379555
1434150591.492,54.893826
1434150591.508,59.876835
1434150591.524,62.031837
1434150591.539,60.475132
1434150591.555,55.07488
1434150591.57,46.52308
1434150591.586,36.041275
1434150591.602,25.00458
1434150591.617,14.504455
1434150591.633,5.1690106
1434150591.649,-2.837697
1434150591.664,-9.566042
1434150591.68,-15.1140585
1434150591.695,-19.521826
1434150591.711,-22.782753
1434150591.727,-24.9254
1434150591.742,-26.092726
1434150591.758,-26.523943
1434150591.774,-26.513515
1434150591.789,-26.315315
1434150591.805,-26.104073
1434150591.82,-25.924885
1434150591.836,-25.766712
1434150591.852,-25.552628
1434150591.867,-25.266579
1434150591.883,-24.895458
1434150591.899,-24.472237
1434150591.914,-23.981491
1434150591.93,-23.346615
1434150591.945,-22.422493
1434150591.961,-21.036308
1434150591.977,-19.11325
1434150591.992,-16.73999
1434150592.008,-14.136978
1434150592.024,-11.558662
1434150592.039,-9.127518
1434150592.055,-6.806381
1434150592.07,-4.377281
1434150592.086,-1.6131134
1434150592.102,1.6285934
1434150592.117,5.2606277
1434150592.133,9.074516
1434150592.149,12.781464
1434150592.164,16.188568
1434150592.18,19.246239
1434150592.195,22.056664
1434150592.211,24.813278
1434150592.227,27.770546
1434150592.242,31.17714
1434150592.258,35.28161
1434150592.274,40.201904
1434150592.289,45.767593
1434150592.305,51.43643
1434150592.32,56.288467
1434150592.336,59.2088
1434150592.352,59.259537
1434150592.367,55.986664
1434150592.383,49.642258
1434150592.399,41.055344
1434150592.414,31.41478
1434150592.43,21.837875
1434150592.445,13.112259
1434150592.461,5.583603
1434150592.477,-0.7223816
1434150592.492,-5.9434204
1434150592.508,-10.2065735
1434150592.524,-13.581299
1434150592.539,-16.114334
1434150592.555,-17.903214
1434150592.57,-19.113312
1434150592.586,-19.972519
1434150592.602,-20.669388
1434150592.617,-21.322296
1434150592.633,-21.92334
1434150592.649,-22.396423
1434150592.664,-22.634766
1434150592.68,-22.616333
1434150592.695,-22.428833
1434150592.711,-22.217453
1434150592.727,-22.090027
1434150592.742,-22.050903
1434150592.758,-21.917023
1434150592.774,-21.38739
1434150592.789,-20.171158
1434150592.805,-18.136337
1434150592.82,-15.374802
1434150592.836,-12.17688
1434150592.852,-8.890228
1434150592.867,-5.745697
1434150592.883,-2.7521362
1434150592.899,0.2846222
1434150592.914,3.632782
1434150592.93,7.4340515
1434150592.945,11.649765
1434150592.961,16.037933
1434150592.977,20.340424
1434150592.992,24.351212
1434150593.008,28.039276
1434150593.024,31.502625
1434150593.039,34.974808
1434150593.055,38.717545
1434150593.07,43.00351
1434150593.086,48.02063
1434150593.102,53.71161
1434150593.117,59.583206
1434150593.133,64.75751
1434150593.149,68.00844
1434150593.164,68.243454
1434150593.18,64.827194
1434150593.195,57.911026
1434150593.211,48.341385
1434150593.227,37.402847
1434150593.242,26.353363
1434150593.258,16.120895
1434150593.274,7.1835175
1434150593.289,-0.33172607
1434150593.305,-6.496704
1434150593.32,-11.374283
1434150593.336,-15.043564
1434150593.352,-17.62413
1434150593.367,-19.328568
1434150593.383,-20.493912
1434150593.399,-21.472672
1434150593.414,-22.533722
1434150593.43,-23.803223
1434150593.445,-25.209686
1434150593.461,-26.592194
1434150593.477,-27.707062
1434150593.492,-28.388077
1434150593.508,-28.562714
1434150593.524,-28.333405
1434150593.539,-27.871262
1434150593.555,-27.38655
1434150593.57,-26.992691
1434150593.586,-26.639008
1434150593.602,-26.089035
1434150593.617,-25.06018
1434150593.633,-23.303024
1434150593.649,-20.786835
1434150593.664,-17.678558
1434150593.68,-14.307175
1434150593.695,-10.979034
1434150593.711,-7.853607
1434150593.727,-4.855835
1434150593.742,-1.7723236
1434150593.758,1.6467285
1434150593.774,5.4832153
1434150593.789,9.676483
1434150593.805,14.030701
1434150593.82,18.36203
1434150593.836,22.602173
1434150593.852,26.786148
1434150593.867,31.058075
1434150593.883,35.577087
1434150593.899,40.504135
1434150593.914,46.006256
1434150593.93,52.174103
1434150593.946,58.881042
1434150593.961,65.622604
1434150593.977,71.46791
1434150593.992,75.189865
1434150594.008,75.70494
1434150594.024,72.43477
1434150594.039,65.563995
1434150594.055,55.967255
1434150594.07,44.879242
1434150594.086,33.454407
1434150594.102,22.506378
1434150594.117,12.458588
1434150594.133,3.4690552
1434150594.149,-4.401657
1434150594.164,-11.081711
1434150594.18,-16.536896
1434150594.196,-20.817917
1434150594.211,-24.13266
1434150594.227,-26.79715
1434150594.242,-29.13823
1434150594.258,-31.369492
1434150594.274,-33.579758
1434150594.289,-35.656586
1434150594.305,-37.442703
1434150594.321,-38.7632
1434150594.336,-39.560837
1434150594.352,-39.88257
1434150594.367,-39.85382
1434150594.383,-39.607132
1434150594.399,-39.174377
1434150594.414,-38.45804
1434150594.43,-37.304672
1434150594.446,-35.556427
1434150594.461,-33.11862
1434150594.477,-29.98613
1434150594.492,-26.284958
1434150594.508,-22.201828
1434150594.524,-18.000427
1434150594.539,-13.928879
1434150594.555,-10.159668
1434150594.571,-6.657089
1434150594.586,-3.2410126
1434150594.602,0.37228394
1434150594.617,4.431076
1434150594.633,9.007187
1434150594.649,13.964203
1434150594.664,19.032715
1434150594.68,23.98085
1434150594.696,28.79358
1434150594.711,33.664978
1434150594.727,38.964417
1434150594.742,45.081726
1434150594.758,52.233566
1434150594.774,60.217224
1434150594.789,68.4066
1434150594.805,75.7287
1434150594.821,80.918274
1434150594.836,82.76079
1434150594.852,80.5121
1434150594.867,74.07428
1434150594.883,64.09621
1434150594.899,51.750046
1434150594.914,38.44365
1434150594.93,25.390198
1434150594.946,13.4045105
1434150594.961,2.8372345
1434150594.977,-6.238739
1434150594.992,-13.856384
1434150595.008,-19.987762
1434150595.024,-24.551956
1434150595.039,-27.50151
1434150595.055,-29.007813
1434150595.071,-29.440216
1434150595.086,-29.294556
1434150595.102,-29.03566
1434150595.117,-28.92215
1434150595.133,-28.938858
1434150595.149,-28.912354
1434150595.164,-28.60202
1434150595.18,-27.870117
1434150595.196,-26.690811
1434150595.211,-25.165924
1434150595.227,-23.452103
1434150595.242,-21.674408
1434150595.258,-19.884583
1434150595.274,-18.040863
1434150595.289,-15.986412
1434150595.305,-13.534409
1434150595.321,-10.466263
1434150595.336,-6.6886444
1434150595.352,-2.2093735
1434150595.367,2.7965622
1434150595.383,8.081795
1434150595.399,13.40036
1434150595.414,18.588593
1434150595.43,23.596931
1434150595.446,28.433922
1434150595.461,33.167717
1434150595.477,37.94876
1434150595.492,43.023552
1434150595.508,48.711273
1434150595.524,55.27484
1434150595.539,62.67659
1434150595.555,70.349945
1434150595.571,77.20237
1434150595.586,81.76096
1434150595.602,82.623695
1434150595.617,78.903015
1434150595.633,70.565704
1434150595.649,58.39243
1434150595.664,43.782944
1434150595.68,28.28553
1434150595.696,13.2650795
1434150595.711,-0.3074665
1434150595.727,-11.91168
1434150595.742,-21.377785
1434150595.758,-28.759651
1434150595.774,-34.274193
1434150595.789,-38.180256
1434150595.805,-40.796234
1434150595.821,-42.461754
1434150595.836,-43.56728
1434150595.852,-44.473545
1434150595.867,-45.496468
1434150595.883,-46.78327
1434150595.899,-48.281113
1434150595.914,-49.74384
1434150595.93,-50.85562
1434150595.946,-51.359024
1434150595.961,-51.193832
1434150595.977,-50.482483
1434150595.992,-49.454937
1434150596.008,-48.29253
1434150596.024,-46.99178
1434150596.039,-45.337612
1434150596.055,-43.01437
1434150596.071,-39.698532
1434150596.086,-35.26294
1434150596.102,-29.810913
1434150596.117,-23.621078
1434150596.133,-17.07042
1434150596.149,-10.489159
1434150596.164,-4.054474
1434150596.18,2.1744232
1434150596.196,8.262901
1434150596.211,14.303162
1434150596.227,20.456406
1434150596.242,26.94342
1434150596.258,34.023575
1434150596.274,41.826736
1434150596.289,50.183144
1434150596.305,58.401817
1434150596.321,65.28605
1434150596.336,69.378006
1434150596.352,69.433914
1434150596.367,64.809006
1434150596.383,55.751877
1434150596.399,43.27339
1434150596.414,28.822723
1434150596.43,13.858017
1434150596.446,-0.4854126
1434150596.461,-13.523392
1434150596.477,-24.913284
1434150596.492,-34.518402
1434150596.508,-42.266357
1434150596.524,-48.122284
1434150596.539,-52.118423
1434150596.555,-54.429764
1434150596.571,-55.39099
1434150596.586,-55.454025
1434150596.602,-55.06938
1434150596.617,-54.608093
1434150596.633,-54.23848
1434150596.649,-53.95398
1434150596.664,-53.62764
1434150596.68,-53.12979
1434150596.696,-52.39055
1434150596.711,-51.43396
1434150596.727,-50.320084
1434150596.742,-49.049347
1434150596.758,-47.500427
1434150596.774,-45.495224
1434150596.789,-42.83766
1434150596.805,-39.49951
1434150596.821,-35.59311
1434150596.836,-31.370407
1434150596.852,-27.080444
1434150596.868,-22.828873
1434150596.883,-18.53537
1434150596.899,-14.001785
1434150596.914,-9.022842
1434150596.93,-3.5394592
1434150596.946,2.3343658
1434150596.961,8.347443
1434150596.977,14.247787
1434150596.993,19.944336
1434150597.008,25.555603
1434150597.024,31.396988
1434150597.039,37.854218
1434150597.055,45.141342
1434150597.071,53.078995
1434150597.086,60.935226
1434150597.102,67.52443
1434150597.118,71.43973
1434150597.133,71.45314
1434150597.149,66.93051
1434150597.164,58.049545
1434150597.18,45.754944
1434150597.196,31.461487
1434150597.211,16.658081
1434150597.227,2.5504913
1434150597.243,-10.090927
1434150597.258,-20.92508
1434150597.274,-29.869522
1434150597.289,-36.940536
1434150597.305,-42.202682
1434150597.321,-45.78499
1434150597.336,-47.920563
1434150597.352,-49.00595
1434150597.368,-49.527542
1434150597.383,-49.91986
1434150597.399,-50.450806
1434150597.414,-51.107544
1434150597.43,-51.670685
1434150597.446,-51.84694
1434150597.461,-51.442505
1434150597.477,-50.48729
1434150597.493,-49.179565
1434150597.508,-47.760025
1434150597.524,-46.35472
1434150597.539,-44.882523
1434150597.555,-43.119293
1434150597.571,-40.810013
1434150597.586,-37.863663
1434150597.602,-34.347076
1434150597.618,-30.476685
1434150597.633,-26.463745
1434150597.649,-22.402893
1434150597.664,-18.244232
1434150597.68,-13.797821
1434150597.696,-8.897614
1434150597.711,-3.4924774
1434150597.727,2.2778473
1434150597.743,8.098251
1434150597.758,13.592804
1434150597.774,18.520721
1434150597.789,22.912262
1434150597.805,27.10353
1434150597.821,31.653137
1434150597.836,37.114136
1434150597.852,43.79219
1434150597.868,51.532364
1434150597.883,59.65796
1434150597.899,67.00363
1434150597.914,72.26253
1434150597.93,74.24872
1434150597.946,72.27559
1434150597.961,66.3497
1434150597.977,57.156128
1434150597.993,45.82608
1434150598.008,33.62059
1434150598.024,21.608307
1434150598.039,10.505692
1434150598.055,0.65686035
1434150598.071,-7.807785
1434150598.086,-14.849823
1434150598.102,-20.41925
1434150598.118,-24.48732
1434150598.133,-27.095886
1434150598.149,-28.415146
1434150598.164,-28.760773
1434150598.18,-28.52649
1434150598.196,-28.156525
1434150598.211,-28.059906
1434150598.227,-28.488739
1434150598.243,-29.474915
1434150598.258,-30.800598
1434150598.274,-32.09575
1434150598.289,-32.94684
1434150598.305,-33.103256
1434150598.321,-32.52443
1434150598.336,-31.348938
1434150598.352,-29.742416
1434150598.368,-27.802597
1434150598.383,-25.520172
1434150598.399,-22.812836
1434150598.414,-19.622147
1434150598.43,-15.948349
1434150598.446,-11.856323
1434150598.461,-7.4348907
1434150598.477,-2.746933
1434150598.493,2.1389618
1434150598.508,7.147522
1434150598.524,12.156067
1434150598.539,17.048935
1434150598.555,21.761444
1434150598.571,26.385597
1434150598.586,31.139336
1434150598.602,36.379166
1434150598.618,42.398796
1434150598.633,49.30813
1434150598.649,56.839737
1434150598.664,64.283356
1434150598.68,70.556114
1434150598.696,74.41612
1434150598.711,74.79462
1434150598.727,71.10862
1434150598.743,63.459335
1434150598.758,52.609276
1434150598.774,39.764
1434150598.789,26.254082
1434150598.805,13.225197
1434150598.821,1.4818039
1434150598.836,-8.578377
1434150598.852,-16.860199
1434150598.868,-23.479416
1434150598.883,-28.631905
1434150598.899,-32.521027
1434150598.914,-35.35511
1434150598.93,-37.387314
1434150598.946,-38.847
1434150598.961,-39.931488
1434150598.977,-40.7666
1434150598.993,-41.37213
1434150599.008,-41.716896
1434150599.024,-41.79518
1434150599.039,-41.657913
1434150599.055,-41.422424
1434150599.071,-41.176308
1434150599.086,-40.90554
1434150599.102,-40.403984
1434150599.118,-39.403564
1434150599.133,-37.609093
1434150599.149,-34.90239
1434150599.164,-31.381004
1434150599.18,-27.32489
1434150599.196,-23.047836
1434150599.211,-18.792053
1434150599.227,-14.629005
1434150599.243,-10.497787
1434150599.258,-6.2408905
1434150599.274,-1.7241135
1434150599.289,3.108078
1434150599.305,8.219368
1434150599.321,13.4854965
1434150599.336,18.721283
1434150599.352,23.77707
1434150599.368,28.572044
1434150599.383,33.1736
1434150599.399,37.808563
1434150599.414,42.884552
1434150599.43,48.799904
1434150599.446,55.774506
1434150599.461,63.575317
1434150599.477,71.4027
1434150599.493,77.96056
1434150599.508,81.774605
1434150599.524,81.67906
1434150599.54,77.18443
1434150599.555,68.653465
1434150599.571,57.143723
1434150599.586,44.02179
1434150599.602,30.584236
1434150599.618,17.764603
1434150599.633,6.1670685
1434150599.649,-3.9032898
1434150599.665,-12.262779
1434150599.68,-18.879852
1434150599.696,-23.838951
1434150599.711,-27.460266
1434150599.727,-30.176216
1434150599.743,-32.458412
1434150599.758,-34.642868
1434150599.774,-36.850853
1434150599.79,-39.006935
1434150599.805,-40.898193
1434150599.821,-42.33275
1434150599.836,-43.179626
1434150599.852,-43.419426
1434150599.868,-43.147545
1434150599.883,-42.516884
1434150599.899,-41.677254
1434150599.915,-40.68689
1434150599.93,-39.494934
1434150599.946,-37.893906
1434150599.961,-35.67476
1434150599.977,-32.688286
1434150599.993,-29.013184
1434150600.008,-24.895401
1434150600.024,-20.629875
1434150600.04,-16.454659
1434150600.055,-12.419868
1434150600.071,-8.445396
1434150600.086,-4.386238
1434150600.102,-0.1698227
1434150600.118,4.208832
1434150600.133,8.655579
1434150600.149,13.048706
1434150600.165,17.314217
1434150600.18,21.409218
1434150600.196,25.418571
1434150600.211,29.482521
1434150600.227,33.853104
1434150600.243,38.81817
1434150600.258,44.676384
1434150600.274,51.615875
1434150600.29,59.493492
1434150600.305,67.74394
1434150600.321,75.32844
1434150600.336,80.86663
1434150600.352,83.00981
1434150600.368,80.820145
1434150600.383,74.10933
1434150600.399,63.56787
1434150600.415,50.48529
1434150600.43,36.31807
1434150600.446,22.302086
1434150600.461,9.162003
1434150600.477,-2.7911224
1434150600.493,-13.482536
1434150600.508,-22.7984
1434150600.524,-30.553482
1434150600.54,-36.573128
1434150600.555,-40.814453
1434150600.571,-43.524597
1434150600.586,-45.125633
1434150600.602,-46.14943
1434150600.618,-47.034615
1434150600.633,-48.042328
1434150600.649,-49.209724
1434150600.665,-50.398735
1434150600.68,-51.393715
1434150600.696,-51.99498
1434150600.711,-52.130066
1434150600.727,-51.88243
1434150600.743,-51.418015
1434150600.758,-50.917038
1434150600.774,-50.36425
1434150600.79,-49.529236
1434150600.805,-48.056694
1434150600.821,-45.601295
1434150600.836,-42.06698
1434150600.852,-37.65827
1434150600.868,-32.823715
1434150600.883,-28.065506
1434150600.899,-23.672539
1434150600.915,-19.645584
1434150600.93,-15.702515
1434150600.946,-11.448853
1434150600.961,-6.61042
1434150600.977,-1.1396027
1434150600.993,4.7165375
1434150601.008,10.600594
1434150601.024,16.172188
1434150601.04,21.281265
1434150601.055,26.0318
1434150601.071,30.710342
1434150601.086,35.681923
1434150601.102,41.303192
1434150601.118,47.809174
1434150601.133,55.26619
1434150601.149,63.420616
1434150601.165,71.642136
1434150601.18,78.88888
1434150601.196,83.908165
1434150601.211,85.484665
1434150601.227,82.86717
1434150601.243,76.02173
1434150601.258,65.69055
1434150601.274,53.1332
1434150601.29,39.769073
1434150601.305,26.763931
1434150601.321,14.854691
1434150601.336,4.3658447
1434150601.352,-4.585285
1434150601.368,-11.942902
1434150601.383,-17.676231
1434150601.399,-21.79282
1434150601.415,-24.460854
1434150601.43,-26.028965
1434150601.446,-26.952904
1434150601.461,-27.674149
1434150601.477,-28.4967
1434150601.493,-29.505787
1434150601.508,-30.61921
1434150601.524,-31.661663
1434150601.54,-32.48986
1434150601.555,-33.063873
1434150601.571,-33.446167
1434150601.586,-33.702972
1434150601.602,-33.847305
1434150601.618,-33.770332
1434150601.633,-33.234436
1434150601.649,-32.030045
1434150601.665,-30.04591
1434150601.68,-27.375187
1434150601.696,-24.221466
1434150601.711,-20.839409
1434150601.727,-17.358215
1434150601.743,-13.783844
1434150601.758,-10.018082
1434150601.774,-5.9724274
1434150601.79,-1.6310043
1434150601.805,2.9096832
1434150601.821,7.5552444
1434150601.836,12.191666
1434150601.852,16.736801
1434150601.868,21.134644
1434150601.883,25.414696
1434150601.899,29.713875
1434150601.915,34.356445
1434150601.93,39.752846
1434150601.946,46.245003
1434150601.961,53.853004
1434150601.977,62.0476
1434150601.993,69.743034
1434150602.008,75.494934
1434150602.024,77.9282
1434150602.04,76.14366
1434150602.055,69.99954
1434150602.071,60.10708
1434150602.086,47.650642
1434150602.102,33.98104
1434150602.118,20.272285
1434150602.133,7.323059
1434150602.149,-4.460083
1434150602.165,-14.89679
1434150602.18,-23.906937
1434150602.196,-31.39653
1434150602.212,-37.30799
1434150602.227,-41.69365
1434150602.243,-44.7826
1434150602.258,-46.96882
1434150602.274,-48.644157
1434150602.29,-50.070282
1434150602.305,-51.360115
1434150602.321,-52.47078
1434150602.337,-53.29486
1434150602.352,-53.729156
1434150602.368,-53.745262
1434150602.383,-53.385376
1434150602.399,-52.741776
1434150602.415,-51.93412
1434150602.43,-51.064247
1434150602.446,-50.12175
1434150602.462,-48.942368
1434150602.477,-47.22406
1434150602.493,-44.68277
1434150602.508,-41.187256
1434150602.524,-36.90239
1434150602.54,-32.209473
1434150602.555,-27.601677
1434150602.571,-23.422134
1434150602.587,-19.755142
1434150602.602,-16.376572
1434150602.618,-12.955765
1434150602.633,-9.189751
1434150602.649,-4.957176
1434150602.665,-0.3059845
1434150602.68,4.589775
1434150602.696,9.538544
1434150602.712,14.374924
1434150602.727,19.021893
1434150602.743,23.514427
1434150602.758,27.978497
1434150602.774,32.6608
1434150602.79,37.88926
1434150602.805,43.97745
1434150602.821,51.10093
1434150602.837,59.107155
1434150602.852,67.44675
1434150602.868,75.06435
1434150602.883,80.64462
1434150602.899,82.866806
1434150602.915,80.84545
1434150602.93,74.38243
1434150602.946,64.07889
1434150602.962,51.12281
1434150602.977,36.928406
1434150602.993,22.76218
1434150603.008,9.487663
1434150603.024,-2.4255486
1434150603.04,-12.786106
1434150603.055,-21.52512
1434150603.071,-28.572357
1434150603.087,-33.948334
1434150603.102,-37.818104
1434150603.118,-40.565098
1434150603.133,-42.657295
1434150603.149,-44.552242
1434150603.165,-46.480286
1434150603.18,-48.407967
1434150603.196,-50.078056
1434150603.212,-51.23235
1434150603.227,-51.710938
1434150603.243,-51.589504
1434150603.258,-51.074566
1434150603.274,-50.434174
1434150603.29,-49.80938
1434150603.305,-49.174835
1434150603.321,-48.3248
1434150603.337,-47.012093
1434150603.352,-45.000607
1434150603.368,-42.20273
1434150603.383,-38.65957
1434150603.399,-34.58943
1434150603.415,-30.270887
1434150603.43,-26.011353
1434150603.446,-22.026234
1434150603.462,-18.364931
1434150603.477,-14.895654
1434150603.493,-11.364
1434150603.508,-7.485168
1434150603.524,-3.110054
1434150603.54,1.757586
1434150603.555,6.963313
1434150603.571,12.317131
1434150603.587,17.705755
1434150603.602,23.120655
1434150603.618,28.592024
1434150603.633,34.148743
1434150603.649,39.767952
1434150603.665,45.45129
1434150603.68,51.31115
1434150603.696,57.58565
1434150603.712,64.44992
1434150603.727,71.73045
1434150603.743,78.695786
1434150603.758,84.09743
1434150603.774,86.51344
1434150603.79,84.90216
1434150603.805,79.00835
1434150603.821,69.50751
1434150603.837,57.670105
1434150603.852,44.935745
1434150603.868,32.43077
1434150603.883,20.828106
1434150603.899,10.391949
1434150603.915,1.2263947
1434150603.93,-6.6066704
1434150603.946,-13.0431595
1434150603.962,-18.072868
1434150603.977,-21.8497
1434150603.993,-24.659317
1434150604.008,-26.812458
1434150604.024,-28.54565
1434150604.04,-29.912323
1434150604.055,-30.893528
1434150604.071,-31.422169
1434150604.087,-31.571945
1434150604.102,-31.517117
1434150604.118,-31.523186
1434150604.133,-31.743965
1434150604.149,-32.118057
1434150604.165,-32.36835
1434150604.18,-32.131958
1434150604.196,-31.131725
1434150604.212,-29.338188
1434150604.227,-26.98653
1434150604.243,-24.433338
1434150604.258,-21.968025
1434150604.274,-19.696423
1434150604.29,-17.49184
1434150604.305,-15.095745
1434150604.321,-12.202805
1434150604.337,-8.556236
1434150604.352,-4.0366325
1434150604.368,1.290638
1434150604.383,7.213711
1434150604.399,13.350414
1434150604.415,19.307198
1434150604.43,24.788887
1434150604.446,29.760975
1434150604.462,34.476364
1434150604.477,39.454594
1434150604.493,45.253128
1434150604.508,52.231014
1434150604.524,60.264168
1434150604.54,68.66611
1434150604.555,76.204926
1434150604.571,81.41553
1434150604.587,82.9899
1434150604.602,80.194954
1434150604.618,73.091064
1434150604.633,62.529747
1434150604.649,49.818558
1434150604.665,36.341286
1434150604.68,23.238361
1434150604.696,11.201195
1434150604.712,0.55456924
1434150604.727,-8.592327
1434150604.743,-16.243008
1434150604.758,-22.417034
1434150604.774,-27.215946
1434150604.79,-30.81491
1434150604.805,-33.49126
1434150604.821,-35.529503
1434150604.837,-37.145226
1434150604.852,-38.40424
1434150604.868,-39.269005
1434150604.884,-39.657745
1434150604.899,-39.561172
1434150604.915,-39.10283
1434150604.93,-38.5078
1434150604.946,-37.95169
1434150604.962,-37.511368
1434150604.977,-37.04255
1434150604.993,-36.258446
1434150605.008,-34.82516
1434150605.024,-32.550713
1434150605.04,-29.42646
1434150605.055,-25.682335
1434150605.071,-21.61531
1434150605.087,-17.526512
1434150605.102,-13.591862
1434150605.118,-9.811314
1434150605.134,-6.0281143
1434150605.149,-2.013958
1434150605.165,2.4328423
1434150605.18,7.4051666
1434150605.196,12.818447
1434150605.212,18.40297
1434150605.227,23.83207
1434150605.243,28.824078
1434150605.259,33.31121
1434150605.274,37.492332
1434150605.29,41.81489
1434150605.305,46.81924
1434150605.321,52.927876
1434150605.337,60.20875
1434150605.352,68.16808
1434150605.368,75.77985
1434150605.384,81.67198
1434150605.399,84.41793
1434150605.415,83.043045
1434150605.43,77.22648
1434150605.446,67.435486
1434150605.462,54.723534
1434150605.477,40.43619
1434150605.493,25.850224
1434150605.509,11.960868
1434150605.524,-0.5912447
1434150605.54,-11.420038
1434150605.555,-20.381317
1434150605.571,-27.478977
1434150605.587,-32.884148
1434150605.602,-36.88567
1434150605.618,-39.867683
1434150605.634,-42.18239
1434150605.649,-44.061035
1434150605.665,-45.614285
1434150605.68,-46.86658
1434150605.696,-47.78587
1434150605.712,-48.37633
1434150605.727,-48.675358
1434150605.743,-48.729908
1434150605.759,-48.600033
1434150605.774,-48.31522
1434150605.79,-47.885674
1434150605.805,-47.271053
1434150605.821,-46.38643
1434150605.837,-45.07497
1434150605.852,-43.17401
1434150605.868,-40.575645
1434150605.884,-37.31731
1434150605.899,-33.60173
1434150605.915,-29.701
1434150605.93,-25.858154
1434150605.946,-22.118595
1434150605.962,-18.34059
1434150605.977,-14.216822
1434150605.993,-9.456959
1434150606.009,-3.9322338
1434150606.024,2.2519646
1434150606.04,8.790716
1434150606.055,15.309116
1434150606.071,21.53071
1434150606.087,27.39454
1434150606.102,33.107033
1434150606.118,39.080067
1434150606.134,45.78855
1434150606.149,53.556877
1434150606.165,62.356224
1434150606.18,71.64969
1434150606.196,80.36914
1434150606.212,87.08824
1434150606.227,90.39401
1434150606.243,89.251625
1434150606.259,83.34113
1434150606.274,73.14524
1434150606.29,59.76278
1434150606.305,44.597027
1434150606.321,29.013996
1434150606.337,14.067852
1434150606.352,0.45697784
1434150606.368,-11.429489
1434150606.384,-21.443745
1434150606.399,-29.609032
1434150606.415,-36.072975
1434150606.43,-41.12568
1434150606.446,-45.137577
1434150606.462,-48.474575
1434150606.477,-51.40563
1434150606.493,-54.032932
1434150606.509,-56.301212
1434150606.524,-58.069916
1434150606.54,-59.230347
1434150606.555,-59.75746
1434150606.571,-59.742054
1434150606.587,-59.31781
1434150606.602,-58.570225
1434150606.618,-57.547966
1434150606.634,-56.207638
1434150606.649,-54.46685
1434150606.665,-52.253017
1434150606.68,-49.547237
1434150606.696,-46.36569
1434150606.712,-42.797615
1434150606.727,-38.961666
1434150606.743,-34.991898
1434150606.759,-30.998482
1434150606.774,-26.973804
1434150606.79,-22.792706
1434150606.805,-18.2412
1434150606.821,-13.09972
1434150606.837,-7.2961006
1434150606.852,-0.99738693
1434150606.868,5.4714737
1434150606.884,11.79771
1434150606.899,17.825504
1434150606.915,23.707462
1434150606.93,29.800465
1434150606.946,36.568184
1434150606.962,44.33008
1434150606.977,53.140125
1434150606.993,62.575558
1434150607.009,71.75102
1434150607.024,79.38191
1434150607.04,84.06517
1434150607.055,84.64174
1434150607.071,80.561554
1434150607.087,72.046646
1434150607.102,60.074394
1434150607.118,46.064167
1434150607.134,31.468903
1434150607.149,17.46157
1434150607.165,4.7852745
1434150607.18,-6.1885796
1434150607.196,-15.305458
1434150607.212,-22.504105
1434150607.227,-27.74778
1434150607.243,-31.092098
1434150607.259,-32.724957
1434150607.274,-33.005634
1434150607.29,-32.393105
1434150607.305,-31.379879
1434150607.321,-30.36393
1434150607.337,-29.536922
1434150607.352,-28.855118
1434150607.368,-28.138485
1434150607.384,-27.13276
1434150607.399,-25.677624
1434150607.415,-23.792206
1434150607.43,-21.63786
1434150607.446,-19.405231
1434150607.462,-17.202831
1434150607.477,-14.96801
1434150607.493,-12.48185
1434150607.509,-9.438416
1434150607.524,-5.594593
1434150607.54,-0.81996536
1434150607.556,4.789734
1434150607.571,10.962727
1434150607.587,17.307133
1434150607.602,23.436413
1434150607.618,29.058277
1434150607.634,34.092007
1434150607.649,38.645115
1434150607.665,42.98542
1434150607.68,47.48429
1434150607.696,52.533173
1434150607.712,58.449387
1434150607.727,65.40229
1434150607.743,73.26228
1434150607.759,81.42874
1434150607.774,88.81249
1434150607.79,94.00243
1434150607.806,95.61432
1434150607.821,92.72059
1434150607.837,85.153145
1434150607.852,73.5895
1434150607.868,59.27868
1434150607.884,43.6867
1434150607.899,28.120636
1434150607.915,13.50164
1434150607.931,0.3276291
1434150607.946,-11.186348
1434150607.962,-21.018646
1434150607.977,-29.199059
1434150607.993,-35.780357
1434150608.009,-40.851303
1434150608.024,-44.571526
1434150608.04,-47.1707
1434150608.056,-48.97399
1434150608.071,-50.329056
1434150608.087,-51.463287
1434150608.102,-52.4299
1434150608.118,-53.08127
1434150608.134,-53.125687
1434150608.149,-52.371216
1434150608.165,-50.79651
1434150608.181,-48.62706
1434150608.196,-46.229584
1434150608.212,-43.90239
1434150608.227,-41.704483
1434150608.243,-39.397507
1434150608.259,-36.548004
1434150608.274,-32.723953
1434150608.29,-27.699295
1434150608.306,-21.587006
1434150608.321,-14.769592
1434150608.337,-7.7908173
1434150608.352,-1.1499786
1434150608.368,4.877243
1434150608.384,10.337921
1434150608.399,15.559769
1434150608.415,21.05925
1434150608.431,27.361832
1434150608.446,34.883987
1434150608.462,43.787445
1434150608.477,53.765656
1434150608.493,63.957718
1434150608.509,73.00522
1434150608.524,79.262985
1434150608.54,81.28084
1434150608.556,78.227295
1434150608.571,70.17703
1434150608.587,58.080276
1434150608.602,43.42038
1434150608.618,27.746216
1434150608.634,12.326202
1434150608.649,-2.0360565
1434150608.665,-14.917923
1434150608.681,-26.140396
1434150608.696,-35.609024
1434150608.712,-43.347183
1434150608.727,-49.48648
1434150608.743,-54.243774
1434150608.759,-57.89598
1434150608.774,-60.644104
1434150608.79,-62.588333
1434150608.806,-63.76274
1434150608.821,-64.20355
1434150608.837,-64.03433
1434150608.852,-63.41826
1434150608.868,-62.516647
1434150608.884,-61.375916
1434150608.899,-59.943237
1434150608.915,-58.04248
1434150608.931,-55.564453
1434150608.946,-52.52823
1434150608.962,-49.091644
1434150608.977,-45.440216
1434150608.993,-41.67929
1434150609.009,-37.756958
1434150609.024,-33.46295
1434150609.04,-28.58313
1434150609.056,-23.05777
1434150609.071,-17.020905
1434150609.087,-10.742462
1434150609.102,-4.513336
1434150609.118,1.512146
1434150609.134,7.362488
1434150609.149,13.165466
1434150609.165,19.101074
1434150609.181,25.336761
1434150609.196,32.069885
1434150609.212,39.50229
1434150609.227,47.804626
1434150609.243,56.869446
1434150609.259,66.124054
1434150609.274,74.4462
1434150609.29,80.368835
1434150609.306,82.479034
1434150609.321,79.86755
1434150609.337,72.446045
1434150609.352,60.95044
1434150609.368,46.660583
1434150609.384,31.015503
1434150609.399,15.260651
1434150609.415,0.28860474
1434150609.431,-13.3573
1434150609.446,-25.339691
1434150609.462,-35.456146
1434150609.477,-43.58789
1434150609.493,-49.773193
1434150609.509,-54.24362
1434150609.524,-57.388
1434150609.54,-59.668488
1434150609.556,-61.46176
1434150609.571,-62.97992
1434150609.587,-64.193756
1434150609.602,-64.96524
1434150609.618,-65.15457
1434150609.634,-64.721375
1434150609.649,-63.802948
1434150609.665,-62.591736
1434150609.681,-61.245514
1434150609.696,-59.786743
1434150609.712,-58.072205
1434150609.727,-55.884277
1434150609.743,-53.065002
1434150609.759,-49.5589
1434150609.774,-45.462616
1434150609.79,-40.909943
1434150609.806,-36.04831
1434150609.821,-30.980408
1434150609.837,-25.708359
1434150609.852,-20.217697
1434150609.868,-14.486343
1434150609.884,-8.523544
1434150609.899,-2.4199677
1434150609.915,3.7276459
1434150609.931,9.812256
1434150609.946,15.809586
1434150609.962,21.782227
1434150609.977,27.896942
1434150609.993,34.341904
1434150610.009,41.336426
1434150610.024,49.037857
1434150610.04,57.47728
1434150610.056,66.4106
1434150610.071,75.20471
1434150610.087,82.8363
1434150610.102,88.00589
1434150610.118,89.462814
1434150610.134,86.428314
1434150610.149,78.91907
1434150610.165,67.80455
1434150610.181,54.53076
1434150610.196,40.658875
1434150610.212,27.397598
1434150610.227,15.393204
1434150610.243,4.780945
1434150610.259,-4.5213776
1434150610.274,-12.597153
1434150610.29,-19.341537
1434150610.306,-24.601532
1434150610.321,-28.294388
1434150610.337,-30.512222
1434150610.352,-31.572006
1434150610.368,-31.960724
1434150610.384,-32.153137
1434150610.399,-32.518433
1434150610.415,-33.193512
1434150610.431,-34.09279
1434150610.446,-34.967514
1434150610.462,-35.55562
1434150610.478,-35.64363
1434150610.493,-35.199158
1434150610.509,-34.28589
1434150610.524,-32.976517
1434150610.54,-31.287842
1434150610.556,-29.169815
1434150610.571,-26.554672
1434150610.587,-23.429642
1434150610.603,-19.873138
1434150610.618,-15.994186
1434150610.634,-11.868912
1434150610.649,-7.5125732
1434150610.665,-2.9052734
1434150610.681,1.9055939
1434150610.696,6.8184967
1434150610.712,11.704514
1434150610.728,16.480042
1434150610.743,21.165192
1434150610.759,25.917831
1434150610.774,30.955978
1434150610.79,36.56595
1434150610.806,42.952164
1434150610.821,50.134857
1434150610.837,57.73752
1434150610.853,64.90611
1434150610.868,70.3795
1434150610.884,72.746216
1434150610.899,70.95746
1434150610.915,64.695404
1434150610.931,54.545654
1434150610.946,41.794876
1434150610.962,27.98883
1434150610.978,14.463013
1434150610.993,2.0605316
1434150611.009,-8.88736
1434150611.024,-18.342148
1434150611.04,-26.327576
1434150611.056,-32.837463
1434150611.071,-37.86856
1434150611.087,-41.52481
1434150611.103,-44.098404
1434150611.118,-46.01149
1434150611.134,-47.652878
1434150611.149,-49.22444
1434150611.165,-50.66655
1434150611.181,-51.73221
1434150611.196,-52.15262
1434150611.212,-51.87047
1434150611.228,-51.070206
1434150611.243,-50.10367
1434150611.259,-49.2647
1434150611.274,-48.575912
1434150611.29,-47.721573
1434150611.306,-46.21807
1434150611.321,-43.6874
1434150611.337,-40.05239
1434150611.353,-35.628014
1434150611.368,-30.921104
1434150611.384,-26.369324
1434150611.399,-22.206413
1434150611.415,-18.333084
1434150611.431,-14.50148
1434150611.446,-10.408333
1434150611.462,-5.8885803
1434150611.478,-0.8927994
1434150611.493,4.47213
1434150611.509,10.018692
1434150611.524,15.534935
1434150611.54,20.843224
1434150611.556,25.862411
1434150611.571,30.687744
1434150611.587,35.610603
1434150611.603,41.068703
1434150611.618,47.49404
1434150611.634,55.05094
1434150611.649,63.486412
1434150611.665,71.9624
1434150611.681,79.17284
1434150611.696,83.628006
1434150611.712,84.07991
1434150611.728,79.92164
1434150611.743,71.3782
1434150611.759,59.48229
1434150611.774,45.688675
1434150611.79,31.471954
1434150611.806,17.9556
1434150611.821,5.811577
1434150611.837,-4.7103996
1434150611.853,-13.552662
1434150611.868,-20.750397
1434150611.884,-26.351574
1434150611.899,-30.495747
1434150611.915,-33.46303
1434150611.931,-35.64256
1434150611.946,-37.421158
1434150611.962,-39.076324
1434150611.978,-40.665356
1434150611.993,-42.042145
1434150612.009,-42.99582
1434150612.024,-43.358753
1434150612.04,-43.091267
1434150612.056,-42.345093
1434150612.071,-41.362156
1434150612.087,-40.39566
1434150612.103,-39.557808
1434150612.118,-38.760025
1434150612.134,-37.74344
1434150612.149,-36.17597
1434150612.165,-33.781208
1434150612.181,-30.501198
1434150612.196,-26.5205
1434150612.212,-22.197235
1434150612.228,-17.9097
1434150612.243,-13.928648
1434150612.259,-10.316847
1434150612.274,-6.8868046
1434150612.29,-3.3417187
1434150612.306,0.5905361
1434150612.321,5.036667
1434150612.337,9.875088
1434150612.353,14.830582
1434150612.368,19.574284
1434150612.384,23.898624
1434150612.399,27.871944
1434150612.415,31.79895
1434150612.431,36.1114
1434150612.446,41.177673
1434150612.462,47.16857
1434150612.478,53.97851
1434150612.493,61.244007
1434150612.509,68.381775
1434150612.524,74.602325
1434150612.54,78.99194
1434150612.556,80.60518
1434150612.571,78.72435
1434150612.587,73.09769
1434150612.603,64.07938
1434150612.618,52.57657
1434150612.634,39.777893
1434150612.649,26.79647
1434150612.665,14.414223
1434150612.681,3.0349884
1434150612.696,-7.1869736
1434150612.712,-16.169228
1434150612.728,-23.777008
1434150612.743,-29.854492
1434150612.759,-34.32949
1434150612.774,-37.311256
1434150612.79,-39.103645
1434150612.806,-40.136055
1434150612.821,-40.817383
1434150612.837,-41.465347
1434150612.853,-42.171402
1434150612.868,-42.85116
1434150612.884,-43.309044
1434150612.899,-43.358917
1434150612.915,-42.923332
1434150612.931,-42.08757
1434150612.946,-41.04297
1434150612.962,-39.94452
1434150612.978,-38.799515
1434150612.993,-37.426315
1434150613.009,-35.57818
1434150613.024,-33.08126
1434150613.04,-29.962173
1434150613.056,-26.461311
1434150613.071,-22.895065
1434150613.087,-19.509209
1434150613.103,-16.360703
1434150613.118,-13.324722
1434150613.134,-10.190964
1434150613.15,-6.7678375
1434150613.165,-2.9302826
1434150613.181,1.3202057
1434150613.196,5.9097595
1434150613.212,10.712326
1434150613.228,15.579697
1434150613.243,20.367584
1434150613.259,24.98375
1434150613.275,29.441116
1434150613.29,33.896927
1434150613.306,38.617355
1434150613.321,43.966965
1434150613.337,50.25081
1434150613.353,57.52539
1434150613.368,65.43956
1434150613.384,73.16841
1434150613.4,79.520096
1434150613.415,83.24399
1434150613.431,83.3882
1434150613.446,79.59256
1434150613.462,72.15968
1434150613.478,61.9646
1434150613.493,50.14627
1434150613.509,37.85251
1434150613.525,25.999405
1434150613.54,15.21637
1434150613.556,5.8683624
1434150613.571,-1.886673
1434150613.587,-8.002762
1434150613.603,-12.552994
1434150613.618,-15.708466
1434150613.634,-17.716507
1434150613.65,-18.906006
1434150613.665,-19.64003
1434150613.681,-20.258316
1434150613.696,-21.024445
1434150613.712,-22.05072
1434150613.728,-23.289215
1434150613.743,-24.60344
1434150613.759,-25.85852
1434150613.775,-26.996552
1434150613.79,-28.011703
1434150613.806,-28.890366
1434150613.821,-29.517746
1434150613.837,-29.700745
1434150613.853,-29.202179
1434150613.868,-27.928238
1434150613.884,-25.949966
1434150613.9,-23.448547
1434150613.915,-20.595154
1434150613.931,-17.45398
1434150613.946,-13.945831
1434150613.962,-9.996872
1434150613.978,-5.5796814
1434150613.993,-0.79545593
1434150614.009,4.159958
1434150614.025,9.094254
1434150614.04,13.88269
1434150614.056,18.476929
1434150614.071,22.917984
1434150614.087,27.291946
1434150614.103,31.795883
1434150614.118,36.70038
1434150614.134,42.251984
1434150614.15,48.515198
1434150614.165,55.143814
1434150614.181,61.30397
1434150614.196,65.834885
1434150614.212,67.53552
1434150614.228,65.60173
1434150614.243,59.879593
1434150614.259,50.91707
1434150614.275,39.77945
1434150614.29,27.741928
1434150614.306,15.919647
1434150614.321,5.115219
1434150614.337,-4.234604
1434150614.353,-11.950714
1434150614.368,-18.010178
1434150614.384,-22.41542
1434150614.4,-25.244507
1434150614.415,-26.627151
1434150614.431,-26.831955
1434150614.446,-26.204956
1434150614.462,-25.115646
1434150614.478,-23.885757
1434150614.493,-22.786575
1434150614.509,-22.03357
1434150614.525,-21.830902
1434150614.54,-22.32634
1434150614.556,-23.58043
1434150614.571,-25.454636
1434150614.587,-27.656479
1434150614.603,-29.786316
1434150614.618,-31.477173
1434150614.634,-32.524963
1434150614.65,-32.86403
1434150614.665,-32.52539
1434150614.681,-31.544556
1434150614.696,-29.885162
1434150614.712,-27.489182
1434150614.728,-24.315521
1434150614.743,-20.441345
1434150614.759,-16.025757
1434150614.775,-11.285248
1434150614.79,-6.383972
1434150614.806,-1.4007721
1434150614.821,3.688858
1434150614.837,8.980637
1434150614.853,14.611008
1434150614.868,20.695114
1434150614.884,27.34674
1434150614.9,34.65454
1434150614.915,42.701065
1434150614.931,51.416336
1434150614.946,60.44751
1434150614.962,68.984406
1434150614.978,75.85927
1434150614.993,79.70999
1434150615.009,79.458725
1434150615.025,74.69034
1434150615.04,65.88153
1434150615.056,54.25302
1434150615.071,41.373
1434150615.087,28.664063
1434150615.103,17.051651
1434150615.118,6.8897247
1434150615.134,-1.8665771
1434150615.15,-9.40741
1434150615.165,-15.826263
1434150615.181,-21.09224
1434150615.196,-25.084442
1434150615.212,-27.761261
1434150615.228,-29.23584
1434150615.243,-29.857681
1434150615.259,-30.134308
1434150615.275,-30.57138
1434150615.29,-31.460999
1434150615.306,-32.769836
1434150615.321,-34.109177
1434150615.337,-34.94043
1434150615.353,-34.774826
1434150615.368,-33.388947
1434150615.384,-30.867981
1434150615.4,-27.489853
1434150615.415,-23.556915
1434150615.431,-19.261269
1434150615.446,-14.65007
1434150615.462,-9.655159
1434150615.478,-4.1259384
1434150615.493,2.1245651
1434150615.509,9.321518
1434150615.525,17.62661
1434150615.54,27.00512
1434150615.556,37.12121
1434150615.571,47.330177
1434150615.587,56.846344
1434150615.603,64.96913
1434150615.618,71.32227
1434150615.634,75.93634
1434150615.65,79.234764
1434150615.665,81.84926
1434150615.681,84.4789
1434150615.696,87.63769
1434150615.712,91.42777
1434150615.728,95.37941
1434150615.743,98.416016
1434150615.759,99.08921
1434150615.775,96.03395
1434150615.79,88.4323
1434150615.806,76.33634
1434150615.822,60.63859
1434150615.837,42.762383
1434150615.853,24.205044
1434150615.868,6.147848
1434150615.884,-10.646046
1434150615.9,-25.780455
1434150615.915,-39.038826
1434150615.931,-50.25497
1434150615.946,-59.305164
1434150615.962,-66.13311
1434150615.978,-70.86502
1434150615.993,-73.81064
1434150616.009,-75.34205
1434150616.025,-75.80811
1434150616.04,-75.36956
1434150616.056,-73.9942
1434150616.072,-71.54197
1434150616.087,-67.914505
1434150616.103,-63.23954
1434150616.118,-57.88908
1434150616.134,-52.35849
1434150616.15,-47.077324
1434150616.165,-42.192146
1434150616.181,-37.528584
1434150616.197,-32.6828
1434150616.212,-27.238762
1434150616.228,-20.984848
1434150616.243,-14.038712
1434150616.259,-6.810013
1434150616.275,0.17191315
1434150616.29,6.4700165
1434150616.306,11.933777
1434150616.322,16.738777
1434150616.337,21.399857
1434150616.353,26.566475
1434150616.368,32.83113
1434150616.384,40.556343
1434150616.4,49.718925
1434150616.415,59.83165
1434150616.431,69.941986
1434150616.447,78.70891
1434150616.462,84.57999
1434150616.478,86.12381
1434150616.493,82.38129
1434150616.509,73.185974
1434150616.525,59.304565
1434150616.54,42.231567
1434150616.556,23.833237
1434150616.572,5.8079376
1434150616.587,-10.610779
1434150616.603,-24.808868
1434150616.618,-36.639862
1434150616.634,-46.176025
1434150616.65,-53.548355
1434150616.665,-58.82904
1434150616.681,-62.09227
1434150616.697,-63.49315
1434150616.712,-63.330994
1434150616.728,-61.96469
1434150616.743,-59.824768
1434150616.759,-57.288437
1434150616.775,-54.657578
1434150616.79,-52.17209
1434150616.806,-49.97287
1434150616.822,-48.099228
1434150616.837,-46.464493
1434150616.853,-44.882706
1434150616.868,-43.08194
1434150616.884,-40.7502
1434150616.9,-37.61165
1434150616.915,-33.482773
1434150616.931,-28.327972
1434150616.947,-22.26764
1434150616.962,-15.587677
1434150616.978,-8.603241
1434150616.993,-1.5822144
1434150617.009,5.410919
1434150617.025,12.578003
1434150617.04,20.33429
1434150617.056,29.069122
1434150617.072,38.83429
1434150617.087,49.070465
1434150617.103,58.540497
1434150617.118,65.529724
1434150617.134,68.39499
1434150617.15,66.04605
1434150617.165,58.347168
1434150617.181,46.1633
1434150617.197,31.074219
1434150617.212,14.851837
1434150617.228,-1.0046082
1434150617.243,-15.523254
1434150617.259,-28.26004
1434150617.275,-39.096893
1434150617.29,-48.03592
1434150617.306,-55.119537
1434150617.322,-60.40631
1434150617.337,-64.031525
1434150617.353,-66.238495
1434150617.368,-67.35196
1434150617.384,-67.69031
1434150617.4,-67.48181
1434150617.415,-66.82114
1434150617.431,-65.67258
1434150617.447,-63.933075
1434150617.462,-61.55597
1434150617.478,-58.632935
1434150617.493,-55.42975
1434150617.509,-52.277954
1434150617.525,-49.43869
1434150617.54,-46.935333
1434150617.556,-44.50891
1434150617.572,-41.65329
1434150617.587,-37.822723
1434150617.603,-32.65912
1434150617.618,-26.17862
1434150617.634,-18.774567
1434150617.65,-11.077148
1434150617.665,-3.6750793
1434150617.681,3.0796204
1434150617.697,9.184662
1434150617.712,14.98642
1434150617.728,20.996582
1434150617.743,27.760437
1434150617.759,35.70508
1434150617.775,44.911285
1434150617.79,54.997864
1434150617.806,64.98605
1434150617.822,73.427155
1434150617.837,78.65781
1434150617.853,79.26535
1434150617.868,74.54053
1434150617.884,64.71338
1434150617.9,50.936646
1434150617.915,34.896637
1434150617.931,18.297241
1434150617.947,2.4907227
1434150617.962,-11.759644
1434150617.978,-24.174103
1434150617.993,-34.734863
1434150618.009,-43.473816
1434150618.025,-50.402527
1434150618.04,-55.503662
1434150618.056,-58.888367
1434150618.072,-60.80664
1434150618.087,-61.650024
1434150618.103,-61.807556
1434150618.118,-61.587494
1434150618.134,-61.117584
1434150618.15,-60.414917
1434150618.165,-59.44925
1434150618.181,-58.25943
1434150618.197,-56.967102
1434150618.212,-55.673004
1434150618.228,-54.39023
1434150618.243,-52.99948
1434150618.259,-51.257782
1434150618.275,-48.93628
1434150618.29,-45.904022
1434150618.306,-42.248566
1434150618.322,-38.2229
1434150618.337,-34.160645
1434150618.353,-30.28476
1434150618.368,-26.616714
1434150618.384,-22.957993
1434150618.4,-18.943726
1434150618.415,-14.245636
1434150618.431,-8.732666
1434150618.447,-2.5354004
1434150618.462,4.0092316
1434150618.478,10.486252
1434150618.494,16.582352
1434150618.509,22.165436
1434150618.525,27.333847
1434150618.54,32.365204
1434150618.556,37.67926
1434150618.572,43.749466
1434150618.587,50.932358
1434150618.603,59.262512
1434150618.618,68.203064
1434150618.634,76.55623
1434150618.65,82.66368
1434150618.665,84.834595
1434150618.681,81.95166
1434150618.697,73.854416
1434150618.712,61.39148
1434150618.728,46.141342
1434150618.744,29.852219
1434150618.759,14.017502
1434150618.775,-0.38726807
1434150618.79,-12.846298
1434150618.806,-23.173172
1434150618.822,-31.38591
1434150618.837,-37.670654
1434150618.853,-42.35356
1434150618.869,-45.840485
1434150618.884,-48.54335
1434150618.9,-50.719467
1434150618.915,-52.44954
1434150618.931,-53.681824
1434150618.947,-54.31324
1434150618.962,-54.312576
1434150618.978,-53.72293
1434150618.994,-52.637497
1434150619.009,-51.145096
1434150619.025,-49.270477
1434150619.04,-46.99334
1434150619.056,-44.29534
1434150619.072,-41.182632
1434150619.087,-37.687668
1434150619.103,-33.85845
1434150619.119,-29.710281
1434150619.134,-25.212318
1434150619.15,-20.288185
1434150619.165,-14.891602
1434150619.181,-8.998699
1434150619.197,-2.640541
1434150619.212,4.087387
1434150619.228,11.104443
1434150619.244,18.342274
1434150619.259,25.791737
1434150619.275,33.413166
1434150619.29,41.158726
1434150619.306,48.942924
1434150619.322,56.770634
1434150619.337,64.73043
1434150619.353,72.998856
1434150619.369,81.69311
1434150619.384,90.59093
1434150619.4,98.96002
1434150619.415,105.596
1434150619.431,109.10249
1434150619.447,108.35844
1434150619.462,102.90169
1434150619.478,93.15598
1434150619.494,80.251686
1434150619.509,65.676605
1434150619.525,50.821785
1434150619.54,36.705456
1434150619.556,23.895897
1434150619.572,12.668786
1434150619.587,3.123438
1434150619.603,-4.646652
1434150619.619,-10.620369
1434150619.634,-14.885258
1434150619.65,-17.662308
1434150619.665,-19.29551
1434150619.681,-20.152498
1434150619.697,-20.5142
1434150619.712,-20.528803
1434150619.728,-20.25559
1434150619.744,-19.707857
1434150619.759,-18.916674
1434150619.775,-17.980803
1434150619.79,-17.003532
1434150619.806,-16.091722
1434150619.822,-15.230978
1434150619.837,-14.293957
1434150619.853,-13.033455
1434150619.869,-11.1702385
1434150619.884,-8.470066
1434150619.9,-4.855255
1434150619.915,-0.44127655
1434150619.931,4.4870872
1434150619.947,9.628719
1434150619.962,14.711229
1434150619.978,19.665936
1434150619.994,24.65345
1434150620.009,30.065735
1434150620.025,36.357445
1434150620.04,43.851784
1434150620.056,52.49365
1434150620.072,61.667282
1434150620.087,70.185326
1434150620.103,76.5041
1434150620.119,79.14598
1434150620.134,77.156456
1434150620.15,70.41407
1434150620.165,59.6406
1434150620.181,46.140285
1434150620.197,31.350891
1434150620.212,16.464554
1434150620.228,2.2632332
1434150620.244,-10.85832
1434150620.259,-22.63458
1434150620.275,-32.814438
1434150620.29,-41.074707
1434150620.306,-47.200157
1434150620.322,-51.173317
1434150620.337,-53.3144
1434150620.353,-54.143475
1434150620.369,-54.224186
1434150620.384,-53.929863
1434150620.4,-53.354412
1434150620.415,-52.38221
1434150620.431,-50.841454
1434150620.447,-48.68239
1434150620.462,-46.066093
1434150620.478,-43.308403
1434150620.494,-40.727665
1434150620.509,-38.43952
1434150620.525,-36.2995
1434150620.54,-33.917374
1434150620.556,-30.83408
1434150620.572,-26.691969
1434150620.587,-21.401924
1434150620.603,-15.1674
1434150620.619,-8.430056
1434150620.634,-1.6380103
1434150620.65,4.880689
1434150620.665,11.060999
1434150620.681,17.069807
1434150620.697,23.247185
1434150620.712,29.99316
1434150620.728,37.65829
1434150620.744,46.447807
1434150620.759,56.277657
1434150620.775,66.57887
1434150620.79,76.25881
1434150620.806,83.794945
1434150620.822,87.618515
1434150620.837,86.56414
1434150620.853,80.30545
1434150620.869,69.4559
1434150620.884,55.379547
1434150620.9,39.698704
1434150620.915,23.871822
1434150620.931,8.869497
1434150620.947,-4.773654
1434150620.962,-16.872622
1434150620.978,-27.325243
1434150620.994,-36.037373
1434150621.009,-42.924824
1434150621.025,-47.957752
1434150621.04,-51.23791
1434150621.056,-52.99163
1434150621.072,-53.56077
1434150621.087,-53.32667
1434150621.103,-52.634598
1434150621.119,-51.73346
1434150621.134,-50.72066
1434150621.15,-49.559723
1434150621.165,-48.12239
1434150621.181,-46.296856
1434150621.197,-44.053223
1434150621.212,-41.447273
1434150621.228,-38.575844
1434150621.244,-35.548744
1434150621.259,-32.410587
1434150621.275,-29.11897
1434150621.29,-25.58277
1434150621.306,-21.65805
1434150621.322,-17.210407
1434150621.337,-12.149133
1434150621.353,-6.4788275
1434150621.369,-0.32253265
1434150621.384,6.1253433
1434150621.4,12.633029
1434150621.416,19.024124
1434150621.431,25.207523
1434150621.447,31.222206
1434150621.462,37.20218
1434150621.478,43.371857
1434150621.494,50.023766
1434150621.509,57.481453
1434150621.525,65.93742
1434150621.541,75.18036
1434150621.556,84.41522
1434150621.572,92.22409
1434150621.587,96.87405
1434150621.603,96.83919
1434150621.619,91.31706
1434150621.634,80.57553
1434150621.65,65.806015
1434150621.666,48.732704
1434150621.681,31.075293
1434150621.697,14.146507
1434150621.712,-1.274519
1434150621.728,-14.814987
1434150621.744,-26.325916
1434150621.759,-35.722065
1434150621.775,-42.96688
1434150621.791,-48.14505
1434150621.806,-51.505653
1434150621.822,-53.431396
1434150621.837,-54.35312
1434150621.853,-54.614464
1434150621.869,-54.441677
1434150621.884,-53.900314
1434150621.9,-53.034782
1434150621.916,-51.914894
1434150621.931,-50.71728
1434150621.947,-49.657795
1434150621.962,-48.882805
1434150621.978,-48.377796
1434150621.994,-47.92223
1434150622.009,-47.152008
1434150622.025,-45.70405
1434150622.041,-43.365242
1434150622.056,-40.158836
1434150622.072,-36.327568
1434150622.087,-32.21778
1434150622.103,-28.122238
1434150622.119,-24.177599
1434150622.134,-20.28761
1434150622.15,-16.199299
1434150622.166,-11.626133
1434150622.181,-6.394432
1434150622.197,-0.5306759
1434150622.212,5.7427464
1434150622.228,12.118885
1434150622.244,18.317741
1434150622.259,24.239748
1434150622.275,29.984879
1434150622.291,35.81858
1434150622.306,42.127625
1434150622.322,49.296947
1434150622.337,57.532425
1434150622.353,66.65053
1434150622.369,75.889084
1434150622.384,83.90347
1434150622.4,88.96713
1434150622.416,89.47824
1434150622.431,84.46723
1434150622.447,73.99126
1434150622.462,59.177124
1434150622.478,41.84379
1434150622.494,23.956476
1434150622.509,7.1386967
1434150622.525,-7.6153736
1434150622.541,-19.91129
1434150622.556,-29.781599
1434150622.572,-37.44208
1434150622.587,-43.168266
1434150622.603,-47.20026
1434150622.619,-49.81829
1434150622.634,-51.30835
1434150622.65,-51.99126
1434150622.666,-52.201744
1434150622.681,-52.25956
1434150622.697,-52.344345
1434150622.712,-52.54554
1434150622.728,-52.759373
1434150622.744,-52.82775
1434150622.759,-52.583794
1434150622.775,-51.938713
1434150622.791,-50.880135
1434150622.806,-49.41046
1434150622.822,-47.500687
1434150622.837,-45.043285
1434150622.853,-41.947266
1434150622.869,-38.17794
1434150622.884,-33.77964
1434150622.9,-28.843597
1434150622.916,-23.41743
1434150622.931,-17.473013
1434150622.947,-10.9674225
1434150622.962,-3.9198322
1434150622.978,3.5300417
1434150622.994,11.068621
1434150623.009,18.39209
1434150623.025,25.282808
1434150623.041,31.718435
1434150623.056,37.86299
1434150623.072,44.067482
1434150623.087,50.705017
1434150623.103,58.13394
1434150623.119,66.49183
1434150623.134,75.50554
1434150623.15,84.36389
1434150623.166,91.707214
1434150623.181,95.87337
1434150623.197,95.45151
1434150623.212,89.72074
1434150623.228,79.03157
1434150623.244,64.657265
1434150623.259,48.415173
1434150623.275,32.011723
1434150623.291,16.665363
1434150623.306,2.968828
1434150623.322,-8.8947735
1434150623.337,-18.8742
1434150623.353,-26.844917
1434150623.369,-32.640026
1434150623.384,-36.225132
1434150623.4,-37.85246
1434150623.416,-38.079727
1434150623.431,-37.63293
1434150623.447,-37.13455
1434150623.462,-36.9534
1434150623.478,-37.095284
1434150623.494,-37.309727
1434150623.509,-37.274017
1434150623.525,-36.699535
1434150623.541,-35.50949
1434150623.556,-33.826633
1434150623.572,-31.902176
1434150623.587,-29.96164
1434150623.603,-28.098602
1434150623.619,-26.190931
1434150623.634,-23.937721
1434150623.65,-20.950216
1434150623.666,-16.93073
1434150623.681,-11.863467
1434150623.697,-5.9746275
1434150623.712,0.2650113
1434150623.728,6.3864007
1434150623.744,12.07468
1434150623.759,17.312908
1434150623.775,22.362055
1434150623.791,27.654503
1434150623.806,33.629574
1434150623.822,40.641357
1434150623.837,48.83779
1434150623.853,58.05885
1434150623.869,67.75046
1434150623.884,76.87638
1434150623.9,83.99553
1434150623.916,87.54482
1434150623.931,86.26381
1434150623.947,79.668785
1434150623.962,68.21019
1434150623.978,53.220123
1434150623.994,36.45706
1434150624.009,19.607683
1434150624.025,3.9422016
1434150624.041,-9.852129
1434150624.056,-21.498995
1434150624.072,-30.931007
1434150624.088,-38.115215
1434150624.103,-43.05287
1434150624.119,-45.867004
1434150624.134,-46.895966
1434150624.15,-46.71411
1434150624.166,-45.965294
1434150624.181,-45.207336
1434150624.197,-44.718483
1434150624.213,-44.476257
1434150624.228,-44.191505
1434150624.244,-43.563717
1434150624.259,-42.407806
1434150624.275,-40.798416
1434150624.291,-38.97307
1434150624.306,-37.210796
1434150624.322,-35.655052
1434150624.338,-34.23484
1434150624.353,-32.66678
1434150624.369,-30.580597
1434150624.384,-27.632328
1434150624.4,-23.62698
1434150624.416,-18.556007
1434150624.431,-12.628746
1434150624.447,-6.2076225
1434150624.463,0.29177856
1434150624.478,6.552498
1434150624.494,12.441505
1434150624.509,18.098251
1434150624.525,23.902927
1434150624.541,30.383125
1434150624.556,37.967377
1434150624.572,46.860027
1434150624.588,56.768597
1434150624.603,66.82945
1434150624.619,75.64844
1434150624.634,81.56976
1434150624.65,83.08214
1434150624.666,79.269455
1434150624.681,70.16644
1434150624.697,56.740345
1434150624.713,40.640263
1434150624.728,23.710022
1434150624.744,7.4842415
1434150624.759,-7.0262947
1434150624.775,-19.409306
1434150624.791,-29.597504
1434150624.806,-37.666824
1434150624.822,-43.66616
1434150624.838,-47.6667
1434150624.853,-49.81274
1434150624.869,-50.440075
1434150624.884,-50.062954
1434150624.9,-49.269115
1434150624.916,-48.55214
1434150624.931,-48.154007
1434150624.947,-48.037624
1434150624.963,-47.93997
1434150624.978,-47.550934
1434150624.994,-46.678833
1434150625.009,-45.35742
1434150625.025,-43.812347
1434150625.041,-42.273346
1434150625.056,-40.84623
1434150625.072,-39.32026
1434150625.088,-37.310764
1434150625.103,-34.333782
1434150625.119,-30.119427
1434150625.134,-24.699657
1434150625.15,-18.435165
1434150625.166,-11.84185
1434150625.181,-5.3937874
1434150625.197,0.6224785
1434150625.213,6.178459
1434150625.228,11.443382
1434150625.244,16.670017
1434150625.259,22.156166
1434150625.275,28.21143
1434150625.291,35.094227
1434150625.306,42.88756
1434150625.322,51.322895
1434150625.338,59.61127
1434150625.353,66.500786
1434150625.369,70.50145
1434150625.384,70.36664
1434150625.4,65.44682
1434150625.416,55.998108
1434150625.431,43.078163
1434150625.447,28.225895
1434150625.463,13.030064
1434150625.478,-1.2395592
1434150625.494,-13.799759
1434150625.509,-24.302635
1434150625.525,-32.665035
1434150625.541,-38.883743
1434150625.556,-43.00046
1434150625.572,-45.10434
1434150625.588,-45.50276
1434150625.603,-44.68233
1434150625.619,-43.308495
1434150625.634,-42.005894
1434150625.65,-41.138428
1434150625.666,-40.67606
1434150625.681,-40.26815
1434150625.697,-39.391502
1434150625.713,-37.659943
1434150625.728,-34.993523
1434150625.744,-31.663872
1434150625.759,-28.130053
1434150625.775,-24.812496
1434150625.791,-21.856312
1434150625.806,-19.069048
1434150625.822,-16.0124
1434150625.838,-12.200144
1434150625.853,-7.314131
1434150625.869,-1.3631554
1434150625.884,5.338932
1434150625.9,12.275581
1434150625.916,18.927221
1434150625.931,24.927523
1434150625.947,30.178226
1434150625.963,34.83824
1434150625.978,39.28621
1434150625.994,43.996212
1434150626.009,49.47661
1434150626.025,56.08255
1434150626.041,63.863583
1434150626.056,72.361305
1434150626.072,80.55711
1434150626.088,86.989914
1434150626.103,90.11984
1434150626.119,88.773674
1434150626.134,82.53182
1434150626.15,71.86361
1434150626.166,57.98271
1434150626.181,42.42397
1434150626.197,26.691008
1434150626.213,11.89644
1434150626.228,-1.2502546
1434150626.244,-12.457654
1434150626.259,-21.638136
1434150626.275,-28.822426
1434150626.291,-34.064034
1434150626.306,-37.501945
1434150626.322,-39.32453
1434150626.338,-39.890347
1434150626.353,-39.658257
1434150626.369,-39.136024
1434150626.384,-38.74978
1434150626.4,-38.72285
1434150626.416,-39.01989
1434150626.431,-39.397602
1434150626.447,-39.543938
1434150626.463,-39.22991
1434150626.478,-38.396507
1434150626.494,-37.16708
1434150626.509,-35.7076
1434150626.525,-34.088974
1434150626.541,-32.20172
1434150626.556,-29.794365
1434150626.572,-26.54845
1434150626.588,-22.290916
1434150626.603,-17.065754
1434150626.619,-11.138979
1434150626.634,-4.894556
1434150626.65,1.3111496
1434150626.666,7.271372
1434150626.681,12.932451
1434150626.697,18.380714
1434150626.713,23.747892
1434150626.728,29.208477
1434150626.744,35.006958
1434150626.76,41.419647
1434150626.775,48.6355
1434150626.791,56.585106
1434150626.806,64.68599
1434150626.822,71.84279
1434150626.838,76.6159
1434150626.853,77.64841
1434150626.869,74.09308
1434150626.885,65.954605
1434150626.9,54.05099
1434150626.916,39.79261
1434150626.931,24.714558
1434150626.947,10.112677
1434150626.963,-3.1849823
1434150626.978,-14.758331
1434150626.994,-24.476528
1434150627.01,-32.31395
1434150627.025,-38.28163
1434150627.041,-42.442993
1434150627.056,-44.993317
1434150627.072,-46.28301
1434150627.088,-46.740765
1434150627.103,-46.79686
1434150627.119,-46.72577
1434150627.135,-46.608955
1434150627.15,-46.356552
1434150627.166,-45.84127
1434150627.181,-45.037468
1434150627.197,-44.00247
1434150627.213,-42.867928
1434150627.228,-41.685402
1434150627.244,-40.401833
1434150627.26,-38.835182
1434150627.275,-36.808594
1434150627.291,-34.20717
1434150627.306,-31.076735
1434150627.322,-27.535162
1434150627.338,-23.717766
1434150627.353,-19.665102
1434150627.369,-15.341364
1434150627.385,-10.652712
1434150627.4,-5.587494
1434150627.416,-0.20802689
1434150627.431,5.3209248
1434150627.447,10.833393
1434150627.463,16.227444
1434150627.478,21.52135
1434150627.494,26.83412
1434150627.51,32.402637
1434150627.525,38.48743
1434150627.541,45.36414
1434150627.556,53.17537
1434150627.572,61.74244
1434150627.588,70.42916
1434150627.603,78.06583
1434150627.619,83.1367
1434150627.635,84.19048
1434150627.65,80.30006
1434150627.666,71.47142
1434150627.681,58.648857
1434150627.697,43.451744
1434150627.713,27.62598
1434150627.728,12.597372
1434150627.744,-0.83065224
1434150627.76,-12.413414
1434150627.775,-22.206614
1434150627.791,-30.311733
1434150627.806,-36.742348
1434150627.822,-41.47374
1434150627.838,-44.580482
1434150627.853,-46.32688
1434150627.869,-47.149643
1434150627.885,-47.524628
1434150627.9,-47.83008
1434150627.916,-48.19554
1434150627.931,-48.52105
1434150627.947,-48.62262
1434150627.963,-48.35447
1434150627.978,-47.7536
1434150627.994,-47.014465
1434150628.01,-46.348557
1434150628.025,-45.845383
1434150628.041,-45.32908
1434150628.056,-44.431725
1434150628.072,-42.720596
1434150628.088,-39.983315
1434150628.103,-36.270996
1434150628.119,-31.920094
1434150628.135,-27.326548
1434150628.15,-22.763254
1434150628.166,-18.27644
1434150628.181,-13.7096615
1434150628.197,-8.866894
1434150628.213,-3.6701765
1434150628.228,1.817112
1434150628.244,7.402108
1434150628.26,12.867202
1434150628.275,18.094833
1434150628.291,23.113474
1434150628.306,28.086567
1434150628.322,33.335598
1434150628.338,39.236168
1434150628.353,46.147846
1434150628.369,54.24041
1434150628.385,63.291973
1434150628.4,72.50923
1434150628.416,80.56793
1434150628.431,85.84948
1434150628.447,86.89485
1434150628.463,82.89307
1434150628.478,73.96748
1434150628.494,61.170517
1434150628.51,46.143925
1434150628.525,30.5968
1434150628.541,15.907526
1434150628.556,2.8925996
1434150628.572,-8.126249
1434150628.588,-17.141682
1434150628.603,-24.237442
1434150628.619,-29.547567
1434150628.635,-33.236565
1434150628.65,-35.563683
1434150628.666,-36.874847
1434150628.681,-37.56154
1434150628.697,-37.931442
1434150628.713,-38.16717
1434150628.728,-38.287766
1434150628.744,-38.21552
1434150628.76,-37.90094
1434150628.775,-37.361935
1434150628.791,-36.691635
1434150628.806,-35.99474
1434150628.822,-35.327507
1434150628.838,-34.62348
1434150628.853,-33.699226
1434150628.869,-32.326767
1434150628.885,-30.340036
1434150628.9,-27.695297
1434150628.916,-24.474413
1434150628.931,-20.851397
1434150628.947,-16.976906
1434150628.963,-12.905226
1434150628.978,-8.573967
1434150628.994,-3.889511
1434150629.01,1.2305183
1434150629.025,6.726307
1434150629.041,12.415245
1434150629.056,18.034561
1434150629.072,23.339144
1434150629.088,28.203342
1434150629.103,32.703125
1434150629.119,37.100266
1434150629.135,41.80113
1434150629.15,47.287685
1434150629.166,53.933167
1434150629.181,61.8635
1434150629.197,70.75267
1434150629.213,79.67283
1434150629.228,87.220184
1434150629.244,91.75811
1434150629.26,91.9261
1434150629.275,87.03845
1434150629.291,77.35855
1434150629.306,63.97492
1434150629.322,48.49554
1434150629.338,32.51243
1434150629.353,17.29681
1434150629.369,3.6269817
1434150629.385,-8.144398
1434150629.4,-17.928411
1434150629.416,-25.766424
1434150629.432,-31.78573
1434150629.447,-36.21334
1434150629.463,-39.375008
1434150629.478,-41.661205
1434150629.494,-43.481052
1434150629.51,-45.11541
1434150629.525,-46.697357
1434150629.541,-48.19989
1434150629.556,-49.51548
1434150629.572,-50.516785
1434150629.588,-51.14001
1434150629.603,-51.402527
1434150629.619,-51.3742
1434150629.635,-51.118332
1434150629.65,-50.629555
1434150629.666,-49.77519
1434150629.682,-48.36659
1434150629.697,-46.209587
1434150629.713,-43.23549
1434150629.728,-39.518604
1434150629.744,-35.3
1434150629.76,-30.845417
1434150629.775,-26.374102
1434150629.791,-21.931042
1434150629.807,-17.414898
1434150629.822,-12.595419
1434150629.838,-7.289566
1434150629.853,-1.4287701
1434150629.869,4.888672
1434150629.885,11.403849
1434150629.9,17.810616
1434150629.916,23.868568
1434150629.932,29.50108
1434150629.947,34.82798
1434150629.963,40.178104
1434150629.978,45.98365
1434150629.994,52.64383
1434150630.01,60.31796
1434150630.025,68.7228
1434150630.041,77.01271
1434150630.057,83.852615
1434150630.072,87.731224
1434150630.088,87.354706
1434150630.103,82.107666
1434150630.119,72.22652
1434150630.135,58.753487
1434150630.15,43.221508
1434150630.166,27.20224
1434150630.182,11.948023
1434150630.197,-1.7409625
1434150630.213,-13.522699
1434150630.228,-23.286066
1434150630.244,-31.06929
1434150630.26,-36.93333
1434150630.275,-41.036076
1434150630.291,-43.670162
1434150630.307,-45.26841
1434150630.322,-46.30152
1434150630.338,-47.172916
1434150630.353,-48.0706
1434150630.369,-48.96052
1434150630.385,-49.654305
1434150630.4,-49.946888
1434150630.416,-49.77992
1434150630.432,-49.302155
1434150630.447,-48.76785
1434150630.463,-48.388367
1434150630.478,-48.162903
1434150630.494,-47.845314
1434150630.51,-47.025078
1434150630.525,-45.332832
1434150630.541,-42.57703
1434150630.557,-38.86589
1434150630.572,-34.51767
1434150630.588,-29.959892
1434150630.603,-25.489117
1434150630.619,-21.23922
1434150630.635,-17.080019
1434150630.65,-12.750026
1434150630.666,-7.949094
1434150630.682,-2.4979916
1434150630.697,3.581501
1434150630.713,10.066782
1434150630.728,16.634169
1434150630.744,22.984709
1434150630.76,28.98703
1434150630.775,34.74884
1434150630.791,40.576683
1434150630.807,46.887238
1434150630.822,54.078297
1434150630.838,62.28296
1434150630.853,71.24223
1434150630.869,80.17504
1434150630.885,87.81455
1434150630.9,92.60841
1434150630.916,93.21453
1434150630.932,88.87723
1434150630.947,79.75845
1434150630.963,66.911575
1434150630.978,51.9608
1434150630.994,36.599754
1434150631.01,22.13462
1434150631.025,9.322998
1434150631.041,-1.6021233
1434150631.057,-10.653376
1434150631.072,-17.920374
1434150631.088,-23.44904
1434150631.103,-27.286726
1434150631.119,-29.606827
1434150631.135,-30.73293
1434150631.15,-31.112902
1434150631.166,-31.205343
1434150631.182,-31.361322
1434150631.197,-31.74623
1434150631.213,-32.34734
1434150631.228,-33.02752
1434150631.244,-33.6226
1434150631.26,-33.9855
1434150631.275,-34.026104
1434150631.291,-33.67813
1434150631.307,-32.890785
1434150631.322,-31.59216
1434150631.338,-29.720291
1434150631.353,-27.253698
1434150631.369,-24.238823
1434150631.385,-20.759853
1434150631.4,-16.905422
1434150631.416,-12.693905
1434150631.432,-8.096807
1434150631.447,-3.0407095
1434150631.463,2.51659
1434150631.478,8.538492
1434150631.494,14.876216
1434150631.51,21.326832
1434150631.525,27.698465
1434150631.541,33.873924
1434150631.557,39.89283
1434150631.572,45.958897
1434150631.588,52.43319
1434150631.603,59.701656
1434150631.619,67.94416
1434150631.635,76.87842
1434150631.65,85.56269
1434150631.666,92.50287
1434150631.682,95.99042
1434150631.697,94.67105
1434150631.713,88.01098
1434150631.728,76.50873
1434150631.744,61.483917
1434150631.76,44.665577
1434150631.775,27.625486
1434150631.791,11.539986
1434150631.807,-2.9136124
1434150631.822,-15.408676
1434150631.838,-25.817467
1434150631.853,-34.11764
1434150631.869,-40.386543
1434150631.885,-44.864735
1434150631.9,-47.948296
1434150631.916,-50.08274
1434150631.932,-51.66059
1434150631.947,-52.927975
1434150631.963,-53.981968
1434150631.978,-54.780384
1434150631.994,-55.27875
1434150632.01,-55.445587
1434150632.025,-55.326347
1434150632.041,-54.9659
1434150632.057,-54.424595
1434150632.072,-53.66897
1434150632.088,-52.569977
1434150632.103,-50.96776
1434150632.119,-48.745514
1434150632.135,-45.859695
1434150632.15,-42.34986
1434150632.166,-38.316086
1434150632.182,-33.831635
1434150632.197,-28.88704
1434150632.213,-23.448029
1434150632.228,-17.463158
1434150632.244,-10.968269
1434150632.26,-4.132103
1434150632.275,2.7690353
1434150632.291,9.434357
1434150632.307,15.636391
1434150632.322,21.377518
1434150632.338,26.844437
1434150632.354,32.43962
1434150632.369,38.631172
1434150632.385,45.8247
1434150632.4,54.215485
1434150632.416,63.589127
1434150632.432,73.18855
1434150632.447,81.74495
1434150632.463,87.642525
1434150632.479,89.31788
1434150632.494,85.74901
1434150632.51,76.8117
1434150632.525,63.363647
1434150632.541,47.04805
1434150632.557,29.739449
1434150632.572,13.048126
1434150632.588,-2.010971
1434150632.604,-15.060196
1434150632.619,-26.145493
1434150632.635,-35.463562
1434150632.65,-43.16082
1434150632.666,-49.288086
1434150632.682,-53.89583
1434150632.697,-57.123795
1434150632.713,-59.2325
1434150632.729,-60.545166
1434150632.744,-61.36316
1434150632.76,-61.840546
1434150632.775,-62.024467
1434150632.791,-61.91272
1434150632.807,-61.539024
1434150632.822,-60.991615
1434150632.838,-60.41352
1434150632.854,-59.859505
1434150632.869,-59.256104
1434150632.885,-58.355698
1434150632.9,-56.82364
1434150632.916,-54.37935
1434150632.932,-50.94204
1434150632.947,-46.62581
1434150632.963,-41.727142
1434150632.979,-36.585068
1434150632.994,-31.407166
1434150633.01,-26.227173
1434150633.025,-20.932312
1434150633.041,-15.337814
1434150633.057,-9.343414
1434150633.072,-3.0110855
1434150633.088,3.4351883
1434150633.104,9.711128
1434150633.119,15.5705185
1434150633.135,20.958931
1434150633.15,26.041367
1434150633.166,31.18946
1434150633.182,36.914238
1434150633.197,43.706245
1434150633.213,51.80748
1434150633.229,61.001472
1434150633.244,70.443954
1434150633.26,78.70773
1434150633.275,84.11702
1434150633.291,85.17821
1434150633.307,81.11217
1434150633.322,72.11508
1434150633.338,59.304276
1434150633.354,44.34098
1434150633.369,28.92144
1434150633.385,14.375557
1434150633.4,1.4687576
1434150633.416,-9.527229
1434150633.432,-18.645515
1434150633.447,-26.024979
1434150633.463,-31.801506
1434150633.479,-36.093956
1434150633.494,-39.06743
1434150633.51,-40.94771
1434150633.525,-41.994522
1434150633.541,-42.46588
1434150633.557,-42.56054
1434150633.572,-42.35591
1434150633.588,-41.83922
1434150633.604,-40.957222
1434150633.619,-39.666855
1434150633.635,-37.99185
1434150633.65,-36.02237
1434150633.666,-33.881065
1434150633.682,-31.661041
1434150633.697,-29.370552
1434150633.713,-26.940681
1434150633.729,-24.260864
1434150633.744,-21.236687
1434150633.76,-17.792923
1434150633.775,-13.907066
1434150633.791,-9.560844
1434150633.807,-4.791916
1434150633.822,0.3493805
1434150633.838,5.7259445
1434150633.854,11.178154
1434150633.869,16.514671
1434150633.885,21.599312
1434150633.9,26.413254
1434150633.916,31.045547
1434150633.932,35.711967
1434150633.947,40.717255
1434150633.963,46.39232
1434150633.979,53.008926
1434150633.994,60.58432
1434150634.01,68.72809
1434150634.025,76.52567
1434150634.041,82.64772
1434150634.057,85.62076
1434150634.072,84.28644
1434150634.088,78.221375
1434150634.104,67.87013
1434150634.119,54.443714
1434150634.135,39.51345
1434150634.15,24.540642
1434150634.166,10.568024
1434150634.182,-1.8903198
1434150634.197,-12.731766
1434150634.213,-22.041237
1434150634.229,-29.93108
1434150634.244,-36.467415
1434150634.26,-41.667675
1434150634.275,-45.58851
1434150634.291,-48.32395
1434150634.307,-50.065563
1434150634.322,-51.024166
1434150634.338,-51.433746
1434150634.354,-51.470444
1434150634.369,-51.27523
1434150634.385,-50.90405
1434150634.4,-50.385593
1434150634.416,-49.72083
1434150634.432,-48.89744
1434150634.447,-47.909832
1434150634.463,-46.677883
1434150634.479,-45.059883
1434150634.494,-42.8863
1434150634.51,-40.005703
1434150634.525,-36.3988
1434150634.541,-32.203053
1434150634.557,-27.65968
1434150634.572,-22.967823
1434150634.588,-18.174149
1434150634.604,-13.151817
1434150634.619,-7.686245
1434150634.635,-1.6340828
1434150634.65,4.9344597
1434150634.666,11.742916
1434150634.682,18.375946
1434150634.697,24.491966
1434150634.713,29.966362
1434150634.729,34.963818
1434150634.744,39.894337
1434150634.76,45.3013
1434150634.775,51.675117
1434150634.791,59.242706
1434150634.807,67.73787
1434150634.822,76.306244
1434150634.838,83.56866
1434150634.854,87.92421
1434150634.869,88.019424
1434150634.885,83.24403
1434150634.9,73.88481
1434150634.916,61.057354
1434150634.932,46.281178
1434150634.947,31.025745
1434150634.963,16.393532
1434150634.979,3.039215
1434150634.994,-8.734592
1434150635.01,-18.789604
1434150635.026,-27.063896
1434150635.041,-33.59452
1434150635.057,-38.56431
1434150635.072,-42.290607
1434150635.088,-45.17206
1434150635.104,-47.52788
1434150635.119,-49.550045
1434150635.135,-51.231705
1434150635.151,-52.471684
1434150635.166,-53.15737
1434150635.182,-53.245995
1434150635.197,-52.86395
1434150635.213,-52.22688
1434150635.229,-51.592804
1434150635.244,-51.149925
1434150635.26,-50.855988
1434150635.276,-50.428318
1434150635.291,-49.415516
1434150635.307,-47.41308
1434150635.322,-44.208096
1434150635.338,-39.923615
1434150635.354,-34.957832
1434150635.369,-29.810093
1434150635.385,-24.86222
1434150635.401,-20.232313
1434150635.416,-15.806185
1434150635.432,-11.296587
1434150635.447,-6.4491653
1434150635.463,-1.151577
1434150635.479,4.5065804
1434150635.494,10.319296
1434150635.51,16.04312
1434150635.526,21.500137
1434150635.541,26.66314
1434150635.557,31.642656
1434150635.572,36.696888
1434150635.588,42.141064
1434150635.604,48.359356
1434150635.619,55.58723
1434150635.635,63.829002
1434150635.651,72.6564
1434150635.666,81.07871
1434150635.682,87.688644
1434150635.697,90.96168
1434150635.713,89.713776
1434150635.729,83.519714
1434150635.744,72.8716
1434150635.76,59.000866
1434150635.776,43.466755
1434150635.791,27.725353
1434150635.807,12.817719
1434150635.822,-0.65463114
1434150635.838,-12.4441185
1434150635.854,-22.445475
1434150635.869,-30.652622
1434150635.885,-37.109165
1434150635.901,-41.9593
1434150635.916,-45.449074
1434150635.932,-47.884247
1434150635.947,-49.58138
1434150635.963,-50.780273
1434150635.979,-51.62394
1434150635.994,-52.140373
1434150636.01,-52.29378
1434150636.026,-52.052704
1434150636.041,-51.46284
1434150636.057,-50.6914
1434150636.072,-49.953114
1434150636.088,-49.427742
1434150636.104,-49.095886
1434150636.119,-48.713264
1434150636.135,-47.825256
1434150636.151,-46.000008
1434150636.166,-43.00202
1434150636.182,-38.915466
1434150636.197,-34.105484
1434150636.213,-29.10561
1434150636.229,-24.345509
1434150636.244,-19.996418
1434150636.26,-15.908562
1434150636.276,-11.695843
1434150636.291,-6.9472427
1434150636.307,-1.4387741
1434150636.322,4.7376747
1434150636.338,11.182014
1434150636.354,17.434925
1434150636.369,23.146996
1434150636.385,28.29763
1434150636.401,33.186996
1434150636.416,38.30305
1434150636.432,44.137943
1434150636.447,50.972088
1434150636.463,58.776356
1434150636.479,67.13177
1434150636.494,75.186165
1434150636.51,81.785866
1434150636.526,85.64681
1434150636.541,85.65878
1434150636.557,81.24092
1434150636.572,72.56602
1434150636.588,60.518265
1434150636.604,46.47793
1434150636.619,31.902885
1434150636.635,18.026886
1434150636.651,5.643715
1434150636.666,-4.8234634
1434150636.682,-13.233856
1434150636.697,-19.561928
1434150636.713,-23.91249
1434150636.729,-26.476349
1434150636.744,-27.60389
1434150636.76,-27.722176
1434150636.776,-27.288208
1434150636.791,-26.660294
1434150636.807,-26.048271
1434150636.822,-25.510155
1434150636.838,-25.004646
1434150636.854,-24.462883
1434150636.869,-23.86673
1434150636.885,-23.223282
1434150636.901,-22.560333
1434150636.916,-21.849968
1434150636.932,-21.012383
1434150636.947,-19.8899
1434150636.963,-18.352142
1434150636.979,-16.30349
1434150636.994,-13.810669
1434150637.01,-11.028732
1434150637.026,-8.139122
1434150637.041,-5.249794
1434150637.057,-2.3290253
1434150637.072,0.8059387
1434150637.088,4.3531647
1434150637.104,8.443848
1434150637.119,13.04039
1434150637.135,17.990501
1434150637.151,23.118523
1434150637.166,28.288918
1434150637.182,33.51345
1434150637.197,38.9077
1434150637.213,44.62063
1434150637.229,50.87246
1434150637.244,57.786247
1434150637.26,65.32843
1434150637.276,73.10297
1434150637.291,80.28167
1434150637.307,85.62617
1434150637.322,87.76936
1434150637.338,85.636894
1434150637.354,78.87256
1434150637.369,67.95378
1434150637.385,54.13307
1434150637.401,38.93905
1434150637.416,23.827255
1434150637.432,9.779243
1434150637.447,-2.699501
1434150637.463,-13.497696
1434150637.479,-22.652954
1434150637.494,-30.240822
1434150637.51,-36.335884
1434150637.526,-41.055595
1434150637.541,-44.614677
1434150637.557,-47.306953
1434150637.572,-49.427383
1434150637.588,-51.20951
1434150637.604,-52.720802
1434150637.619,-53.89618
1434150637.635,-54.57849
1434150637.651,-54.644432
1434150637.666,-54.0757
1434150637.682,-53.006836
1434150637.698,-51.631233
1434150637.713,-50.121635
1434150637.729,-48.53535
1434150637.744,-46.781937
1434150637.76,-44.656296
1434150637.776,-41.966057
1434150637.791,-38.58029
1434150637.807,-34.495163
1434150637.823,-29.8284
1434150637.838,-24.72462
1434150637.854,-19.31678
1434150637.869,-13.69199
1434150637.885,-7.8883553
1434150637.901,-1.9504433
1434150637.916,4.0712776
1434150637.932,10.076637
1434150637.948,15.997253
1434150637.963,21.805454
1434150637.979,27.528645
1434150637.994,33.281006
1434150638.01,39.239433
1434150638.026,45.65743
1434150638.041,52.795788
1434150638.057,60.78112
1434150638.073,69.3974
1434150638.088,77.916046
1434150638.104,85.07411
1434150638.119,89.342026
1434150638.135,89.396545
1434150638.151,84.586006
1434150638.166,75.1948
1434150638.182,62.338177
1434150638.198,47.577248
1434150638.213,32.364254
1434150638.229,17.749931
1434150638.244,4.271057
1434150638.26,-7.8952446
1434150638.276,-18.649464
1434150638.291,-27.85036
1434150638.307,-35.31881
1434150638.323,-41.011124
1434150638.338,-45.09527
1434150638.354,-47.992344
1434150638.369,-50.202477
1434150638.385,-52.118034
1434150638.401,-53.89465
1434150638.416,-55.422638
1434150638.432,-56.485706
1434150638.448,-56.906868
1434150638.463,-56.693657
1434150638.479,-56.04618
1434150638.494,-55.254017
1434150638.51,-54.53308
1434150638.526,-53.907707
1434150638.541,-53.199425
1434150638.557,-52.1308
1434150638.573,-50.41542
1434150638.588,-47.938976
1434150638.604,-44.750313
1434150638.619,-41.035324
1434150638.635,-36.975548
1434150638.651,-32.65621
1434150638.666,-28.007845
1434150638.682,-22.903124
1434150638.698,-17.236856
1434150638.713,-11.0566635
1434150638.729,-4.591049
1434150638.744,1.8166466
1434150638.76,7.87566
1434150638.776,13.475641
1434150638.791,18.73717
1434150638.807,23.99393
1434150638.823,29.682066
1434150638.838,36.227654
1434150638.854,43.92118
1434150638.869,52.74327
1434150638.885,62.24261
1434150638.901,71.4103
1434150638.916,78.80178
1434150638.932,82.853455
1434150638.948,82.35326
1434150638.963,76.8586
1434150638.979,66.87558
1434150638.994,53.68541
1434150639.01,38.91696
1434150639.026,24.0518
1434150639.041,10.138752
1434150639.057,-2.3137321
1434150639.073,-13.134224
1434150639.088,-22.30138
1434150639.104,-29.800972
1434150639.119,-35.62203
1434150639.135,-39.832775
1434150639.151,-42.62613
1434150639.166,-44.307766
1434150639.182,-45.23585
1434150639.198,-45.69677
1434150639.213,-45.89508
1434150639.229,-45.91722
1434150639.244,-45.777252
1434150639.26,-45.45469
1434150639.276,-44.95055
1434150639.291,-44.232986
1434150639.307,-43.273273
1434150639.323,-42.01191
1434150639.338,-40.39111
1434150639.354,-38.303818
1434150639.369,-35.66683
1434150639.385,-32.42711
1434150639.401,-28.593166
1434150639.416,-24.196995
1434150639.432,-19.300571
1434150639.448,-13.950466
1434150639.463,-8.167995
1434150639.479,-1.9738083
1434150639.494,4.5901146
1434150639.51,11.427788
1434150639.526,18.385876
1434150639.541,25.353516
1434150639.557,32.226547
1434150639.573,39.035202
1434150639.588,45.905724
1434150639.604,53.082207
1434150639.619,60.87175
1434150639.635,69.49659
1434150639.651,78.90175
1434150639.666,88.52324
1434150639.682,97.27248
1434150639.698,103.68318
1434150639.713,106.30499
1434150639.729,104.203415
1434150639.744,97.25437
1434150639.76,86.21134
1434150639.776,72.375305
1434150639.791,57.166515
1434150639.807,41.756615
1434150639.823,26.942135
1434150639.838,13.211819
1434150639.854,0.9518013
1434150639.869,-9.489269
1434150639.885,-17.807316
1434150639.901,-23.915985
1434150639.916,-28.042717
1434150639.932,-30.697739
1434150639.948,-32.523167
1434150639.963,-34.069218
1434150639.979,-35.62336
1434150639.994,-37.169174
1434150640.01,-38.45334
1434150640.026,-39.188038
1434150640.041,-39.194508
1434150640.057,-38.492092
1434150640.073,-37.25965
1434150640.088,-35.74685
1434150640.104,-34.182377
1434150640.119,-32.656296
1434150640.135,-31.10521
1434150640.151,-29.302402
1434150640.166,-26.930843
1434150640.182,-23.67961
1434150640.198,-19.359226
1434150640.213,-14.015051
1434150640.229,-7.928341
1434150640.244,-1.552208
1434150640.26,4.678873
1434150640.276,10.485302
1434150640.291,15.896593
1434150640.307,21.215994
1434150640.323,26.925793
1434150640.338,33.50416
1434150640.354,41.306534
1434150640.37,50.418633
1434150640.385,60.515102
1434150640.401,70.78896
1434150640.416,79.98016
1434150640.432,86.57069
1434150640.448,89.17572
1434150640.463,86.91902
1434150640.479,79.75792
1434150640.494,68.460686
1434150640.51,54.35123
1434150640.526,38.92063
1434150640.541,23.425005
1434150640.557,8.72333
1434150640.573,-4.707388
1434150640.588,-16.607464
1434150640.604,-26.815447
1434150640.62,-35.24147
1434150640.635,-41.87004
1434150640.651,-46.83201
1434150640.666,-50.358753
1434150640.682,-52.777664
1434150640.698,-54.358574
1434150640.713,-55.359936
1434150640.729,-55.970818
1434150640.745,-56.38115
1434150640.76,-56.70763
1434150640.776,-57.014214
1434150640.791,-57.258396
1434150640.807,-57.28191
1434150640.823,-56.89689
1434150640.838,-55.93071
1434150640.854,-54.32093
1434150640.87,-52.076035
1434150640.885,-49.279472
1434150640.901,-45.98488
1434150640.916,-42.176826
1434150640.932,-37.82274
1434150640.948,-32.88138
1434150640.963,-27.424278
1434150640.979,-21.577843
1434150640.995,-15.5692215
1434150641.01,-9.555428
1434150641.026,-3.6539688
1434150641.041,2.1557312
1434150641.057,7.9502563
1434150641.073,13.863144
1434150641.088,20.018982
1434150641.104,26.627296
1434150641.12,33.90837
1434150641.135,42.070496
1434150641.151,51.118942
1434150641.166,60.63378
1434150641.182,69.61669
1434150641.198,76.6125
1434150641.213,80.02269
1434150641.229,78.62601
1434150641.245,71.98068
1434150641.26,60.64975
1434150641.276,45.979553
1434150641.291,29.725464
1434150641.307,13.485031
1434150641.323,-1.6221085
1434150641.338,-15.052521
1434150641.354,-26.74141
1434150641.37,-36.811195
1434150641.385,-45.36595
1434150641.401,-52.447655
1434150641.416,-58.012062
1434150641.432,-62.08822
1434150641.448,-64.80074
1434150641.463,-66.39564
1434150641.479,-67.16144
1434150641.495,-67.35334
1434150641.51,-67.13213
1434150641.526,-66.57845
1434150641.541,-65.74144
1434150641.557,-64.66222
1434150641.573,-63.405014
1434150641.588,-62.04593
1434150641.604,-60.58882
1434150641.62,-58.97268
1434150641.635,-57.03222
1434150641.651,-54.56418
1434150641.666,-51.411224
1434150641.682,-47.54165
1434150641.698,-43.045494
1434150641.713,-38.114487
1434150641.729,-32.930984
1434150641.745,-27.607689
1434150641.76,-22.144287
1434150641.776,-16.466911
1434150641.791,-10.473175
1434150641.807,-4.129402
1434150641.823,2.507187
1434150641.838,9.288361
1434150641.854,16.03904
1434150641.87,22.662888
1434150641.885,29.218033
1434150641.901,35.914734
1434150641.916,43.089577
1434150641.932,50.971947
1434150641.948,59.512447
1434150641.963,68.14701
1434150641.979,75.78972
1434150641.995,81.043526
1434150642.01,82.60148
1434150642.026,79.67289
1434150642.041,72.258545
1434150642.057,61.1888
1434150642.073,47.831165
1434150642.088,33.64013
1434150642.104,19.851244
1434150642.12,7.2274857
1434150642.135,-3.8476162
1434150642.151,-13.201788
1434150642.166,-20.699718
1434150642.182,-26.248451
1434150642.198,-29.8152
1434150642.213,-31.612154
1434150642.229,-32.06705
1434150642.245,-31.752964
1434150642.26,-31.172329
1434150642.276,-30.627024
1434150642.291,-30.14293
1434150642.307,-29.54656
1434150642.323,-28.607956
1434150642.338,-27.210188
1434150642.354,-25.364082
1434150642.37,-23.227785
1434150642.385,-21.003782
1434150642.401,-18.845524
1434150642.416,-16.796953
1434150642.432,-14.792169
1434150642.448,-12.627417
1434150642.463,-10.073447
1434150642.479,-6.92653
1434150642.495,-3.0962782
1434150642.51,1.3410244
1434150642.526,6.1958942
1434150642.541,11.236252
1434150642.557,16.272623
1434150642.573,21.224962
1434150642.588,26.072659
1434150642.604,30.832567
1434150642.62,35.56375
1434150642.635,40.378075
1434150642.651,45.53244
1434150642.666,51.356247
1434150642.682,58.072517
1434150642.698,65.540016
1434150642.713,73.01144
1434150642.729,79.22234
1434150642.745,82.644646
1434150642.76,82.05738
1434150642.776,76.93644
1434150642.791,67.651184
1434150642.807,55.27836
1434150642.823,41.233093
1434150642.838,26.819443
1434150642.854,12.981588
1434150642.87,0.26016998
1434150642.885,-11.103537
1434150642.901,-21.025278
1434150642.916,-29.457062
1434150642.932,-36.385567
1434150642.948,-41.835747
1434150642.963,-45.897125
1434150642.979,-48.69105
1434150642.995,-50.380367
1434150643.01,-51.148746
1434150643.026,-51.19884
1434150643.041,-50.724537
1434150643.057,-49.927002
1434150643.073,-48.959717
1434150643.088,-47.923313
1434150643.104,-46.84865
1434150643.12,-45.687283
1434150643.135,-44.366226
1434150643.151,-42.79192
1434150643.166,-40.874866
1434150643.182,-38.56698
1434150643.198,-35.851627
1434150643.213,-32.76832
1434150643.229,-29.361633
1434150643.245,-25.68135
1434150643.26,-21.73898
1434150643.276,-17.489685
1434150643.292,-12.84296
1434150643.307,-7.7450714
1434150643.323,-2.2023506
1434150643.338,3.6748962
1434150643.354,9.685417
1434150643.37,15.617554
1434150643.385,21.358513
1434150643.401,26.915592
1434150643.417,32.469322
1434150643.432,38.28374
1434150643.448,44.657948
1434150643.463,51.74892
1434150643.479,59.492867
1434150643.495,67.43876
1434150643.51,74.72579
1434150643.526,80.18414
1434150643.542,82.59369
1434150643.557,81.03129
1434150643.573,75.17706
1434150643.588,65.436066
1434150643.604,52.84789
1434150643.62,38.75379
1434150643.635,24.47926
1434150643.651,11.028812
1434150643.667,-0.99507904
1434150643.682,-11.385159
1434150643.698,-20.133327
1434150643.713,-27.347435
1434150643.729,-33.123123
1434150643.745,-37.561333
1434150643.76,-40.76633
1434150643.776,-42.87878
1434150643.792,-44.097057
1434150643.807,-44.650944
1434150643.823,-44.748978
1434150643.838,-44.517853
1434150643.854,-44.018257
1434150643.87,-43.274506
1434150643.885,-42.308533
1434150643.901,-41.237206
1434150643.917,-40.199776
1434150643.932,-39.308548
1434150643.948,-38.522964
1434150643.963,-37.666847
1434150643.979,-36.455574
1434150643.995,-34.644836
1434150644.01,-32.103737
1434150644.026,-28.910065
1434150644.042,-25.226158
1434150644.057,-21.264038
1434150644.073,-17.142517
1434150644.088,-12.870979
1434150644.104,-8.362244
1434150644.12,-3.5468674
1434150644.135,1.6315765
1434150644.151,7.1101227
1434150644.167,12.771088
1434150644.182,18.45961
1434150644.198,24.06115
1434150644.213,29.536018
1434150644.229,34.991188
1434150644.245,40.676903
1434150644.26,46.936478
1434150644.276,54.082237
1434150644.292,62.12992
1434150644.307,70.601555
1434150644.323,78.471275
1434150644.338,84.3113
1434150644.354,86.666306
1434150644.37,84.4924
1434150644.385,77.51653
1434150644.401,66.298645
1434150644.417,52.079597
1434150644.432,36.36915
1434150644.448,20.55658
1434150644.463,5.6483536
1434150644.479,-7.75161
1434150644.495,-19.38314
1434150644.51,-29.125862
1434150644.526,-36.949516
1434150644.542,-42.87525
1434150644.557,-47.02997
1434150644.573,-49.66736
1434150644.588,-51.144417
1434150644.604,-51.846268
1434150644.62,-52.121796
1434150644.635,-52.155098
1434150644.651,-52.025543
1434150644.667,-51.706604
1434150644.682,-51.188683
1434150644.698,-50.50814
1434150644.713,-49.798683
1434150644.729,-49.155815
1434150644.745,-48.597694
1434150644.76,-47.977272
1434150644.776,-46.994934
1434150644.792,-45.326797
1434150644.807,-42.743393
1434150644.823,-39.228363
1434150644.838,-34.97666
1434150644.854,-30.324974
1434150644.87,-25.58294
1434150644.885,-20.907349
1434150644.901,-16.264732
1434150644.917,-11.475937
1434150644.932,-6.3618546
1434150644.948,-0.80294037
1434150644.963,5.162239
1434150644.979,11.385727
1434150644.995,17.65657
1434150645.01,23.791855
1434150645.026,29.70224
1434150645.042,35.436523
1434150645.057,41.173523
1434150645.073,47.249496
1434150645.088,54.030685
1434150645.104,61.791153
1434150645.12,70.48462
1434150645.135,79.60306
1434150645.151,88.10913
1434150645.167,94.64513
1434150645.182,97.86012
1434150645.198,96.86827
1434150645.213,91.4449
1434150645.229,82.10988
1434150645.245,69.91281
1434150645.26,56.130432
1434150645.276,41.992737
1434150645.292,28.441193
1434150645.307,16.155594
1434150645.323,5.546829
1434150645.338,-3.1716766
1434150645.354,-9.958633
1434150645.37,-14.912888
1434150645.385,-18.253769
1434150645.401,-20.28415
1434150645.417,-21.307602
1434150645.432,-21.650696
1434150645.448,-21.634323
1434150645.463,-21.55574
1434150645.479,-21.678635
1434150645.495,-22.17128
1434150645.51,-23.072052
1434150645.526,-24.262268
1434150645.542,-25.500824
1434150645.557,-26.535675
1434150645.573,-27.143143
1434150645.588,-27.17807
1434150645.604,-26.59056
1434150645.62,-25.403992
1434150645.635,-23.660309
1434150645.651,-21.386429
1434150645.667,-18.56157
1434150645.682,-15.144615
1434150645.698,-11.090515
1434150645.713,-6.425392
1434150645.729,-1.2289047
1434150645.745,4.3220596
1434150645.76,10.029144
1434150645.776,15.707428
1434150645.792,21.237152
1434150645.807,26.609734
1434150645.823,31.936935
1434150645.838,37.446693
1434150645.854,43.4721
1434150645.87,50.386345
1434150645.885,58.40161
1434150645.901,67.34861
1434150645.917,76.529686
1434150645.932,84.6353
1434150645.948,90.05913
1434150645.964,91.2923
1434150645.979,87.467705
1434150645.995,78.621956
1434150646.01,65.6806
1434150646.026,50.138664
1434150646.042,33.606117
1434150646.057,17.40995
1434150646.073,2.4058685
1434150646.089,-10.972023
1434150646.104,-22.520172
1434150646.12,-32.123734
1434150646.135,-39.713066
1434150646.151,-45.34655
1434150646.167,-49.2523
1434150646.182,-51.820236
1434150646.198,-53.52733
1434150646.214,-54.754017
1434150646.229,-55.67706
1434150646.245,-56.30572
1434150646.26,-56.561893
1434150646.276,-56.450512
1434150646.292,-56.102894
1434150646.307,-55.734272
1434150646.323,-55.509945
1434150646.339,-55.40944
1434150646.354,-55.18316
1434150646.37,-54.492123
1434150646.385,-53.036385
1434150646.401,-50.725098
1434150646.417,-47.65411
1434150646.432,-44.038887
1434150646.448,-40.028877
1434150646.464,-35.65074
1434150646.479,-30.80012
1434150646.495,-25.339182
1434150646.51,-19.228634
1434150646.526,-12.583118
1434150646.542,-5.6405506
1434150646.557,1.2977715
1434150646.573,8.021108
1434150646.589,14.449015
1434150646.604,20.672512
1434150646.62,26.856531
1434150646.635,33.24338
1434150646.651,40.029305
1434150646.667,47.41898
1434150646.682,55.5515
1434150646.698,64.379234
1434150646.714,73.49201
1434150646.729,82.00585
1434150646.745,88.592896
1434150646.76,91.73269
1434150646.776,90.20286
1434150646.792,83.43448
1434150646.807,71.7887
1434150646.823,56.443027
1434150646.839,39.071594
1434150646.854,21.391253
1434150646.87,4.7611427
1434150646.885,-9.996578
1434150646.901,-22.600422
1434150646.917,-33.106007
1434150646.932,-41.73838
1434150646.948,-48.741158
1434150646.964,-54.337986
1434150646.979,-58.7694
1434150646.995,-62.28186
1434150647.01,-65.101456
1434150647.026,-67.40021
1434150647.042,-69.21628
1434150647.057,-70.47349
1434150647.073,-71.032684
1434150647.089,-70.83463
1434150647.104,-69.93836
1434150647.12,-68.55853
1434150647.135,-66.95032
1434150647.151,-65.290535
1434150647.167,-63.58443
1434150647.182,-61.64318
1434150647.198,-59.180607
1434150647.214,-55.981255
1434150647.229,-51.984848
1434150647.245,-47.3529
1434150647.26,-42.384926
1434150647.276,-37.3737
1434150647.292,-32.48275
1434150647.307,-27.646568
1434150647.323,-22.622288
1434150647.339,-17.108356
1434150647.354,-10.922059
1434150647.37,-4.1236897
1434150647.385,3.010418
1434150647.401,10.108001
1434150647.417,16.90763
1434150647.432,23.383972
1434150647.448,29.818209
1434150647.464,36.67067
1434150647.479,44.430126
1434150647.495,53.34777
1434150647.51,63.275536
1434150647.526,73.52308
1434150647.542,82.93807
1434150647.557,90.07763
1434150647.573,93.56116
1434150647.589,92.42078
1434150647.604,86.40404
1434150647.62,76.02981
1434150647.635,62.471752
1434150647.651,47.225784
1434150647.667,31.721684
1434150647.682,17.05284
1434150647.698,3.8740082
1434150647.714,-7.5342693
1434150647.729,-17.03115
1434150647.745,-24.565228
1434150647.76,-30.08067
1434150647.776,-33.618988
1434150647.792,-35.381443
1434150647.807,-35.76328
1434150647.823,-35.26901
1434150647.839,-34.39376
1434150647.854,-33.503883
1434150647.87,-32.78819
1434150647.885,-32.202904
1434150647.901,-31.616066
1434150647.917,-30.849154
1434150647.932,-29.742329
1434150647.948,-28.22506
1434150647.964,-26.293835
1434150647.979,-23.997873
1434150647.995,-21.41507
1434150648.01,-18.588396
1434150648.026,-15.520315
1434150648.042,-12.146053
1434150648.057,-8.376755
1434150648.073,-4.131012
1434150648.089,0.61156654
1434150648.104,5.7611847
1434150648.12,11.149342
1434150648.135,16.58373
1434150648.151,21.910885
1434150648.167,27.067654
1434150648.182,32.079117
1434150648.198,37.05709
1434150648.214,42.142822
1434150648.229,47.542587
1434150648.245,53.486115
1434150648.26,60.181557
1434150648.276,67.61421
1434150648.292,75.36068
1434150648.307,82.44489
1434150648.323,87.44722
1434150648.339,88.843636
1434150648.354,85.53351
1434150648.37,77.297386
1434150648.385,64.9397
1434150648.401,49.96772
1434150648.417,34.109394
1434150648.432,18.743595
1434150648.448,4.6331363
1434150648.464,-7.9863997
1434150648.479,-19.148201
1434150648.495,-28.850094
1434150648.51,-36.941566
1434150648.526,-43.242397
1434150648.542,-47.6644
1434150648.557,-50.37738
1434150648.573,-51.76872
1434150648.589,-52.338684
1434150648.604,-52.535065
1434150648.62,-52.636898
1434150648.636,-52.7097
1434150648.651,-52.660744
1434150648.667,-52.32797
1434150648.682,-51.560745
1434150648.698,-50.26859
1434150648.714,-48.462803
1434150648.729,-46.238697
1434150648.745,-43.690025
1434150648.761,-40.871574
1434150648.776,-37.757248
1434150648.792,-34.25049
1434150648.807,-30.266726
1434150648.823,-25.741669
1434150648.839,-20.71775
1434150648.854,-15.300776
1434150648.87,-9.653135
1434150648.886,-3.8667927
1434150648.901,2.0097866
1434150648.917,8.00082
1434150648.932,14.130766
1434150648.948,20.38649
1434150648.964,26.716995
1434150648.979,33.097824
1434150648.995,39.64688
1434150649.011,46.68116
1434150649.026,54.535564
1434150649.042,63.377357
1434150649.057,72.84321
1434150649.073,81.94679
1434150649.089,89.1837
1434150649.104,92.93869
1434150649.12,91.9913
1434150649.136,85.89033
1434150649.151,75.08946
1434150649.167,60.78312
1434150649.182,44.486904
1434150649.198,27.69263
1434150649.214,11.570103
1434150649.229,-3.156887
1434150649.245,-16.105259
1434150649.261,-27.120121
1434150649.276,-36.165096
1434150649.292,-43.29441
1434150649.307,-48.66376
1434150649.323,-52.540207
1434150649.339,-55.264065
1434150649.354,-57.157986
1434150649.37,-58.46165
1434150649.386,-59.228508
1434150649.401,-59.417114
1434150649.417,-59.007473
1434150649.432,-58.09817
1434150649.448,-56.908043
1434150649.464,-55.702583
1434150649.479,-54.6313
1434150649.495,-53.648956
1434150649.511,-52.46807
1434150649.526,-50.7501
1434150649.542,-48.213165
1434150649.557,-44.771034
1434150649.573,-40.546074
1434150649.589,-35.814476
1434150649.604,-30.849861
1434150649.62,-25.84964
1434150649.636,-20.852966
1434150649.651,-15.742996
1434150649.667,-10.345406
1434150649.682,-4.553917
1434150649.698,1.5915146
1434150649.714,7.8637543
1434150649.729,13.949272
1434150649.745,19.552734
1434150649.761,24.554985
1434150649.776,29.064445
1434150649.792,33.44603
1434150649.807,38.21427
1434150649.823,43.937393
1434150649.839,51.054604
1434150649.854,59.613777
1434150649.87,69.08566
1434150649.886,78.27105
1434150649.901,85.4475
1434150649.917,88.81689
1434150649.932,87.03096
1434150649.948,79.67671
1434150649.964,67.423225
1434150649.979,51.77047
1434150649.995,34.54499
1434150650.011,17.390167
1434150650.026,1.4154663
1434150650.042,-12.823158
1434150650.057,-25.152328
1434150650.073,-35.534966
1434150650.089,-43.9554
1434150650.104,-50.405357
1434150650.12,-54.993286
1434150650.136,-57.991272
1434150650.151,-59.852325
1434150650.167,-61.04035
1434150650.182,-61.92968
1434150650.198,-62.66236
1434150650.214,-63.200203
1434150650.229,-63.370518
1434150650.245,-63.044373
1434150650.261,-62.206364
1434150650.276,-60.96185
1434150650.292,-59.459526
1434150650.307,-57.773125
1434150650.323,-55.7911
1434150650.339,-53.29448
1434150650.354,-50.047413
1434150650.37,-45.99099
1434150650.386,-41.22877
1434150650.401,-36.060566
1434150650.417,-30.776958
1434150650.432,-25.514313
1434150650.448,-20.220272
1434150650.464,-14.700005
1434150650.479,-8.790115
1434150650.495,-2.4437332
1434150650.511,4.1950264
1434150650.526,10.867714
1434150650.542,17.341488
1434150650.557,23.520924
1434150650.573,29.49913
1434150650.589,35.495403
1434150650.604,41.872726
1434150650.62,49.00198
1434150650.636,57.26089
1434150650.651,66.80153
1434150650.667,77.40983
1434150650.682,88.26136
1434150650.698,97.9194
1434150650.714,104.58144
1434150650.729,106.64164
1434150650.745,103.21248
1434150650.761,94.44754
1434150650.776,81.50148
1434150650.792,66.0741
1434150650.807,49.894997
1434150650.823,34.240017
1434150650.839,19.852177
1434150650.854,7.073576
1434150650.87,-3.937399
1434150650.886,-12.997009
1434150650.901,-19.937449
1434150650.917,-24.747572
1434150650.932,-27.699036
1434150650.948,-29.307728
1434150650.964,-30.231253
1434150650.979,-31.040718
1434150650.995,-32.037323
1434150651.011,-33.20323
1434150651.026,-34.28058
1434150651.042,-34.956543
1434150651.057,-35.014244
1434150651.073,-34.423477
1434150651.089,-33.371655
1434150651.104,-32.122765
1434150651.12,-30.90475
1434150651.136,-29.766012
1434150651.151,-28.584362
1434150651.167,-27.050695
1434150651.182,-24.83825
1434150651.198,-21.669962
1434150651.214,-17.45724
1434150651.229,-12.299156
1434150651.245,-6.4739323
1434150651.261,-0.29795837
1434150651.276,5.9270287
1434150651.292,12.00716
1434150651.308,17.896557
1434150651.323,23.650913
1434150651.339,29.451164
1434150651.354,35.588223
1434150651.37,42.407303
1434150651.386,50.20004
1434150651.401,59.02692
1434150651.417,68.48285
1434150651.432,77.58671
1434150651.448,84.882965
1434150651.464,88.75235
1434150651.479,87.92375
1434150651.495,81.88956
1434150651.511,71.07792
1434150651.526,56.762638
1434150651.542,40.630333
1434150651.558,24.278492
1434150651.573,8.8892975
1434150651.589,-4.9350357
1434150651.604,-17.013977
1434150651.62,-27.378342
1434150651.636,-36.053123
1434150651.651,-43.028553
1434150651.667,-48.30543
1434150651.683,-51.996246
1434150651.698,-54.384136
