1434066552.676,0.0
1434066552.691,0.0
1434066552.707,0.0
1434066552.722,0.0
1434066552.738,0.0
1434066552.754,0.0
1434066552.769,0.0
1434066552.785,0.0
1434066552.801,0.0
1434066552.816,0.0022315353
1434066552.832,-0.0045169927
1434066552.847,-0.011265522
1434066552.863,-0.011383951
1434066552.879,0.0011864507
1434066552.894,0.025910312
1434066552.91,0.050634187
1434066552.926,0.051362894
1434066552.941,-0.0014929791
1434066552.957,-0.1302426
1434066552.972,-0.35562757
1434066552.988,-0.6591247
1434066553.004,-1.0095103
1434066553.019,-1.3709826
1434066553.035,-1.7197359
1434066553.051,-2.0551105
1434066553.066,-2.39945
1434066553.082,-2.7866635
1434066553.097,-3.2399073
1434066553.113,-3.796012
1434066553.129,-4.418684
1434066553.144,-5.0592937
1434066553.16,-5.6644096
1434066553.176,-6.2021537
1434066553.191,-6.6808796
1434066553.207,-7.149598
1434066553.222,-7.6782336
1434066553.238,-8.310739
1434066553.254,-9.143657
1434066553.269,-10.089731
1434066553.285,-11.041313
1434066553.301,-11.8842125
1434066553.316,-12.564316
1434066553.332,-13.13563
1434066553.347,-13.760044
1434066553.363,-14.65232
1434066553.379,-15.962056
1434066553.394,-17.914442
1434066553.41,-20.317299
1434066553.426,-22.903854
1434066553.441,-25.37947
1434066553.457,-27.578028
1434066553.472,-29.57246
1434066553.488,-31.675173
1434066553.504,-34.3178
1434066553.519,-37.813618
1434066553.535,-42.541233
1434066553.551,-48.1463
1434066553.566,-54.104755
1434066553.582,-59.83309
1434066553.597,-64.972374
1434066553.613,-69.58293
1434066553.629,-74.14353
1434066553.644,-79.344986
1434066553.66,-85.70726
1434066553.676,-93.76193
1434066553.691,-102.99779
1434066553.707,-112.61757
1434066553.722,-121.73034
1434066553.738,-129.76602
1434066553.754,-136.75102
1434066553.769,-143.30344
1434066553.785,-150.74623
1434066553.801,-157.77356
1434066553.816,-166.64323
1434066553.832,-177.94798
1434066553.847,-191.79102
1434066553.863,-206.96808
1434066553.879,-220.56592
1434066553.894,-228.24644
1434066553.91,-225.36154
1434066553.926,-208.53198
1434066553.941,-176.87024
1434066553.957,-132.76222
1434066553.972,-80.04997
1434066553.988,-23.069275
1434066554.004,34.94339
1434066554.019,92.43695
1434066554.035,149.15695
1434066554.051,205.22772
1434066554.066,260.36963
1434066554.082,313.74133
1434066554.097,363.87396
1434066554.113,409.83353
1434066554.129,450.90775
1434066554.144,486.50244
1434066554.16,515.73865
1434066554.176,537.2274
1434066554.191,549.22
1434066554.207,549.9613
1434066554.222,538.367
1434066554.238,514.2055
1434066554.254,478.674
1434066554.269,433.87952
1434066554.285,382.45126
1434066554.301,327.02106
1434066554.316,269.84186
1434066554.332,212.63379
1434066554.347,156.6594
1434066554.363,102.95233
1434066554.379,52.373596
1434066554.394,5.9046936
1434066554.41,-35.580414
1434066554.426,-71.42584
1434066554.441,-101.35184
1434066554.457,-125.50113
1434066554.472,-144.3797
1434066554.488,-158.69403
1434066554.504,-169.1507
1434066554.519,-176.37103
1434066554.535,-180.75145
1434066554.551,-182.57455
1434066554.566,-182.06947
1434066554.582,-179.50784
1434066554.598,-175.23427
1434066554.613,-169.65262
1434066554.629,-163.17462
1434066554.644,-156.14204
1434066554.66,-148.80475
1434066554.676,-141.301
1434066554.691,-133.70355
1434066554.707,-126.04126
1434066554.722,-118.352486
1434066554.738,-110.68919
1434066554.754,-103.11653
1434066554.769,-95.70953
1434066554.785,-88.5287
1434066554.801,-81.62122
1434066554.816,-75.00959
1434066554.832,-68.70908
1434066554.848,-62.713615
1434066554.863,-57.021164
1434066554.879,-51.626614
1434066554.894,-46.526314
1434066554.91,-41.724846
1434066554.926,-37.225483
1434066554.941,-33.038345
1434066554.957,-29.160782
1434066554.973,-25.593863
1434066554.988,-22.313251
1434066555.004,-19.29932
1434066555.019,-16.528284
1434066555.035,-13.985321
1434066555.051,-11.675089
1434066555.066,-9.610687
1434066555.082,-7.814783
1434066555.098,-6.2936335
1434066555.113,-5.029999
1434066555.129,-3.9657984
1434066555.144,-3.022658
1434066555.16,-2.1238751
1434066555.176,-1.2290899
1434066555.191,-0.34605408
1434066555.207,0.4675043
1434066555.223,1.1277732
1434066555.238,1.5802852
1434066555.254,1.8345402
1434066555.269,1.9827092
1434066555.285,2.1592312
1434066555.301,2.4956868
1434066555.316,3.0563986
1434066555.332,3.7944405
1434066555.348,4.582763
1434066555.363,5.2537065
1434066555.379,5.6888933
1434066555.394,5.8799
1434066555.41,5.9469576
1434066555.426,6.089652
1434066555.441,6.487088
1434066555.457,7.2196403
1434066555.473,8.220346
1434066555.488,9.30104
1434066555.504,10.264301
1434066555.519,10.98092
1434066555.535,11.437287
1434066555.551,11.73094
1434066555.566,11.995764
1434066555.582,12.346985
1434066555.598,12.90369
1434066555.613,13.840412
1434066555.629,15.3686905
1434066555.644,17.545837
1434066555.66,20.010141
1434066555.676,21.873579
1434066555.691,21.881727
1434066555.707,18.943344
1434066555.723,12.731152
1434066555.738,4.021761
1434066555.754,-5.492819
1434066555.769,-13.808548
1434066555.785,-19.421774
1434066555.801,-21.780653
1434066555.816,-21.282423
1434066555.832,-18.83423
1434066555.848,-15.403097
1434066555.863,-11.788685
1434066555.879,-8.683027
1434066555.894,-6.8575554
1434066555.91,-7.1100807
1434066555.926,-9.967991
1434066555.941,-15.243717
1434066555.957,-21.862923
1434066555.973,-28.101948
1434066555.988,-32.231236
1434066556.004,-33.14812
1434066556.019,-30.759315
1434066556.035,-25.965187
1434066556.051,-20.153
1434066556.066,-14.688141
1434066556.082,-10.422245
1434066556.098,-7.6355133
1434066556.113,-6.099987
1434066556.129,-5.3862457
1434066556.144,-5.0287476
1434066556.16,-4.7312202
1434066556.176,-4.3284073
1434066556.191,-3.8115501
1434066556.207,-3.2407608
1434066556.223,-2.6946678
1434066556.238,-2.2195206
1434066556.254,-1.8150444
1434066556.269,-1.4283485
1434066556.285,-1.0195313
1434066556.301,-0.54629517
1434066556.316,-0.034988403
1434066556.332,0.5312309
1434066556.348,1.1697464
1434066556.363,1.9276352
1434066556.379,2.8215256
1434066556.394,3.7998276
1434066556.41,4.709507
1434066556.426,5.36314
1434066556.441,5.6335716
1434066556.457,5.542656
1434066556.473,5.2976494
1434066556.488,5.1920853
1434066556.504,5.4333496
1434066556.519,6.0740166
1434066556.535,6.8858414
1434066556.551,7.530239
1434066556.566,7.6633873
1434066556.582,7.18573
1434066556.598,6.2923813
1434066556.613,5.4271545
1434066556.629,5.095289
1434066556.644,5.678461
1434066556.66,7.265854
1434066556.676,9.555325
1434066556.691,11.861824
1434066556.707,13.24892
1434066556.723,12.784473
1434066556.738,9.872162
1434066556.754,4.555626
1434066556.769,-2.341257
1434066556.785,-9.422991
1434066556.801,-15.089664
1434066556.816,-18.131798
1434066556.832,-18.087551
1434066556.848,-15.354153
1434066556.863,-10.941303
1434066556.879,-6.033619
1434066556.894,-1.5865021
1434066556.91,1.8751163
1434066556.926,4.2644978
1434066556.941,5.7630653
1434066556.957,6.592823
1434066556.973,6.912483
1434066556.988,6.8340454
1434066557.004,6.386883
1434066557.019,5.6163597
1434066557.035,4.580982
1434066557.051,3.3858757
1434066557.066,2.1727333
1434066557.082,1.120491
1434066557.098,0.36071014
1434066557.113,-0.044246674
1434066557.129,-0.17819595
1434066557.144,-0.23506546
1434066557.16,-0.4871025
1434066557.176,-1.1290779
1434066557.191,-2.1920967
1434066557.207,-3.5038834
1434066557.223,-4.76667
1434066557.238,-5.6896133
1434066557.254,-6.1605415
1434066557.27,-6.2850304
1434066557.285,-6.3482704
1434066557.301,-6.64093
1434066557.316,-7.3676796
1434066557.332,-8.512211
1434066557.348,-9.934418
1434066557.363,-11.381121
1434066557.379,-12.656126
1434066557.394,-13.567873
1434066557.41,-13.971041
1434066557.426,-13.737295
1434066557.441,-12.827616
1434066557.457,-11.433626
1434066557.473,-10.033115
1434066557.488,-9.309454
1434066557.504,-9.959206
1434066557.52,-12.27507
1434066557.535,-15.939831
1434066557.551,-19.98463
1434066557.566,-23.188314
1434066557.582,-24.27163
1434066557.598,-22.620726
1434066557.613,-18.353874
1434066557.629,-12.281208
1434066557.645,-5.48835
1434066557.66,0.9694729
1434066557.676,6.4328403
1434066557.691,10.643864
1434066557.707,13.683357
1434066557.723,15.726622
1434066557.738,16.919159
1434066557.754,17.332386
1434066557.77,17.016102
1434066557.785,16.04205
1434066557.801,14.600223
1434066557.816,12.947826
1434066557.832,11.372214
1434066557.848,10.093471
1434066557.863,9.242562
1434066557.879,8.776072
1434066557.895,8.630548
1434066557.91,8.695774
1434066557.926,8.9109125
1434066557.941,9.250475
1434066557.957,9.712402
1434066557.973,10.273607
1434066557.988,10.878796
1434066558.004,11.425138
1434066558.02,11.775881
1434066558.035,11.840998
1434066558.051,11.56771
1434066558.066,10.974882
1434066558.082,10.182186
1434066558.098,9.283633
1434066558.113,8.397285
1434066558.129,7.6075473
1434066558.145,7.0201454
1434066558.16,6.739276
1434066558.176,6.9276257
1434066558.191,7.7262344
1434066558.207,9.15779
1434066558.223,10.91983
1434066558.238,12.339273
1434066558.254,12.443803
1434066558.27,10.340792
1434066558.285,5.5563645
1434066558.301,-1.5881985
1434066558.316,-9.961402
1434066558.332,-17.91827
1434066558.348,-23.869614
1434066558.363,-26.808794
1434066558.379,-26.621275
1434066558.395,-23.947498
1434066558.41,-19.869688
1434066558.426,-15.44306
1434066558.441,-11.435261
1434066558.457,-8.225547
1434066558.473,-5.9030623
1434066558.488,-4.444718
1434066558.504,-3.812487
1434066558.52,-3.9285297
1434066558.535,-4.6045904
1434066558.551,-5.565921
1434066558.566,-6.353672
1434066558.582,-6.7401156
1434066558.598,-6.7985563
1434066558.613,-6.809581
1434066558.629,-7.1371684
1434066558.645,-7.988963
1434066558.66,-9.297673
1434066558.676,-10.665001
1434066558.691,-11.538422
1434066558.707,-11.388706
1434066558.723,-9.9630995
1434066558.738,-7.314574
1434066558.754,-3.8190298
1434066558.77,0.018583775
1434066558.785,3.7084744
1434066558.801,6.9625115
1434066558.816,9.773734
1434066558.832,12.388723
1434066558.848,15.145105
1434066558.863,18.279165
1434066558.879,21.794977
1434066558.895,25.414234
1434066558.91,28.704933
1434066558.926,31.28638
1434066558.941,33.04673
1434066558.957,34.276825
1434066558.973,35.5948
1434066558.988,37.808792
1434066559.004,41.616657
1434066559.02,47.32177
1434066559.035,54.54144
1434066559.051,62.10065
1434066559.066,68.1442
1434066559.082,70.557755
1434066559.098,67.59271
1434066559.113,58.543465
1434066559.129,44.094025
1434066559.145,26.184526
1434066559.16,7.4658213
1434066559.176,-9.519066
1434066559.191,-23.04279
1434066559.207,-32.51857
1434066559.223,-38.38469
1434066559.238,-41.629868
1434066559.254,-43.309216
1434066559.27,-44.19304
1434066559.285,-44.689194
1434066559.301,-44.95504
1434066559.316,-45.05548
1434066559.332,-45.080795
1434066559.348,-45.142776
1434066559.363,-45.286263
1434066559.379,-45.456413
1434066559.395,-45.4928
1434066559.41,-45.236885
1434066559.426,-44.635414
1434066559.441,-43.803436
1434066559.457,-43.001892
1434066559.473,-42.474976
1434066559.488,-42.294533
1434066559.504,-42.261192
1434066559.52,-41.905334
1434066559.535,-40.686783
1434066559.551,-38.160023
1434066559.566,-34.20942
1434066559.582,-29.06977
1434066559.598,-23.309923
1434066559.613,-17.634974
1434066559.629,-12.6542225
1434066559.645,-8.6698475
1434066559.66,-5.574589
1434066559.676,-2.9037561
1434066559.691,-0.024114609
1434066559.707,3.569378
1434066559.723,8.040023
1434066559.738,13.149481
1434066559.754,18.371284
1434066559.77,23.142063
1434066559.785,27.119709
1434066559.801,30.318878
1434066559.816,33.108162
1434066559.832,36.07556
1434066559.848,39.842743
1434066559.863,44.925064
1434066559.879,51.495888
1434066559.895,59.234753
1434066559.91,67.15383
1434066559.926,73.64978
1434066559.941,76.797554
1434066559.957,74.87176
1434066559.973,66.998184
1434066559.988,53.56026
1434066560.004,36.217667
1434066560.02,17.475948
1434066560.035,-0.06726068
1434066560.051,-14.417045
1434066560.066,-24.645899
1434066560.082,-30.846106
1434066560.098,-33.84864
1434066560.113,-34.70504
1434066560.129,-34.35069
1434066560.145,-33.42571
1434066560.16,-32.329044
1434066560.176,-31.309814
1434066560.192,-30.57221
1434066560.207,-30.234211
1434066560.223,-30.338577
1434066560.238,-30.766972
1434066560.254,-31.316381
1434066560.27,-31.78365
1434066560.285,-32.051945
1434066560.301,-32.118282
1434066560.317,-32.06692
1434066560.332,-31.9323
1434066560.348,-31.66098
1434066560.363,-31.06123
1434066560.379,-29.883547
1434066560.395,-27.8932
1434066560.41,-24.972317
1434066560.426,-21.182064
1434066560.442,-16.781736
1434066560.457,-12.1567335
1434066560.473,-7.703562
1434066560.488,-3.67066
1434066560.504,-0.049510002
1434066560.52,3.4040098
1434066560.535,7.0388603
1434066560.551,11.11307
1434066560.567,15.608582
1434066560.582,20.239756
1434066560.598,24.55328
1434066560.613,28.234505
1434066560.629,31.254992
1434066560.645,33.972176
1434066560.66,36.995766
1434066560.676,40.98801
1434066560.692,46.346916
1434066560.707,52.985664
1434066560.723,60.13727
1434066560.738,66.44551
1434066560.754,70.15947
1434066560.77,69.62167
1434066560.785,63.812164
1434066560.801,52.771603
1434066560.817,37.714058
1434066560.832,20.727238
1434066560.848,4.182005
1434066560.863,-9.9272175
1434066560.879,-20.43911
1434066560.895,-27.166384
1434066560.91,-30.685041
1434066560.926,-31.92256
1434066560.942,-31.779415
1434066560.957,-30.918406
1434066560.973,-29.691713
1434066560.988,-28.297554
1434066561.004,-26.895441
1434066561.02,-25.698359
1434066561.035,-24.92122
1434066561.051,-24.700794
1434066561.067,-25.004011
1434066561.082,-25.632362
1434066561.098,-26.344965
1434066561.113,-26.948957
1434066561.129,-27.396322
1434066561.145,-27.716005
1434066561.16,-27.916824
1434066561.176,-27.839586
1434066561.192,-27.169203
1434066561.207,-25.552422
1434066561.223,-22.78989
1434066561.238,-18.972105
1434066561.254,-14.499453
1434066561.27,-9.880133
1434066561.285,-5.5281525
1434066561.301,-1.5880394
1434066561.317,2.0885868
1434066561.332,5.8102818
1434066561.348,9.820236
1434066561.363,14.16885
1434066561.379,18.653805
1434066561.395,22.945202
1434066561.41,26.736065
1434066561.426,29.917665
1434066561.442,32.615414
1434066561.457,35.214687
1434066561.473,38.25564
1434066561.488,42.32496
1434066561.504,47.88819
1434066561.52,55.00232
1434066561.535,63.05418
1434066561.551,70.65653
1434066561.567,75.80964
1434066561.582,76.45242
1434066561.598,71.18555
1434066561.613,59.878536
1434066561.629,43.860054
1434066561.645,25.568232
1434066561.66,7.7278786
1434066561.676,-7.4825687
1434066561.692,-18.966228
1434066561.707,-26.75311
1434066561.723,-31.607695
1434066561.738,-34.44639
1434066561.754,-35.98298
1434066561.77,-36.58811
1434066561.785,-36.453
1434066561.801,-35.776154
1434066561.817,-34.878708
1434066561.832,-34.13664
1434066561.848,-33.800507
1434066561.863,-33.89618
1434066561.879,-34.20462
1434066561.895,-34.4209
1434066561.91,-34.32451
1434066561.926,-33.905945
1434066561.942,-33.371983
1434066561.957,-32.971443
1434066561.973,-32.81831
1434066561.988,-32.780106
1434066562.004,-32.478348
1434066562.02,-31.445597
1434066562.035,-29.333624
1434066562.051,-26.059237
1434066562.067,-21.864048
1434066562.082,-17.219683
1434066562.098,-12.631213
1434066562.113,-8.488986
1434066562.129,-4.93038
1434066562.145,-1.8214664
1434066562.16,1.1442738
1434066562.176,4.327219
1434066562.192,7.964575
1434066562.207,12.101761
1434066562.223,16.514084
1434066562.238,20.825958
1434066562.254,24.659466
1434066562.27,27.82862
1434066562.285,30.449005
1434066562.301,32.965057
1434066562.317,36.0476
1434066562.332,40.340927
1434066562.348,46.16869
1434066562.363,53.26866
1434066562.379,60.634617
1434066562.395,66.62374
1434066562.41,69.32826
1434066562.426,67.163925
1434066562.442,59.409424
1434066562.457,46.569206
1434066562.473,30.2841
1434066562.488,12.872169
1434066562.504,-3.3503895
1434066562.52,-16.700699
1434066562.535,-26.422142
1434066562.551,-32.675655
1434066562.567,-36.18253
1434066562.582,-37.864
1434066562.598,-38.502537
1434066562.613,-38.600372
1434066562.629,-38.429974
1434066562.645,-38.1163
1434066562.66,-37.76934
1434066562.676,-37.49378
1434066562.692,-37.411835
1434066562.707,-37.552124
1434066562.723,-37.829296
1434066562.738,-38.07128
1434066562.754,-38.11528
1434066562.77,-37.932335
1434066562.785,-37.654106
1434066562.801,-37.493088
1434066562.817,-37.546722
1434066562.832,-37.662533
1434066562.848,-37.38873
1434066562.864,-36.15164
1434066562.879,-33.53858
1434066562.895,-29.507435
1434066562.91,-24.45486
1434066562.926,-19.050406
1434066562.942,-13.959698
1434066562.957,-9.553766
1434066562.973,-5.7780094
1434066562.989,-2.2375107
1434066563.004,1.551775
1434066563.02,5.904255
1434066563.035,10.811432
1434066563.051,15.93858
1434066563.067,20.779572
1434066563.082,24.88781
1434066563.098,28.082962
1434066563.114,30.51351
1434066563.129,32.62561
1434066563.145,35.081654
1434066563.16,38.55898
1434066563.176,43.56845
1434066563.192,50.191216
1434066563.207,57.864635
1434066563.223,65.28779
1434066563.239,70.63669
1434066563.254,71.98856
1434066563.27,67.98955
1434066563.285,58.39123
1434066563.301,44.23343
1434066563.317,27.58395
1434066563.332,10.889908
1434066563.348,-3.719307
1434066563.364,-14.923355
1434066563.379,-22.368366
1434066563.395,-26.446243
1434066563.41,-27.955784
1434066563.426,-27.729572
1434066563.442,-26.476452
1434066563.457,-24.72345
1434066563.473,-22.85022
1434066563.489,-21.116898
1434066563.504,-19.73824
1434066563.52,-18.88055
1434066563.535,-18.66436
1434066563.551,-19.085808
1434066563.567,-20.025402
1434066563.582,-21.21304
1434066563.598,-22.285995
1434066563.614,-22.915466
1434066563.629,-22.923573
1434066563.645,-22.327957
1434066563.66,-21.290054
1434066563.676,-19.998962
1434066563.692,-18.527657
1434066563.707,-16.751133
1434066563.723,-14.444485
1434066563.739,-11.362556
1434066563.754,-7.4093857
1434066563.77,-2.680523
1434066563.785,2.5374336
1434066563.801,7.902546
1434066563.817,13.083694
1434066563.832,17.83905
1434066563.848,22.047478
1434066563.864,25.688072
1434066563.879,28.846478
1434066563.895,31.723118
1434066563.91,34.665524
1434066563.926,38.158306
1434066563.942,42.69556
1434066563.957,48.53215
1434066563.973,55.359123
1434066563.989,62.158127
1434066564.004,67.25268
1434066564.02,68.758575
1434066564.035,65.19482
1434066564.051,56.094234
1434066564.067,42.2744
1434066564.082,25.658875
1434066564.098,8.661869
1434066564.114,-6.534546
1434066564.129,-18.561745
1434066564.145,-27.02081
1434066564.16,-32.312798
1434066564.176,-35.179577
1434066564.192,-36.32977
1434066564.207,-36.2751
1434066564.223,-35.340637
1434066564.239,-33.832764
1434066564.254,-32.119774
1434066564.27,-30.60567
1434066564.285,-29.631222
1434066564.301,-29.29163
1434066564.317,-29.442148
1434066564.332,-29.780067
1434066564.348,-29.99422
1434066564.364,-29.90192
1434066564.379,-29.480274
1434066564.395,-28.767082
1434066564.41,-27.789436
1434066564.426,-26.505634
1434066564.442,-24.845049
1434066564.457,-22.751947
1434066564.473,-20.246029
1434066564.489,-17.373724
1434066564.504,-14.192263
1434066564.52,-10.67543
1434066564.535,-6.7790356
1434066564.551,-2.462246
1434066564.567,2.2353878
1434066564.582,7.1811085
1434066564.598,12.124453
1434066564.614,16.797709
1434066564.629,20.963747
1434066564.645,24.503654
1434066564.66,27.475973
1434066564.676,30.149937
1434066564.692,33.00156
1434066564.707,36.649437
1434066564.723,41.63551
1434066564.739,48.16973
1434066564.754,55.83027
1434066564.77,63.475098
1434066564.785,69.33345
1434066564.801,71.50819
1434066564.817,68.527275
1434066564.832,59.90672
1434066564.848,46.40774
1434066564.864,29.848799
1434066564.879,12.621153
1434066564.895,-3.0234575
1434066564.91,-15.53116
1434066564.926,-24.324131
1434066564.942,-29.727926
1434066564.957,-32.621067
1434066564.973,-33.993736
1434066564.989,-34.6334
1434066565.004,-34.97123
1434066565.02,-35.165447
1434066565.035,-35.234
1434066565.051,-35.19188
1434066565.067,-35.113716
1434066565.082,-35.050972
1434066565.098,-35.0366
1434066565.114,-34.999302
1434066565.129,-34.882305
1434066565.145,-34.669907
1434066565.16,-34.431656
1434066565.176,-34.257473
1434066565.192,-34.14222
1434066565.207,-33.924397
1434066565.223,-33.310383
1434066565.239,-32.024467
1434066565.254,-29.905396
1434066565.27,-27.004608
1434066565.285,-23.49958
1434066565.301,-19.580822
1434066565.317,-15.349382
1434066565.332,-10.853065
1434066565.348,-6.108328
1434066565.364,-1.2141266
1434066565.379,3.6261034
1434066565.395,8.169557
1434066565.41,12.204441
1434066565.426,15.659598
1434066565.442,18.603191
1434066565.457,21.276386
1434066565.473,24.034168
1434066565.489,27.32484
1434066565.504,31.622185
1434066565.52,37.26509
1434066565.536,44.221207
1434066565.551,51.861103
1434066565.567,58.84652
1434066565.582,63.32643
1434066565.598,63.467354
1434066565.614,58.090885
1434066565.629,47.178932
1434066565.645,32.050034
1434066565.661,14.979414
1434066565.676,-1.4594259
1434066565.692,-15.185118
1434066565.707,-25.094097
1434066565.723,-31.199854
1434066565.739,-34.302032
1434066565.754,-35.47673
1434066565.77,-35.663216
1434066565.786,-35.4183
1434066565.801,-34.950478
1434066565.817,-34.28559
1434066565.832,-33.45324
1434066565.848,-32.555283
1434066565.864,-31.718304
1434066565.879,-31.051235
1434066565.895,-30.55682
1434066565.911,-30.153477
1434066565.926,-29.747906
1434066565.942,-29.282677
1434066565.957,-28.75779
1434066565.973,-28.200447
1434066565.989,-27.56642
1434066566.004,-26.74428
1434066566.02,-25.547266
1434066566.036,-23.815107
1434066566.051,-21.42472
1434066566.067,-18.346325
1434066566.082,-14.607565
1434066566.098,-10.282854
1434066566.114,-5.4896955
1434066566.129,-0.3980353
1434066566.145,4.771645
1434066566.161,9.748119
1434066566.176,14.3058195
1434066566.192,18.283869
1434066566.207,21.671333
1434066566.223,24.600006
1434066566.239,27.315277
1434066566.254,30.15691
1434066566.27,33.513325
1434066566.286,37.749363
1434066566.301,43.078243
1434066566.317,49.329624
1434066566.332,55.78823
1434066566.348,61.094086
1434066566.364,63.549908
1434066566.379,61.606144
1434066566.395,54.456604
1434066566.411,42.487984
1434066566.426,27.245358
1434066566.442,11.004006
1434066566.457,-3.9231014
1434066566.473,-15.879814
1434066566.489,-24.14018
1434066566.504,-28.884315
1434066566.52,-30.815449
1434066566.536,-30.773605
1434066566.551,-29.476791
1434066566.567,-27.46754
1434066566.582,-25.158287
1434066566.598,-22.890518
1434066566.614,-20.945198
1434066566.629,-19.532282
1434066566.645,-18.727116
1434066566.661,-18.514538
1434066566.676,-18.782448
1434066566.692,-19.39106
1434066566.707,-20.160255
1434066566.723,-20.905594
1434066566.739,-21.411835
1434066566.754,-21.520279
1434066566.77,-21.167181
1434066566.786,-20.355186
1434066566.801,-19.153133
1434066566.817,-17.582172
1434066566.832,-15.537941
1434066566.848,-12.836095
1434066566.864,-9.269982
1434066566.879,-4.7864647
1434066566.895,0.4280815
1434066566.911,5.9136467
1434066566.926,11.133809
1434066566.942,15.615234
1434066566.957,19.197977
1434066566.973,22.051426
1434066566.989,24.622368
1434066567.004,27.430216
1434066567.02,30.911724
1434066567.036,35.347023
1434066567.051,40.80879
1434066567.067,47.12906
1434066567.082,53.794247
1434066567.098,59.805866
1434066567.114,63.75494
1434066567.129,64.053894
1434066567.145,59.527435
1434066567.161,49.90023
1434066567.176,36.120895
1434066567.192,20.140034
1434066567.207,4.3459845
1434066567.223,-9.2282505
1434066567.239,-19.447882
1434066567.254,-26.220566
1434066567.27,-30.153847
1434066567.286,-32.092457
1434066567.301,-32.703953
1434066567.317,-32.36358
1434066567.332,-31.259018
1434066567.348,-29.605011
1434066567.364,-27.718056
1434066567.379,-26.017874
1434066567.395,-24.847477
1434066567.411,-24.379889
1434066567.426,-24.539787
1434066567.442,-25.127563
1434066567.457,-25.850391
1434066567.473,-26.484852
1434066567.489,-26.854
1434066567.504,-26.855844
1434066567.52,-26.417196
1434066567.536,-25.499538
1434066567.551,-24.07417
1434066567.567,-22.159815
1434066567.582,-19.817188
1434066567.598,-17.105673
1434066567.614,-14.087078
1434066567.629,-10.7868805
1434066567.645,-7.200802
1434066567.661,-3.314836
1434066567.676,0.8396754
1434066567.692,5.1703563
1434066567.707,9.5258255
1434066567.723,13.742689
1434066567.739,17.694725
1434066567.754,21.337847
1434066567.77,24.768997
1434066567.786,28.198658
1434066567.801,32.00732
1434066567.817,36.62387
1434066567.832,42.39228
1434066567.848,49.25208
1434066567.864,56.537876
1434066567.879,62.875107
1434066567.895,66.48228
1434066567.911,65.68458
1434066567.926,59.558586
1434066567.942,48.386795
1434066567.957,33.630753
1434066567.973,17.510069
1434066567.989,2.2938719
1434066568.004,-10.34642
1434066568.02,-19.655767
1434066568.036,-25.735888
1434066568.051,-29.197258
1434066568.067,-30.834066
1434066568.082,-31.3132
1434066568.098,-31.126497
1434066568.114,-30.552555
1434066568.129,-29.801308
1434066568.145,-29.02729
1434066568.161,-28.39964
1434066568.176,-28.040941
1434066568.192,-28.021612
1434066568.208,-28.31041
1434066568.223,-28.813421
1434066568.239,-29.408834
1434066568.254,-29.982143
1434066568.27,-30.443924
1434066568.286,-30.693176
1434066568.301,-30.620857
1434066568.317,-30.092854
1434066568.332,-28.966473
1434066568.348,-27.158054
1434066568.364,-24.686144
1434066568.379,-21.679523
1434066568.395,-18.312777
1434066568.411,-14.785607
1434066568.426,-11.182041
1434066568.442,-7.495372
1434066568.458,-3.635157
1434066568.473,0.47106397
1434066568.489,4.827779
1434066568.504,9.310949
1434066568.52,13.674118
1434066568.536,17.63934
1434066568.551,21.031569
1434066568.567,23.9069
1434066568.583,26.603378
1434066568.598,29.709003
1434066568.614,33.85425
1434066568.629,39.445644
1434066568.645,46.355865
1434066568.661,53.731953
1434066568.676,60.071068
1434066568.692,63.5369
1434066568.708,62.516933
1434066568.723,56.207054
1434066568.739,44.962822
1434066568.754,30.226862
1434066568.77,14.124865
1434066568.786,-1.1565162
1434066568.801,-13.9606495
1434066568.817,-23.46164
1434066568.833,-29.672335
1434066568.848,-33.18001
1434066568.864,-34.821533
1434066568.879,-35.41278
1434066568.895,-35.553104
1434066568.911,-35.604164
1434066568.926,-35.67141
1434066568.942,-35.699394
1434066568.958,-35.546803
1434066568.973,-35.12767
1434066568.989,-34.454735
1434066569.004,-33.666145
1434066569.02,-32.945827
1434066569.036,-32.444008
1434066569.051,-32.156033
1434066569.067,-31.962837
1434066569.083,-31.66742
1434066569.098,-31.060276
1434066569.114,-29.95739
1434066569.129,-28.231762
1434066569.145,-25.80249
1434066569.161,-22.698498
1434066569.176,-19.019455
1434066569.192,-14.971068
1434066569.208,-10.800284
1434066569.223,-6.730768
1434066569.239,-2.8479462
1434066569.254,0.8851719
1434066569.27,4.5964546
1434066569.286,8.396435
1434066569.301,12.281555
1434066569.317,16.11514
1434066569.333,19.746325
1434066569.348,23.082895
1434066569.364,26.21723
1434066569.379,29.4319
1434066569.395,33.12378
1434066569.411,37.70529
1434066569.426,43.375107
1434066569.442,49.85469
1434066569.458,56.281704
1434066569.473,61.22738
1434066569.489,63.04482
1434066569.504,60.379784
1434066569.52,52.75326
1434066569.536,40.800133
1434066569.551,26.192387
1434066569.567,11.099312
1434066569.583,-2.4412918
1434066569.598,-13.091713
1434066569.614,-20.387966
1434066569.629,-24.636356
1434066569.645,-26.548477
1434066569.661,-26.89595
1434066569.676,-26.29541
1434066569.692,-25.185745
1434066569.708,-23.845173
1434066569.723,-22.504627
1434066569.739,-21.365723
1434066569.754,-20.595196
1434066569.77,-20.28281
1434066569.786,-20.403263
1434066569.801,-20.799942
1434066569.817,-21.27066
1434066569.833,-21.605408
1434066569.848,-21.670471
1434066569.864,-21.38639
1434066569.879,-20.700691
1434066569.895,-19.536476
1434066569.911,-17.823475
1434066569.926,-15.5141945
1434066569.942,-12.665279
1434066569.958,-9.422825
1434066569.973,-5.9635506
1434066569.989,-2.3704987
1434066570.004,1.3540001
1434066570.02,5.2652893
1434066570.036,9.372795
1434066570.051,13.552338
1434066570.067,17.532032
1434066570.083,21.047455
1434066570.098,23.932674
1434066570.114,26.244
1434066570.129,28.200653
1434066570.145,30.14457
1434066570.161,32.434334
1434066570.176,35.4084
1434066570.192,39.296345
1434066570.208,44.09737
1434066570.223,49.387917
1434066570.239,54.204884
1434066570.254,57.161297
1434066570.27,56.76793
1434066570.286,51.97784
1434066570.301,42.655834
1434066570.317,29.732403
1434066570.333,15.004501
1434066570.348,0.54190445
1434066570.364,-11.900593
1434066570.379,-21.31107
1434066570.395,-27.50282
1434066570.411,-30.92004
1434066570.426,-32.23666
1434066570.442,-32.149624
1434066570.458,-31.18975
1434066570.473,-29.77573
1434066570.489,-28.260178
1434066570.504,-26.976788
1434066570.52,-26.183868
1434066570.536,-26.015892
1434066570.551,-26.355164
1434066570.567,-26.935406
1434066570.583,-27.437237
1434066570.598,-27.660656
1434066570.614,-27.610352
1434066570.629,-27.44651
1434066570.645,-27.319366
1434066570.661,-27.221085
1434066570.676,-26.910301
1434066570.692,-26.013695
1434066570.708,-24.217365
1434066570.723,-21.448177
1434066570.739,-17.937614
1434066570.754,-14.112701
1434066570.77,-10.375256
1434066570.786,-6.952759
1434066570.801,-3.7654
1434066570.817,-0.5579605
1434066570.833,2.9625626
1434066570.848,6.9100456
1434066570.864,11.18549
1434066570.879,15.476177
1434066570.895,19.436016
1434066570.911,22.800602
1434066570.926,25.538815
1434066570.942,27.859497
1434066570.958,30.195988
1434066570.973,33.077946
1434066570.989,37.03521
1434066571.004,42.34318
1434066571.02,48.803383
1434066571.036,55.581333
1434066571.051,61.223915
1434066571.067,63.956593
1434066571.083,62.231983
1434066571.098,55.333515
1434066571.114,43.693905
1434066571.13,28.889317
1434066571.145,13.160877
1434066571.161,-1.3046799
1434066571.176,-12.941185
1434066571.192,-21.159527
1434066571.208,-26.222946
1434066571.223,-28.943596
1434066571.239,-30.204979
1434066571.255,-30.717
1434066571.27,-30.859165
1434066571.286,-30.787903
1434066571.301,-30.536194
1434066571.317,-30.159843
1434066571.333,-29.78355
1434066571.348,-29.533375
1434066571.364,-29.46114
1434066571.38,-29.50766
1434066571.395,-29.50521
1434066571.411,-29.342659
1434066571.426,-29.005432
1434066571.442,-28.629963
1434066571.458,-28.35955
1434066571.473,-28.243408
1434066571.489,-28.084755
1434066571.505,-27.506737
1434066571.52,-26.057198
1434066571.536,-23.471336
1434066571.551,-19.778545
1434066571.567,-15.3668785
1434066571.583,-10.798996
1434066571.598,-6.592819
1434066571.614,-3.022747
1434066571.63,-0.051475525
1434066571.645,2.6307182
1434066571.661,5.384598
1434066571.676,8.459797
1434066571.692,11.87738
1434066571.708,15.421551
1434066571.723,18.731339
1434066571.739,21.521606
1434066571.755,23.686836
1434066571.77,25.459084
1434066571.786,27.342361
1434066571.801,29.999992
1434066571.817,34.009304
1434066571.833,39.600956
1434066571.848,46.381992
1434066571.864,53.239437
1434066571.88,58.490826
1434066571.895,60.31657
1434066571.911,57.343254
1434066571.926,49.189278
1434066571.942,36.647728
1434066571.958,21.509823
1434066571.973,6.030697
1434066571.989,-7.74345
1434066572.005,-18.49887
1434066572.02,-25.806831
1434066572.036,-30.035213
1434066572.051,-31.932625
1434066572.067,-32.333725
1434066572.083,-31.873138
1434066572.098,-30.983833
1434066572.114,-29.9477
1434066572.13,-29.010475
1434066572.145,-28.387543
1434066572.161,-28.235603
1434066572.176,-28.566666
1434066572.192,-29.226143
1434066572.208,-29.925621
1434066572.223,-30.376144
1434066572.239,-30.417358
1434066572.255,-30.092644
1434066572.27,-29.592873
1434066572.286,-29.117004
1434066572.301,-28.69352
1434066572.317,-28.144829
1434066572.333,-27.107285
1434066572.348,-25.23391
1434066572.364,-22.370247
1434066572.38,-18.670334
1434066572.395,-14.537041
1434066572.411,-10.466751
1434066572.426,-6.8232346
1434066572.442,-3.692566
1434066572.458,-0.8513336
1434066572.473,2.0746384
1434066572.489,5.42601
1434066572.505,9.297798
1434066572.52,13.51133
1434066572.536,17.673882
1434066572.551,21.389221
1434066572.567,24.421684
1434066572.583,26.822578
1434066572.598,28.890602
1434066572.614,31.129333
1434066572.63,34.078293
1434066572.645,38.17415
1434066572.661,43.544212
1434066572.676,49.82994
1434066572.692,56.068726
1434066572.708,60.79731
1434066572.723,62.357483
1434066572.739,59.455452
1434066572.755,51.631752
1434066572.77,39.58943
1434066572.786,25.011848
1434066572.801,10.123589
1434066572.817,-3.0175095
1434066572.833,-13.067711
1434066572.848,-19.636497
1434066572.864,-23.138832
1434066572.88,-24.416878
1434066572.895,-24.308685
1434066572.911,-23.373932
1434066572.926,-21.915588
1434066572.942,-20.09169
1434066572.958,-18.10881
1434066572.973,-16.287834
1434066572.989,-15.002045
1434066573.005,-14.544418
1434066573.02,-14.95858
1434066573.036,-16.005638
1434066573.051,-17.23941
1434066573.067,-18.210587
1434066573.083,-18.615372
1434066573.098,-18.406746
1434066573.114,-17.70977
1434066573.13,-16.737915
1434066573.145,-15.629524
1434066573.161,-14.395317
1434066573.176,-12.896027
1434066573.192,-10.905319
1434066573.208,-8.197617
1434066573.223,-4.6352234
1434066573.239,-0.23902893
1434066573.255,4.7350082
1434066573.27,9.89418
1434066573.286,14.771355
1434066573.301,18.990234
1434066573.317,22.37165
1434066573.333,25.046982
1434066573.348,27.364258
1434066573.364,29.819145
1434066573.38,32.901093
1434066573.395,36.982758
1434066573.411,42.174606
1434066573.426,48.20746
1434066573.442,54.29782
1434066573.458,59.20829
1434066573.473,61.43654
1434066573.489,59.66369
1434066573.505,53.215454
1434066573.52,42.430733
1434066573.536,28.639359
1434066573.551,13.819153
1434066573.567,-0.018936157
1434066573.583,-11.373871
1434066573.598,-19.563164
1434066573.614,-24.683289
1434066573.63,-27.312088
1434066573.645,-28.144363
1434066573.661,-27.771126
1434066573.676,-26.619438
1434066573.692,-25.034561
1434066573.708,-23.343803
1434066573.723,-21.891891
1434066573.739,-20.974762
1434066573.755,-20.766113
1434066573.77,-21.20758
1434066573.786,-22.088806
1434066573.802,-23.09037
1434066573.817,-23.909233
1434066573.833,-24.334694
1434066573.848,-24.273163
1434066573.864,-23.720322
1434066573.88,-22.751274
1434066573.895,-21.444946
1434066573.911,-19.86987
1434066573.927,-18.040428
1434066573.942,-15.88522
1434066573.958,-13.230934
1434066573.973,-9.902622
1434066573.989,-5.7706337
1434066574.005,-0.8890724
1434066574.02,4.4651527
1434066574.036,9.857933
1434066574.052,14.847591
1434066574.067,19.119999
1434066574.083,22.606525
1434066574.098,25.50381
1434066574.114,28.20169
1434066574.13,31.182812
1434066574.145,34.94524
1434066574.161,39.84464
1434066574.177,45.938286
1434066574.192,52.792458
1434066574.208,59.38312
1434066574.223,64.20012
1434066574.239,65.59234
1434066574.255,62.24005
1434066574.27,53.71565
1434066574.286,40.732655
1434066574.302,25.021383
1434066574.317,8.849436
1434066574.333,-5.647867
1434066574.348,-17.064457
1434066574.364,-24.94412
1434066574.38,-29.69426
1434066574.395,-32.179016
1434066574.411,-33.265762
1434066574.427,-33.571224
1434066574.442,-33.362568
1434066574.458,-32.703144
1434066574.473,-31.637531
1434066574.489,-30.310335
1434066574.505,-28.972866
1434066574.52,-27.881283
1434066574.536,-27.211193
1434066574.552,-26.960701
1434066574.567,-27.005676
1434066574.583,-27.15559
1434066574.598,-27.243006
1434066574.614,-27.159632
1434066574.63,-26.843962
1434066574.645,-26.244339
1434066574.661,-25.292542
1434066574.677,-23.873837
1434066574.692,-21.874325
1434066574.708,-19.190954
1434066574.723,-15.789072
1434066574.739,-11.701681
1434066574.755,-7.0642385
1434066574.77,-2.067525
1434066574.786,3.07693
1434066574.802,8.125002
1434066574.817,12.871836
1434066574.833,17.151674
1434066574.848,20.91065
1434066574.864,24.234852
1434066574.88,27.400791
1434066574.895,30.838467
1434066574.911,35.056644
1434066574.927,40.453842
1434066574.942,47.053875
1434066574.958,54.285343
1434066574.973,60.907917
1434066574.989,65.22687
1434066575.005,65.54027
1434066575.02,60.72692
1434066575.036,50.726334
1434066575.052,36.629005
1434066575.067,20.430859
1434066575.083,4.4179688
1434066575.098,-9.50108
1434066575.114,-20.267422
1434066575.13,-27.750439
1434066575.145,-32.50315
1434066575.161,-35.323017
1434066575.177,-36.873146
1434066575.192,-37.54809
1434066575.208,-37.524693
1434066575.223,-36.934753
1434066575.239,-35.96086
1434066575.255,-34.87281
1434066575.27,-33.928585
1434066575.286,-33.298584
1434066575.302,-32.97125
1434066575.317,-32.841274
1434066575.333,-32.734035
1434066575.348,-32.54007
1434066575.364,-32.19402
1434066575.38,-31.688263
1434066575.395,-31.021286
1434066575.411,-30.162148
1434066575.427,-29.037674
1434066575.442,-27.492783
1434066575.458,-25.353508
1434066575.473,-22.446068
1434066575.489,-18.646492
1434066575.505,-13.982803
1434066575.52,-8.659042
1434066575.536,-3.0410156
1434066575.552,2.4522095
1434066575.567,7.4393005
1434066575.583,11.714096
1434066575.598,15.289566
1434066575.614,18.379707
1434066575.63,21.352425
1434066575.645,24.635826
1434066575.661,28.645554
1434066575.677,33.74495
1434066575.692,40.06581
1434066575.708,47.36229
1434066575.723,54.81668
1434066575.739,61.05591
1434066575.755,64.36333
1434066575.77,63.197197
1434066575.786,56.716644
1434066575.802,45.23648
1434066575.817,30.217697
1434066575.833,13.87487
1434066575.848,-1.5053482
1434066575.864,-14.212044
1434066575.88,-23.52655
1434066575.895,-29.635689
1434066575.911,-33.30259
1434066575.927,-35.39418
1434066575.942,-36.510803
1434066575.958,-36.907204
1434066575.973,-36.60399
1434066575.989,-35.622078
1434066576.005,-34.138397
1434066576.02,-32.48768
1434066576.036,-31.078049
1434066576.052,-30.175278
1434066576.067,-29.804596
1434066576.083,-29.742546
1434066576.098,-29.65409
1434066576.114,-29.21553
1434066576.13,-28.25718
1434066576.145,-26.755844
1434066576.161,-24.874245
1434066576.177,-22.803299
1434066576.192,-20.70031
1434066576.208,-18.603714
1434066576.223,-16.384178
1434066576.239,-13.795097
1434066576.255,-10.573105
1434066576.27,-6.5583267
1434066576.286,-1.8172913
1434066576.302,3.333191
1434066576.317,8.434456
1434066576.333,13.030663
1434066576.348,16.842865
1434066576.364,19.934174
1434066576.38,22.625832
1434066576.395,25.465057
1434066576.411,28.996353
1434066576.427,33.68577
1434066576.442,39.697937
1434066576.458,46.827187
1434066576.474,54.345284
1434066576.489,61.02495
1434066576.505,65.289795
1434066576.52,65.60031
1434066576.536,60.939163
1434066576.552,51.229202
1434066576.567,37.50553
1434066576.583,21.6652
1434066576.599,5.9061356
1434066576.614,-7.9060745
1434066576.63,-18.687408
1434066576.645,-26.237831
1434066576.661,-31.057137
1434066576.677,-33.90513
1434066576.692,-35.509415
1434066576.708,-36.363724
1434066576.724,-36.732323
1434066576.739,-36.753494
1434066576.755,-36.519104
1434066576.77,-36.134148
1434066576.786,-35.718704
1434066576.802,-35.366547
1434066576.817,-35.113792
1434066576.833,-34.953056
1434066576.849,-34.860657
1434066576.864,-34.82292
1434066576.88,-34.82701
1434066576.895,-34.802246
1434066576.911,-34.639633
1434066576.927,-34.08828
1434066576.942,-32.863525
1434066576.958,-30.683968
1434066576.974,-27.466736
1434066576.989,-23.329521
1434066577.005,-18.620262
1434066577.02,-13.747498
1434066577.036,-9.054947
1434066577.052,-4.6666794
1434066577.067,-0.5191498
1434066577.083,3.584671
1434066577.099,7.7855835
1434066577.114,12.102554
1434066577.13,16.375778
1434066577.145,20.37973
1434066577.161,23.940895
1434066577.177,27.079407
1434066577.192,30.071083
1434066577.208,33.43338
1434066577.224,37.777008
1434066577.239,43.54294
1434066577.255,50.691437
1434066577.27,58.495415
1434066577.286,65.51484
1434066577.302,69.88101
1434066577.317,69.85659
1434066577.333,64.429855
1434066577.349,53.707916
1434066577.364,38.97072
1434066577.38,22.259956
1434066577.395,5.8051605
1434066577.411,-8.605888
1434066577.427,-19.962265
1434066577.442,-28.088104
1434066577.458,-33.395645
1434066577.474,-36.576508
1434066577.489,-38.301155
1434066577.505,-39.066612
1434066577.52,-39.190544
1434066577.536,-38.915665
1434066577.552,-38.438774
1434066577.567,-37.96965
1434066577.583,-37.65056
1434066577.599,-37.525093
1434066577.614,-37.48606
1434066577.63,-37.350212
1434066577.645,-36.955956
1434066577.661,-36.31118
1434066577.677,-35.5549
1434066577.692,-34.900772
1434066577.708,-34.45308
1434066577.724,-34.116936
1434066577.739,-33.527084
1434066577.755,-32.26348
1434066577.77,-29.961578
1434066577.786,-26.540092
1434066577.802,-22.220482
1434066577.817,-17.457367
1434066577.833,-12.742088
1434066577.849,-8.449997
1434066577.864,-4.6785355
1434066577.88,-1.2720642
1434066577.895,2.0876007
1434066577.911,5.68132
1434066577.927,9.627663
1434066577.942,13.785294
1434066577.958,17.833054
1434066577.974,21.4207
1434066577.989,24.376923
1434066578.005,26.826958
1434066578.02,29.229149
1434066578.036,32.21946
1434066578.052,36.446854
1434066578.067,42.280342
1434066578.083,49.620293
1434066578.099,57.69346
1434066578.114,65.10506
1434066578.13,70.070526
1434066578.145,70.868614
1434066578.161,66.370995
1434066578.177,56.500626
1434066578.192,42.320396
1434066578.208,25.805664
1434066578.224,9.260735
1434066578.239,-5.326195
1434066578.255,-16.76873
1434066578.27,-24.803993
1434066578.286,-29.940315
1434066578.302,-33.00405
1434066578.317,-34.79476
1434066578.333,-35.82936
1434066578.349,-36.368668
1434066578.364,-36.51497
1434066578.38,-36.410957
1434066578.395,-36.241524
1434066578.411,-36.217667
1434066578.427,-36.43203
1434066578.442,-36.794937
1434066578.458,-37.069603
1434066578.474,-37.03778
1434066578.489,-36.647675
1434066578.505,-36.07199
1434066578.52,-35.59407
1434066578.536,-35.392845
1434066578.552,-35.37468
1434066578.567,-35.141056
1434066578.583,-34.139595
1434066578.599,-31.946274
1434066578.614,-28.434273
1434066578.63,-23.904522
1434066578.645,-18.934502
1434066578.661,-14.133003
1434066578.677,-9.905678
1434066578.692,-6.3015747
1434066578.708,-3.0503197
1434066578.724,0.27328873
1434066578.739,4.0393944
1434066578.755,8.35487
1434066578.77,13.034218
1434066578.786,17.700401
1434066578.802,21.959503
1434066578.817,25.61573
1434066578.833,28.745567
1434066578.849,31.696846
1434066578.864,34.976563
1434066578.88,39.112537
1434066578.895,44.47576
1434066578.911,51.088726
1434066578.927,58.486893
1434066578.942,65.57899
1434066578.958,70.83431
1434066578.974,72.55432
1434066578.989,69.47301
1434066579.005,61.231537
1434066579.02,48.656906
1434066579.036,33.555336
1434066579.052,18.182266
1434066579.067,4.5739403
1434066579.083,-6.046506
1434066579.099,-13.400319
1434066579.114,-17.977894
1434066579.13,-20.621225
1434066579.146,-22.119116
1434066579.161,-22.998804
1434066579.177,-23.541937
1434066579.192,-23.878893
1434066579.208,-24.099628
1434066579.224,-24.34011
1434066579.239,-24.67923
1434066579.255,-25.163952
1434066579.27,-25.708519
1434066579.286,-26.175701
1434066579.302,-26.42368
1434066579.317,-26.40078
1434066579.333,-26.158634
1434066579.349,-25.76188
1434066579.364,-25.263752
1434066579.38,-24.554186
1434066579.396,-23.418493
1434066579.411,-21.616867
1434066579.427,-19.019968
1434066579.442,-15.718164
1434066579.458,-11.937657
1434066579.474,-7.9888163
1434066579.489,-4.0507917
1434066579.505,-0.16606426
1434066579.521,3.7887173
1434066579.536,7.9014597
1434066579.552,12.15515
1434066579.567,16.340675
1434066579.583,20.194324
1434066579.599,23.489994
1434066579.614,26.215755
1434066579.63,28.631062
1434066579.646,31.163752
1434066579.661,34.310722
1434066579.677,38.472378
1434066579.692,43.799717
1434066579.708,50.039574
1434066579.724,56.413063
1434066579.739,61.66594
1434066579.755,64.26047
1434066579.771,62.831947
1434066579.786,56.62666
1434066579.802,45.86917
1434066579.817,31.818565
1434066579.833,16.425432
1434066579.849,1.8162384
1434066579.864,-10.320753
1434066579.88,-19.12744
1434066579.896,-24.59727
1434066579.911,-27.381397
1434066579.927,-28.37752
1434066579.942,-28.39815
1434066579.958,-27.976463
1434066579.974,-27.380983
1434066579.989,-26.709312
1434066580.005,-26.051195
1434066580.021,-25.5238
1434066580.036,-25.273314
1434066580.052,-25.36065
1434066580.067,-25.75539
1434066580.083,-26.304832
1434066580.099,-26.81328
1434066580.114,-27.15191
1434066580.13,-27.264837
1434066580.146,-27.13112
1434066580.161,-26.7046
1434066580.177,-25.836256
1434066580.192,-24.342768
1434066580.208,-22.051973
1434066580.224,-18.939938
1434066580.239,-15.168716
1434066580.255,-11.04327
1434066580.271,-6.8586426
1434066580.286,-2.84301
1434066580.302,0.9624634
1434066580.317,4.6386623
1434066580.333,8.31476
1434066580.349,12.045597
1434066580.364,15.759344
1434066580.38,19.234806
1434066580.396,22.239912
1434066580.411,24.62856
1434066580.427,26.523762
1434066580.442,28.324156
1434066580.458,30.686226
1434066580.474,34.300182
1434066580.489,39.598476
1434066580.505,46.40997
1434066580.521,53.81054
1434066580.536,60.16356
1434066580.552,63.561317
1434066580.567,62.37762
1434066580.583,55.87751
1434066580.599,44.530766
1434066580.614,29.924574
1434066580.63,14.264854
1434066580.646,-0.28385925
1434066580.661,-12.18704
1434066580.677,-20.808828
1434066580.692,-26.35491
1434066580.708,-29.499088
1434066580.724,-31.0262
1434066580.739,-31.529196
1434066580.755,-31.389849
1434066580.771,-30.80403
1434066580.786,-29.939322
1434066580.802,-28.984613
1434066580.817,-28.159742
1434066580.833,-27.61555
1434066580.849,-27.402824
1434066580.864,-27.425789
1434066580.88,-27.531506
1434066580.896,-27.586658
1434066580.911,-27.53494
1434066580.927,-27.389166
1434066580.942,-27.184551
1434066580.958,-26.87724
1434066580.974,-26.331963
1434066580.989,-25.303717
1434066581.005,-23.580797
1434066581.021,-21.034618
1434066581.036,-17.738825
1434066581.052,-13.947657
1434066581.067,-10.011702
1434066581.083,-6.2208767
1434066581.099,-2.6880322
1434066581.114,0.6751423
1434066581.13,4.068075
1434066581.146,7.653118
1434066581.161,11.41074
1434066581.177,15.149939
1434066581.192,18.563845
1434066581.208,21.490505
1434066581.224,23.961395
1434066581.239,26.298851
1434066581.255,29.0327
1434066581.271,32.714523
1434066581.286,37.714737
1434066581.302,43.980965
1434066581.317,50.912716
1434066581.333,57.27062
1434066581.349,61.416958
1434066581.364,61.74068
1434066581.38,57.17576
1434066581.396,47.667324
1434066581.411,34.26909
1434066581.427,18.86892
1434066581.442,3.6267204
1434066581.458,-9.648556
1434066581.474,-19.906967
1434066581.489,-26.917595
1434066581.505,-31.095043
1434066581.521,-33.11821
1434066581.536,-33.695522
1434066581.552,-33.395367
1434066581.567,-32.652733
1434066581.583,-31.77504
1434066581.599,-30.988167
1434066581.614,-30.385166
1434066581.63,-29.964294
1434066581.646,-29.612286
1434066581.661,-29.20768
1434066581.677,-28.71328
1434066581.692,-28.237942
1434066581.708,-27.962025
1434066581.724,-28.047665
1434066581.739,-28.4589
1434066581.755,-28.924435
1434066581.771,-28.99281
1434066581.786,-28.22129
1434066581.802,-26.405804
1434066581.818,-23.634857
1434066581.833,-20.223259
1434066581.849,-16.55104
1434066581.864,-12.885464
1434066581.88,-9.2733
1434066581.896,-5.5936317
1434066581.911,-1.6985703
1434066581.927,2.5248833
1434066581.942,7.0337486
1434066581.958,11.660809
1434066581.974,16.15623
1434066581.989,20.289406
1434066582.005,23.882805
1434066582.021,26.924957
1434066582.036,29.589691
1434066582.052,32.243916
1434066582.068,35.396
1434066582.083,39.56378
1434066582.099,44.983143
1434066582.114,51.434616
1434066582.13,57.99293
1434066582.146,63.121056
1434066582.161,65.0275
1434066582.177,62.263294
1434066582.193,54.272415
1434066582.208,41.74969
1434066582.224,26.50618
1434066582.239,10.920818
1434066582.255,-2.8122025
1434066582.271,-13.309616
1434066582.286,-20.225224
1434066582.302,-24.066196
1434066582.318,-25.732029
1434066582.333,-26.037464
1434066582.349,-25.487133
1434066582.364,-24.28991
1434066582.38,-22.563656
1434066582.396,-20.495384
1434066582.411,-18.435524
1434066582.427,-16.830975
1434066582.443,-16.01789
1434066582.458,-16.108498
1434066582.474,-16.92384
1434066582.489,-18.072739
1434066582.505,-19.114765
1434066582.521,-19.736134
1434066582.536,-19.828175
1434066582.552,-19.427856
1434066582.568,-18.660828
1434066582.583,-17.591267
1434066582.599,-16.188648
1434066582.614,-14.308891
1434066582.63,-11.787987
1434066582.646,-8.496632
1434066582.661,-4.452278
1434066582.677,0.17011261
1434066582.693,5.0354195
1434066582.708,9.736366
1434066582.724,13.897701
1434066582.739,17.314198
1434066582.755,19.997066
1434066582.771,22.188126
1434066582.786,24.275146
1434066582.802,26.700836
1434066582.818,29.868732
1434066582.833,34.08458
1434066582.849,39.413788
1434066582.864,45.584396
1434066582.88,51.78855
1434066582.896,56.739555
1434066582.911,58.866985
1434066582.927,56.798862
1434066582.943,49.89935
1434066582.958,38.616104
1434066582.974,24.450947
1434066582.989,9.517483
1434066583.005,-4.11182
1434066583.021,-15.014687
1434066583.036,-22.67769
1434066583.052,-27.410402
1434066583.068,-29.97437
1434066583.083,-31.143154
1434066583.099,-31.455383
1434066583.114,-31.143682
1434066583.13,-30.29916
1434066583.146,-29.004847
1434066583.161,-27.491402
1434066583.177,-26.088308
1434066583.193,-25.120966
1434066583.208,-24.767399
1434066583.224,-24.972168
1434066583.239,-25.491346
1434066583.255,-26.01436
1434066583.271,-26.278358
1434066583.286,-26.16912
1434066583.302,-25.66422
1434066583.318,-24.796858
1434066583.333,-23.551863
1434066583.349,-21.87223
1434066583.364,-19.683807
1434066583.38,-16.933804
1434066583.396,-13.618118
1434066583.411,-9.817347
1434066583.427,-5.6101685
1434066583.443,-1.1227608
1434066583.458,3.5041676
1434066583.474,8.0894575
1434066583.489,12.431109
1434066583.505,16.350971
1434066583.521,19.746342
1434066583.536,22.680439
1434066583.552,25.386106
1434066583.568,28.239136
1434066583.583,31.700344
1434066583.599,36.179737
1434066583.614,41.878956
1434066583.63,48.556877
1434066583.646,55.385593
1434066583.661,60.92443
1434066583.677,63.458694
1434066583.693,61.48139
1434066583.708,54.310806
1434066583.724,42.45489
1434066583.739,27.559786
1434066583.755,11.874607
1434066583.771,-2.401877
1434066583.786,-13.810196
1434066583.802,-21.860254
1434066583.818,-26.941963
1434066583.833,-29.887815
1434066583.849,-31.546373
1434066583.864,-32.531616
1434066583.88,-33.107872
1434066583.896,-33.35941
1434066583.911,-33.317974
1434066583.927,-33.054157
1434066583.943,-32.708813
1434066583.958,-32.407322
1434066583.974,-32.266045
1434066583.989,-32.306347
1434066584.005,-32.5012
1434066584.021,-32.773335
1434066584.036,-33.02116
1434066584.052,-33.129192
1434066584.068,-32.95429
1434066584.083,-32.355698
1434066584.099,-31.215
1434066584.114,-29.478065
1434066584.13,-27.20615
1434066584.146,-24.488811
1434066584.161,-21.424007
1434066584.177,-18.02021
1434066584.193,-14.196661
1434066584.208,-9.866918
1434066584.224,-5.048215
1434066584.239,0.09677029
1434066584.255,5.2786045
1434066584.271,10.173342
1434066584.286,14.537659
1434066584.302,18.306894
1434066584.318,21.591438
1434066584.333,24.663948
1434066584.349,27.890821
1434066584.364,31.685045
1434066584.38,36.41798
1434066584.396,42.255447
1434066584.411,48.938103
1434066584.427,55.62668
1434066584.443,60.924133
1434066584.458,63.189182
1434066584.474,60.98804
1434066584.489,53.69534
1434066584.505,41.761436
1434066584.521,26.721344
1434066584.536,10.721976
1434066584.552,-4.0702925
1434066584.568,-16.09058
1434066584.583,-24.683443
1434066584.599,-30.071114
1434066584.614,-33.032066
1434066584.63,-34.484055
1434066584.646,-35.15931
1434066584.661,-35.44258
1434066584.677,-35.447556
1434066584.693,-35.162285
1434066584.708,-34.609573
1434066584.724,-33.92456
1434066584.74,-33.28814
1434066584.755,-32.862217
1434066584.771,-32.69993
1434066584.786,-32.766563
1434066584.802,-32.95574
1434066584.818,-33.15914
1434066584.833,-33.254128
1434066584.849,-33.0971
1434066584.865,-32.539017
1434066584.88,-31.442902
1434066584.896,-29.733036
1434066584.911,-27.416058
1434066584.927,-24.584463
1434066584.943,-21.356256
1434066584.958,-17.798502
1434066584.974,-13.953705
1434066584.99,-9.817918
1434066585.005,-5.440704
1434066585.021,-0.91045916
1434066585.036,3.6101487
1434066585.052,7.9775715
1434066585.068,12.057588
1434066585.083,15.79472
1434066585.099,19.177244
1434066585.115,22.303675
1434066585.13,25.38675
1434066585.146,28.787811
1434066585.161,32.97341
1434066585.177,38.3553
1434066585.193,44.99821
1434066585.208,52.372223
1434066585.224,59.24925
1434066585.24,63.90238
1434066585.255,64.574265
1434066585.271,60.10144
1434066585.286,50.43531
1434066585.302,36.74853
1434066585.318,21.098804
1434066585.333,5.8049154
1434066585.349,-7.280301
1434066585.365,-17.165905
1434066585.38,-23.775892
1434066585.396,-27.663258
1434066585.411,-29.574287
1434066585.427,-30.123419
1434066585.443,-29.682152
1434066585.458,-28.48516
1434066585.474,-26.77113
1434066585.49,-24.855124
1434066585.505,-23.132856
1434066585.521,-21.959084
1434066585.536,-21.548315
1434066585.552,-21.89597
1434066585.568,-22.814013
1434066585.583,-23.99202
1434066585.599,-25.114246
1434066585.615,-25.894089
1434066585.63,-26.136108
1434066585.646,-25.745636
1434066585.661,-24.745373
1434066585.677,-23.234331
1434066585.693,-21.350456
1434066585.708,-19.162285
1434066585.724,-16.64642
1434066585.74,-13.649601
1434066585.755,-9.98465
1434066585.771,-5.5553207
1434066585.786,-0.47162247
1434066585.802,4.961071
1434066585.818,10.30278
1434066585.833,15.165028
1434066585.849,19.324936
1434066585.865,22.82447
1434066585.88,25.888737
1434066585.896,28.868164
1434066585.911,32.13933
1434066585.927,36.052948
1434066585.943,40.845856
1434066585.958,46.45689
1434066585.974,52.372543
1434066585.99,57.534855
1434066586.005,60.493645
1434066586.021,59.839622
1434066586.036,54.683285
1434066586.052,45.123066
1434066586.068,32.2485
1434066586.083,17.899311
1434066586.099,4.0442505
1434066586.115,-7.7523193
1434066586.13,-16.635967
1434066586.146,-22.451324
1434066586.161,-25.494186
1434066586.177,-26.242859
1434066586.193,-25.1819
1434066586.208,-22.76738
1434066586.224,-19.51513
1434066586.24,-16.023499
1434066586.255,-12.956116
1434066586.271,-10.898384
1434066586.286,-10.206608
1434066586.302,-10.8428955
1434066586.318,-12.418186
1434066586.333,-14.253811
1434066586.349,-15.72073
1434066586.365,-16.40506
1434066586.38,-16.295383
1434066586.396,-15.674984
1434066586.411,-14.94138
1434066586.427,-14.29081
1434066586.443,-13.574596
1434066586.458,-12.369339
1434066586.474,-10.141441
1434066586.49,-6.583294
1434066586.505,-1.7977295
1434066586.521,3.71344
1434066586.536,9.250282
1434066586.552,14.202194
1434066586.568,18.257431
1434066586.583,21.493774
1434066586.599,24.277039
1434066586.615,27.129162
1434066586.63,30.578411
1434066586.646,35.01686
1434066586.661,40.575653
1434066586.677,46.981846
1434066586.693,53.444138
1434066586.708,58.68016
1434066586.724,61.16033
1434066586.74,59.53721
1434066586.755,53.15571
1434066586.771,42.364613
1434066586.786,28.486343
1434066586.802,13.499546
1434066586.818,-0.59838295
1434066586.833,-12.291492
1434066586.849,-20.870329
1434066586.865,-26.394112
1434066586.88,-29.42304
1434066586.896,-30.638012
1434066586.911,-30.605993
1434066586.927,-29.677622
1434066586.943,-28.089403
1434066586.958,-26.088556
1434066586.974,-24.053179
1434066586.99,-22.42304
1434066587.005,-21.596054
1434066587.021,-21.707684
1434066587.036,-22.57426
1434066587.052,-23.724829
1434066587.068,-24.631021
1434066587.083,-24.890884
1434066587.099,-24.418533
1434066587.115,-23.42052
1434066587.13,-22.23706
1434066587.146,-21.105991
1434066587.161,-19.992779
1434066587.177,-18.58482
1434066587.193,-16.39521
1434066587.208,-13.004447
1434066587.224,-8.275509
1434066587.24,-2.4377823
1434066587.255,3.9504251
1434066587.271,10.244656
1434066587.286,15.889862
1434066587.302,20.662209
1434066587.318,24.624733
1434066587.333,28.108236
1434066587.349,31.532303
1434066587.365,35.347694
1434066587.38,39.951443
1434066587.396,45.56901
1434066587.412,52.101078
1434066587.427,58.908504
1434066587.443,64.738335
1434066587.458,67.9001
1434066587.474,66.77233
1434066587.49,60.40555
1434066587.505,48.96987
1434066587.521,33.866806
1434066587.537,17.281622
1434066587.552,1.5350523
1434066587.568,-11.628561
1434066587.583,-21.392033
1434066587.599,-27.880981
1434066587.615,-31.791794
1434066587.63,-34.00936
1434066587.646,-35.255383
1434066587.662,-35.953705
1434066587.677,-36.28369
1434066587.693,-36.286552
1434066587.708,-36.006073
1434066587.724,-35.55639
1434066587.74,-35.115864
1434066587.755,-34.86213
1434066587.771,-34.91204
1434066587.787,-35.25634
1434066587.802,-35.756733
1434066587.818,-36.233837
1434066587.833,-36.48695
1434066587.849,-36.39942
1434066587.865,-35.891953
1434066587.88,-34.93338
1434066587.896,-33.45058
1434066587.912,-31.362877
1434066587.927,-28.571377
1434066587.943,-25.042084
1434066587.958,-20.819298
1434066587.974,-16.006084
1434066587.99,-10.697258
1434066588.005,-4.995907
1434066588.021,1.0156593
1434066588.037,7.2041435
1434066588.052,13.336834
1434066588.068,19.091465
1434066588.083,24.179585
1434066588.099,28.456089
1434066588.115,32.07679
1434066588.13,35.457382
1434066588.146,39.23693
1434066588.162,44.02598
1434066588.177,50.194607
1434066588.193,57.555996
1434066588.208,65.27808
1434066588.224,71.87294
1434066588.24,75.49913
1434066588.255,74.46553
1434066588.271,67.81359
1434066588.287,55.72846
1434066588.302,39.60707
1434066588.318,21.651367
1434066588.333,4.238598
1434066588.349,-10.785091
1434066588.365,-22.465118
1434066588.38,-30.780304
1434066588.396,-36.276264
1434066588.412,-39.704693
1434066588.427,-41.683483
1434066588.443,-42.647354
1434066588.458,-42.898087
1434066588.474,-42.725975
1434066588.49,-42.436203
1434066588.505,-42.306503
1434066588.521,-42.468346
1434066588.537,-42.86515
1434066588.552,-43.28457
1434066588.568,-43.49121
1434066588.583,-43.35402
1434066588.599,-42.907677
1434066588.615,-42.293015
1434066588.63,-41.67563
1434066588.646,-41.06933
1434066588.662,-40.29973
1434066588.677,-39.01831
1434066588.693,-36.901527
1434066588.708,-33.74269
1434066588.724,-29.620148
1434066588.74,-24.838295
1434066588.755,-19.838432
1434066588.771,-14.999336
1434066588.787,-10.500893
1434066588.802,-6.294075
1434066588.818,-2.1650543
1434066588.833,2.1342926
1434066588.849,6.7066574
1434066588.865,11.477646
1434066588.88,16.126328
1434066588.896,20.294357
1434066588.912,23.683044
1434066588.927,26.265503
1434066588.943,28.347633
1434066588.958,30.558136
1434066588.974,33.680466
1434066588.99,38.39702
1434066589.005,44.943565
1434066589.021,52.874016
1434066589.037,60.933174
1434066589.052,67.2255
1434066589.068,69.704865
1434066589.083,66.79148
1434066589.099,57.941418
1434066589.115,43.94934
1434066589.13,26.772621
1434066589.146,8.9668045
1434066589.162,-7.0588226
1434066589.177,-19.683529
1434066589.193,-28.366581
1434066589.208,-33.524452
1434066589.224,-36.155926
1434066589.24,-37.269474
1434066589.255,-37.636803
1434066589.271,-37.632446
1434066589.287,-37.361958
1434066589.302,-36.824554
1434066589.318,-36.07179
1434066589.333,-35.214382
1434066589.349,-34.410774
1434066589.365,-33.769672
1434066589.38,-33.308636
1434066589.396,-32.99164
1434066589.412,-32.770603
1434066589.427,-32.624844
1434066589.443,-32.53363
1434066589.458,-32.413254
1434066589.474,-32.066692
1434066589.49,-31.147968
1434066589.505,-29.28786
1434066589.521,-26.228996
1434066589.537,-22.007626
1434066589.552,-16.961262
1434066589.568,-11.670235
1434066589.583,-6.6619606
1434066589.599,-2.233307
1434066589.615,1.6430779
1434066589.63,5.2460327
1434066589.646,8.875256
1434066589.662,12.668144
1434066589.677,16.526443
1434066589.693,20.188568
1434066589.708,23.419014
1434066589.724,26.16167
1434066589.74,28.618164
1434066589.755,31.163635
1434066589.771,34.287716
1434066589.787,38.445477
1434066589.802,43.912643
1434066589.818,50.550583
1434066589.833,57.65963
1434066589.849,63.87906
1434066589.865,67.443375
1434066589.88,66.665405
1434066589.896,60.5726
1434066589.912,49.36713
1434066589.927,34.477425
1434066589.943,18.114132
1434066589.958,2.5838337
1434066589.974,-10.361942
1434066589.99,-19.9176
1434066590.005,-26.143341
1434066590.021,-29.623493
1434066590.037,-31.10664
1434066590.052,-31.1916
1434066590.068,-30.276432
1434066590.084,-28.639034
1434066590.099,-26.56535
1434066590.115,-24.40035
1434066590.13,-22.555943
1434066590.146,-21.392857
1434066590.162,-21.126554
1434066590.177,-21.731613
1434066590.193,-22.949219
1434066590.208,-24.370293
1434066590.224,-25.559746
1434066590.24,-26.190662
1434066590.255,-26.093798
1434066590.271,-25.292921
1434066590.287,-23.875254
1434066590.302,-21.940315
1434066590.318,-19.519848
1434066590.334,-16.543217
1434066590.349,-12.898805
1434066590.365,-8.488775
1434066590.38,-3.3515148
1434066590.396,2.2939653
1434066590.412,8.090868
1434066590.427,13.604533
1434066590.443,18.463501
1434066590.459,22.497498
1434066590.474,25.767029
1434066590.49,28.567692
1434066590.505,31.319801
1434066590.521,34.49127
1434066590.537,38.496464
1434066590.552,43.588657
1434066590.568,49.693016
1434066590.584,56.258804
1434066590.599,62.159054
1434066590.615,65.858536
1434066590.63,65.77133
1434066590.646,60.83983
1434066590.662,50.946384
1434066590.677,37.120796
1434066590.693,21.238258
1434066590.709,5.4849167
1434066590.724,-8.284879
1434066590.74,-18.971907
1434066590.755,-26.333273
1434066590.771,-30.769337
1434066590.787,-32.97753
1434066590.802,-33.646893
1434066590.818,-33.328846
1434066590.834,-32.419037
1434066590.849,-31.226673
1434066590.865,-30.004673
1434066590.88,-28.948391
1434066590.896,-28.179325
1434066590.912,-27.720198
1434066590.927,-27.525078
1434066590.943,-27.5372
1434066590.959,-27.708195
1434066590.974,-28.015926
1434066590.99,-28.410397
1434066591.005,-28.75832
1434066591.021,-28.819595
1434066591.037,-28.281029
1434066591.052,-26.862728
1434066591.068,-24.429737
1434066591.084,-21.069454
1434066591.099,-17.114597
1434066591.115,-12.968544
1434066591.13,-9.009957
1434066591.146,-5.390438
1434066591.162,-2.0405169
1434066591.177,1.315218
1434066591.193,4.9507627
1434066591.209,9.029654
1434066591.224,13.463
1434066591.24,17.972893
1434066591.255,22.192415
1434066591.271,25.836685
1434066591.287,28.817635
1434066591.302,31.31922
1434066591.318,33.76671
1434066591.334,36.753693
1434066591.349,40.856895
1434066591.365,46.381577
1434066591.38,53.07976
1434066591.396,60.02498
1434066591.412,65.61611
1434066591.427,68.00468
1434066591.443,65.66572
1434066591.459,57.97618
1434066591.474,45.52725
1434066591.49,29.995293
1434066591.505,13.650171
1434066591.521,-1.3398829
1434066591.537,-13.485804
1434066591.552,-22.246178
1434066591.568,-27.903046
1434066591.584,-31.203518
1434066591.599,-32.992283
1434066591.615,-33.91024
1434066591.63,-34.318733
1434066591.646,-34.381866
1434066591.662,-34.168076
1434066591.677,-33.760334
1434066591.693,-33.32953
1434066591.709,-33.015846
1434066591.724,-32.890793
1434066591.74,-32.91992
1434066591.755,-32.986282
1434066591.771,-32.98318
1434066591.787,-32.876747
1434066591.802,-32.724396
1434066591.818,-32.54459
1434066591.834,-32.257698
1434066591.849,-31.612259
1434066591.865,-30.261507
1434066591.88,-27.946472
1434066591.896,-24.598137
1434066591.912,-20.450106
1434066591.927,-15.931094
1434066591.943,-11.474648
1434066591.959,-7.3188457
1434066591.974,-3.4725533
1434066591.99,0.31894207
1434066592.005,4.3347635
1434066592.021,8.730792
1434066592.037,13.383159
1434066592.052,17.957943
1434066592.068,22.028776
1434066592.084,25.313793
1434066592.099,27.800827
1434066592.115,29.81579
1434066592.13,31.956562
1434066592.146,34.90265
1434066592.162,39.203197
1434066592.177,45.016644
1434066592.193,51.88881
1434066592.209,58.692772
1434066592.224,63.753906
1434066592.24,65.29573
1434066592.255,61.938972
1434066592.271,53.26417
1434066592.287,40.038784
1434066592.302,24.072018
1434066592.318,7.68124
1434066592.334,-6.9616365
1434066592.349,-18.424759
1434066592.365,-26.236723
1434066592.38,-30.832659
1434066592.396,-33.136356
1434066592.412,-34.1422
1434066592.427,-34.590443
1434066592.443,-34.864216
1434066592.459,-35.02194
1434066592.474,-35.005432
1434066592.49,-34.777397
1434066592.505,-34.395935
1434066592.521,-33.94787
1434066592.537,-33.508156
1434066592.552,-33.06633
1434066592.568,-32.565918
1434066592.584,-31.983582
1434066592.599,-31.352764
1434066592.615,-30.76376
1434066592.63,-30.27142
1434066592.646,-29.794445
1434066592.662,-29.098158
1434066592.677,-27.874836
1434066592.693,-25.870638
1434066592.709,-23.006205
1434066592.724,-19.416372
1434066592.74,-15.349415
1434066592.756,-11.055676
1434066592.771,-6.71834
1434066592.787,-2.4039705
1434066592.802,1.8917208
1434066592.818,6.1765194
1434066592.834,10.414585
1434066592.849,14.515164
1434066592.865,18.39118
1434066592.88,21.967377
1434066592.896,25.257633
1434066592.912,28.375801
1434066592.927,31.585957
1434066592.943,35.27549
1434066592.959,39.85812
1434066592.974,45.562477
1434066592.99,52.196762
1434066593.006,58.91887
1434066593.021,64.28687
1434066593.037,66.57261
1434066593.052,64.33538
1434066593.068,56.99869
1434066593.084,45.196667
1434066593.099,30.616755
1434066593.115,15.514135
1434066593.131,1.9588013
1434066593.146,-8.708859
1434066593.162,-16.146648
1434066593.177,-20.815504
1434066593.193,-23.544357
1434066593.209,-25.086912
1434066593.224,-25.863438
1434066593.24,-25.962124
1434066593.256,-25.322262
1434066593.271,-23.974142
1434066593.287,-22.1428
1434066593.302,-20.216091
1434066593.318,-18.637444
1434066593.334,-17.71737
1434066593.349,-17.538572
1434066593.365,-17.968683
1434066593.381,-18.742952
1434066593.396,-19.56121
1434066593.412,-20.17392
1434066593.427,-20.41505
1434066593.443,-20.197906
1434066593.459,-19.46593
1434066593.474,-18.175034
1434066593.49,-16.284462
1434066593.506,-13.724643
1434066593.521,-10.450278
1434066593.537,-6.478842
1434066593.552,-1.9433098
1434066593.568,2.8665571
1434066593.584,7.6173363
1434066593.599,11.968811
1434066593.615,15.717834
1434066593.631,18.837322
1434066593.646,21.510265
1434066593.662,24.02137
1434066593.677,26.713451
1434066593.693,29.962858
1434066593.709,34.096985
1434066593.724,39.294235
1434066593.74,45.391064
1434066593.756,51.711826
1434066593.771,57.0422
1434066593.787,59.85909
1434066593.802,58.79099
1434066593.818,53.12818
1434066593.834,43.156055
1434066593.849,30.107065
1434066593.865,15.827406
1434066593.881,2.1863284
1434066593.896,-9.429511
1434066593.912,-18.34538
1434066593.927,-24.583809
1434066593.943,-28.608282
1434066593.959,-31.013878
1434066593.974,-32.276546
1434066593.99,-32.735794
1434066594.006,-32.582863
1434066594.021,-31.962873
1434066594.037,-31.06479
1434066594.052,-30.115679
1434066594.068,-29.353994
1434066594.084,-28.912598
1434066594.099,-28.780277
1434066594.115,-28.814013
1434066594.131,-28.83651
1434066594.146,-28.69604
1434066594.162,-28.346565
1434066594.177,-27.79231
1434066594.193,-27.040752
1434066594.209,-26.001846
1434066594.224,-24.528313
1434066594.24,-22.504366
1434066594.256,-19.930058
1434066594.271,-16.956867
1434066594.287,-13.8265
1434066594.302,-10.70911
1434066594.318,-7.61829
1434066594.334,-4.3769045
1434066594.349,-0.7535038
1434066594.365,3.3785362
1434066594.381,7.903717
1434066594.396,12.518339
1434066594.412,16.806078
1434066594.427,20.489906
1434066594.443,23.548145
1434066594.459,26.251701
1434066594.474,29.124805
1434066594.49,32.751823
1434066594.506,37.566536
1434066594.521,43.663578
1434066594.537,50.576775
1434066594.552,57.26653
1434066594.568,62.237644
1434066594.584,63.9198
1434066594.599,61.143616
1434066594.615,53.610565
1434066594.631,42.029606
1434066594.646,27.997234
1434066594.662,13.462748
1434066594.677,0.21053696
1434066594.693,-10.627274
1434066594.709,-18.707485
1434066594.724,-24.336031
1434066594.74,-28.133743
1434066594.756,-30.738804
1434066594.771,-32.572468
1434066594.787,-33.85986
1434066594.802,-34.69737
1434066594.818,-35.162132
1434066594.834,-35.389206
1434066594.849,-35.55116
1434066594.865,-35.762573
1434066594.881,-36.07866
1434066594.896,-36.409134
1434066594.912,-36.65336
1434066594.927,-36.729614
1434066594.943,-36.64446
1434066594.959,-36.468273
1434066594.974,-36.213017
1434066594.99,-35.784477
1434066595.006,-34.925034
1434066595.021,-33.307526
1434066595.037,-30.697205
1434066595.052,-27.068996
1434066595.068,-22.684662
1434066595.084,-17.974627
1434066595.099,-13.437756
1434066595.115,-9.411385
1434066595.131,-5.979706
1434066595.146,-2.9471521
1434066595.162,0.024409294
1434066595.177,3.270073
1434066595.193,6.959957
1434066595.209,11.026788
1434066595.224,15.197375
1434066595.24,19.104118
1434066595.256,22.465471
1434066595.271,25.244957
1434066595.287,27.637943
1434066595.302,30.077106
1434066595.318,33.10473
1434066595.334,37.203716
1434066595.349,42.62283
1434066595.365,49.189163
1434066595.381,56.13863
1434066595.396,62.126167
1434066595.412,65.435936
1434066595.427,64.47913
1434066595.443,58.31926
1434066595.459,47.147263
1434066595.474,32.342052
1434066595.49,16.098942
1434066595.506,0.74726915
1434066595.521,-11.950176
1434066595.537,-21.24366
1434066595.552,-27.346651
1434066595.568,-31.098377
1434066595.584,-33.427036
1434066595.599,-34.995373
1434066595.615,-36.105648
1434066595.631,-36.808533
1434066595.646,-37.0872
1434066595.662,-37.019222
1434066595.678,-36.790943
1434066595.693,-36.588974
1434066595.709,-36.509087
1434066595.724,-36.518646
1434066595.74,-36.457764
1434066595.756,-36.192375
1434066595.771,-35.68726
1434066595.787,-35.057343
1434066595.803,-34.501385
1434066595.818,-34.19668
1434066595.834,-34.138542
1434066595.849,-34.067024
1434066595.865,-33.523064
1434066595.881,-32.026016
1434066595.896,-29.286068
1434066595.912,-25.373089
1434066595.928,-20.684084
1434066595.943,-15.84094
1434066595.959,-11.404514
1434066595.974,-7.6751823
1434066595.99,-4.587702
1434066596.006,-1.8028145
1434066596.021,1.1446667
1434066596.037,4.5900517
1434066596.053,8.615904
1434066596.068,13.032146
1434066596.084,17.461166
1434066596.099,21.513536
1434066596.115,24.931824
1434066596.131,27.68863
1434066596.146,30.045803
1434066596.162,32.483044
1434066596.178,35.60228
1434066596.193,39.90465
1434066596.209,45.620487
1434066596.224,52.454567
1434066596.24,59.50661
1434066596.256,65.333084
1434066596.271,68.291794
1434066596.287,67.00815
1434066596.303,60.873714
1434066596.318,50.325623
1434066596.334,36.77838
1434066596.349,22.194263
1434066596.365,8.506615
1434066596.381,-2.8996964
1434066596.396,-11.405247
1434066596.412,-17.127842
1434066596.428,-20.59079
1434066596.443,-22.409657
1434066596.459,-23.069843
1434066596.474,-22.91301
1434066596.49,-22.179047
1434066596.506,-21.117702
1434066596.521,-20.000092
1434066596.537,-19.07716
1434066596.553,-18.498516
1434066596.568,-18.288933
1434066596.584,-18.35189
1434066596.599,-18.539246
1434066596.615,-18.76189
1434066596.631,-19.018871
1434066596.646,-19.368408
1434066596.662,-19.849522
1434066596.678,-20.341263
1434066596.693,-20.550575
1434066596.709,-20.067284
1434066596.724,-18.564285
1434066596.74,-15.930489
1434066596.756,-12.420845
1434066596.771,-8.515923
1434066596.787,-4.7310104
1434066596.803,-1.3915787
1434066596.818,1.4972153
1434066596.834,4.17791
1434066596.849,6.98394
1434066596.865,10.128006
1434066596.881,13.592247
1434066596.896,17.160835
1434066596.912,20.523643
1434066596.928,23.440536
1434066596.943,25.792984
1434066596.959,27.683502
1434066596.974,29.412453
1434066596.99,31.489868
1434066597.006,34.506042
1434066597.021,38.93818
1434066597.037,44.847046
1434066597.053,51.641838
1434066597.068,57.99846
1434066597.084,62.1221
1434066597.099,62.304817
1434066597.115,57.510933
1434066597.131,47.83481
1434066597.146,34.528275
1434066597.162,19.584732
1434066597.178,5.136986
1434066597.193,-7.1782303
1434066597.209,-16.53952
1434066597.224,-22.949326
1434066597.24,-26.897285
1434066597.256,-29.05841
1434066597.271,-29.97522
1434066597.287,-30.049828
1434066597.303,-29.579926
1434066597.318,-28.861313
1434066597.334,-28.210373
1434066597.349,-27.913116
1434066597.365,-28.080067
1434066597.381,-28.619644
1434066597.396,-29.240173
1434066597.412,-29.65786
1434066597.428,-29.697338
1434066597.443,-29.415619
1434066597.459,-29.002716
1434066597.474,-28.662254
1434066597.49,-28.383492
1434066597.506,-27.937054
1434066597.521,-26.91175
1434066597.537,-24.96632
1434066597.553,-21.975517
1434066597.568,-18.146313
1434066597.584,-13.904587
1434066597.599,-9.780048
1434066597.615,-6.1289253
1434066597.631,-3.0597458
1434066597.646,-0.38566208
1434066597.662,2.2202187
1434066597.678,5.081547
1434066597.693,8.348877
1434066597.709,11.942581
1434066597.724,15.575039
1434066597.74,18.895119
1434066597.756,21.65474
1434066597.771,23.832714
1434066597.787,25.686222
1434066597.803,27.686844
1434066597.818,30.411629
1434066597.834,34.360012
1434066597.849,39.738068
1434066597.865,46.318085
1434066597.881,53.302963
1434066597.896,59.402103
1434066597.912,63.02512
1434066597.928,62.717773
1434066597.943,57.616333
1434066597.959,47.811104
1434066597.974,34.424892
1434066597.99,19.334198
1434066598.006,4.6323204
1434066598.021,-7.9443703
1434066598.037,-17.429882
1434066598.053,-23.719265
1434066598.068,-27.373013
1434066598.084,-29.197567
1434066598.099,-29.951103
1434066598.115,-30.121098
1434066598.131,-29.951946
1434066598.146,-29.536545
1434066598.162,-28.967567
1434066598.178,-28.353626
1434066598.193,-27.817207
1434066598.209,-27.438908
1434066598.224,-27.235271
1434066598.24,-27.180794
1434066598.256,-27.28468
1434066598.271,-27.619522
1434066598.287,-28.256374
1434066598.303,-29.193565
1434066598.318,-30.255219
1434066598.334,-31.083813
1434066598.35,-31.236408
1434066598.365,-30.33857
1434066598.381,-28.253193
1434066598.396,-25.119396
1434066598.412,-21.319729
1434066598.428,-17.322933
1434066598.443,-13.5248375
1434066598.459,-10.098141
1434066598.475,-6.956188
1434066598.49,-3.821434
1434066598.506,-0.38986206
1434066598.521,3.5135078
1434066598.537,7.824398
1434066598.553,12.245079
1434066598.568,16.39249
1434066598.584,19.956959
1434066598.6,22.891514
1434066598.615,25.463291
1434066598.631,28.220562
1434066598.646,31.81725
1434066598.662,36.743774
1434066598.678,43.032784
1434066598.693,50.05455
1434066598.709,56.543774
1434066598.725,60.858547
1434066598.74,61.43204
1434066598.756,57.30269
1434066598.771,48.435497
1434066598.787,35.78991
1434066598.803,21.075886
1434066598.818,6.256138
1434066598.834,-6.9487724
1434066598.85,-17.412476
1434066598.865,-24.728073
1434066598.881,-29.097565
1434066598.896,-31.136684
1434066598.912,-31.55714
1434066598.928,-31.029205
1434066598.943,-30.03733
1434066598.959,-28.894165
1434066598.975,-27.758396
1434066598.99,-26.751862
1434066599.006,-25.985863
1434066599.021,-25.54816
1434066599.037,-25.483578
1434066599.053,-25.730812
1434066599.068,-26.13964
1434066599.084,-26.52481
1434066599.1,-26.714188
1434066599.115,-26.584896
1434066599.131,-26.0724
1434066599.146,-25.146214
1434066599.162,-23.774433
1434066599.178,-21.945621
1434066599.193,-19.667118
1434066599.209,-16.982384
1434066599.225,-13.920845
1434066599.24,-10.492725
1434066599.256,-6.6567764
1434066599.271,-2.382473
1434066599.287,2.293476
1434066599.303,7.2283363
1434066599.318,12.146942
1434066599.334,16.770634
1434066599.35,20.884777
1434066599.365,24.475163
1434066599.381,27.715885
1434066599.396,30.965908
1434066599.412,34.697475
1434066599.428,39.370975
1434066599.443,45.248104
1434066599.459,52.155376
1434066599.475,59.35173
1434066599.49,65.50716
1434066599.506,68.96419
1434066599.521,68.248
1434066599.537,62.55245
1434066599.553,52.102646
1434066599.568,38.15183
1434066599.584,22.647442
1434066599.6,7.6615677
1434066599.615,-5.11903
1434066599.631,-14.749386
1434066599.646,-21.046001
1434066599.662,-24.435635
1434066599.678,-25.644505
1434066599.693,-25.45317
1434066599.709,-24.442928
1434066599.725,-22.979328
1434066599.74,-21.258102
1434066599.756,-19.448483
1434066599.771,-17.779232
1434066599.787,-16.607471
1434066599.803,-16.23814
1434066599.818,-16.794876
1434066599.834,-18.097004
1434066599.85,-19.67017
1434066599.865,-20.975304
1434066599.881,-21.60474
1434066599.896,-21.45993
1434066599.912,-20.723255
1434066599.928,-19.675623
1434066599.943,-18.4776
1434066599.959,-17.020397
1434066599.975,-14.987375
1434066599.99,-12.004671
1434066600.006,-7.9116535
1434066600.021,-2.836567
1434066600.037,2.7486115
1434066600.053,8.286991
1434066600.068,13.2743225
1434066600.084,17.494114
1434066600.1,21.042171
1434066600.115,24.259672
1434066600.131,27.593311
1434066600.146,31.497564
1434066600.162,36.294853
1434066600.178,42.144543
1434066600.193,48.861637
1434066600.209,55.80856
1434066600.225,61.86522
1434066600.24,65.53985
1434066600.256,65.34297
1434066600.271,60.297882
1434066600.287,50.3724
1434066600.303,36.631702
1434066600.318,20.968805
1434066600.334,5.540662
1434066600.35,-7.846058
1434066600.365,-18.199858
1434066600.381,-25.357523
1434066600.396,-29.769625
1434066600.412,-32.11411
1434066600.428,-32.948544
1434066600.443,-32.667633
1434066600.459,-31.536863
1434066600.475,-29.856571
1434066600.49,-28.028418
1434066600.506,-26.543056
1434066600.521,-25.779518
1434066600.537,-25.905645
1434066600.553,-26.736814
1434066600.568,-27.861626
1434066600.584,-28.77498
1434066600.6,-29.112434
1434066600.615,-28.754158
1434066600.631,-27.861551
1434066600.646,-26.740892
1434066600.662,-25.673126
1434066600.678,-24.711197
1434066600.693,-23.658573
1434066600.709,-22.083534
1434066600.725,-19.519363
1434066600.74,-15.644115
1434066600.756,-10.46933
1434066600.771,-4.3437996
1434066600.787,2.1195679
1434066600.803,8.251507
1434066600.818,13.562149
1434066600.834,17.898548
1434066600.85,21.504261
1434066600.865,24.900864
1434066600.881,28.73851
1434066600.896,33.594845
1434066600.912,39.73571
1434066600.928,46.97919
1434066600.943,54.603485
1434066600.959,61.354942
1434066600.975,65.62109
1434066600.99,65.8506
1434066601.006,60.989136
1434066601.022,50.934303
1434066601.037,36.65827
1434066601.053,20.056725
1434066601.068,3.3944855
1434066601.084,-11.30703
1434066601.1,-22.81179
1434066601.115,-30.853378
1434066601.131,-35.945267
1434066601.146,-38.964073
1434066601.162,-40.721855
1434066601.178,-41.67733
1434066601.193,-41.942062
1434066601.209,-41.4654
1434066601.225,-40.2874
1434066601.24,-38.6316
1434066601.256,-36.92852
1434066601.272,-35.594566
1434066601.287,-34.90915
1434066601.303,-34.857872
1434066601.318,-35.21988
1434066601.334,-35.669617
1434066601.35,-35.917297
1434066601.365,-35.815086
1434066601.381,-35.34453
1434066601.397,-34.56617
1434066601.412,-33.500565
1434066601.428,-32.106064
1434066601.443,-30.255295
1434066601.459,-27.742271
1434066601.475,-24.364342
1434066601.49,-20.005867
1434066601.506,-14.71846
1434066601.522,-8.774788
1434066601.537,-2.6191635
1434066601.553,3.2273483
1434066601.568,8.350838
1434066601.584,12.601631
1434066601.6,16.164124
1434066601.615,19.502777
1434066601.631,23.217445
1434066601.647,27.895744
1434066601.662,33.904526
1434066601.678,41.250107
1434066601.693,49.393166
1434066601.709,57.229538
1434066601.725,63.193245
1434066601.74,65.62447
1434066601.756,63.206253
1434066601.772,55.50138
1434066601.787,43.1744
1434066601.803,27.940773
1434066601.818,12.051064
1434066601.834,-2.3582382
1434066601.85,-13.844452
1434066601.865,-21.932854
1434066601.881,-26.966248
1434066601.897,-29.732208
1434066601.912,-31.006416
1434066601.928,-31.302063
1434066601.943,-30.842583
1434066601.959,-29.743004
1434066601.975,-28.186386
1434066601.99,-26.494621
1434066602.006,-25.098206
1434066602.022,-24.319336
1434066602.037,-24.222221
1434066602.053,-24.600533
1434066602.068,-25.056267
1434066602.084,-25.195877
1434066602.1,-24.811409
1434066602.115,-23.935722
1434066602.131,-22.767014
1434066602.147,-21.523987
1434066602.162,-20.325798
1434066602.178,-19.075584
1434066602.193,-17.502037
1434066602.209,-15.241417
1434066602.225,-12.020348
1434066602.24,-7.7409744
1434066602.256,-2.5714645
1434066602.272,3.114441
1434066602.287,8.809502
1434066602.303,14.098869
1434066602.318,18.706703
1434066602.334,22.596169
1434066602.35,25.979034
1434066602.365,29.243683
1434066602.381,32.85981
1434066602.397,37.296936
1434066602.412,42.861015
1434066602.428,49.55552
1434066602.443,56.89109
1434066602.459,63.783592
1434066602.475,68.65325
1434066602.49,69.8278
1434066602.506,66.030045
1434066602.522,56.915405
1434066602.537,43.311363
1434066602.553,27.035034
1434066602.568,10.358154
1434066602.584,-4.652687
1434066602.6,-16.681847
1434066602.615,-25.345726
1434066602.631,-30.99266
1434066602.647,-34.333733
1434066602.662,-36.085106
1434066602.678,-36.732674
1434066602.693,-36.58251
1434066602.709,-35.864464
1434066602.725,-34.869034
1434066602.74,-33.939636
1434066602.756,-33.40763
1434066602.772,-33.451996
1434066602.787,-34.065308
1434066602.803,-35.031517
1434066602.818,-36.026848
1434066602.834,-36.721863
1434066602.85,-36.88569
1434066602.865,-36.379692
1434066602.881,-35.172935
1434066602.897,-33.2825
1434066602.912,-30.757141
1434066602.928,-27.688751
1434066602.943,-24.18911
1434066602.959,-20.365173
1434066602.975,-16.306526
1434066602.99,-12.025093
1434066603.006,-7.485588
1434066603.022,-2.6469955
1434066603.037,2.4528198
1434066603.053,7.6785126
1434066603.068,12.787132
1434066603.084,17.540512
1434066603.1,21.751358
1434066603.115,25.395226
1434066603.131,28.651329
1434066603.147,31.879944
1434066603.162,35.566956
1434066603.178,40.236954
1434066603.193,46.20748
1434066603.209,53.34455
1434066603.225,60.88315
1434066603.24,67.39728
1434066603.256,71.02579
1434066603.272,70.06424
1434066603.287,63.537064
1434066603.303,51.695114
1434066603.318,35.99672
1434066603.334,18.734238
1434066603.35,2.2773361
1434066603.365,-11.552887
1434066603.381,-21.924973
1434066603.397,-28.957169
1434066603.412,-33.348564
1434066603.428,-35.955215
1434066603.443,-37.42875
1434066603.459,-38.14508
1434066603.475,-38.29908
1434066603.49,-38.0113
1434066603.506,-37.449165
1434066603.522,-36.7836
1434066603.537,-36.150963
1434066603.553,-35.575035
1434066603.568,-35.020256
1434066603.584,-34.4485
1434066603.6,-33.92119
1434066603.615,-33.533752
1434066603.631,-33.375458
1434066603.647,-33.36644
1434066603.662,-33.260345
1434066603.678,-32.64251
1434066603.694,-31.129494
1434066603.709,-28.551704
1434066603.725,-25.035309
1434066603.74,-20.918762
1434066603.756,-16.613716
1434066603.772,-12.386459
1434066603.787,-8.285194
1434066603.803,-4.1889954
1434066603.818,0.04133606
1434066603.834,4.451172
1434066603.85,8.898285
1434066603.865,13.174423
1434066603.881,17.085098
1434066603.897,20.562584
1434066603.912,23.694275
1434066603.928,26.69236
1434066603.944,29.892426
1434066603.959,33.669853
1434066603.975,38.391037
1434066603.99,44.23748
1434066604.006,50.93493
1434066604.022,57.580605
1434066604.037,62.66121
1434066604.053,64.40771
1434066604.069,61.32827
1434066604.084,52.85961
1434066604.1,39.656395
1434066604.115,23.507011
1434066604.131,6.771988
1434066604.147,-8.3487625
1434066604.162,-20.445564
1434066604.178,-29.09806
1434066604.194,-34.73152
1434066604.209,-38.14617
1434066604.225,-40.08509
1434066604.24,-40.998665
1434066604.256,-41.067
1434066604.272,-40.3945
1434066604.287,-39.207893
1434066604.303,-37.846466
1434066604.319,-36.715645
1434066604.334,-36.041054
1434066604.35,-35.826263
1434066604.365,-35.843338
1434066604.381,-35.840164
1434066604.397,-35.68329
1434066604.412,-35.408348
1434066604.428,-35.135353
1434066604.444,-34.928955
1434066604.459,-34.647423
1434066604.475,-34.02038
1434066604.49,-32.735916
1434066604.506,-30.607773
1434066604.522,-27.655998
1434066604.537,-24.112534
1434066604.553,-20.264107
1434066604.569,-16.34301
1434066604.584,-12.429047
1434066604.6,-8.479202
1434066604.615,-4.365425
1434066604.631,-0.00592041
1434066604.647,4.595955
1434066604.662,9.295418
1434066604.678,13.865898
1434066604.694,18.07463
1434066604.709,21.780968
1434066604.725,24.998734
1434066604.74,27.943504
1434066604.756,30.995964
1434066604.772,34.651497
1434066604.787,39.344456
1434066604.803,45.353878
1434066604.819,52.507603
1434066604.834,60.03802
1434066604.85,66.51791
1434066604.865,70.139404
1434066604.881,69.18875
1434066604.897,62.722843
1434066604.912,50.986332
1434066604.928,35.510975
1434066604.944,18.651005
1434066604.959,2.877777
1434066604.975,-9.965492
1434066604.99,-19.062027
1434066605.006,-24.598766
1434066605.022,-27.388065
1434066605.037,-28.389824
1434066605.053,-28.344742
1434066605.069,-27.681263
1434066605.084,-26.559448
1434066605.1,-25.103928
1434066605.115,-23.48172
1434066605.131,-21.960266
1434066605.147,-20.799835
1434066605.162,-20.164217
1434066605.178,-20.038452
1434066605.194,-20.2613
1434066605.209,-20.591175
1434066605.225,-20.809345
1434066605.24,-20.786203
1434066605.256,-20.449354
1434066605.272,-19.733212
1434066605.287,-18.574495
1434066605.303,-16.905184
1434066605.319,-14.728548
1434066605.334,-12.10811
1434066605.35,-9.183529
1434066605.365,-6.036189
1434066605.381,-2.6884747
1434066605.397,0.91936874
1434066605.412,4.8246174
1434066605.428,8.990512
1434066605.444,13.21302
1434066605.459,17.234467
1434066605.475,20.814919
1434066605.49,23.872906
1434066605.506,26.483711
1434066605.522,28.87471
1434066605.537,31.372742
1434066605.553,34.379684
1434066605.569,38.28864
1434066605.584,43.370705
1434066605.6,49.530746
1434066605.615,56.150707
1434066605.631,61.98424
1434066605.647,65.4149
1434066605.662,64.85477
1434066605.678,59.357887
1434066605.694,48.98409
1434066605.709,34.912422
1434066605.725,19.120506
1434066605.74,3.8024356
1434066605.756,-9.2493105
1434066605.772,-19.039566
1434066605.787,-25.502218
1434066605.803,-29.23434
1434066605.819,-31.108284
1434066605.834,-31.87531
1434066605.85,-31.986725
1434066605.865,-31.61405
1434066605.881,-30.819174
1434066605.897,-29.723013
1434066605.912,-28.621918
1434066605.928,-27.82494
1434066605.944,-27.596695
1434066605.959,-27.945892
1434066605.975,-28.656555
1434066605.99,-29.383934
1434066606.006,-29.807568
1434066606.022,-29.73075
1434066606.037,-29.084856
1434066606.053,-27.844221
1434066606.069,-25.996439
1434066606.084,-23.498993
1434066606.1,-20.37014
1434066606.115,-16.721169
1434066606.131,-12.778392
1434066606.147,-8.772245
1434066606.162,-4.8609095
1434066606.178,-1.0476284
1434066606.194,2.780777
1434066606.209,6.7531776
1434066606.225,10.89895
1434066606.24,15.103254
1434066606.256,19.117754
1434066606.272,22.711704
1434066606.287,25.760536
1434066606.303,28.345045
1434066606.319,30.706276
1434066606.334,33.229156
1434066606.35,36.35621
1434066606.365,40.49569
1434066606.381,45.86262
1434066606.397,52.255215
1434066606.412,58.860767
1434066606.428,64.28209
1434066606.444,66.756
1434066606.459,64.72595
1434066606.475,57.421974
1434066606.49,45.289513
1434066606.506,29.930496
1434066606.522,13.6524
1434066606.537,-1.3210573
1434066606.553,-13.443833
1434066606.569,-22.182877
1434066606.584,-27.882034
1434066606.6,-31.332771
1434066606.616,-33.330177
1434066606.631,-34.402527
1434066606.647,-34.793243
1434066606.662,-34.598064
1434066606.678,-33.91645
1434066606.694,-32.949547
1434066606.709,-31.938593
1434066606.725,-31.108772
1434066606.741,-30.571999
1434066606.756,-30.343634
1434066606.772,-30.368116
1434066606.787,-30.608126
1434066606.803,-31.005627
1434066606.819,-31.522928
1434066606.834,-32.012306
1434066606.85,-32.256645
1434066606.866,-31.990532
1434066606.881,-30.975426
1434066606.897,-29.096792
1434066606.912,-26.388592
1434066606.928,-23.016747
1434066606.944,-19.224146
1434066606.959,-15.206337
1434066606.975,-11.097553
1434066606.991,-6.9069595
1434066607.006,-2.5738182
1434066607.022,1.954134
1434066607.037,6.659519
1434066607.053,11.428059
1434066607.069,16.051111
1434066607.084,20.299414
1434066607.1,24.041042
1434066607.116,27.333988
1434066607.131,30.445105
1434066607.147,33.86632
1434066607.162,38.092686
1434066607.178,43.439034
1434066607.194,49.755745
1434066607.209,56.26785
1434066607.225,61.610226
1434066607.241,64.1323
1434066607.256,62.3834
1434066607.272,55.68141
1434066607.287,44.42305
1434066607.303,30.09319
1434066607.319,14.793707
1434066607.334,0.64422417
1434066607.35,-10.877201
1434066607.366,-19.196056
1434066607.381,-24.59351
1434066607.397,-27.805672
1434066607.412,-29.6078
1434066607.428,-30.488888
1434066607.444,-30.641418
1434066607.459,-30.099506
1434066607.475,-28.96951
1434066607.491,-27.508186
1434066607.506,-26.09512
1434066607.522,-25.062405
1434066607.537,-24.569233
1434066607.553,-24.555935
1434066607.569,-24.812489
1434066607.584,-25.11205
1434066607.6,-25.283195
1434066607.616,-25.208
1434066607.631,-24.785164
1434066607.647,-23.889576
1434066607.662,-22.406567
1434066607.678,-20.254581
1434066607.694,-17.471764
1434066607.709,-14.169262
1434066607.725,-10.482456
1434066607.741,-6.498703
1434066607.756,-2.2698555
1434066607.772,2.1692276
1434066607.787,6.733322
1434066607.803,11.306881
1434066607.819,15.711292
1434066607.834,19.795273
1434066607.85,23.456448
1434066607.866,26.672894
1434066607.881,29.523842
1434066607.897,32.219196
1434066607.912,35.113426
1434066607.928,38.671867
1434066607.944,43.28119
1434066607.959,49.02449
1434066607.975,55.385525
1434066607.991,61.198116
1434066608.006,64.80943
1434066608.022,64.60609
1434066608.037,59.548866
1434066608.053,49.65167
1434066608.069,36.054455
1434066608.084,20.694763
1434066608.1,5.7168503
1434066608.116,-7.146202
1434066608.131,-16.957466
1434066608.147,-23.645332
1434066608.162,-27.761292
1434066608.178,-30.025772
1434066608.194,-31.056805
1434066608.209,-31.208172
1434066608.225,-30.638142
1434066608.241,-29.435509
1434066608.256,-27.813961
1434066608.272,-26.088623
1434066608.287,-24.631496
1434066608.303,-23.72065
1434066608.319,-23.454544
1434066608.334,-23.716778
1434066608.35,-24.254467
1434066608.366,-24.763226
1434066608.381,-24.993095
1434066608.397,-24.75011
1434066608.412,-23.97868
1434066608.428,-22.683346
1434066608.444,-20.954596
1434066608.459,-18.904028
1434066608.475,-16.62799
1434066608.491,-14.135635
1434066608.506,-11.376007
1434066608.522,-8.204653
1434066608.537,-4.506382
1434066608.553,-0.244421
1434066608.569,4.456003
1434066608.584,9.299347
1434066608.6,13.9162655
1434066608.616,18.000217
1434066608.631,21.402111
1434066608.647,24.233908
1434066608.662,26.793835
1434066608.678,29.505598
1434066608.694,32.78353
1434066608.709,36.987167
1434066608.725,42.249516
1434066608.741,48.413246
1434066608.756,54.839413
1434066608.772,60.40833
1434066608.787,63.601353
1434066608.803,62.920372
1434066608.819,57.41008
1434066608.834,47.091427
1434066608.85,33.139576
1434066608.866,17.564583
1434066608.881,2.591773
1434066608.897,-10.00187
1434066608.912,-19.362106
1434066608.928,-25.553942
1434066608.944,-29.270676
1434066608.959,-31.368546
1434066608.975,-32.542095
1434066608.991,-33.162388
1434066609.006,-33.421234
1434066609.022,-33.426437
1434066609.037,-33.323933
1434066609.053,-33.299843
1434066609.069,-33.49095
1434066609.084,-33.89808
1434066609.1,-34.420433
1434066609.116,-34.853943
1434066609.131,-35.04219
1434066609.147,-34.956787
1434066609.162,-34.681232
1434066609.178,-34.323166
1434066609.194,-33.91692
1434066609.209,-33.34152
1434066609.225,-32.30448
1434066609.241,-30.488598
1434066609.256,-27.714706
1434066609.272,-24.032387
1434066609.288,-19.733532
1434066609.303,-15.206392
1434066609.319,-10.761925
1434066609.334,-6.5291076
1434066609.35,-2.440929
1434066609.366,1.692411
1434066609.381,5.982489
1434066609.397,10.367228
1434066609.413,14.603418
1434066609.428,18.337566
1434066609.444,21.283901
1434066609.459,23.388649
1434066609.475,24.944395
1434066609.491,26.57568
1434066609.506,29.062881
1434066609.522,33.132805
1434066609.538,39.054104
1434066609.553,46.464333
1434066609.569,54.194366
1434066609.584,60.53013
1434066609.6,63.57049
1434066609.616,61.815926
1434066609.631,54.686943
1434066609.647,42.760025
1434066609.663,27.669151
1434066609.678,11.638155
1434066609.694,-3.1628315
1434066609.709,-15.222858
1434066609.725,-23.991913
1434066609.741,-29.754625
1434066609.756,-33.271755
1434066609.772,-35.317043
1434066609.788,-36.41705
1434066609.803,-36.81568
1434066609.819,-36.642174
1434066609.834,-36.064133
1434066609.85,-35.34234
1434066609.866,-34.700977
1434066609.881,-34.250797
1434066609.897,-33.93049
1434066609.913,-33.618668
1434066609.928,-33.240585
1434066609.944,-32.861603
1434066609.959,-32.631447
1434066609.975,-32.662987
1434066609.991,-32.89627
1434066610.006,-33.07926
1434066610.022,-32.803616
1434066610.038,-31.698574
1434066610.053,-29.505419
1434066610.069,-26.229206
1434066610.084,-22.11096
1434066610.1,-17.59172
1434066610.116,-13.135721
1434066610.131,-9.118983
1434066610.147,-5.649328
1434066610.163,-2.5458775
1434066610.178,0.55667305
1434066610.194,4.02009
1434066610.209,8.035065
1434066610.225,12.51963
1434066610.241,17.17197
1434066610.256,21.609005
1434066610.272,25.553112
1434066610.288,28.91146
1434066610.303,31.853525
1434066610.319,34.801743
1434066610.334,38.34143
1434066610.35,43.006718
1434066610.366,48.992393
1434066610.381,55.864742
1434066610.397,62.463387
1434066610.413,67.07503
1434066610.428,67.937454
1434066610.444,63.860687
1434066610.459,54.726254
1434066610.475,41.56851
1434066610.491,26.310955
1434066610.506,11.110954
1434066610.522,-2.220356
1434066610.538,-12.6332035
1434066610.553,-19.90015
1434066610.569,-24.393944
1434066610.584,-26.755932
1434066610.6,-27.604973
1434066610.616,-27.386703
1434066610.631,-26.38485
1434066610.647,-24.830204
1434066610.663,-22.983608
1434066610.678,-21.200985
1434066610.694,-19.872509
1434066610.709,-19.292439
1434066610.725,-19.561543
1434066610.741,-20.500404
1434066610.756,-21.776592
1434066610.772,-22.946987
1434066610.788,-23.663925
1434066610.803,-23.708767
1434066610.819,-23.024628
1434066610.834,-21.66462
1434066610.85,-19.755848
1434066610.866,-17.411041
1434066610.881,-14.712353
1434066610.897,-11.67112
1434066610.913,-8.234837
1434066610.928,-4.3215675
1434066610.944,0.05877304
1434066610.959,4.7750053
1434066610.975,9.520996
1434066610.991,13.964352
1434066611.006,17.845242
1434066611.022,21.083931
1434066611.038,23.801441
1434066611.053,26.276096
1434066611.069,28.83107
1434066611.084,31.796017
1434066611.1,35.482952
1434066611.116,40.130116
1434066611.131,45.748646
1434066611.147,51.942974
1434066611.163,57.7491
1434066611.178,61.759113
1434066611.194,62.40321
1434066611.209,58.554577
1434066611.225,49.94249
1434066611.241,37.417645
1434066611.256,22.701263
1434066611.272,7.8889294
1434066611.288,-5.1446037
1434066611.303,-15.219185
1434066611.319,-22.027157
1434066611.334,-25.931547
1434066611.35,-27.702349
1434066611.366,-28.08929
1434066611.381,-27.659615
1434066611.397,-26.752445
1434066611.413,-25.551685
1434066611.428,-24.2321
1434066611.444,-23.015472
1434066611.459,-22.138071
1434066611.475,-21.775452
1434066611.491,-21.973843
1434066611.506,-22.645426
1434066611.522,-23.633436
1434066611.538,-24.761621
1434066611.553,-25.8482
1434066611.569,-26.691622
1434066611.584,-27.061031
1434066611.6,-26.770716
1434066611.616,-25.696602
1434066611.631,-23.881622
1434066611.647,-21.46713
1434066611.663,-18.632252
1434066611.678,-15.468103
1434066611.694,-11.934228
1434066611.709,-7.933091
1434066611.725,-3.4194994
1434066611.741,1.4846764
1434066611.756,6.500942
1434066611.772,11.308176
1434066611.788,15.634208
1434066611.803,19.422976
1434066611.819,22.761906
1434066611.834,25.885384
1434066611.85,29.08049
1434066611.866,32.68864
1434066611.881,37.065422
1434066611.897,42.463047
1434066611.913,48.836006
1434066611.928,55.608463
1434066611.944,61.573765
1434066611.96,65.10617
1434066611.975,64.5853
1434066611.991,59.04211
1434066612.006,48.585815
1434066612.022,34.483276
1434066612.038,18.779
1434066612.053,3.6836576
1434066612.069,-9.1152725
1434066612.085,-18.790453
1434066612.1,-25.386374
1434066612.116,-29.51392
1434066612.131,-31.975964
1434066612.147,-33.432102
1434066612.163,-34.31652
1434066612.178,-34.851624
1434066612.194,-35.137157
1434066612.21,-35.24746
1434066612.225,-35.2722
1434066612.241,-35.268726
1434066612.256,-35.280643
1434066612.272,-35.29048
1434066612.288,-35.29469
1434066612.303,-35.26689
1434066612.319,-35.20849
1434066612.335,-35.08813
1434066612.35,-34.80764
1434066612.366,-34.176117
1434066612.381,-32.97363
1434066612.397,-30.997194
1434066612.413,-28.20828
1434066612.428,-24.727129
1434066612.444,-20.796902
1434066612.46,-16.668293
1434066612.475,-12.511667
1434066612.491,-8.359972
1434066612.506,-4.1768093
1434066612.522,0.098155975
1434066612.538,4.431471
1434066612.553,8.723532
1434066612.569,12.837433
1434066612.585,16.682999
1434066612.6,20.232283
1434066612.616,23.551931
1434066612.631,26.771503
1434066612.647,30.105476
1434066612.663,33.864697
1434066612.678,38.39055
1434066612.694,43.886597
1434066612.71,50.18219
1434066612.725,56.489655
1434066612.741,61.447876
1434066612.756,63.39434
1434066612.772,60.92695
1434066612.788,53.43439
1434066612.803,41.426933
1434066612.819,26.434214
1434066612.835,10.527567
1434066612.85,-4.2801266
1434066612.866,-16.561981
1434066612.881,-25.706043
1434066612.897,-31.801497
1434066612.913,-35.390392
1434066612.928,-37.158867
1434066612.944,-37.72974
1434066612.96,-37.563713
1434066612.975,-37.018604
1434066612.991,-36.33806
1434066613.006,-35.724274
1434066613.022,-35.30017
1434066613.038,-35.137768
1434066613.053,-35.21328
1434066613.069,-35.468678
1434066613.085,-35.79811
1434066613.1,-36.12077
1434066613.116,-36.403427
1434066613.131,-36.627373
1434066613.147,-36.731583
1434066613.163,-36.553947
1434066613.178,-35.82515
1434066613.194,-34.241295
1434066613.21,-31.60001
1434066613.225,-27.928068
1434066613.241,-23.470118
1434066613.256,-18.686617
1434066613.272,-14.019897
1434066613.288,-9.7764
1434066613.303,-5.984768
1434066613.319,-2.4417477
1434066613.335,1.1611814
1434066613.35,5.07376
1434066613.366,9.356631
1434066613.381,13.832891
1434066613.397,18.20425
1434066613.413,22.186272
1434066613.428,25.639706
1434066613.444,28.632269
1434066613.46,31.488316
1434066613.475,34.69806
1434066613.491,38.822975
1434066613.506,44.25054
1434066613.522,50.938942
1434066613.538,58.177002
1434066613.553,64.58169
1434066613.569,68.363464
1434066613.585,67.87534
1434066613.6,62.211452
1434066613.616,51.5961
1434066613.631,37.391346
1434066613.647,21.698006
1434066613.663,6.670508
1434066613.678,-6.0123076
1434066613.694,-15.525919
1434066613.71,-21.83624
1434066613.725,-25.462019
1434066613.741,-27.069578
1434066613.756,-27.282364
1434066613.772,-26.576553
1434066613.788,-25.3309
1434066613.803,-23.867435
1434066613.819,-22.485672
1434066613.835,-21.435709
1434066613.85,-20.877708
1434066613.866,-20.847397
1434066613.881,-21.284767
1434066613.897,-22.074177
1434066613.913,-23.083672
1434066613.928,-24.149237
1434066613.944,-25.091341
1434066613.96,-25.675478
1434066613.975,-25.672968
1434066613.991,-24.881626
1434066614.006,-23.222998
1434066614.022,-20.74314
1434066614.038,-17.610527
1434066614.053,-14.025965
1434066614.069,-10.176379
1434066614.085,-6.173314
1434066614.1,-2.0654943
1434066614.116,2.1265633
1434066614.131,6.384898
1434066614.147,10.662764
1434066614.163,14.857286
1434066614.178,18.809042
1434066614.194,22.355888
1434066614.21,25.41137
1434066614.225,28.027466
1434066614.241,30.461693
1434066614.256,33.16867
1434066614.272,36.695652
1434066614.288,41.47485
1434066614.303,47.59491
1434066614.319,54.548534
1434066614.335,61.225098
1434066614.35,66.026566
1434066614.366,67.31963
1434066614.381,63.919632
1434066614.397,55.55385
1434066614.413,42.967434
1434066614.428,27.81641
1434066614.444,12.138262
1434066614.46,-2.165454
1434066614.475,-13.7890835
1434066614.491,-22.235378
1434066614.506,-27.718073
1434066614.522,-30.85402
1434066614.538,-32.37312
1434066614.553,-32.838203
1434066614.569,-32.62362
1434066614.585,-31.954918
1434066614.6,-31.040014
1434066614.616,-30.09621
1434066614.632,-29.37866
1434066614.647,-29.044216
1434066614.663,-29.145027
1434066614.678,-29.57529
1434066614.694,-30.180264
1434066614.71,-30.806019
1434066614.725,-31.373392
1434066614.741,-31.822502
1434066614.756,-32.050697
1434066614.772,-31.869537
1434066614.788,-31.029793
1434066614.803,-29.316164
1434066614.819,-26.66674
1434066614.835,-23.21698
1434066614.85,-19.232136
1434066614.866,-15.031595
1434066614.882,-10.832816
1434066614.897,-6.70619
1434066614.913,-2.613186
1434066614.928,1.5658293
1434066614.944,5.899125
1434066614.96,10.374592
1434066614.975,14.83504
1434066614.991,19.068924
1434066615.007,22.84325
1434066615.022,26.055485
1434066615.038,28.855362
1434066615.053,31.641777
1434066615.069,35.035297
1434066615.085,39.609795
1434066615.1,45.604137
1434066615.116,52.647545
1434066615.132,59.632813
1434066615.147,64.918365
1434066615.163,66.716286
1434066615.178,63.710083
1434066615.194,55.477753
1434066615.21,42.754036
1434066615.225,27.19969
1434066615.241,10.970245
1434066615.257,-3.9094791
1434066615.272,-16.025177
1434066615.288,-24.788252
1434066615.303,-30.375397
1434066615.319,-33.437584
1434066615.335,-34.812447
1434066615.35,-35.228294
1434066615.366,-35.21344
1434066615.382,-35.03808
1434066615.397,-34.80433
1434066615.413,-34.530685
1434066615.428,-34.25287
1434066615.444,-34.067307
1434066615.46,-34.065887
1434066615.475,-34.30665
1434066615.491,-34.722088
1434066615.507,-35.192375
1434066615.522,-35.551872
1434066615.538,-35.683205
1434066615.553,-35.54319
1434066615.569,-35.07495
1434066615.585,-34.188103
1434066615.6,-32.718445
1434066615.616,-30.511208
1434066615.632,-27.508078
1434066615.647,-23.814846
1434066615.663,-19.675623
1434066615.678,-15.343977
1434066615.694,-10.985949
1434066615.71,-6.629257
1434066615.725,-2.2226524
1434066615.741,2.2754211
1434066615.757,6.813595
1434066615.772,11.262743
1434066615.788,15.459625
1434066615.803,19.29006
1434066615.819,22.758034
1434066615.835,25.996096
1434066615.85,29.285206
1434066615.866,33.087284
1434066615.882,37.87267
1434066615.897,43.932617
1434066615.913,51.094963
1434066615.928,58.49546
1434066615.944,64.61138
1434066615.96,67.60566
1434066615.975,65.89785
1434066615.991,58.79233
1434066616.007,46.81533
1434066616.022,31.64073
1434066616.038,15.553839
1434066616.053,0.77830887
1434066616.069,-11.141243
1434066616.085,-19.597942
1434066616.1,-24.834835
1434066616.116,-27.5573
1434066616.132,-28.56229
1434066616.147,-28.429672
1434066616.163,-27.527151
1434066616.178,-26.051489
1434066616.194,-24.221842
1434066616.21,-22.310658
1434066616.225,-20.673183
1434066616.241,-19.60151
1434066616.257,-19.238834
1434066616.272,-19.51582
1434066616.288,-20.178455
1434066616.303,-20.866804
1434066616.319,-21.24844
1434066616.335,-21.086073
1434066616.35,-20.34379
1434066616.366,-19.126656
1434066616.382,-17.619505
1434066616.397,-15.953889
1434066616.413,-14.15912
1434066616.428,-12.086949
1434066616.444,-9.502481
1434066616.46,-6.1791034
1434066616.475,-2.04642
1434066616.491,2.740121
1434066616.507,7.822323
1434066616.522,12.770088
1434066616.538,17.24746
1434066616.553,21.149872
1434066616.569,24.602636
1434066616.585,27.90493
1434066616.6,31.416832
1434066616.616,35.490616
1434066616.632,40.38816
1434066616.647,46.21315
1434066616.663,52.733135
1434066616.678,59.249264
1434066616.694,64.53777
1434066616.71,67.068344
1434066616.725,65.38529
1434066616.741,58.699207
1434066616.757,47.275284
1434066616.772,32.474915
1434066616.788,16.401226
1434066616.803,1.2317066
1434066616.819,-11.403021
1434066616.835,-20.762005
1434066616.85,-26.964104
1434066616.866,-30.628881
1434066616.882,-32.52589
1434066616.897,-33.235153
1434066616.913,-33.11415
1434066616.928,-32.361664
1434066616.944,-31.177979
1434066616.96,-29.79682
1434066616.975,-28.532438
1434066616.991,-27.646965
1434066617.007,-27.267982
1434066617.022,-27.356403
1434066617.038,-27.681442
1434066617.053,-27.941359
1434066617.069,-27.855652
1434066617.085,-27.282368
1434066617.1,-26.25057
1434066617.116,-24.92078
1434066617.132,-23.46379
1434066617.147,-21.930916
1434066617.163,-20.197449
1434066617.178,-17.985123
1434066617.194,-15.017666
1434066617.21,-11.12796
1434066617.225,-6.4138107
1434066617.241,-1.1704025
1434066617.257,4.188221
1434066617.272,9.289101
1434066617.288,13.886272
1434066617.303,17.928524
1434066617.319,21.504467
1434066617.335,24.835476
1434066617.35,28.212475
1434066617.366,32.014767
1434066617.382,36.62051
1434066617.397,42.30493
1434066617.413,49.008358
1434066617.428,56.188953
1434066617.444,62.682877
1434066617.46,66.924805
1434066617.475,67.304825
1434066617.491,62.71004
1434066617.507,52.98173
1434066617.522,39.059
1434066617.538,22.768616
1434066617.554,6.297512
1434066617.569,-8.435894
1434066617.585,-20.228329
1434066617.6,-28.74649
1434066617.616,-34.31521
1434066617.632,-37.616085
1434066617.647,-39.315483
1434066617.663,-39.948338
1434066617.679,-39.872364
1434066617.694,-39.37431
1434066617.71,-38.69278
1434066617.725,-38.051334
1434066617.741,-37.574215
1434066617.757,-37.28902
1434066617.772,-37.122257
1434066617.788,-37.000275
1434066617.804,-36.85862
1434066617.819,-36.701286
1434066617.835,-36.525887
1434066617.85,-36.28893
1434066617.866,-35.872314
1434066617.882,-35.11862
1434066617.897,-33.867397
1434066617.913,-32.034058
1434066617.929,-29.568676
1434066617.944,-26.481453
1434066617.96,-22.796776
1434066617.975,-18.5504
1434066617.991,-13.774906
1434066618.007,-8.563278
1434066618.022,-3.0634918
1434066618.038,2.5173645
1434066618.054,7.922287
1434066618.069,12.900734
1434066618.085,17.317532
1434066618.1,21.186192
1434066618.116,24.743328
1434066618.132,28.41251
1434066618.147,32.701656
1434066618.163,38.051544
1434066618.179,44.66157
1434066618.194,52.239277
1434066618.21,59.89081
1434066618.225,66.171875
1434066618.241,69.37143
1434066618.257,68.001366
1434066618.272,61.36519
1434066618.288,49.86118
1434066618.304,35.012722
1434066618.319,18.98347
1434066618.335,3.923603
1434066618.35,-8.649227
1434066618.366,-18.109005
1434066618.382,-24.692646
1434066618.397,-29.056473
1434066618.413,-31.91859
1434066618.429,-33.761673
1434066618.444,-34.81859
1434066618.46,-35.14392
1434066618.475,-34.820293
1434066618.491,-33.978844
1434066618.507,-32.86119
1434066618.522,-31.738918
1434066618.538,-30.859917
1434066618.554,-30.340256
1434066618.569,-30.186363
1434066618.585,-30.279003
1434066618.6,-30.42789
1434066618.616,-30.393044
1434066618.632,-29.966892
1434066618.647,-28.969429
1434066618.663,-27.314407
1434066618.679,-24.955662
1434066618.694,-21.956669
1434066618.71,-18.42854
1434066618.725,-14.531097
1434066618.741,-10.333275
1434066618.757,-5.8676147
1434066618.772,-1.06781
1434066618.788,4.081291
1434066618.804,9.486294
1434066618.819,14.902077
1434066618.835,20.00291
1434066618.85,24.529163
1434066618.866,28.463242
1434066618.882,32.05023
1434066618.897,35.772408
1434066618.913,40.157745
1434066618.929,45.603325
1434066618.944,52.107994
1434066618.96,59.195713
1434066618.975,65.851944
1434066618.991,70.6911
1434066619.007,72.244736
1434066619.022,69.36548
1434066619.038,61.607132
1434066619.054,49.51104
1434066619.069,34.48835
1434066619.085,18.506458
1434066619.1,3.5072327
1434066619.116,-9.038296
1434066619.132,-18.449974
1434066619.147,-24.790302
1434066619.163,-28.608414
1434066619.179,-30.585464
1434066619.194,-31.332474
1434066619.21,-31.254688
1434066619.225,-30.663792
1434066619.241,-29.836151
1434066619.257,-29.08059
1434066619.272,-28.685799
1434066619.288,-28.86213
1434066619.304,-29.625004
1434066619.319,-30.822449
1434066619.335,-32.21385
1434066619.35,-33.54588
1434066619.366,-34.63803
1434066619.382,-35.382813
1434066619.397,-35.657326
1434066619.413,-35.32688
1434066619.429,-34.145035
1434066619.444,-31.912262
1434066619.46,-28.563446
1434066619.475,-24.288658
1434066619.491,-19.463974
1434066619.507,-14.545334
1434066619.522,-9.861923
1434066619.538,-5.49807
1434066619.554,-1.2928162
1434066619.569,2.9922028
1434066619.585,7.507759
1434066619.6,12.208427
1434066619.616,16.871819
1434066619.632,21.21273
1434066619.647,25.064194
1434066619.663,28.440742
1434066619.679,31.609474
1434066619.694,35.002235
1434066619.71,39.160828
1434066619.725,44.50431
1434066619.741,51.12742
1434066619.757,58.52529
1434066619.772,65.51621
1434066619.788,70.363365
1434066619.804,71.26444
1434066619.819,66.9461
1434066619.835,57.182045
1434066619.85,42.942093
1434066619.866,26.159637
1434066619.882,9.12532
1434066619.897,-6.1141586
1434066619.913,-18.293732
1434066619.929,-27.016258
1434066619.944,-32.647408
1434066619.96,-35.927124
1434066619.975,-37.66162
1434066619.991,-38.406746
1434066620.007,-38.4862
1434066620.022,-38.07316
1434066620.038,-37.33629
1434066620.054,-36.539017
1434066620.069,-36.00354
1434066620.085,-35.92003
1434066620.1,-36.26126
1434066620.116,-36.784386
1434066620.132,-37.19806
1434066620.147,-37.32778
1434066620.163,-37.240868
1434066620.179,-37.10569
1434066620.194,-37.032425
1434066620.21,-36.892838
1434066620.226,-36.31704
1434066620.241,-34.845535
1434066620.257,-32.18554
1434066620.272,-28.338219
1434066620.288,-23.64708
1434066620.304,-18.619263
1434066620.319,-13.732925
1434066620.335,-9.267235
1434066620.351,-5.236351
1434066620.366,-1.4088058
1434066620.382,2.5230865
1434066620.397,6.7906723
1434066620.413,11.383919
1434066620.429,16.052353
1434066620.444,20.352478
1434066620.46,23.92556
1434066620.476,26.636726
1434066620.491,28.733421
1434066620.507,30.79422
1434066620.522,33.565155
1434066620.538,37.697884
1434066620.554,43.533882
1434066620.569,50.81801
1434066620.585,58.604057
1434066620.601,65.297
1434066620.616,69.005066
1434066620.632,68.01036
1434066620.647,61.414593
1434066620.663,49.491802
1434066620.679,33.738876
1434066620.694,16.412216
1434066620.71,-0.14659119
1434066620.726,-14.171001
1434066620.741,-24.796154
1434066620.757,-32.049286
1434066620.772,-36.492687
1434066620.788,-38.87766
1434066620.804,-39.857555
1434066620.819,-39.948597
1434066620.835,-39.55072
1434066620.851,-38.988792
1434066620.866,-38.546513
1434066620.882,-38.41631
1434066620.897,-38.64122
1434066620.913,-39.13792
1434066620.929,-39.705868
1434066620.944,-40.122242
1434066620.96,-40.22036
1434066620.976,-39.954628
1434066620.991,-39.410736
1434066621.007,-38.7281
1434066621.022,-38.01237
1434066621.038,-37.238155
1434066621.054,-36.21215
1434066621.069,-34.63265
1434066621.085,-32.18742
1434066621.101,-28.752155
1434066621.116,-24.414856
1434066621.132,-19.514019
1434066621.147,-14.529884
1434066621.163,-9.922779
1434066621.179,-5.9113464
1434066621.194,-2.4467335
1434066621.21,0.79559135
1434066621.226,4.2108517
1434066621.241,8.05558
1434066621.257,12.3374195
1434066621.272,16.81158
1434066621.288,21.12332
1434066621.304,25.029253
1434066621.319,28.499928
1434066621.335,31.77513
1434066621.351,35.238297
1434066621.366,39.350018
1434066621.382,44.47233
1434066621.397,50.732136
1434066621.413,57.80018
1434066621.429,64.7815
1434066621.444,70.214874
1434066621.46,72.39922
1434066621.476,69.89037
1434066621.491,62.091484
1434066621.507,49.5979
1434066621.522,34.066628
1434066621.538,17.749966
1434066621.554,2.7963624
1434066621.569,-9.357449
1434066621.585,-18.181366
1434066621.601,-23.933931
1434066621.616,-27.268663
1434066621.632,-28.898045
1434066621.647,-29.319695
1434066621.663,-28.866245
1434066621.679,-27.717342
1434066621.694,-26.105606
1434066621.71,-24.319101
1434066621.726,-22.728014
1434066621.741,-21.663918
1434066621.757,-21.307178
1434066621.772,-21.66512
1434066621.788,-22.536518
1434066621.804,-23.637436
1434066621.819,-24.664354
1434066621.835,-25.336027
1434066621.851,-25.468271
1434066621.866,-24.876524
1434066621.882,-23.467949
1434066621.897,-21.218256
1434066621.913,-18.249996
1434066621.929,-14.752981
1434066621.944,-10.985847
1434066621.96,-7.097351
1434066621.976,-3.1499634
1434066621.991,0.90145874
1434066622.007,5.0900917
1434066622.022,9.378216
1434066622.038,13.623344
1434066622.054,17.665493
1434066622.069,21.42101
1434066622.085,24.8979
1434066622.101,28.212662
1434066622.116,31.568771
1434066622.132,35.220764
1434066622.147,39.480755
1434066622.163,44.618164
1434066622.179,50.65862
1434066622.194,57.156578
1434066622.21,63.05126
1434066622.226,66.79879
1434066622.241,66.85234
1434066622.257,62.182064
1434066622.272,52.74182
1434066622.288,39.551537
1434066622.304,24.39925
1434066622.319,9.300098
1434066622.335,-4.053154
1434066622.351,-14.628963
1434066622.366,-22.095345
1434066622.382,-26.644272
1434066622.397,-28.73389
1434066622.413,-28.858482
1434066622.429,-27.455887
1434066622.444,-24.925163
1434066622.46,-21.679394
1434066622.476,-18.222359
1434066622.491,-15.145088
1434066622.507,-13.025974
1434066622.522,-12.270737
1434066622.538,-12.963436
1434066622.554,-14.802849
1434066622.569,-17.214958
1434066622.585,-19.536453
1434066622.601,-21.257992
1434066622.616,-22.108368
1434066622.632,-22.104572
1434066622.647,-21.40091
1434066622.663,-20.185856
1434066622.679,-18.538017
1434066622.694,-16.396626
1434066622.71,-13.591064
1434066622.726,-9.932358
1434066622.741,-5.344589
1434066622.757,0.05404663
1434066622.772,5.9383354
1434066622.788,11.844536
1434066622.804,17.38321
1434066622.819,22.320618
1434066622.835,26.677898
1434066622.851,30.671768
1434066622.866,34.677364
1434066622.882,39.066082
1434066622.898,44.1983
1434066622.913,50.272808
1434066622.929,57.15083
1434066622.944,64.199554
1434066622.96,70.19094
1434066622.976,73.539474
1434066622.991,72.72352
1434066623.007,66.84361
1434066623.023,56.04219
1434066623.038,41.581512
1434066623.054,25.439938
1434066623.069,9.736977
1434066623.085,-3.8530731
1434066623.101,-14.465261
1434066623.116,-22.009054
1434066623.132,-26.965164
1434066623.148,-30.011154
1434066623.163,-31.775251
1434066623.179,-32.655937
1434066623.194,-32.8594
1434066623.21,-32.50229
1434066623.226,-31.736778
1434066623.241,-30.800125
1434066623.257,-30.018559
1434066623.273,-29.662157
1434066623.288,-29.827015
1434066623.304,-30.36825
1434066623.319,-30.992714
1434066623.335,-31.405663
1434066623.351,-31.450766
1434066623.366,-31.100649
1434066623.382,-30.430649
1434066623.398,-29.455826
1434066623.413,-28.07917
1434066623.429,-26.060923
1434066623.444,-23.166723
1434066623.46,-19.261295
1434066623.476,-14.357652
1434066623.491,-8.670584
1434066623.507,-2.5187235
1434066623.523,3.7174864
1434066623.538,9.672573
1434066623.554,15.094997
1434066623.569,19.870535
1434066623.585,24.026258
1434066623.601,27.746706
1434066623.616,31.365953
1434066623.632,35.28929
1434066623.648,39.979645
1434066623.663,45.756966
1434066623.679,52.55961
1434066623.694,59.721375
1434066623.71,65.93611
1434066623.726,69.46427
1434066623.741,68.709496
1434066623.757,62.812
1434066623.773,52.00237
1434066623.788,37.64379
1434066623.804,21.791065
1434066623.819,6.5161285
1434066623.835,-6.6484184
1434066623.851,-17.00547
1434066623.866,-24.613575
1434066623.882,-29.99923
1434066623.898,-33.78643
1434066623.913,-36.459415
1434066623.929,-38.247112
1434066623.944,-39.224537
1434066623.96,-39.426346
1434066623.976,-38.977413
1434066623.991,-38.114693
1434066624.007,-37.191124
1434066624.023,-36.529823
1434066624.038,-36.353203
1434066624.054,-36.70987
1434066624.069,-37.44234
1434066624.085,-38.280396
1434066624.101,-38.910095
1434066624.116,-39.021133
1434066624.132,-38.40055
1434066624.148,-36.957573
1434066624.163,-34.72917
1434066624.179,-31.84813
1434066624.194,-28.489693
1434066624.21,-24.771935
1434066624.226,-20.73285
1434066624.241,-16.32483
1434066624.257,-11.508179
1434066624.273,-6.3111877
1434066624.288,-0.9264755
1434066624.304,4.4130783
1434066624.319,9.431686
1434066624.335,13.954544
1434066624.351,17.919228
1434066624.366,21.429016
1434066624.382,24.733719
1434066624.398,28.228416
1434066624.413,32.385315
1434066624.429,37.632454
1434066624.444,44.135643
1434066624.46,51.499268
1434066624.476,58.620735
1434066624.491,63.826324
1434066624.507,65.27301
1434066624.523,61.585182
1434066624.538,52.438118
1434066624.554,38.74756
1434066624.569,22.455269
1434066624.585,5.936493
1434066624.601,-8.773041
1434066624.616,-20.475937
1434066624.632,-28.971436
1434066624.648,-34.80847
1434066624.663,-38.86255
1434066624.679,-41.8209
1434066624.694,-44.02491
1434066624.71,-45.4636
1434066624.726,-46.014526
1434066624.741,-45.653267
1434066624.757,-44.570473
1434066624.773,-43.12185
1434066624.788,-41.696877
1434066624.804,-40.57254
1434066624.819,-39.83661
1434066624.835,-39.43731
1434066624.851,-39.253075
1434066624.866,-39.12471
1434066624.882,-38.941475
1434066624.898,-38.545166
1434066624.913,-37.76046
1434066624.929,-36.38678
1434066624.944,-34.294403
1434066624.96,-31.437508
1434066624.976,-27.92772
1434066624.991,-23.944984
1434066625.007,-19.69069
1434066625.023,-15.307747
1434066625.038,-10.824936
1434066625.054,-6.1952744
1434066625.069,-1.3411636
1434066625.085,3.7558823
1434066625.101,8.980263
1434066625.116,14.131523
1434066625.132,18.93087
1434066625.148,23.200172
1434066625.163,26.91906
1434066625.179,30.313904
1434066625.194,33.7909
1434066625.21,37.910828
1434066625.226,43.14933
1434066625.241,49.720886
1434066625.257,57.25757
1434066625.273,64.697014
1434066625.288,70.35927
1434066625.304,72.384705
1434066625.319,69.310295
1434066625.335,60.687927
1434066625.351,47.357834
1434066625.366,31.294823
1434066625.382,14.963432
1434066625.398,0.57128906
1434066625.413,-10.5787735
1434066625.429,-18.227493
1434066625.444,-22.965027
1434066625.46,-25.70958
1434066625.476,-27.26786
1434066625.491,-28.072838
1434066625.507,-28.216755
1434066625.523,-27.670616
1434066625.538,-26.508755
1434066625.554,-25.022858
1434066625.57,-23.690205
1434066625.585,-22.934574
1434066625.601,-22.99255
1434066625.616,-23.755573
1434066625.632,-24.87727
1434066625.648,-25.958462
1434066625.663,-26.712849
1434066625.679,-27.062809
1434066625.694,-27.024906
1434066625.71,-26.58445
1434066625.726,-25.605183
1434066625.741,-23.864658
1434066625.757,-21.212654
1434066625.773,-17.697659
1434066625.788,-13.6286125
1434066625.804,-9.41016
1434066625.82,-5.3755455
1434066625.835,-1.6320572
1434066625.851,1.9631691
1434066625.866,5.672966
1434066625.882,9.665043
1434066625.898,13.930111
1434066625.913,18.21653
1434066625.929,22.177269
1434066625.945,25.509064
1434066625.96,28.138012
1434066625.976,30.298687
1434066625.991,32.554592
1434066626.007,35.65506
1434066626.023,40.274254
1434066626.038,46.64072
1434066626.054,54.27556
1434066626.07,61.869957
1434066626.085,67.52376
1434066626.101,69.27418
1434066626.116,65.75261
1434066626.132,56.722534
1434066626.148,43.23915
1434066626.163,27.336246
1434066626.179,11.420132
1434066626.195,-2.507595
1434066626.21,-13.320858
1434066626.226,-20.91571
1434066626.241,-25.915688
1434066626.257,-29.248287
1434066626.273,-31.61901
1434066626.288,-33.406517
1434066626.304,-34.659943
1434066626.32,-35.3368
1434066626.335,-35.507507
1434066626.351,-35.403458
1434066626.366,-35.32992
1434066626.382,-35.52783
1434066626.398,-36.041317
1434066626.413,-36.76582
1434066626.429,-37.50203
1434066626.445,-38.101795
1434066626.46,-38.5247
1434066626.476,-38.82806
1434066626.491,-39.06514
1434066626.507,-39.213287
1434066626.523,-39.094685
1434066626.538,-38.430283
1434066626.554,-36.88252
1434066626.57,-34.239822
1434066626.585,-30.479168
1434066626.601,-25.832947
1434066626.616,-20.758556
1434066626.632,-15.794392
1434066626.648,-11.392006
1434066626.663,-7.816231
1434066626.679,-5.0176163
1434066626.695,-2.7238941
1434066626.71,-0.48099136
1434066626.726,2.1612473
1434066626.741,5.5319977
1434066626.757,9.693506
1434066626.773,14.442181
1434066626.788,19.353117
1434066626.804,23.925354
1434066626.82,27.78325
1434066626.835,30.847708
1434066626.851,33.37635
1434066626.866,35.889793
1434066626.882,39.038353
1434066626.898,43.39155
1434066626.913,49.202778
1434066626.929,56.253498
1434066626.945,63.649532
1434066626.96,69.942764
1434066626.976,73.31911
1434066626.991,72.18517
1434066627.007,65.678665
1434066627.023,54.09808
1434066627.038,38.86926
1434066627.054,22.158401
1434066627.07,6.1772413
1434066627.085,-7.437134
1434066627.101,-17.932632
1434066627.116,-25.403616
1434066627.132,-30.453255
1434066627.148,-33.79139
1434066627.163,-36.011475
1434066627.179,-37.476982
1434066627.195,-38.41313
1434066627.21,-38.967476
1434066627.226,-39.271397
