1435362273.178,0.0
1435362273.194,0.0
1435362273.209,0.0
1435362273.225,0.0
1435362273.241,0.0
1435362273.256,0.0
1435362273.272,0.0
1435362273.287,0.0
1435362273.303,0.0
1435362273.319,0.0013489303
1435362273.334,-0.0061912555
1435362273.35,-0.013309095
1435362273.366,-0.012449136
1435362273.381,0.002999405
1435362273.397,0.031529542
1435362273.412,0.058025423
1435362273.428,0.05486028
1435362273.444,-0.008815439
1435362273.459,-0.15203056
1435362273.475,-0.3843803
1435362273.491,-0.6741534
1435362273.506,-0.97990215
1435362273.522,-1.2654092
1435362273.537,-1.5192692
1435362273.553,-1.7627224
1435362273.569,-2.0404518
1435362273.584,-2.3985088
1435362273.6,-2.8576531
1435362273.616,-3.4326794
1435362273.631,-4.0610676
1435362273.647,-4.6731405
1435362273.662,-5.210924
1435362273.678,-5.6583185
1435362273.694,-6.0539227
1435362273.709,-6.477401
1435362273.725,-7.013435
1435362273.741,-7.7004232
1435362273.756,-8.592539
1435362273.772,-9.555059
1435362273.787,-10.440853
1435362273.803,-11.128353
1435362273.819,-11.599282
1435362273.834,-11.97719
1435362273.85,-12.496607
1435362273.866,-13.407743
1435362273.881,-14.842234
1435362273.897,-16.918575
1435362273.912,-19.32154
1435362273.928,-21.684885
1435362273.944,-23.698679
1435362273.959,-25.291643
1435362273.975,-26.714615
1435362273.991,-28.46333
1435362274.006,-31.0619
1435362274.022,-34.780617
1435362274.038,-39.76883
1435362274.053,-45.399925
1435362274.069,-50.93492
1435362274.084,-55.756405
1435362274.1,-59.696857
1435362274.116,-63.16934
1435362274.131,-67.010506
1435362274.147,-72.093864
1435362274.163,-78.86108
1435362274.178,-87.451294
1435362274.194,-96.87939
1435362274.209,-105.97965
1435362274.225,-113.79863
1435362274.241,-120.06921
1435362274.256,-125.37094
1435362274.272,-130.87622
1435362274.288,-138.03331
1435362274.303,-145.59773
1435362274.319,-155.33725
1435362274.334,-167.34094
1435362274.35,-181.29543
1435362274.366,-195.72757
1435362274.381,-207.58397
1435362274.397,-212.58658
1435362274.413,-206.56885
1435362274.428,-187.26563
1435362274.444,-155.485
1435362274.459,-115.282524
1435362274.475,-71.3824
1435362274.491,-27.489517
1435362274.506,15.336243
1435362274.522,58.52594
1435362274.538,104.418365
1435362274.553,154.33475
1435362274.569,207.53271
1435362274.584,261.6018
1435362274.6,313.4576
1435362274.616,361.25342
1435362274.631,404.28183
1435362274.647,442.42816
1435362274.663,475.14774
1435362274.678,500.8859
1435362274.694,517.33716
1435362274.709,522.2201
1435362274.725,514.3066
1435362274.741,493.6895
1435362274.756,462.0583
1435362274.772,421.91196
1435362274.788,375.87708
1435362274.803,326.13605
1435362274.819,274.27142
1435362274.834,221.39224
1435362274.85,168.45059
1435362274.866,116.56146
1435362274.881,66.99634
1435362274.897,21.243774
1435362274.913,-19.43045
1435362274.928,-54.264862
1435362274.944,-83.14795
1435362274.959,-106.543
1435362274.975,-125.24158
1435362274.991,-140.05977
1435362275.006,-151.58556
1435362275.022,-160.15335
1435362275.038,-165.84589
1435362275.053,-168.72232
1435362275.069,-168.97054
1435362275.084,-166.97125
1435362275.1,-163.25554
1435362275.116,-158.37457
1435362275.131,-152.78333
1435362275.147,-146.74971
1435362275.163,-140.38167
1435362275.178,-133.69223
1435362275.194,-126.698044
1435362275.209,-119.48589
1435362275.225,-112.204506
1435362275.241,-105.01514
1435362275.256,-98.01516
1435362275.272,-91.21421
1435362275.288,-84.54297
1435362275.303,-77.922516
1435362275.319,-71.33961
1435362275.334,-64.88226
1435362275.35,-58.718258
1435362275.366,-53.02607
1435362275.381,-47.897392
1435362275.397,-43.260513
1435362275.413,-38.914925
1435362275.428,-34.601494
1435362275.444,-30.128601
1435362275.459,-25.494473
1435362275.475,-20.902111
1435362275.491,-16.678167
1435362275.506,-13.137889
1435362275.522,-10.407079
1435362275.538,-8.335141
1435362275.553,-6.549961
1435362275.569,-4.5900135
1435362275.584,-2.1505904
1435362275.6,0.7795757
1435362275.616,3.8803473
1435362275.631,6.6417336
1435362275.647,8.645191
1435362275.663,9.706508
1435362275.678,10.032555
1435362275.694,10.066585
1435362275.709,10.303626
1435362275.725,11.128604
1435362275.741,12.755105
1435362275.756,15.261284
1435362275.772,18.526085
1435362275.788,22.03693
1435362275.803,24.731411
1435362275.819,25.145458
1435362275.834,21.873487
1435362275.85,14.317064
1435362275.866,3.2176208
1435362275.881,-9.39908
1435362275.897,-20.931673
1435362275.913,-29.204704
1435362275.928,-33.35699
1435362275.944,-33.929935
1435362275.959,-32.352394
1435362275.975,-30.084665
1435362275.991,-27.922003
1435362276.006,-25.902342
1435362276.022,-23.678719
1435362276.038,-21.032368
1435362276.053,-18.162306
1435362276.069,-15.627163
1435362276.084,-13.966179
1435362276.1,-13.383818
1435362276.116,-13.59927
1435362276.131,-13.996077
1435362276.147,-13.848379
1435362276.163,-12.756332
1435362276.178,-10.750858
1435362276.194,-8.294312
1435362276.209,-6.0397415
1435362276.225,-4.4765396
1435362276.241,-3.7314453
1435362276.256,-3.5233307
1435362276.272,-3.341919
1435362276.288,-2.816082
1435362276.303,-1.8176804
1435362276.319,-0.5915718
1435362276.334,0.51361084
1435362276.35,1.2124176
1435362276.366,1.4669151
1435362276.381,1.4518738
1435362276.397,1.4123116
1435362276.413,1.5860176
1435362276.428,2.0436249
1435362276.444,2.7005997
1435362276.459,3.3713226
1435362276.475,3.8463287
1435362276.491,4.0277405
1435362276.506,3.9860115
1435362276.522,3.959484
1435362276.538,4.207283
1435362276.553,4.853508
1435362276.569,5.7390327
1435362276.584,6.3762665
1435362276.6,6.1176033
1435362276.616,4.52713
1435362276.631,1.5728035
1435362276.647,-2.211483
1435362276.663,-5.965481
1435362276.678,-8.828278
1435362276.694,-10.269432
1435362276.71,-10.289619
1435362276.725,-9.293507
1435362276.741,-7.85112
1435362276.756,-6.430298
1435362276.772,-5.2408524
1435362276.788,-4.301964
1435362276.803,-3.4447231
1435362276.819,-2.6076584
1435362276.834,-1.7845459
1435362276.85,-1.1093216
1435362276.866,-0.68154144
1435362276.881,-0.5398674
1435362276.897,-0.57692146
1435362276.913,-0.6419277
1435362276.928,-0.5684452
1435362276.944,-0.33909988
1435362276.96,-0.009880066
1435362276.975,0.3154335
1435362276.991,0.5765705
1435362277.006,0.8052921
1435362277.022,1.125454
1435362277.038,1.6489677
1435362277.053,2.4131413
1435362277.069,3.338152
1435362277.085,4.271824
1435362277.1,5.015234
1435362277.116,5.4193325
1435362277.131,5.425478
1435362277.147,5.0879154
1435362277.163,4.554695
1435362277.178,4.0622196
1435362277.194,3.8342972
1435362277.21,4.0266685
1435362277.225,4.6147003
1435362277.241,5.440708
1435362277.256,6.2587414
1435362277.272,6.835335
1435362277.288,7.058058
1435362277.303,6.9629993
1435362277.319,6.672495
1435362277.335,6.3935337
1435362277.35,6.3196983
1435362277.366,6.6291924
1435362277.381,7.37154
1435362277.397,8.46232
1435362277.413,9.582283
1435362277.428,10.247215
1435362277.444,9.905319
1435362277.46,8.239679
1435362277.475,5.301258
1435362277.491,1.5972843
1435362277.506,-2.122097
1435362277.522,-5.0789185
1435362277.538,-6.849079
1435362277.553,-7.404316
1435362277.569,-7.1028633
1435362277.585,-6.4584923
1435362277.6,-5.9424763
1435362277.616,-5.827694
1435362277.631,-6.111065
1435362277.647,-6.639349
1435362277.663,-7.2406883
1435362277.678,-7.8664455
1435362277.694,-8.591133
1435362277.71,-9.5463295
1435362277.725,-10.812357
1435362277.741,-12.293682
1435362277.756,-13.758366
1435362277.772,-14.925314
1435362277.788,-15.640844
1435362277.803,-15.928896
1435362277.819,-16.018744
1435362277.835,-16.158329
1435362277.85,-16.52695
1435362277.866,-17.035843
1435362277.881,-17.47142
1435362277.897,-17.549477
1435362277.913,-17.090578
1435362277.928,-16.053783
1435362277.944,-14.567194
1435362277.96,-12.774315
1435362277.975,-10.802153
1435362277.991,-8.707457
1435362278.006,-6.548731
1435362278.022,-4.1583138
1435362278.038,-1.4959698
1435362278.053,1.4258938
1435362278.069,4.5029316
1435362278.085,7.5272064
1435362278.1,10.250589
1435362278.116,12.46
1435362278.131,13.984048
1435362278.147,14.784963
1435362278.163,14.945024
1435362278.178,14.662187
1435362278.194,14.17239
1435362278.21,13.797793
1435362278.225,13.7202425
1435362278.241,14.028932
1435362278.256,14.601402
1435362278.272,15.14632
1435362278.288,15.249726
1435362278.303,14.524742
1435362278.319,12.725887
1435362278.335,9.8827915
1435362278.35,6.3388767
1435362278.366,2.6307573
1435362278.381,-0.6582799
1435362278.397,-3.071157
1435362278.413,-4.4219255
1435362278.428,-4.801358
1435362278.444,-4.520629
1435362278.46,-3.8804734
1435362278.475,-3.1629722
1435362278.491,-2.528938
1435362278.506,-2.0653162
1435362278.522,-1.8206933
1435362278.538,-1.8257022
1435362278.553,-2.0696723
1435362278.569,-2.454373
1435362278.585,-2.8370068
1435362278.6,-3.0831423
1435362278.616,-3.1470356
1435362278.631,-3.1480389
1435362278.647,-3.2190118
1435362278.663,-3.4529643
1435362278.678,-3.8181047
1435362278.694,-4.2041707
1435362278.71,-4.5051217
1435362278.725,-4.728099
1435362278.741,-4.89701
1435362278.756,-5.1181993
1435362278.772,-5.4336615
1435362278.788,-5.787922
1435362278.803,-6.0854397
1435362278.819,-6.273431
1435362278.835,-6.38844
1435362278.85,-6.493518
1435362278.866,-6.6793537
1435362278.881,-6.897258
1435362278.897,-7.09772
1435362278.913,-7.2725563
1435362278.928,-7.4269905
1435362278.944,-7.5984974
1435362278.96,-7.7331886
1435362278.975,-7.653141
1435362278.991,-7.0553207
1435362279.006,-6.1331844
1435362279.022,-4.842846
1435362279.038,-3.2624035
1435362279.053,-1.5207729
1435362279.069,0.2620182
1435362279.085,2.060791
1435362279.1,3.985485
1435362279.116,6.209072
1435362279.131,8.832148
1435362279.147,11.755495
1435362279.163,14.715336
1435362279.178,17.237068
1435362279.194,18.751472
1435362279.21,18.833607
1435362279.225,17.271389
1435362279.241,14.206684
1435362279.256,10.030285
1435362279.272,5.2902412
1435362279.288,0.4829216
1435362279.303,-3.9441566
1435362279.319,-7.7710876
1435362279.335,-10.931637
1435362279.35,-13.461777
1435362279.366,-15.42078
1435362279.381,-16.877296
1435362279.397,-17.910637
1435362279.413,-18.611713
1435362279.428,-19.076046
1435362279.444,-19.361065
1435362279.46,-19.520721
1435362279.475,-19.582272
1435362279.491,-19.52256
1435362279.506,-19.324322
1435362279.522,-18.935486
1435362279.538,-18.376743
1435362279.553,-17.693699
1435362279.569,-16.987457
1435362279.585,-16.306396
1435362279.6,-15.703995
1435362279.616,-15.164864
1435362279.632,-14.652649
1435362279.647,-14.119621
1435362279.663,-13.518852
1435362279.678,-12.7671585
1435362279.694,-11.751877
1435362279.71,-10.331825
1435362279.725,-8.440994
1435362279.741,-6.176735
1435362279.757,-3.8332977
1435362279.772,-1.7979126
1435362279.788,-0.40332794
1435362279.803,0.28744507
1435362279.819,0.47943115
1435362279.835,0.5600815
1435362279.85,0.8892441
1435362279.866,1.6632385
1435362279.882,2.8848038
1435362279.897,4.427185
1435362279.913,6.1776886
1435362279.928,8.100456
1435362279.944,10.203598
1435362279.96,12.49295
1435362279.975,14.88517
1435362279.991,17.245049
1435362280.007,19.4711
1435362280.022,21.550583
1435362280.038,23.537148
1435362280.053,25.462059
1435362280.069,27.218773
1435362280.085,28.521439
1435362280.1,28.939148
1435362280.116,28.068924
1435362280.132,25.687698
1435362280.147,21.915115
1435362280.163,17.19751
1435362280.178,12.202194
1435362280.194,7.596054
1435362280.21,3.825119
1435362280.225,0.95721436
1435362280.241,-1.2632599
1435362280.257,-3.2090302
1435362280.272,-5.157074
1435362280.288,-7.1247864
1435362280.303,-8.877609
1435362280.319,-10.118698
1435362280.335,-10.683517
1435362280.35,-10.660095
1435362280.366,-10.371902
1435362280.382,-10.174942
1435362280.397,-10.284439
1435362280.413,-10.676483
1435362280.428,-11.147461
1435362280.444,-11.4722595
1435362280.46,-11.528
1435362280.475,-11.32309
1435362280.491,-10.95961
1435362280.507,-10.495316
1435362280.522,-9.925629
1435362280.538,-9.176056
1435362280.553,-8.1840515
1435362280.569,-6.9879456
1435362280.585,-5.69458
1435362280.6,-4.449829
1435362280.616,-3.330536
1435362280.632,-2.336563
1435362280.647,-1.390213
1435362280.663,-0.4136963
1435362280.678,0.5912781
1435362280.694,1.5444031
1435362280.71,2.3497467
1435362280.725,2.9869843
1435362280.741,3.5625153
1435362280.757,4.2588806
1435362280.772,5.268585
1435362280.788,6.669174
1435362280.803,8.3762665
1435362280.819,10.192001
1435362280.835,11.903656
1435362280.85,13.386047
1435362280.866,14.614716
1435362280.882,15.660706
1435362280.897,16.650116
1435362280.913,17.6754
1435362280.928,18.868607
1435362280.944,20.315186
1435362280.96,22.08493
1435362280.975,24.126633
1435362280.991,26.223007
1435362281.007,27.981735
1435362281.022,28.932632
1435362281.038,28.64737
1435362281.053,26.91452
1435362281.069,23.837463
1435362281.085,19.800568
1435362281.1,15.37265
1435362281.116,11.12204
1435362281.132,7.465027
1435362281.147,4.5608063
1435362281.163,2.3085022
1435362281.178,0.4650421
1435362281.194,-1.2512665
1435362281.21,-2.9804688
1435362281.225,-4.727188
1435362281.241,-6.364914
1435362281.257,-7.770294
1435362281.272,-8.884125
1435362281.288,-9.71991
1435362281.303,-10.307861
1435362281.319,-10.669846
1435362281.335,-10.764862
1435362281.35,-10.5898285
1435362281.366,-10.233765
1435362281.382,-9.904068
1435362281.397,-9.832565
1435362281.413,-10.151886
1435362281.428,-10.766495
1435362281.444,-11.3871155
1435362281.46,-11.622284
1435362281.475,-11.204803
1435362281.491,-10.091843
1435362281.507,-8.502014
1435362281.522,-6.737488
1435362281.538,-5.052994
1435362281.553,-3.5546875
1435362281.569,-2.1767426
1435362281.585,-0.87301636
1435362281.6,0.36006165
1435362281.616,1.4185791
1435362281.632,2.224823
1435362281.647,2.7798157
1435362281.663,3.231842
1435362281.678,3.8483887
1435362281.694,4.8526917
1435362281.71,6.3195496
1435362281.725,8.137634
1435362281.741,10.07547
1435362281.757,11.880829
1435362281.772,13.418549
1435362281.788,14.644653
1435362281.803,15.638947
1435362281.819,16.531982
1435362281.835,17.470154
1435362281.85,18.617676
1435362281.866,20.129272
1435362281.882,22.13379
1435362281.897,24.643219
1435362281.913,27.513153
1435362281.928,30.363098
1435362281.944,32.64157
1435362281.96,33.77234
1435362281.975,33.338226
1435362281.991,31.247742
1435362282.007,27.785583
1435362282.022,23.488403
1435362282.038,18.96756
1435362282.053,14.679749
1435362282.069,10.868195
1435362282.085,7.5768127
1435362282.1,4.7640686
1435362282.116,2.391327
1435362282.132,0.4624176
1435362282.147,-1.0640106
1435362282.163,-2.315277
1435362282.178,-3.5129395
1435362282.194,-4.8611145
1435362282.21,-6.469879
1435362282.225,-8.246628
1435362282.241,-9.983231
1435362282.257,-11.422516
1435362282.272,-12.391968
1435362282.288,-12.847534
1435362282.304,-12.877899
1435362282.319,-12.61084
1435362282.335,-12.18869
1435362282.35,-11.684708
1435362282.366,-11.176376
1435362282.382,-10.737778
1435362282.397,-10.466248
1435362282.413,-10.442596
1435362282.429,-10.666428
1435362282.444,-11.004501
1435362282.46,-11.19606
1435362282.475,-10.931274
1435362282.491,-9.977966
1435362282.507,-8.244492
1435362282.522,-5.8897705
1435362282.538,-3.1894836
1435362282.554,-0.50083923
1435362282.569,1.921402
1435362282.585,3.987152
1435362282.6,5.761429
1435362282.616,7.4102173
1435362282.632,9.105057
1435362282.647,10.934784
1435362282.663,12.853928
1435362282.679,14.751846
1435362282.694,16.51886
1435362282.71,18.116272
1435362282.725,19.634613
1435362282.741,21.264053
1435362282.757,23.250824
1435362282.772,25.791748
1435362282.788,28.961075
1435362282.804,32.601776
1435362282.819,36.29312
1435362282.835,39.389175
1435362282.85,41.174744
1435362282.866,41.055847
1435362282.882,38.79019
1435362282.897,34.59871
1435362282.913,29.1109
1435362282.929,23.13272
1435362282.944,17.387451
1435362282.96,12.30072
1435362282.975,7.9753723
1435362282.991,4.2794495
1435362283.007,1.0236511
1435362283.022,-1.9128113
1435362283.038,-4.5244446
1435362283.054,-6.780243
1435362283.069,-8.682388
1435362283.085,-10.292664
1435362283.1,-11.758591
1435362283.116,-13.231476
1435362283.132,-14.764481
1435362283.147,-16.284103
1435362283.163,-17.603302
1435362283.179,-18.501282
1435362283.194,-18.860718
1435362283.21,-18.760803
1435362283.225,-18.45259
1435362283.241,-18.246643
1435362283.257,-18.330032
1435362283.272,-18.667404
1435362283.288,-18.966888
1435362283.304,-18.853607
1435362283.319,-18.030579
1435362283.335,-16.446854
1435362283.35,-14.280991
1435362283.366,-11.845657
1435362283.382,-9.447433
1435362283.397,-7.2946014
1435362283.413,-5.446533
1435362283.429,-3.865509
1435362283.444,-2.4658508
1435362283.46,-1.1396103
1435362283.475,0.2394867
1435362283.491,1.7708282
1435362283.507,3.5403824
1435362283.522,5.5653076
1435362283.538,7.822197
1435362283.554,10.241241
1435362283.569,12.769699
1435362283.585,15.433853
1435362283.6,18.316788
1435362283.616,21.574821
1435362283.632,25.305481
1435362283.647,29.447884
1435362283.663,33.697617
1435362283.679,37.496223
1435362283.694,40.12982
1435362283.71,40.90513
1435362283.725,39.44319
1435362283.741,35.762054
1435362283.757,30.331276
1435362283.772,23.882996
1435362283.788,17.18435
1435362283.804,10.825775
1435362283.819,5.0865593
1435362283.835,0.027389526
1435362283.85,-4.424839
1435362283.866,-8.313812
1435362283.882,-11.625843
1435362283.897,-14.299953
1435362283.913,-16.33292
1435362283.929,-17.854515
1435362283.944,-19.080559
1435362283.96,-20.29274
1435362283.975,-21.658134
1435362283.991,-23.216925
1435362284.007,-24.804035
1435362284.022,-26.20505
1435362284.038,-27.23377
1435362284.054,-27.832268
1435362284.069,-28.054169
1435362284.085,-28.058472
1435362284.1,-27.955257
1435362284.116,-27.72076
1435362284.132,-27.215939
1435362284.147,-26.242798
1435362284.163,-24.696995
1435362284.179,-22.652617
1435362284.194,-20.36725
1435362284.21,-18.18901
1435362284.225,-16.356833
1435362284.241,-14.915307
1435362284.257,-13.660239
1435362284.272,-12.270636
1435362284.288,-10.454294
1435362284.304,-8.080994
1435362284.319,-5.2368755
1435362284.335,-2.1811714
1435362284.35,0.8190098
1435362284.366,3.5450382
1435362284.382,5.9242954
1435362284.397,8.042545
1435362284.413,10.1350975
1435362284.429,12.511784
1435362284.444,15.517193
1435362284.46,19.358192
1435362284.475,23.974068
1435362284.491,28.930672
1435362284.507,33.460552
1435362284.522,36.623653
1435362284.538,37.60892
1435362284.554,35.971733
1435362284.569,31.789768
1435362284.585,25.61369
1435362284.6,18.24961
1435362284.616,10.538685
1435362284.632,3.1505814
1435362284.647,-3.4893951
1435362284.663,-9.193848
1435362284.679,-13.945305
1435362284.694,-17.832443
1435362284.71,-21.005623
1435362284.725,-23.607971
1435362284.741,-25.769913
1435362284.757,-27.570473
1435362284.772,-29.052917
1435362284.788,-30.23127
1435362284.804,-31.138649
1435362284.819,-31.820732
1435362284.835,-32.32344
1435362284.85,-32.681046
1435362284.866,-32.897896
1435362284.882,-32.971558
1435362284.897,-32.92933
1435362284.913,-32.821793
1435362284.929,-32.742523
1435362284.944,-32.68734
1435362284.96,-32.533768
1435362284.976,-32.027725
1435362284.991,-30.91652
1435362285.007,-29.034676
1435362285.022,-26.460213
1435362285.038,-23.460274
1435362285.054,-20.429878
1435362285.069,-17.712006
1435362285.085,-15.485275
1435362285.101,-13.706177
1435362285.116,-12.167328
1435362285.132,-10.60202
1435362285.147,-8.792786
1435362285.163,-6.633072
1435362285.179,-4.162758
1435362285.194,-1.483017
1435362285.21,1.2178192
1435362285.226,3.7966995
1435362285.241,6.163292
1435362285.257,8.332298
1435362285.272,10.42643
1435362285.288,12.688835
1435362285.304,15.379463
1435362285.319,18.71811
1435362285.335,22.765396
1435362285.351,27.327469
1435362285.366,31.895203
1435362285.382,35.70659
1435362285.397,37.88594
1435362285.413,37.69693
1435362285.429,34.78058
1435362285.444,29.323906
1435362285.46,22.019806
1435362285.476,13.903519
1435362285.491,6.0059586
1435362285.507,-0.9181366
1435362285.522,-6.550659
1435362285.538,-10.969765
1435362285.554,-14.489304
1435362285.569,-17.420189
1435362285.585,-19.957329
1435362285.601,-22.154274
1435362285.616,-23.998688
1435362285.632,-25.470856
1435362285.647,-26.6287
1435362285.663,-27.531334
1435362285.679,-28.259476
1435362285.694,-28.815575
1435362285.71,-29.2285
1435362285.726,-29.476707
1435362285.741,-29.594604
1435362285.757,-29.609436
1435362285.772,-29.527794
1435362285.788,-29.301498
1435362285.804,-28.831398
1435362285.819,-28.02018
1435362285.835,-26.847527
1435362285.851,-25.381744
1435362285.866,-23.77179
1435362285.882,-22.136314
1435362285.897,-20.55529
1435362285.913,-18.991615
1435362285.929,-17.4226
1435362285.944,-15.844383
1435362285.96,-14.329872
1435362285.976,-12.919617
1435362285.991,-11.592781
1435362286.007,-10.187218
1435362286.022,-8.4780655
1435362286.038,-6.3054047
1435362286.054,-3.690422
1435362286.069,-0.8323517
1435362286.085,1.9774628
1435362286.101,4.5337486
1435362286.116,6.78302
1435362286.132,8.864227
1435362286.147,10.923363
1435362286.163,13.077209
1435362286.179,15.319523
1435362286.194,17.599983
1435362286.21,19.858112
1435362286.226,22.136456
1435362286.241,24.536663
1435362286.257,27.18969
1435362286.272,30.143814
1435362286.288,33.19885
1435362286.304,35.89596
1435362286.319,37.568466
1435362286.335,37.528576
1435362286.351,35.346294
1435362286.366,31.03204
1435362286.382,25.097712
1435362286.397,18.36501
1435362286.413,11.717218
1435362286.429,5.789215
1435362286.444,0.8811054
1435362286.46,-3.073923
1435362286.476,-6.2597637
1435362286.491,-8.875803
1435362286.507,-11.013155
1435362286.522,-12.695515
1435362286.538,-13.944963
1435362286.554,-14.806617
1435362286.569,-15.365281
1435362286.585,-15.707846
1435362286.601,-15.912128
1435362286.616,-16.04948
1435362286.632,-16.187778
1435362286.647,-16.412378
1435362286.663,-16.756495
1435362286.679,-17.23272
1435362286.694,-17.780846
1435362286.71,-18.297207
1435362286.726,-18.66932
1435362286.741,-18.78014
1435362286.757,-18.567764
1435362286.772,-18.01059
1435362286.788,-17.094784
1435362286.804,-15.842837
1435362286.819,-14.287086
1435362286.835,-12.482234
1435362286.851,-10.543063
1435362286.866,-8.627936
1435362286.882,-6.869158
1435362286.897,-5.3512974
1435362286.913,-4.06493
1435362286.929,-2.9487267
1435362286.944,-1.8991451
1435362286.96,-0.8446388
1435362286.976,0.28611374
1435362286.991,1.5420666
1435362287.007,2.9730225
1435362287.022,4.6246834
1435362287.038,6.494339
1435362287.054,8.493309
1435362287.069,10.480438
1435362287.085,12.307137
1435362287.101,13.909405
1435362287.116,15.345844
1435362287.132,16.783138
1435362287.147,18.414417
1435362287.163,20.38396
1435362287.179,22.718975
1435362287.194,25.325218
1435362287.21,27.972237
1435362287.226,30.326084
1435362287.241,31.951862
1435362287.257,32.387104
1435362287.272,31.263733
1435362287.288,28.44294
1435362287.304,24.128456
1435362287.319,18.82402
1435362287.335,13.236473
1435362287.351,8.030884
1435362287.366,3.6697998
1435362287.382,0.31658173
1435362287.397,-2.134407
1435362287.413,-3.9187393
1435362287.429,-5.2849045
1435362287.444,-6.4193573
1435362287.46,-7.422264
1435362287.476,-8.335564
1435362287.491,-9.221428
1435362287.507,-10.1269455
1435362287.522,-11.104149
1435362287.538,-12.163666
1435362287.554,-13.243225
1435362287.569,-14.195114
1435362287.585,-14.854111
1435362287.601,-15.094284
1435362287.616,-14.892235
1435362287.632,-14.359474
1435362287.648,-13.725395
1435362287.663,-13.165924
1435362287.679,-12.815681
1435362287.694,-12.643982
1435362287.71,-12.529518
1435362287.726,-12.281883
1435362287.741,-11.756882
1435362287.757,-10.867767
1435362287.772,-9.5527725
1435362287.788,-7.762001
1435362287.804,-5.5097427
1435362287.819,-2.919159
1435362287.835,-0.2688141
1435362287.851,2.0589905
1435362287.866,3.7196198
1435362287.882,4.618164
1435362287.898,4.9351425
1435362287.913,5.1135483
1435362287.929,5.5866776
1435362287.944,6.592224
1435362287.96,8.066727
1435362287.976,9.739677
1435362287.991,11.29789
1435362288.007,12.585114
1435362288.023,13.686829
1435362288.038,14.829292
1435362288.054,16.26828
1435362288.069,18.167847
1435362288.085,20.523743
1435362288.101,23.197647
1435362288.116,25.916595
1435362288.132,28.278809
1435362288.148,29.770294
1435362288.163,29.936417
1435362288.179,28.452911
1435362288.194,25.330078
1435362288.21,20.933716
1435362288.226,15.8974
1435362288.241,10.896637
1435362288.257,6.4581757
1435362288.273,2.8037567
1435362288.288,-0.09370422
1435362288.304,-2.3876343
1435362288.319,-4.230133
1435362288.335,-5.6972504
1435362288.351,-6.806671
1435362288.366,-7.6093445
1435362288.382,-8.192093
1435362288.398,-8.6936035
1435362288.413,-9.212173
1435362288.429,-9.767975
1435362288.444,-10.295273
1435362288.46,-10.723923
1435362288.476,-11.005356
1435362288.491,-11.13533
1435362288.507,-11.17659
1435362288.523,-11.164185
1435362288.538,-11.11026
1435362288.554,-11.004364
1435362288.569,-10.8050995
1435362288.585,-10.475861
1435362288.601,-9.929962
1435362288.616,-9.080383
1435362288.632,-7.856079
1435362288.648,-6.3197327
1435362288.663,-4.6535645
1435362288.679,-3.1591492
1435362288.694,-2.0963745
1435362288.71,-1.5650482
1435362288.726,-1.4098663
1435362288.741,-1.3071442
1435362288.757,-0.9263458
1435362288.773,-0.09147644
1435362288.788,1.1428375
1435362288.804,2.5798492
1435362288.819,4.017029
1435362288.835,5.3753204
1435362288.851,6.7216644
1435362288.866,8.156418
1435362288.882,9.756287
1435362288.898,11.446838
1435362288.913,13.097809
1435362288.929,14.559143
1435362288.944,15.824219
1435362288.96,17.01323
1435362288.976,18.371704
1435362288.991,20.185364
1435362289.007,22.627838
1435362289.023,25.662994
1435362289.038,28.962585
1435362289.054,31.946793
1435362289.069,33.918396
1435362289.085,34.27794
1435362289.101,32.736618
1435362289.116,29.40532
1435362289.132,24.785202
1435362289.148,19.533386
1435362289.163,14.320053
1435362289.179,9.586029
1435362289.194,5.5858
1435362289.21,2.3560028
1435362289.226,-0.1365509
1435362289.241,-1.9886475
1435362289.257,-3.3195953
1435362289.273,-4.2912292
1435362289.288,-5.1051025
1435362289.304,-5.9453583
1435362289.319,-6.920227
1435362289.335,-8.011551
1435362289.351,-9.122787
1435362289.366,-10.111343
1435362289.382,-10.872879
1435362289.398,-11.368561
1435362289.413,-11.634216
1435362289.429,-11.7561035
1435362289.444,-11.799408
1435362289.46,-11.827423
1435362289.476,-11.859619
1435362289.491,-11.891342
1435362289.507,-11.891342
1435362289.523,-11.81366
1435362289.538,-11.61467
1435362289.554,-11.245438
1435362289.569,-10.656738
1435362289.585,-9.814819
1435362289.601,-8.686996
1435362289.616,-7.2786255
1435362289.632,-5.6453857
1435362289.648,-3.917801
1435362289.663,-2.2549438
1435362289.679,-0.806015
1435362289.694,0.36735535
1435362289.71,1.327301
1435362289.726,2.2160187
1435362289.741,3.2066498
1435362289.757,4.421814
1435362289.773,5.8958893
1435362289.788,7.5865173
1435362289.804,9.397125
1435362289.819,11.282776
1435362289.835,13.284805
1435362289.851,15.491791
1435362289.866,17.966309
1435362289.882,20.70897
1435362289.898,23.646362
1435362289.913,26.65828
1435362289.929,29.62677
1435362289.944,32.454773
1435362289.96,34.998795
1435362289.976,37.04973
1435362289.991,38.305084
1435362290.007,38.413055
1435362290.023,37.0829
1435362290.038,34.19516
1435362290.054,29.894608
1435362290.069,24.578873
1435362290.085,18.808273
1435362290.101,13.19136
1435362290.116,8.211891
1435362290.132,4.108101
1435362290.148,0.880188
1435362290.163,-1.6702805
1435362290.179,-3.798584
1435362290.194,-5.693283
1435362290.21,-7.3590927
1435362290.226,-8.692749
1435362290.241,-9.581215
1435362290.257,-10.071358
1435362290.273,-10.4008255
1435362290.288,-10.928642
1435362290.304,-11.895134
1435362290.319,-13.309692
1435362290.335,-14.901939
1435362290.351,-16.260574
1435362290.366,-17.048035
1435362290.382,-17.178757
1435362290.398,-16.792854
1435362290.413,-16.193161
1435362290.429,-15.621269
1435362290.444,-15.1671295
1435362290.46,-14.706284
1435362290.476,-14.030319
1435362290.491,-12.929886
1435362290.507,-11.385857
1435362290.523,-9.528946
1435362290.538,-7.62484
1435362290.554,-5.9224014
1435362290.57,-4.566147
1435362290.585,-3.5105362
1435362290.601,-2.527382
1435362290.616,-1.3164368
1435362290.632,0.3429947
1435362290.648,2.4958725
1435362290.663,4.9857254
1435362290.679,7.5482407
1435362290.695,9.952389
1435362290.71,12.100464
1435362290.726,14.072491
1435362290.741,16.067589
1435362290.757,18.322533
1435362290.773,21.05194
1435362290.788,24.383942
1435362290.804,28.336506
1435362290.82,32.75454
1435362290.835,37.269997
1435362290.851,41.27327
1435362290.866,44.01415
1435362290.882,44.79166
1435362290.898,43.139877
1435362290.913,39.011574
1435362290.929,32.854263
1435362290.945,25.42435
1435362290.96,17.637661
1435362290.976,10.275877
1435362290.991,3.86702
1435362291.007,-1.3958263
1435362291.023,-5.559813
1435362291.038,-8.754227
1435362291.054,-11.070172
1435362291.07,-12.549929
1435362291.085,-13.262291
1435362291.101,-13.393917
1435362291.116,-13.312399
1435362291.132,-13.4759865
1435362291.148,-14.254133
1435362291.163,-15.762999
1435362291.179,-17.81961
1435362291.195,-20.025576
1435362291.21,-21.98368
1435362291.226,-23.48272
1435362291.241,-24.487354
1435362291.257,-25.117565
1435362291.273,-25.450756
1435362291.288,-25.486675
1435362291.304,-25.113476
1435362291.32,-24.2019
1435362291.335,-22.705193
1435362291.351,-20.731441
1435362291.366,-18.505348
1435362291.382,-16.304276
1435362291.398,-14.331093
1435362291.413,-12.687683
1435362291.429,-11.223122
1435362291.445,-9.668495
1435362291.46,-7.7167435
1435362291.476,-5.2010117
1435362291.491,-2.1831665
1435362291.507,1.045639
1435362291.523,4.105446
1435362291.538,6.728073
1435362291.554,8.902542
1435362291.57,10.846619
1435362291.585,12.92234
1435362291.601,15.445084
1435362291.616,18.620209
1435362291.632,22.514496
1435362291.648,27.06733
1435362291.663,32.041367
1435362291.679,36.980865
1435362291.695,41.141975
1435362291.71,43.61331
1435362291.726,43.504204
1435362291.741,40.299522
1435362291.757,34.101593
1435362291.773,25.705704
1435362291.788,16.324692
1435362291.804,7.2308655
1435362291.82,-0.6310425
1435362291.835,-6.846283
1435362291.851,-11.503357
1435362291.866,-14.944656
1435362291.882,-17.53563
1435362291.898,-19.508072
1435362291.913,-20.971619
1435362291.929,-22.003052
1435362291.945,-22.743332
1435362291.96,-23.399048
1435362291.976,-24.184265
1435362291.991,-25.199478
1435362292.007,-26.428421
1435362292.023,-27.717361
1435362292.038,-28.911255
1435362292.054,-29.867966
1435362292.07,-30.509354
1435362292.085,-30.796585
1435362292.101,-30.660614
1435362292.116,-30.057587
1435362292.132,-28.985153
1435362292.148,-27.47554
1435362292.163,-25.639526
1435362292.179,-23.571426
1435362292.195,-21.324646
1435362292.21,-18.839523
1435362292.226,-16.018936
1435362292.241,-12.7812195
1435362292.257,-9.150009
1435362292.273,-5.2385864
1435362292.288,-1.2733612
1435362292.304,2.5074463
1435362292.32,5.9006805
1435362292.335,8.7859955
1435362292.351,11.185608
1435362292.366,13.275925
1435362292.382,15.387863
1435362292.398,17.95462
1435362292.413,21.356735
1435362292.429,25.745773
1435362292.445,30.840393
1435362292.46,35.90703
1435362292.476,39.85327
1435362292.491,41.582977
1435362292.507,40.30388
1435362292.523,35.863358
1435362292.538,28.7538
1435362292.554,19.939682
1435362292.57,10.549362
1435362292.585,1.5624084
1435362292.601,-6.352188
1435362292.616,-12.875366
1435362292.632,-18.011627
1435362292.648,-21.921387
1435362292.663,-24.870728
1435362292.679,-27.174652
1435362292.695,-29.122314
1435362292.71,-30.93393
1435362292.726,-32.722687
1435362292.741,-34.47229
1435362292.757,-36.090424
1435362292.773,-37.433594
1435362292.788,-38.387512
1435362292.804,-38.897583
1435362292.82,-38.99414
1435362292.835,-38.742126
1435362292.851,-38.26883
1435362292.866,-37.666107
1435362292.882,-36.967316
1435362292.898,-36.087067
1435362292.913,-34.85199
1435362292.929,-33.056
1435362292.945,-30.598602
1435362292.96,-27.569336
1435362292.976,-24.24704
1435362292.991,-20.986511
1435362293.007,-18.094421
1435362293.023,-15.660492
1435362293.038,-13.50592
1435362293.054,-11.290375
1435362293.07,-8.68335
1435362293.085,-5.5026855
1435362293.101,-1.8275146
1435362293.116,2.0749207
1435362293.132,5.829956
1435362293.148,9.139313
1435362293.163,11.881226
1435362293.179,14.166199
1435362293.195,16.30893
1435362293.21,18.758148
1435362293.226,21.95279
1435362293.242,26.111176
1435362293.257,31.08374
1435362293.273,36.28131
1435362293.288,40.729553
1435362293.304,43.34326
1435362293.32,43.224487
1435362293.335,39.98105
1435362293.351,33.805817
1435362293.367,25.466064
1435362293.382,16.003784
1435362293.398,6.487854
1435362293.413,-2.2329102
1435362293.429,-9.633667
1435362293.445,-15.575806
1435362293.46,-20.18216
1435362293.476,-23.728668
1435362293.492,-26.471497
1435362293.507,-28.59259
1435362293.523,-30.18872
1435362293.538,-31.329254
1435362293.554,-32.087585
1435362293.57,-32.61325
1435362293.585,-33.05185
1435362293.601,-33.507263
1435362293.617,-33.962402
1435362293.632,-34.300903
1435362293.648,-34.368347
1435362293.663,-34.08618
1435362293.679,-33.490723
1435362293.695,-32.71939
1435362293.71,-31.885681
1435362293.726,-31.01059
1435362293.742,-29.970947
1435362293.757,-28.560364
1435362293.773,-26.585571
1435362293.788,-24.017883
1435362293.804,-20.98404
1435362293.82,-17.769897
1435362293.835,-14.680267
1435362293.851,-11.948532
1435362293.867,-9.561905
1435362293.882,-7.322006
1435362293.898,-4.931961
1435362293.913,-2.202118
1435362293.929,0.86053467
1435362293.945,3.9962158
1435362293.96,6.8595886
1435362293.976,9.235931
1435362293.992,11.184402
1435362294.007,13.027237
1435362294.023,15.198288
1435362294.038,17.990585
1435362294.054,21.485504
1435362294.07,25.534851
1435362294.085,29.890274
1435362294.101,34.27356
1435362294.117,38.384277
1435362294.132,41.77748
1435362294.148,43.826828
1435362294.163,43.81505
1435362294.179,41.188034
1435362294.195,35.876266
1435362294.21,28.441635
1435362294.226,19.944138
1435362294.242,11.61525
1435362294.257,4.430832
1435362294.273,-1.1632843
1435362294.288,-5.2973785
1435362294.304,-8.426102
1435362294.32,-11.063904
1435362294.335,-13.45636
1435362294.351,-15.622757
1435362294.367,-17.421585
1435362294.382,-18.783722
1435362294.398,-19.83847
1435362294.413,-20.884216
1435362294.429,-22.213898
1435362294.445,-23.9124
1435362294.46,-25.77855
1435362294.476,-27.40831
1435362294.492,-28.39122
1435362294.507,-28.530273
1435362294.523,-27.909042
1435362294.538,-26.81903
1435362294.554,-25.541672
1435362294.57,-24.265457
1435362294.585,-22.93985
1435362294.601,-21.439377
1435362294.617,-19.607483
1435362294.632,-17.424973
1435362294.648,-14.980667
1435362294.663,-12.461319
1435362294.679,-10.044128
1435362294.695,-7.793518
1435362294.71,-5.6460266
1435362294.726,-3.4399261
1435362294.742,-1.0159454
1435362294.757,1.6555939
1435362294.773,4.4303284
1435362294.788,7.0736084
1435362294.804,9.390366
1435362294.82,11.353928
1435362294.835,13.1727295
1435362294.851,15.117172
1435362294.867,17.412567
1435362294.882,20.108124
1435362294.898,23.101898
1435362294.913,26.242546
1435362294.929,29.42698
1435362294.945,32.544014
1435362294.96,35.382317
1435362294.976,37.52285
1435362294.992,38.429764
1435362295.007,37.618454
1435362295.023,34.92196
1435362295.038,30.554626
1435362295.054,25.055443
1435362295.07,19.061752
1435362295.085,13.1070175
1435362295.101,7.4716263
1435362295.117,2.2944794
1435362295.132,-2.3706512
1435362295.148,-6.4541245
1435362295.163,-9.856537
1435362295.179,-12.505196
1435362295.195,-14.361038
1435362295.21,-15.458939
1435362295.226,-15.917267
1435362295.242,-15.896553
1435362295.257,-15.614403
1435362295.273,-15.312134
1435362295.288,-15.215332
1435362295.304,-15.4459
1435362295.32,-16.012589
1435362295.335,-16.768303
1435362295.351,-17.521088
1435362295.367,-18.078362
1435362295.382,-18.26538
1435362295.398,-17.999985
1435362295.413,-17.278381
1435362295.429,-16.15657
1435362295.445,-14.732624
1435362295.46,-13.111603
1435362295.476,-11.382103
1435362295.492,-9.611912
1435362295.507,-7.88496
1435362295.523,-6.272541
1435362295.538,-4.8444366
1435362295.554,-3.5937843
1435362295.57,-2.3677444
1435362295.585,-0.9006157
1435362295.601,1.0299301
1435362295.617,3.525776
1435362295.632,6.407486
1435362295.648,9.290901
1435362295.663,11.75016
1435362295.679,13.543362
1435362295.695,14.686522
1435362295.71,15.508249
1435362295.726,16.46372
1435362295.742,17.982075
1435362295.757,20.346464
1435362295.773,23.54811
1435362295.788,27.240492
1435362295.804,30.774248
1435362295.82,33.302086
1435362295.835,34.015488
1435362295.851,32.426167
1435362295.867,28.583706
1435362295.882,23.047379
1435362295.898,16.744175
1435362295.914,10.573468
1435362295.929,5.176032
1435362295.945,0.83043444
1435362295.96,-2.4921756
1435362295.976,-4.9645677
1435362295.992,-6.762873
1435362296.007,-8.049691
1435362296.023,-8.9628
1435362296.039,-9.667929
1435362296.054,-10.320699
1435362296.07,-11.028906
1435362296.085,-11.801363
1435362296.101,-12.578208
1435362296.117,-13.245804
1435362296.132,-13.6880245
1435362296.148,-13.838047
1435362296.164,-13.704599
1435362296.179,-13.343409
1435362296.195,-12.850517
1435362296.21,-12.313276
1435362296.226,-11.782488
1435362296.242,-11.218889
1435362296.257,-10.567881
1435362296.273,-9.750515
1435362296.289,-8.7223625
1435362296.304,-7.464409
1435362296.32,-5.9282417
1435362296.335,-4.0711136
1435362296.351,-1.9020729
1435362296.367,0.4729538
1435362296.382,2.8415833
1435362296.398,4.9202003
1435362296.414,6.514389
1435362296.429,7.59988
1435362296.445,8.348202
1435362296.46,9.07645
1435362296.476,10.103924
1435362296.492,11.667442
1435362296.507,13.906845
1435362296.523,16.855335
1435362296.539,20.408314
1435362296.554,24.25959
1435362296.57,27.909794
1435362296.585,30.677757
1435362296.601,31.867538
1435362296.617,31.023323
1435362296.632,28.054924
1435362296.648,23.329575
1435362296.664,17.542717
1435362296.679,11.529274
1435362296.695,6.0660706
1435362296.71,1.6498337
1435362296.726,-1.5720978
1435362296.742,-3.822609
1435362296.757,-5.524719
1435362296.773,-7.1496735
1435362296.789,-8.982346
1435362296.804,-11.022774
1435362296.82,-13.044998
1435362296.835,-14.74366
1435362296.851,-15.909561
1435362296.867,-16.506454
1435362296.882,-16.595863
1435362296.898,-16.248276
1435362296.914,-15.51857
1435362296.929,-14.4880295
1435362296.945,-13.320648
1435362296.96,-12.308914
1435362296.976,-11.767807
1435362296.992,-11.840294
1435362297.007,-12.401596
1435362297.023,-13.060593
1435362297.039,-13.333374
1435362297.054,-12.86335
1435362297.07,-11.476776
1435362297.085,-9.258995
1435362297.101,-6.4904175
1435362297.117,-3.5488129
1435362297.132,-0.8377609
1435362297.148,1.3352203
1435362297.164,2.8333588
1435362297.179,3.7911987
1435362297.195,4.507553
1435362297.21,5.378273
1435362297.226,6.673851
1435362297.242,8.429024
1435362297.257,10.55555
1435362297.273,12.904694
1435362297.289,15.388458
1435362297.304,18.002617
1435362297.32,20.766388
1435362297.335,23.638016
1435362297.351,26.5197
1435362297.367,29.299988
1435362297.382,31.83841
1435362297.398,34.00235
1435362297.414,35.53737
1435362297.429,36.076416
1435362297.445,35.21263
1435362297.46,32.717804
1435362297.476,28.650604
1435362297.492,23.448898
1435362297.507,17.769455
1435362297.523,12.235352
1435362297.539,7.2543793
1435362297.554,2.9459686
1435362297.57,-0.7776489
1435362297.585,-4.060562
1435362297.601,-6.96933
1435362297.617,-9.493027
1435362297.632,-11.5186
1435362297.648,-12.953522
1435362297.664,-13.805237
1435362297.679,-14.189438
1435362297.695,-14.326843
1435362297.71,-14.465607
1435362297.726,-14.818466
1435362297.742,-15.454224
1435362297.757,-16.324265
1435362297.773,-17.247604
1435362297.789,-18.007858
1435362297.804,-18.40892
1435362297.82,-18.251724
1435362297.835,-17.469513
1435362297.851,-16.097717
1435362297.867,-14.310104
1435362297.882,-12.3647
1435362297.898,-10.544525
1435362297.914,-9.032684
1435362297.929,-7.854477
1435362297.945,-6.9496155
1435362297.96,-6.1416016
1435362297.976,-5.3001404
1435362297.992,-4.2963257
1435362298.007,-2.9884796
1435362298.023,-1.2593384
1435362298.039,0.94303894
1435362298.054,3.5441132
1435362298.07,6.3190613
1435362298.085,8.925781
1435362298.101,11.070892
1435362298.117,12.651749
1435362298.132,13.741165
1435362298.148,14.631668
1435362298.164,15.61734
1435362298.179,16.940536
1435362298.195,18.758316
1435362298.21,21.141968
1435362298.226,24.073975
1435362298.242,27.476791
1435362298.257,31.155014
1435362298.273,34.769577
1435362298.289,37.85756
1435362298.304,39.911316
1435362298.32,40.41844
1435362298.335,39.04532
1435362298.351,35.710052
1435362298.367,30.67868
1435362298.382,24.580292
1435362298.398,18.228851
1435362298.414,12.333908
1435362298.429,7.31192
1435362298.445,3.1791992
1435362298.46,-0.3440094
1435362298.476,-3.572876
1435362298.492,-6.6536713
1435362298.507,-9.542725
1435362298.523,-12.061066
1435362298.539,-14.078247
1435362298.554,-15.61731
1435362298.57,-16.75589
1435362298.586,-17.6185
1435362298.601,-18.280426
1435362298.617,-18.765106
1435362298.632,-19.113953
1435362298.648,-19.3974
1435362298.664,-19.665878
1435362298.679,-19.896652
1435362298.695,-20.006088
1435362298.71,-19.847244
1435362298.726,-19.35234
1435362298.742,-18.513504
1435362298.757,-17.34645
1435362298.773,-15.843628
1435362298.789,-13.990845
1435362298.804,-11.827576
1435362298.82,-9.481903
1435362298.836,-7.2062683
1435362298.851,-5.239853
1435362298.867,-3.7348938
1435362298.882,-2.6853333
1435362298.898,-1.9334869
1435362298.914,-1.2879639
1435362298.929,-0.5684204
1435362298.945,0.36671448
1435362298.961,1.6557007
1435362298.976,3.3754425
1435362298.992,5.5336
1435362299.007,7.9804993
1435362299.023,10.424698
1435362299.039,12.543335
1435362299.054,14.137344
1435362299.07,15.253189
1435362299.086,16.197037
1435362299.101,17.392105
1435362299.117,19.2137
1435362299.132,21.902832
1435362299.148,25.452057
1435362299.164,29.609573
1435362299.179,33.8703
1435362299.195,37.511963
1435362299.211,39.69084
1435362299.226,39.66089
1435362299.242,37.046494
1435362299.257,31.968475
1435362299.273,25.132736
1435362299.289,17.57927
1435362299.304,10.374008
1435362299.32,4.3352356
1435362299.336,-0.17098999
1435362299.351,-3.272049
1435362299.367,-5.426178
1435362299.382,-7.198456
1435362299.398,-9.0733185
1435362299.414,-11.29332
1435362299.429,-13.793182
1435362299.445,-16.347504
1435362299.461,-18.626968
1435362299.476,-20.399643
1435362299.492,-21.551834
1435362299.507,-22.085678
1435362299.523,-22.062134
1435362299.539,-21.592682
1435362299.554,-20.824585
1435362299.57,-19.952011
1435362299.586,-19.211868
1435362299.601,-18.79451
1435362299.617,-18.758652
1435362299.632,-18.998367
1435362299.648,-19.281319
1435362299.664,-19.365395
1435362299.679,-19.079895
1435362299.695,-18.327026
1435362299.711,-17.058884
1435362299.726,-15.286491
1435362299.742,-13.059883
1435362299.757,-10.553696
1435362299.773,-8.041916
1435362299.789,-5.8231735
1435362299.804,-4.091484
1435362299.82,-2.8428268
1435362299.836,-1.8436584
1435362299.851,-0.7714386
1435362299.867,0.6155548
1435362299.882,2.4271393
1435362299.898,4.6101
1435362299.914,7.0032043
1435362299.929,9.450607
1435362299.945,11.836075
1435362299.961,14.110481
1435362299.976,16.284714
1435362299.992,18.46701
1435362300.007,20.81215
1435362300.023,23.480225
1435362300.039,26.495491
1435362300.054,29.666054
1435362300.07,32.541954
1435362300.086,34.49549
1435362300.101,34.869995
1435362300.117,33.227264
1435362300.132,29.49115
1435362300.148,24.005272
1435362300.164,17.427185
1435362300.179,10.585953
1435362300.195,4.2020416
1435362300.211,-1.2424927
1435362300.226,-5.6124268
1435362300.242,-8.997032
1435362300.257,-11.589462
1435362300.273,-13.54068
1435362300.289,-14.942444
1435362300.304,-15.845177
1435362300.32,-16.351227
1435362300.336,-16.6596
1435362300.351,-17.015762
1435362300.367,-17.600906
1435362300.382,-18.480919
1435362300.398,-19.559258
1435362300.414,-20.653122
1435362300.429,-21.572891
1435362300.445,-22.179474
1435362300.461,-22.403267
1435362300.476,-22.240105
1435362300.492,-21.743088
1435362300.507,-20.976448
1435362300.523,-19.981728
1435362300.539,-18.788277
1435362300.554,-17.361763
1435362300.57,-15.710289
1435362300.586,-13.869713
1435362300.601,-11.968674
1435362300.617,-10.125542
1435362300.632,-8.391777
1435362300.648,-6.687134
1435362300.664,-4.875862
1435362300.679,-2.8348312
1435362300.695,-0.55537415
1435362300.711,1.8257599
1435362300.726,4.1305237
1435362300.742,6.237381
1435362300.757,8.109268
1435362300.773,9.813652
1435362300.789,11.421005
1435362300.804,13.041626
1435362300.82,14.862625
1435362300.836,17.172737
1435362300.851,20.254356
1435362300.867,24.228882
1435362300.882,28.857925
1435362300.898,33.44448
1435362300.914,37.026123
1435362300.929,38.67881
1435362300.945,37.82424
1435362300.961,34.446976
1435362300.976,29.027191
1435362300.992,22.39724
1435362301.007,15.48111
1435362301.023,9.087769
1435362301.039,3.725525
1435362301.054,-0.4337387
1435362301.07,-3.5498123
1435362301.086,-5.9993057
1435362301.101,-8.186142
1435362301.117,-10.362656
1435362301.132,-12.568077
1435362301.148,-14.647598
1435362301.164,-16.41333
1435362301.179,-17.745277
1435362301.195,-18.600342
1435362301.211,-19.03453
1435362301.226,-19.180809
1435362301.242,-19.181458
1435362301.258,-19.20205
1435362301.273,-19.384895
1435362301.289,-19.817764
1435362301.304,-20.457962
1435362301.32,-21.15789
1435362301.336,-21.681976
1435362301.351,-21.819717
1435362301.367,-21.44439
1435362301.382,-20.462852
1435362301.398,-18.825996
1435362301.414,-16.559288
1435362301.429,-13.774246
1435362301.445,-10.722939
1435362301.461,-7.804695
1435362301.476,-5.385933
1435362301.492,-3.6678772
1435362301.508,-2.5613785
1435362301.523,-1.6891327
1435362301.539,-0.5967941
1435362301.554,1.0334473
1435362301.57,3.2971497
1435362301.586,6.018486
1435362301.601,8.830284
1435362301.617,11.40258
1435362301.633,13.516342
1435362301.648,15.157379
1435362301.664,16.522629
1435362301.679,17.95745
1435362301.695,19.824776
1435362301.711,22.425224
1435362301.726,25.817734
1435362301.742,29.799423
1435362301.758,33.869804
1435362301.773,37.343636
1435362301.789,39.457672
1435362301.804,39.59163
1435362301.82,37.426796
1435362301.836,33.064964
1435362301.851,27.052696
1435362301.867,20.218086
1435362301.883,13.42115
1435362301.898,7.3290176
1435362301.914,2.239914
1435362301.929,-1.8873749
1435362301.945,-5.2735596
1435362301.961,-8.126419
1435362301.976,-10.520866
1435362301.992,-12.402946
1435362302.008,-13.705582
1435362302.023,-14.474762
1435362302.039,-14.894367
1435362302.054,-15.249931
1435362302.07,-15.815952
1435362302.086,-16.714493
1435362302.101,-17.912754
1435362302.117,-19.213566
1435362302.133,-20.319897
1435362302.148,-20.98433
1435362302.164,-21.107021
1435362302.179,-20.774849
1435362302.195,-20.22379
1435362302.211,-19.719563
1435362302.226,-19.4222
1435362302.242,-19.264565
1435362302.258,-19.038628
1435362302.273,-18.464504
1435362302.289,-17.345715
1435362302.304,-15.638313
1435362302.32,-13.451145
1435362302.336,-10.9712715
1435362302.351,-8.408253
1435362302.367,-5.937271
1435362302.383,-3.6625748
1435362302.398,-1.6187172
1435362302.414,0.20934677
1435362302.429,1.9085846
1435362302.445,3.5251312
1435362302.461,5.09787
1435362302.476,6.6091805
1435362302.492,8.060394
1435362302.508,9.546627
1435362302.523,11.2472725
1435362302.539,13.37373
1435362302.554,16.081207
1435362302.57,19.395859
1435362302.586,23.193314
1435362302.601,27.271465
1435362302.617,31.370674
1435362302.633,35.13818
1435362302.648,38.132084
1435362302.664,39.76847
1435362302.679,39.516
1435362302.695,37.08263
1435362302.711,32.58692
1435362302.726,26.565987
1435362302.742,19.817867
1435362302.758,13.151169
1435362302.773,7.1307755
1435362302.789,1.9958572
1435362302.804,-2.2848854
1435362302.82,-5.9083366
1435362302.836,-9.081551
1435362302.851,-11.943211
1435362302.867,-14.525339
1435362302.883,-16.737097
1435362302.898,-18.402588
1435362302.914,-19.420008
1435362302.929,-19.831024
1435362302.945,-19.889723
1435362302.961,-19.998522
1435362302.976,-20.521082
1435362302.992,-21.55214
1435362303.008,-22.9471
1435362303.023,-24.33733
1435362303.039,-25.35482
1435362303.054,-25.76564
1435362303.07,-25.495264
1435362303.086,-24.577848
1435362303.101,-23.100412
1435362303.117,-21.176119
1435362303.133,-18.951254
1435362303.148,-16.641626
1435362303.164,-14.495569
1435362303.179,-12.688715
1435362303.195,-11.314104
1435362303.211,-10.3264065
1435362303.226,-9.594616
1435362303.242,-8.945299
1435362303.258,-8.158857
1435362303.273,-7.0000057
1435362303.289,-5.312376
1435362303.304,-3.083603
1435362303.32,-0.48401642
1435362303.336,2.1533432
1435362303.351,4.4821186
1435362303.367,6.3220434
1435362303.383,7.702175
1435362303.398,8.84244
1435362303.414,9.991069
1435362303.429,11.335754
1435362303.445,13.030925
1435362303.461,15.216268
1435362303.476,18.03865
1435362303.492,21.591291
1435362303.508,25.803568
1435362303.523,30.293179
1435362303.539,34.427513
1435362303.554,37.456684
1435362303.57,38.674362
1435362303.586,37.653015
1435362303.601,34.323914
1435362303.617,29.01805
1435362303.633,22.451427
1435362303.648,15.544322
1435362303.664,9.160841
1435362303.679,3.8795185
1435362303.695,-0.19478893
1435362303.711,-3.361782
1435362303.726,-6.1111307
1435362303.742,-8.797785
1435362303.758,-11.459777
1435362303.773,-13.847677
1435362303.789,-15.65586
1435362303.804,-16.767786
1435362303.82,-17.325058
1435362303.836,-17.643196
1435362303.851,-18.028313
1435362303.867,-18.598787
1435362303.883,-19.254385
1435362303.898,-19.814491
1435362303.914,-20.146694
1435362303.929,-20.252369
1435362303.945,-20.301352
1435362303.961,-20.447866
1435362303.976,-20.765932
1435362303.992,-21.119417
1435362304.008,-21.191647
1435362304.023,-20.634367
1435362304.039,-19.24393
1435362304.054,-17.08445
1435362304.07,-14.505682
1435362304.086,-11.995166
1435362304.101,-9.931698
1435362304.117,-8.427412
1435362304.133,-7.3293495
1435362304.148,-6.254969
1435362304.164,-4.8788643
1435362304.18,-3.012515
1435362304.195,-0.65224075
1435362304.211,2.0540104
1435362304.226,4.8479557
1435362304.242,7.498878
1435362304.258,9.834002
1435362304.273,11.830753
1435362304.289,13.622694
1435362304.305,15.510993
1435362304.32,17.822369
1435362304.336,20.809162
1435362304.351,24.46057
1435362304.367,28.450485
1435362304.383,32.199932
1435362304.398,34.98502
1435362304.414,36.095825
1435362304.43,35.01832
1435362304.445,31.566824
1435362304.461,25.957901
1435362304.476,18.819944
1435362304.492,11.065152
1435362304.508,3.6622286
1435362304.523,-2.6134062
1435362304.539,-7.3718557
1435362304.555,-10.639997
1435362304.57,-12.703657
1435362304.586,-13.937309
1435362304.601,-14.646441
1435362304.617,-15.028979
1435362304.633,-15.24189
1435362304.648,-15.409099
1435362304.664,-15.668694
1435362304.68,-16.104216
1435362304.695,-16.717316
1435362304.711,-17.413961
1435362304.726,-18.099972
1435362304.742,-18.675892
1435362304.758,-19.069885
1435362304.773,-19.213528
1435362304.789,-19.058823
1435362304.805,-18.548695
1435362304.82,-17.68864
1435362304.836,-16.51995
1435362304.851,-15.160675
1435362304.867,-13.710364
1435362304.883,-12.247763
1435362304.898,-10.791411
1435362304.914,-9.314644
1435362304.93,-7.753483
1435362304.945,-6.0181723
1435362304.961,-4.021558
1435362304.976,-1.7419319
1435362304.992,0.76173115
1435362305.008,3.3459797
1435362305.023,5.830618
1435362305.039,8.060024
1435362305.055,10.008701
1435362305.07,11.733398
1435362305.086,13.420317
1435362305.101,15.244776
1435362305.117,17.407478
1435362305.133,20.087036
1435362305.148,23.33592
1435362305.164,26.998615
1435362305.18,30.577732
1435362305.195,33.30253
1435362305.211,34.253887
1435362305.226,32.754604
1435362305.242,28.639336
1435362305.258,22.357138
1435362305.273,14.851707
1435362305.289,7.184395
1435362305.305,0.259367
1435362305.32,-5.3813477
1435362305.336,-9.545086
1435362305.351,-12.329199
1435362305.367,-13.963345
1435362305.383,-14.753717
1435362305.398,-15.047567
1435362305.414,-15.160311
1435362305.43,-15.323002
1435362305.445,-15.675304
1435362305.461,-16.228931
1435362305.476,-16.936935
1435362305.492,-17.723385
1435362305.508,-18.433744
1435362305.523,-18.882042
1435362305.539,-18.90346
1435362305.555,-18.402674
1435362305.57,-17.457653
1435362305.586,-16.303272
1435362305.601,-15.256859
1435362305.617,-14.512196
1435362305.633,-14.060066
1435362305.648,-13.63191
1435362305.664,-12.853924
1435362305.68,-11.403835
1435362305.695,-9.104931
1435362305.711,-6.0358315
1435362305.726,-2.4627647
1435362305.742,1.2416
1435362305.758,4.695713
1435362305.773,7.613577
1435362305.789,9.859179
1435362305.805,11.509775
1435362305.82,12.812914
1435362305.836,14.1707
1435362305.851,15.946966
1435362305.867,18.385548
1435362305.883,21.497349
1435362305.898,25.030994
1435362305.914,28.425714
1435362305.93,30.956553
1435362305.945,31.855494
1435362305.961,30.550896
1435362305.976,26.89895
1435362305.992,21.288898
1435362306.008,14.560364
1435362306.023,7.7473297
1435362306.039,1.7252502
1435362306.055,-3.0280266
1435362306.07,-6.4732018
1435362306.086,-8.87833
1435362306.101,-10.636375
1435362306.117,-12.054209
1435362306.133,-13.306377
1435362306.148,-14.472967
1435362306.164,-15.569544
1435362306.18,-16.597952
1435362306.195,-17.582922
1435362306.211,-18.512142
1435362306.226,-19.356071
1435362306.242,-20.053598
1435362306.258,-20.497833
1435362306.273,-20.58287
1435362306.289,-20.254133
1435362306.305,-19.556576
1435362306.32,-18.63015
1435362306.336,-17.657251
1435362306.351,-16.7588
1435362306.367,-15.937201
1435362306.383,-15.099873
1435362306.398,-14.111555
1435362306.414,-12.910717
1435362306.43,-11.5222
1435362306.445,-10.005373
1435362306.461,-8.388189
1435362306.476,-6.6518316
1435362306.492,-4.7172184
1435362306.508,-2.530943
1435362306.523,-0.14245701
1435362306.539,2.335719
1435362306.555,4.7763147
1435362306.57,7.086483
1435362306.586,9.247376
1435362306.601,11.337192
1435362306.617,13.527515
1435362306.633,16.09462
1435362306.648,19.31128
1435362306.664,23.27993
1435362306.68,27.758623
1435362306.695,32.086884
1435362306.711,35.314888
1435362306.726,36.502926
1435362306.742,35.0941
1435362306.758,31.094822
1435362306.773,25.101454
1435362306.789,18.062382
1435362306.805,10.992498
1435362306.82,4.720237
1435362306.836,-0.2894392
1435362306.852,-3.9890833
1435362306.867,-6.666623
1435362306.883,-8.788605
1435362306.898,-10.831028
1435362306.914,-13.067812
1435362306.93,-15.476875
1435362306.945,-17.838457
1435362306.961,-19.846395
1435362306.977,-21.334366
1435362306.992,-22.311167
1435362307.008,-22.876507
1435362307.023,-23.102444
1435362307.039,-23.009113
1435362307.055,-22.573128
1435362307.07,-21.832157
1435362307.086,-20.962952
1435362307.102,-20.225409
1435362307.117,-19.803877
1435362307.133,-19.741068
1435362307.148,-19.887299
1435362307.164,-20.017319
1435362307.18,-19.87701
1435362307.195,-19.271574
1435362307.211,-18.037687
1435362307.227,-16.15898
1435362307.242,-13.740173
1435362307.258,-11.068971
1435362307.273,-8.534916
1435362307.289,-6.528756
1435362307.305,-5.228586
1435362307.32,-4.5453386
1435362307.336,-4.148341
1435362307.352,-3.6205168
1435362307.367,-2.6459217
1435362307.383,-1.008358
1435362307.398,1.3411789
1435362307.414,4.3100243
1435362307.43,7.6848373
1435362307.445,11.107996
1435362307.461,14.152233
1435362307.477,16.446045
1435362307.492,17.867859
1435362307.508,18.656435
1435362307.523,19.375145
1435362307.539,20.705114
1435362307.555,23.150038
1435362307.57,26.873499
1435362307.586,31.5379
1435362307.602,36.35862
1435362307.617,40.281822
1435362307.633,42.24452
1435362307.648,41.456837
1435362307.664,37.678425
1435362307.68,31.31152
1435362307.695,23.305305
1435362307.711,14.886028
1435362307.727,7.174221
1435362307.742,0.87586594
1435362307.758,-3.7882805
1435362307.773,-7.016819
1435362307.789,-9.222847
1435362307.805,-10.85511
1435362307.82,-12.2647705
1435362307.836,-13.642715
1435362307.852,-15.06337
1435362307.867,-16.486221
1435362307.883,-17.81918
1435362307.898,-18.952488
1435362307.914,-19.831108
1435362307.93,-20.422493
1435362307.945,-20.712357
1435362307.961,-20.701931
1435362307.977,-20.431465
1435362307.992,-20.006104
1435362308.008,-19.614773
1435362308.023,-19.437798
1435362308.039,-19.563362
1435362308.055,-19.87962
1435362308.07,-20.136646
1435362308.086,-19.996056
1435362308.102,-19.262825
1435362308.117,-17.929356
1435362308.133,-16.180733
1435362308.148,-14.2682495
1435362308.164,-12.38496
1435362308.18,-10.587276
1435362308.195,-8.823563
1435362308.211,-7.0041122
1435362308.227,-5.0942726
1435362308.242,-3.1438751
1435362308.258,-1.2836609
1435362308.273,0.33836365
1435362308.289,1.6545715
1435362308.305,2.728897
1435362308.32,3.7740936
1435362308.336,5.058037
1435362308.352,6.759392
1435362308.367,8.843925
1435362308.383,11.077591
1435362308.398,13.11718
1435362308.414,14.720894
1435362308.43,15.908279
1435362308.445,16.953888
1435362308.461,18.281395
1435362308.477,20.282967
1435362308.492,23.156952
1435362308.508,26.857605
1435362308.523,31.040703
1435362308.539,35.088898
1435362308.555,38.199753
1435362308.57,39.513992
1435362308.586,38.37406
1435362308.602,34.543564
1435362308.617,28.40274
1435362308.633,20.803734
1435362308.648,12.873894
1435362308.664,5.616539
1435362308.68,-0.30757904
1435362308.695,-4.668686
1435362308.711,-7.5862274
1435362308.727,-9.387138
1435362308.742,-10.4442215
1435362308.758,-11.07309
1435362308.773,-11.504234
1435362308.789,-11.888466
1435362308.805,-12.31237
1435362308.82,-12.856873
1435362308.836,-13.64563
1435362308.852,-14.783707
1435362308.867,-16.284172
1435362308.883,-17.935143
1435362308.898,-19.353363
1435362308.914,-20.150032
1435362308.93,-20.154167
1435362308.945,-19.518356
1435362308.961,-18.669678
1435362308.977,-18.042595
1435362308.992,-17.793236
1435362309.008,-17.732414
1435362309.023,-17.447914
1435362309.039,-16.548111
1435362309.055,-14.896309
1435362309.07,-12.62072
1435362309.086,-10.015472
1435362309.102,-7.4263306
1435362309.117,-5.135521
1435362309.133,-3.354576
1435362309.148,-2.173256
1435362309.164,-1.5707397
1435362309.18,-1.328186
1435362309.195,-1.1145096
1435362309.211,-0.5971832
1435362309.227,0.43641663
1435362309.242,1.9723358
1435362309.258,3.8861465
1435362309.273,6.0466003
1435362309.289,8.397011
1435362309.305,10.938477
1435362309.32,13.687805
1435362309.336,16.577179
1435362309.352,19.498154
1435362309.367,22.429321
1435362309.383,25.365509
1435362309.398,28.304153
1435362309.414,31.020905
1435362309.43,33.04872
1435362309.445,33.784668
1435362309.461,32.757294
1435362309.477,29.834778
1435362309.492,25.333328
1435362309.508,19.914307
1435362309.524,14.288574
1435362309.539,9.013443
1435362309.555,4.4267273
1435362309.57,0.649704
1435362309.586,-2.3098145
1435362309.602,-4.4930725
1435362309.617,-5.9753723
1435362309.633,-6.8382416
1435362309.648,-7.198822
1435362309.664,-7.2166595
1435362309.68,-7.076538
1435362309.695,-6.9759064
1435362309.711,-7.11055
1435362309.727,-7.596222
1435362309.742,-8.415756
1435362309.758,-9.433685
1435362309.774,-10.426498
1435362309.789,-11.200714
1435362309.805,-11.67897
1435362309.82,-11.818573
1435362309.836,-11.605972
1435362309.852,-11.005966
1435362309.867,-9.942612
1435362309.883,-8.423386
1435362309.899,-6.5642242
1435362309.914,-4.624069
1435362309.93,-2.88591
1435362309.945,-1.5762177
1435362309.961,-0.71676636
1435362309.977,-0.14677429
1435362309.992,0.41897583
1435362310.008,1.3319397
1435362310.024,2.8632813
1435362310.039,5.0730743
1435362310.055,7.7919464
1435362310.07,10.675415
1435362310.086,13.295761
1435362310.102,15.341019
1435362310.117,16.747513
1435362310.133,17.723465
1435362310.149,18.679886
1435362310.164,20.023102
1435362310.18,22.036331
1435362310.195,24.726883
1435362310.211,27.809372
1435362310.227,30.69577
1435362310.242,32.64467
1435362310.258,32.930862
1435362310.274,31.06009
1435362310.289,26.99585
1435362310.305,21.231766
1435362310.32,14.631256
1435362310.336,8.182785
1435362310.352,2.650299
1435362310.367,-1.5929108
1435362310.383,-4.552246
1435362310.399,-6.4774017
1435362310.414,-7.671234
1435362310.43,-8.377747
1435362310.445,-8.790695
1435362310.461,-9.071274
1435362310.477,-9.406158
1435362310.492,-9.924744
1435362310.508,-10.71106
1435362310.524,-11.720612
1435362310.539,-12.821243
1435362310.555,-13.837112
1435362310.57,-14.536026
1435362310.586,-14.74086
1435362310.602,-14.391571
1435362310.617,-13.596893
1435362310.633,-12.617737
1435362310.649,-11.774567
1435362310.664,-11.289993
1435362310.68,-11.152893
1435362310.695,-11.1323395
1435362310.711,-10.880554
1435362310.727,-10.146225
1435362310.742,-8.8658905
1435362310.758,-7.14769
1435362310.774,-5.1667175
1435362310.789,-3.065506
1435362310.805,-0.88301086
1435362310.82,1.3909149
1435362310.836,3.7339172
1435362310.852,6.0990295
1435362310.867,8.3927
1435362310.883,10.53566
1435362310.899,12.46563
1435362310.914,14.162621
1435362310.93,15.652931
1435362310.945,17.079819
1435362310.961,18.71772
1435362310.977,20.879974
1435362310.992,23.781036
1435362311.008,27.358604
1435362311.024,31.16793
1435362311.039,34.459686
1435362311.055,36.433105
1435362311.07,36.460793
1435362311.086,34.310875
1435362311.102,30.168335
1435362311.117,24.575165
1435362311.133,18.285172
1435362311.149,12.069023
1435362311.164,6.525917
1435362311.18,1.958252
1435362311.195,-1.6439056
1435362311.211,-4.5516434
1435362311.227,-7.1134567
1435362311.242,-9.5456085
1435362311.258,-11.862259
1435362311.274,-13.90406
1435362311.289,-15.493454
1435362311.305,-16.572365
1435362311.32,-17.210495
1435362311.336,-17.569405
1435362311.352,-17.817131
1435362311.367,-18.035637
1435362311.383,-18.255547
1435362311.399,-18.49279
1435362311.414,-18.783432
1435362311.43,-19.147263
1435362311.445,-19.567741
1435362311.461,-19.948433
1435362311.477,-20.132309
1435362311.492,-19.941574
1435362311.508,-19.207718
1435362311.524,-17.827179
1435362311.539,-15.826172
1435362311.555,-13.365486
1435362311.57,-10.734085
1435362311.586,-8.293854
1435362311.602,-6.3546906
1435362311.617,-5.059021
1435362311.633,-4.325859
1435362311.649,-3.835678
1435362311.664,-3.191101
1435362311.68,-2.036377
1435362311.695,-0.1604538
1435362311.711,2.4319382
1435362311.727,5.517914
1435362311.742,8.749443
1435362311.758,11.768021
1435362311.774,14.306946
1435362311.789,16.34227
1435362311.805,18.076889
1435362311.82,19.868385
1435362311.836,22.06871
1435362311.852,24.834362
1435362311.867,28.039341
1435362311.883,31.317898
1435362311.899,34.097656
1435362311.914,35.744484
1435362311.93,35.678856
1435362311.945,33.54173
1435362311.961,29.269966
1435362311.977,23.173546
1435362311.992,15.929153
1435362312.008,8.385391
1435362312.024,1.3824959
1435362312.039,-4.4882507
1435362312.055,-9.011448
1435362312.07,-12.227917
1435362312.086,-14.372757
1435362312.102,-15.689121
1435362312.117,-16.424885
1435362312.133,-16.800087
1435362312.149,-17.085327
1435362312.164,-17.5439
1435362312.18,-18.404984
1435362312.196,-19.748726
1435362312.211,-21.455841
1435362312.227,-23.256962
1435362312.242,-24.79681
1435362312.258,-25.733414
1435362312.274,-25.861126
1435362312.289,-25.157146
1435362312.305,-23.83872
1435362312.32,-22.232336
1435362312.336,-20.740171
1435362312.352,-19.61162
1435362312.367,-18.927
1435362312.383,-18.537336
1435362312.399,-18.203188
1435362312.414,-17.658577
1435362312.43,-16.755716
1435362312.446,-15.433186
1435362312.461,-13.738979
1435362312.477,-11.762402
1435362312.492,-9.644896
1435362312.508,-7.53627
1435362312.524,-5.564287
1435362312.539,-3.7524357
1435362312.555,-2.0194416
1435362312.571,-0.19078255
1435362312.586,1.9084072
1435362312.602,4.3450413
1435362312.617,7.052412
1435362312.633,9.885914
1435362312.649,12.686504
1435362312.664,15.368487
1435362312.68,17.92316
1435362312.696,20.423714
1435362312.711,22.963013
1435362312.727,25.681118
1435362312.742,28.688892
1435362312.758,32.028442
1435362312.774,35.542637
1435362312.789,38.79609
1435362312.805,41.103584
1435362312.821,41.77768
1435362312.836,40.338474
1435362312.852,36.738533
1435362312.867,31.357437
1435362312.883,24.864565
1435362312.899,17.95775
1435362312.914,11.23476
1435362312.93,5.0525904
1435362312.946,-0.39613566
1435362312.961,-5.057356
1435362312.977,-8.906464
1435362312.992,-11.98377
1435362313.008,-14.327873
1435362313.024,-16.002382
1435362313.039,-17.094532
1435362313.055,-17.724426
1435362313.071,-18.039295
1435362313.086,-18.213411
1435362313.102,-18.417423
1435362313.117,-18.771858
1435362313.133,-19.317017
1435362313.149,-20.019104
1435362313.164,-20.81112
1435362313.18,-21.61438
1435362313.196,-22.320332
1435362313.211,-22.843412
1435362313.227,-23.070957
1435362313.242,-22.944176
1435362313.258,-22.455467
1435362313.274,-21.674105
1435362313.289,-20.681755
1435362313.305,-19.548409
1435362313.321,-18.278328
1435362313.336,-16.819519
1435362313.352,-15.118872
1435362313.367,-13.162273
1435362313.383,-10.974281
1435362313.399,-8.633495
1435362313.414,-6.2266197
1435362313.43,-3.8365536
1435362313.446,-1.5168839
1435362313.461,0.6775055
1435362313.477,2.7232246
1435362313.492,4.6149864
1435362313.508,6.3809204
1435362313.524,8.0719185
1435362313.539,9.7788315
1435362313.555,11.584068
1435362313.571,13.616585
1435362313.586,15.9888115
1435362313.602,18.81121
1435362313.617,22.169548
1435362313.633,26.083225
1435362313.649,30.394638
1435362313.664,34.755062
1435362313.68,38.59027
1435362313.696,41.182713
1435362313.711,41.83218
1435362313.727,40.093967
1435362313.742,35.91176
1435362313.758,29.752502
1435362313.774,22.467281
1435362313.789,15.055244
1435362313.805,8.343407
1435362313.821,2.7991714
1435362313.836,-1.5613289
1435362313.852,-5.020878
1435362313.867,-7.9555283
1435362313.883,-10.631611
1435362313.899,-13.138866
1435362313.914,-15.41198
1435362313.93,-17.376232
1435362313.946,-19.007969
1435362313.961,-20.393597
1435362313.977,-21.621418
1435362313.992,-22.743523
1435362314.008,-23.688087
1435362314.024,-24.34542
1435362314.039,-24.627903
1435362314.055,-24.573006
1435362314.071,-24.325432
1435362314.086,-24.07138
1435362314.102,-23.923767
1435362314.117,-23.868233
1435362314.133,-23.729004
1435362314.149,-23.308914
1435362314.164,-22.44934
1435362314.18,-21.133705
1435362314.196,-19.445755
1435362314.211,-17.53646
1435362314.227,-15.54837
1435362314.242,-13.597656
1435362314.258,-11.7617035
1435362314.274,-10.114105
1435362314.289,-8.681595
1435362314.305,-7.444916
1435362314.321,-6.266037
1435362314.336,-4.921913
1435362314.352,-3.1907806
1435362314.367,-0.93820953
1435362314.383,1.7828064
1435362314.399,4.7315445
1435362314.414,7.5647964
1435362314.43,10.002495
1435362314.446,11.948044
1435362314.461,13.519417
1435362314.477,15.037605
1435362314.492,16.869408
1435362314.508,19.367096
1435362314.524,22.744377
1435362314.539,26.988922
1435362314.555,31.768456
1435362314.571,36.445923
1435362314.586,40.160942
1435362314.602,42.026886
1435362314.617,41.371002
1435362314.633,37.97689
1435362314.649,32.12294
1435362314.664,24.559402
1435362314.68,16.27568
1435362314.696,8.257118
1435362314.711,1.2420883
1435362314.727,-4.376213
1435362314.742,-8.599274
1435362314.758,-11.659714
1435362314.774,-13.909546
1435362314.789,-15.647736
1435362314.805,-17.071114
1435362314.821,-18.274185
1435362314.836,-19.32528
1435362314.852,-20.302498
1435362314.867,-21.308525
1435362314.883,-22.369652
1435362314.899,-23.446907
1435362314.914,-24.36892
1435362314.93,-24.999336
1435362314.946,-25.27031
1435362314.961,-25.284714
1435362314.977,-25.19062
1435362314.992,-25.109375
1435362315.008,-25.02684
1435362315.024,-24.819763
1435362315.039,-24.323036
1435362315.055,-23.452423
1435362315.071,-22.19989
1435362315.086,-20.609001
1435362315.102,-18.708786
1435362315.118,-16.53518
1435362315.133,-14.127777
1435362315.149,-11.612793
1435362315.164,-9.161705
1435362315.18,-6.9694595
1435362315.196,-5.152191
1435362315.211,-3.7178116
1435362315.227,-2.5201416
1435362315.243,-1.3598328
1435362315.258,0.01348114
1435362315.274,1.8029099
1435362315.289,4.0889435
1435362315.305,6.8129425
1435362315.321,9.795074
1435362315.336,12.770546
1435362315.352,15.523964
1435362315.368,17.966629
1435362315.383,20.209122
1435362315.399,22.488808
1435362315.414,25.100006
1435362315.43,28.239334
1435362315.446,31.967117
1435362315.461,36.088257
1435362315.477,40.164154
1435362315.493,43.52871
1435362315.508,45.395897
1435362315.524,45.01847
1435362315.539,41.97722
1435362315.555,36.34646
1435362315.571,28.774185
1435362315.586,20.291153
1435362315.602,12.011093
1435362315.618,4.771698
1435362315.633,-1.0126572
1435362315.649,-5.4121857
1435362315.664,-8.755638
1435362315.68,-11.438591
1435362315.696,-13.7445755
1435362315.711,-15.814003
1435362315.727,-17.65818
1435362315.743,-19.278343
1435362315.758,-20.6857
1435362315.774,-21.969307
1435362315.789,-23.193504
1435362315.805,-24.39415
1435362315.821,-25.442093
1435362315.836,-26.164703
1435362315.852,-26.377708
1435362315.868,-26.042496
1435362315.883,-25.329788
1435362315.899,-24.553955
1435362315.914,-24.033852
1435362315.93,-23.917099
1435362315.946,-24.102242
1435362315.961,-24.27864
1435362315.977,-24.082932
1435362315.993,-23.260506
1435362316.008,-21.709602
1435362316.024,-19.539024
1435362316.039,-16.96038
1435362316.055,-14.245743
1435362316.071,-11.634285
1435362316.086,-9.32222
1435362316.102,-7.391075
1435362316.118,-5.81472
1435362316.133,-4.4587784
1435362316.149,-3.106392
1435362316.164,-1.5614929
1435362316.18,0.32074738
1435362316.196,2.6092606
1435362316.211,5.271309
1435362316.227,8.180946
1435362316.243,11.149506
1435362316.258,13.984718
1435362316.274,16.507523
1435362316.289,18.743149
1435362316.305,20.898926
1435362316.321,23.355774
1435362316.336,26.493599
1435362316.352,30.453827
1435362316.368,34.974144
1435362316.383,39.38716
1435362316.399,42.761307
1435362316.414,44.16649
1435362316.43,42.984642
1435362316.446,39.111282
1435362316.461,32.965065
1435362316.477,25.37107
1435362316.493,17.34526
1435362316.508,9.804176
1435362316.524,3.326294
1435362316.539,-1.884346
1435362316.555,-5.9735107
1435362316.571,-9.188301
1435362316.586,-11.7178955
1435362316.602,-13.625465
1435362316.618,-14.926224
1435362316.633,-15.665123
1435362316.649,-16.078255
1435362316.664,-16.52362
1435362316.68,-17.345383
1435362316.696,-18.69947
1435362316.711,-20.48761
1435362316.727,-22.383179
1435362316.743,-24.016167
1435362316.758,-25.099236
1435362316.774,-25.522964
1435362316.789,-25.364517
1435362316.805,-24.806343
1435362316.821,-24.014252
1435362316.836,-23.093819
1435362316.852,-22.064827
1435362316.868,-20.889145
1435362316.883,-19.524506
1435362316.899,-17.946404
1435362316.914,-16.160728
1435362316.93,-14.227333
1435362316.946,-12.194
1435362316.961,-10.107574
1435362316.977,-8.0481415
1435362316.993,-6.121193
1435362317.008,-4.4148254
1435362317.024,-2.9919815
1435362317.039,-1.7909927
1435362317.055,-0.66114044
1435362317.071,0.6008072
1435362317.086,2.1532364
1435362317.102,4.041649
1435362317.118,6.1826935
1435362317.133,8.466705
1435362317.149,10.810997
1435362317.164,13.208313
1435362317.18,15.701889
1435362317.196,18.385773
1435362317.211,21.322014
1435362317.227,24.568611
1435362317.243,28.12777
1435362317.258,31.88282
1435362317.274,35.498657
1435362317.289,38.421303
1435362317.305,39.944786
1435362317.321,39.44622
1435362317.336,36.631195
1435362317.352,31.65828
1435362317.368,25.118965
1435362317.383,17.866524
1435362317.399,10.733452
1435362317.414,4.353073
1435362317.43,-0.9680023
1435362317.446,-5.2035675
1435362317.461,-8.52578
1435362317.477,-11.120781
1435362317.493,-13.14312
1435362317.508,-14.610397
1435362317.524,-15.524178
1435362317.539,-15.921875
1435362317.555,-15.988258
1435362317.571,-16.006012
1435362317.586,-16.282356
1435362317.602,-17.003448
1435362317.618,-18.141418
1435362317.633,-19.471855
1435362317.649,-20.67302
1435362317.664,-21.46798
1435362317.68,-21.743523
1435362317.696,-21.52005
1435362317.711,-20.941093
1435362317.727,-20.16983
1435362317.743,-19.367561
1435362317.758,-18.590942
1435362317.774,-17.820824
1435362317.79,-16.942604
1435362317.805,-15.822647
1435362317.821,-14.358559
1435362317.836,-12.580856
1435362317.852,-10.609299
1435362317.868,-8.643951
1435362317.883,-6.799919
1435362317.899,-5.099472
1435362317.915,-3.445755
1435362317.93,-1.738491
1435362317.946,0.06851959
1435362317.961,1.9150696
1435362317.977,3.7367249
1435362317.993,5.4920654
1435362318.008,7.2398834
1435362318.024,9.085033
1435362318.04,11.095917
1435362318.055,13.266197
1435362318.071,15.576046
1435362318.086,18.05994
1435362318.102,20.82576
1435362318.118,23.975376
1435362318.133,27.493706
1435362318.149,31.03857
1435362318.165,33.995758
1435362318.18,35.555206
1435362318.196,35.045406
1435362318.211,32.14819
1435362318.227,27.090324
1435362318.243,20.569977
1435362318.258,13.583168
1435362318.274,7.0846176
1435362318.29,1.7131882
1435362318.305,-2.3478508
1435362318.321,-5.31884
1435362318.336,-7.616295
1435362318.352,-9.57542
1435362318.368,-11.314636
1435362318.383,-12.751488
1435362318.399,-13.773449
1435362318.415,-14.386356
1435362318.43,-14.774181
1435362318.446,-15.167801
1435362318.461,-15.735352
1435362318.477,-16.436897
1435362318.493,-17.115002
1435362318.508,-17.582012
1435362318.524,-17.78455
1435362318.54,-17.8087
1435362318.555,-17.837677
1435362318.571,-17.99657
1435362318.586,-18.2841
1435362318.602,-18.550785
1435362318.618,-18.585766
1435362318.633,-18.150215
1435362318.649,-17.081081
1435362318.665,-15.330517
1435362318.68,-13.041946
1435362318.696,-10.504894
1435362318.711,-8.112389
1435362318.727,-6.1792946
1435362318.743,-4.8011703
1435362318.758,-3.7950897
1435362318.774,-2.808319
1435362318.79,-1.5011787
1435362318.805,0.27604294
1435362318.821,2.444458
1435362318.836,4.746338
1435362318.852,6.9408493
1435362318.868,8.884832
1435362318.883,10.635279
1435362318.899,12.345905
1435362318.915,14.252571
1435362318.93,16.54286
1435362318.946,19.336283
1435362318.961,22.593641
1435362318.977,26.070848
1435362318.993,29.317646
1435362319.008,31.712154
1435362319.024,32.62635
1435362319.04,31.586702
1435362319.055,28.47662
1435362319.071,23.57855
1435362319.086,17.549704
1435362319.102,11.217163
1435362319.118,5.345192
1435362319.133,0.4082222
1435362319.149,-3.457512
1435362319.165,-6.40469
1435362319.18,-8.690086
1435362319.196,-10.506365
1435362319.211,-11.926125
1435362319.227,-12.935807
1435362319.243,-13.579204
1435362319.258,-13.966195
1435362319.274,-14.290095
1435362319.29,-14.716442
1435362319.305,-15.319097
1435362319.321,-16.04562
1435362319.336,-16.8113
1435362319.352,-17.526424
1435362319.368,-18.136581
1435362319.383,-18.552341
1435362319.399,-18.6677
1435362319.415,-18.36823
1435362319.43,-17.647322
1435362319.446,-16.639225
1435362319.461,-15.601215
1435362319.477,-14.7815
1435362319.493,-14.291755
1435362319.508,-14.032094
1435362319.524,-13.778048
1435362319.54,-13.267674
1435362319.555,-12.351167
1435362319.571,-10.993355
1435362319.586,-9.272528
1435362319.602,-7.311058
1435362319.618,-5.2749977
1435362319.633,-3.3048573
1435362319.649,-1.5059237
1435362319.665,0.10075569
1435362319.68,1.6225033
1435362319.696,3.204547
1435362319.711,4.982479
1435362319.727,6.963456
1435362319.743,9.047076
1435362319.758,11.144744
1435362319.774,13.249573
1435362319.79,15.490948
1435362319.805,18.042208
1435362319.821,21.070578
1435362319.836,24.574743
1435362319.852,28.433922
1435362319.868,32.391426
1435362319.883,36.13559
1435362319.899,39.26058
1435362319.915,41.267563
1435362319.93,41.61785
1435362319.946,39.919563
1435362319.961,36.10206
1435362319.977,30.511026
1435362319.993,23.892624
1435362320.008,17.137426
1435362320.024,10.999168
1435362320.04,5.890127
1435362320.055,1.8528633
1435362320.071,-1.2984314
1435362320.086,-3.857954
1435362320.102,-6.0419426
1435362320.118,-7.999897
1435362320.133,-9.76273
1435362320.149,-11.345507
1435362320.165,-12.72979
1435362320.18,-13.952034
1435362320.196,-15.039917
1435362320.211,-16.047169
1435362320.227,-17.00025
1435362320.243,-17.908451
1435362320.258,-18.743652
1435362320.274,-19.440708
1435362320.29,-19.943237
1435362320.305,-20.222683
1435362320.321,-20.260994
1435362320.336,-20.052078
1435362320.352,-19.596176
1435362320.368,-18.924633
1435362320.383,-18.077904
1435362320.399,-17.116207
1435362320.415,-16.085133
1435362320.43,-15.010326
1435362320.446,-13.886982
1435362320.462,-12.689373
1435362320.477,-11.408241
1435362320.493,-10.067917
1435362320.508,-8.6437
1435362320.524,-7.1165466
1435362320.54,-5.432934
1435362320.555,-3.596241
1435362320.571,-1.6533661
1435362320.587,0.2976799
1435362320.602,2.1660461
1435362320.618,3.9554977
1435362320.633,5.753193
1435362320.649,7.686325
1435362320.665,9.832367
1435362320.68,12.1225815
1435362320.696,14.43541
1435362320.712,16.611523
1435362320.727,18.591518
1435362320.743,20.44675
1435362320.758,22.387646
1435362320.774,24.647816
1435362320.79,27.422665
1435362320.805,30.717361
1435362320.821,34.29204
1435362320.837,37.627502
1435362320.852,40.033524
1435362320.868,40.79859
1435362320.883,39.463627
1435362320.899,35.955135
1435362320.915,30.627064
1435362320.93,24.157421
1435362320.946,17.321041
1435362320.962,10.814682
1435362320.977,5.106907
1435362320.993,0.4290619
1435362321.008,-3.2140846
1435362321.024,-5.9766235
1435362321.04,-8.081848
1435362321.055,-9.772194
1435362321.071,-11.191479
1435362321.087,-12.409679
1435362321.102,-13.413654
1435362321.118,-14.197414
1435362321.133,-14.80764
1435362321.149,-15.3871
1435362321.165,-16.05584
1435362321.18,-16.894943
1435362321.196,-17.849876
1435362321.212,-18.812084
1435362321.227,-19.662357
1435362321.243,-20.322159
1435362321.258,-20.74041
1435362321.274,-20.853195
1435362321.29,-20.588493
1435362321.305,-19.8847
1435362321.321,-18.748806
1435362321.337,-17.30154
1435362321.352,-15.705261
1435362321.368,-14.174774
1435362321.383,-12.833847
1435362321.399,-11.722958
1435362321.415,-10.762634
1435362321.43,-9.844868
1435362321.446,-8.808514
1435362321.462,-7.5481987
1435362321.477,-6.0209656
1435362321.493,-4.255581
1435362321.508,-2.3441963
1435362321.524,-0.4018669
1435362321.54,1.4824181
1435362321.555,3.2803345
1435362321.571,5.03133
1435362321.587,6.78434
1435362321.602,8.5552635
1435362321.618,10.287987
1435362321.633,11.961155
1435362321.649,13.58094
1435362321.665,15.247864
1435362321.68,17.093956
1435362321.696,19.246841
1435362321.712,21.755894
1435362321.727,24.617542
1435362321.743,27.805416
1435362321.758,31.210224
1435362321.774,34.623234
1435362321.79,37.629063
1435362321.805,39.625618
1435362321.821,39.98695
1435362321.837,38.24187
1435362321.852,34.301723
1435362321.868,28.519775
1435362321.883,21.619324
1435362321.899,14.41021
1435362321.915,7.6428986
1435362321.93,1.7411346
1435362321.946,-3.1263962
1435362321.962,-7.021126
1435362321.977,-10.013435
1435362321.993,-12.16766
1435362322.008,-13.438702
1435362322.024,-13.824738
1435362322.04,-13.457947
1435362322.055,-12.660198
1435362322.071,-11.901215
1435362322.087,-11.635754
1435362322.102,-12.122627
1435362322.118,-13.330765
1435362322.133,-14.979328
1435362322.149,-16.6899
1435362322.165,-18.156975
1435362322.18,-19.261303
1435362322.196,-19.984451
1435362322.212,-20.404182
1435362322.227,-20.524097
1435362322.243,-20.307468
1435362322.258,-19.690025
1435362322.274,-18.668022
1435362322.29,-17.306679
1435362322.305,-15.732243
1435362322.321,-14.054089
1435362322.337,-12.358356
1435362322.352,-10.667343
1435362322.368,-8.968243
1435362322.383,-7.238037
1435362322.399,-5.5019035
1435362322.415,-3.8409843
1435362322.43,-2.3897705
1435362322.446,-1.2393875
1435362322.462,-0.3978119
1435362322.477,0.29776764
1435362322.493,1.0960503
1435362322.508,2.2990303
1435362322.524,4.0827713
1435362322.54,6.4401855
1435362322.555,9.178764
1435362322.571,12.054653
1435362322.587,14.852821
1435362322.602,17.494194
1435362322.618,20.002903
1435362322.633,22.491207
1435362322.649,25.07803
1435362322.665,27.841461
1435362322.68,30.76836
1435362322.696,33.73035
1435362322.712,36.375477
1435362322.727,38.19147
1435362322.743,38.570885
1435362322.758,37.046062
1435362322.774,33.44916
1435362322.79,28.058418
1435362322.805,21.486927
1435362322.821,14.550549
1435362322.837,7.9772835
1435362322.852,2.2695217
1435362322.868,-2.3607063
1435362322.883,-5.91959
1435362322.899,-8.551651
1435362322.915,-10.430658
1435362322.93,-11.736307
1435362322.946,-12.607454
1435362322.962,-13.168156
1435362322.977,-13.526224
1435362322.993,-13.818905
1435362323.008,-14.178858
1435362323.024,-14.748524
1435362323.04,-15.582785
1435362323.055,-16.66184
1435362323.071,-17.846907
1435362323.087,-18.975124
1435362323.102,-19.902819
1435362323.118,-20.590942
1435362323.134,-21.008194
1435362323.149,-21.139965
1435362323.165,-20.893265
1435362323.18,-20.15653
1435362323.196,-18.856495
1435362323.212,-17.051003
1435362323.227,-14.922247
1435362323.243,-12.721299
1435362323.258,-10.68646
1435362323.274,-8.929876
1435362323.29,-7.429722
1435362323.305,-6.049698
1435362323.321,-4.5705013
1435362323.337,-2.7874928
1435362323.352,-0.5724497
1435362323.368,2.0689893
1435362323.384,4.9593587
1435362323.399,7.8028526
1435362323.415,10.319567
1435362323.43,12.328305
1435362323.446,13.867221
1435362323.462,15.198446
1435362323.477,16.748405
1435362323.493,18.93677
1435362323.509,22.077997
1435362323.524,26.190533
1435362323.54,30.937355
1435362323.555,35.629017
1435362323.571,39.339703
1435362323.587,41.119957
1435362323.602,40.28613
1435362323.618,36.658928
1435362323.634,30.650581
1435362323.649,23.126862
1435362323.665,15.162807
1435362323.68,7.7229624
1435362323.696,1.4610558
1435362323.712,-3.3811045
1435362323.727,-6.8759584
1435362323.743,-9.317881
1435362323.759,-11.057521
1435362323.774,-12.45277
1435362323.79,-13.732928
1435362323.805,-15.065207
1435362323.821,-16.513786
1435362323.837,-18.069414
1435362323.852,-19.668404
1435362323.868,-21.220835
1435362323.884,-22.58534
1435362323.899,-23.650747
1435362323.915,-24.344622
1435362323.93,-24.706839
1435362323.946,-24.853397
1435362323.962,-24.98259
1435362323.977,-25.245583
1435362323.993,-25.673048
1435362324.009,-26.136414
1435362324.024,-26.358206
1435362324.04,-26.028214
1435362324.055,-24.92669
1435362324.071,-22.971256
1435362324.087,-20.290607
1435362324.102,-17.171886
1435362324.118,-13.993877
1435362324.134,-11.108637
1435362324.149,-8.756954
1435362324.165,-6.9390545
1435362324.18,-5.469206
1435362324.196,-4.0280685
1435362324.212,-2.308838
1435362324.227,-0.15546036
1435362324.243,2.4031563
1435362324.259,5.2423325
1435362324.274,8.167923
1435362324.29,11.044792
1435362324.305,13.801899
1435362324.321,16.4632
1435362324.337,19.121288
1435362324.352,21.949951
1435362324.368,25.158958
1435362324.384,28.92926
1435362324.399,33.26942
1435362324.415,37.92685
1435362324.43,42.324764
1435362324.446,45.696133
1435362324.462,47.25717
1435362324.477,46.44903
1435362324.493,43.110252
1435362324.509,37.516384
1435362324.524,30.302464
1435362324.54,22.301128
1435362324.555,14.341721
1435362324.571,7.094368
1435362324.587,0.96377945
1435362324.602,-3.909729
1435362324.618,-7.6415253
1435362324.634,-10.436794
1435362324.649,-12.538612
1435362324.665,-14.171196
1435362324.68,-15.536877
1435362324.696,-16.800896
1435362324.712,-18.090908
1435362324.727,-19.462017
1435362324.743,-20.914574
1435362324.759,-22.362
1435362324.774,-23.750816
1435362324.79,-25.01585
1435362324.805,-26.140148
1435362324.821,-27.077892
1435362324.837,-27.738918
1435362324.852,-28.047607
1435362324.868,-27.944195
1435362324.884,-27.4446
1435362324.899,-26.672054
1435362324.915,-25.772144
1435362324.93,-24.860958
1435362324.946,-23.953873
1435362324.962,-22.990997
1435362324.977,-21.83479
1435362324.993,-20.3796
1435362325.009,-18.527458
1435362325.024,-16.29084
1435362325.04,-13.773399
1435362325.055,-11.173424
1435362325.071,-8.695976
1435362325.087,-6.4984207
1435362325.102,-4.587364
1435362325.118,-2.8448257
1435362325.134,-1.0656052
1435362325.149,0.91293335
1435362325.165,3.1386566
1435362325.18,5.557724
1435362325.196,8.109283
1435362325.212,10.754936
1435362325.227,13.513451
1435362325.243,16.385979
1435362325.259,19.347534
1435362325.274,22.335983
1435362325.29,25.342789
1435362325.305,28.506348
1435362325.321,32.06961
1435362325.337,36.22431
1435362325.352,40.87393
1435362325.368,45.47963
1435362325.384,49.162086
1435362325.399,50.932167
1435362325.415,50.061523
1435362325.43,46.338013
1435362325.446,40.13759
1435362325.462,32.270927
1435362325.477,23.749146
1435362325.493,15.468407
1435362325.509,8.066147
1435362325.524,1.8167114
1435362325.54,-3.2770233
1435362325.555,-7.3815002
1435362325.571,-10.657654
1435362325.587,-13.215195
1435362325.602,-15.101288
1435362325.618,-16.416527
1435362325.634,-17.349457
1435362325.649,-18.201454
1435362325.665,-19.289787
1435362325.68,-20.810257
1435362325.696,-22.717522
1435362325.712,-24.752602
1435362325.727,-26.56681
1435362325.743,-27.90348
1435362325.759,-28.642586
1435362325.774,-28.860092
1435362325.79,-28.689255
1435362325.805,-28.274544
1435362325.821,-27.648048
1435362325.837,-26.794601
1435362325.852,-25.694016
1435362325.868,-24.382195
1435362325.884,-22.927795
1435362325.899,-21.46579
1435362325.915,-20.086365
1435362325.93,-18.837265
1435362325.946,-17.651817
1435362325.962,-16.410957
1435362325.977,-14.91613
1435362325.993,-13.041878
1435362326.009,-10.735588
1435362326.024,-8.105347
1435362326.04,-5.367546
1435362326.056,-2.7550125
1435362326.071,-0.40223694
1435362326.087,1.7124176
1435362326.102,3.7700577
1435362326.118,5.9562607
1435362326.134,8.392693
1435362326.149,11.040352
1435362326.165,13.756073
1435362326.181,16.354912
1435362326.196,18.78025
1435362326.212,21.106644
1435362326.227,23.58081
1435362326.243,26.481392
1435362326.259,30.064163
1435362326.274,34.36422
1435362326.29,39.138466
1435362326.306,43.801796
1435362326.321,47.544006
1435362326.337,49.474075
1435362326.352,48.89469
1435362326.368,45.518913
1435362326.384,39.604874
1435362326.399,31.858284
1435362326.415,23.253227
1435362326.431,14.719498
1435362326.446,6.9775543
1435362326.462,0.38687897
1435362326.477,-4.9374695
1435362326.493,-9.07695
1435362326.509,-12.156853
1435362326.524,-14.354759
1435362326.54,-15.877182
1435362326.556,-17.02533
1435362326.571,-18.101257
1435362326.587,-19.356567
1435362326.602,-20.858627
1435362326.618,-22.502968
1435362326.634,-24.059837
1435362326.649,-25.331772
1435362326.665,-26.254524
1435362326.681,-26.914963
1435362326.696,-27.455467
1435362326.712,-27.990273
1435362326.727,-28.47499
1435362326.743,-28.771027
1435362326.759,-28.686638
1435362326.774,-28.090904
1435362326.79,-26.977882
1435362326.806,-25.437248
1435362326.821,-23.601967
1435362326.837,-21.609856
1435362326.852,-19.54731
1435362326.868,-17.47969
1435362326.884,-15.415955
1435362326.899,-13.388641
1435362326.915,-11.410988
1435362326.931,-9.526619
1435362326.946,-7.7478485
1435362326.962,-6.0707474
1435362326.977,-4.3780136
1435362326.993,-2.5190964
1435362327.009,-0.3559494
1435362327.024,2.1485367
1435362327.04,4.888214
1435362327.056,7.656639
1435362327.071,10.306725
1435362327.087,12.794846
1435362327.102,15.259155
1435362327.118,17.8947
1435362327.134,20.90963
1435362327.149,24.40976
1435362327.165,28.431534
1435362327.181,32.870705
1435362327.196,37.449516
1435362327.212,41.675827
1435362327.227,44.84987
1435362327.243,46.182716
1435362327.259,45.075226
1435362327.274,41.338852
1435362327.29,35.31494
1435362327.306,27.780144
1435362327.321,19.72255
1435362327.337,12.015121
1435362327.352,5.2408447
1435362327.368,-0.3889923
1435362327.384,-4.918762
1435362327.399,-8.539886
1435362327.415,-11.434723
1435362327.431,-13.736069
1435362327.446,-15.501694
1435362327.462,-16.799911
1435362327.477,-17.715805
1435362327.493,-18.426514
1435362327.509,-19.145615
1435362327.524,-20.058823
1435362327.54,-21.238022
1435362327.556,-22.60057
1435362327.571,-23.929657
1435362327.587,-25.01767
1435362327.602,-25.703232
1435362327.618,-25.988861
1435362327.634,-25.96289
1435362327.649,-25.763855
1435362327.665,-25.462433
1435362327.681,-25.03711
1435362327.696,-24.37738
1435362327.712,-23.352127
1435362327.727,-21.87503
1435362327.743,-19.96547
1435362327.759,-17.76155
1435362327.774,-15.49115
1435362327.79,-13.387222
1435362327.806,-11.594513
1435362327.821,-10.065964
1435362327.837,-8.597122
1435362327.852,-6.89032
1435362327.868,-4.7216797
1435362327.884,-2.0385132
1435362327.899,0.97535706
1435362327.915,4.010681
1435362327.931,6.7711945
1435362327.946,9.13266
1435362327.962,11.177719
1435362327.977,13.196976
1435362327.993,15.547974
1435362328.009,18.56276
1435362328.024,22.412369
1435362328.04,27.087097
1435362328.056,32.30783
1435362328.071,37.570908
1435362328.087,42.125
1435362328.102,45.11586
1435362328.118,45.773407
1435362328.134,43.64621
1435362328.149,38.77423
1435362328.165,31.732452
1435362328.181,23.454056
1435362328.196,14.990631
1435362328.212,7.218231
1435362328.227,0.66522217
1435362328.243,-4.5379486
1435362328.259,-8.531036
1435362328.274,-11.622681
1435362328.29,-14.118622
1435362328.306,-16.2471
1435362328.321,-18.121307
1435362328.337,-19.777267
1435362328.352,-21.202286
1435362328.368,-22.393661
1435362328.384,-23.366074
1435362328.399,-24.177826
1435362328.415,-24.882156
1435362328.431,-25.552048
1435362328.446,-26.21695
1435362328.462,-26.861008
1435362328.477,-27.429535
1435362328.493,-27.828949
1435362328.509,-27.941238
1435362328.524,-27.67984
1435362328.54,-26.979477
1435362328.556,-25.825989
1435362328.571,-24.223526
1435362328.587,-22.200394
1435362328.602,-19.80841
1435362328.618,-17.136932
1435362328.634,-14.315964
1435362328.649,-11.515762
1435362328.665,-8.928062
1435362328.681,-6.6967697
1435362328.696,-4.894394
1435362328.712,-3.442543
1435362328.728,-2.1212082
1435362328.743,-0.63557434
1435362328.759,1.298233
1435362328.774,3.8207397
1435362328.79,6.8504868
1435362328.806,10.0976715
1435362328.821,13.202202
1435362328.837,15.865135
1435362328.853,17.995064
1435362328.868,19.73729
1435362328.884,21.42096
1435362328.899,23.399551
1435362328.915,25.95533
1435362328.931,29.203377
1435362328.946,33.048927
1435362328.962,37.15242
1435362328.978,40.93801
1435362328.993,43.631653
1435362329.009,44.45128
1435362329.024,42.82347
1435362329.04,38.612465
1435362329.056,32.21924
1435362329.071,24.482903
1435362329.087,16.419472
1435362329.103,8.925583
1435362329.118,2.546646
1435362329.134,-2.5453873
1435362329.149,-6.483925
1435362329.165,-9.527718
1435362329.181,-11.944191
1435362329.196,-13.943863
1435362329.212,-15.652008
1435362329.228,-17.142395
1435362329.243,-18.483742
1435362329.259,-19.714638
1435362329.274,-20.898499
1435362329.29,-22.063385
1435362329.306,-23.230286
1435362329.321,-24.346214
1435362329.337,-25.330734
1435362329.353,-26.092361
1435362329.368,-26.582909
1435362329.384,-26.783089
1435362329.399,-26.703812
1435362329.415,-26.384506
1435362329.431,-25.831772
1435362329.446,-25.047798
1435362329.462,-24.055817
1435362329.478,-22.900887
1435362329.493,-21.635124
1435362329.509,-20.275192
1435362329.524,-18.754692
1435362329.54,-16.960297
1435362329.556,-14.8133545
1435362329.571,-12.341705
1435362329.587,-9.728363
1435362329.603,-7.2115784
1435362329.618,-5.0292892
1435362329.634,-3.246811
1435362329.649,-1.7539749
1435362329.665,-0.30888367
1435362329.681,1.3581085
1435362329.696,3.3999329
1435362329.712,5.8501816
1435362329.728,8.576515
1435362329.743,11.386368
1435362329.759,14.07589
1435362329.774,16.538864
1435362329.79,18.791763
1435362329.806,20.965622
1435362329.821,23.326225
1435362329.837,26.16182
1435362329.853,29.7351
1435362329.868,34.107788
1435362329.884,39.07515
1435362329.899,44.018784
1435362329.915,48.027435
1435362329.931,50.039627
1435362329.946,49.19551
1435362329.962,45.141655
1435362329.978,38.252914
1435362329.993,29.562325
1435362330.009,20.44989
1435362330.024,12.173149
1435362330.04,5.48732
1435362330.056,0.50567627
1435362330.071,-3.1748428
1435362330.087,-6.1321106
1435362330.103,-8.829559
1435362330.118,-11.447914
1435362330.134,-13.910461
1435362330.149,-16.079605
1435362330.165,-17.903748
1435362330.181,-19.48333
1435362330.196,-21.001793
1435362330.212,-22.611046
1435362330.228,-24.314796
1435362330.243,-25.942474
1435362330.259,-27.251205
1435362330.274,-28.03196
1435362330.29,-28.22461
1435362330.306,-27.9487
1435362330.321,-27.421219
1435362330.337,-26.8433
1435362330.353,-26.265213
1435362330.368,-25.58461
1435362330.384,-24.59114
1435362330.399,-23.124992
1435362330.415,-21.184692
1435362330.431,-18.949356
1435362330.446,-16.666405
1435362330.462,-14.564316
1435362330.478,-12.702553
1435362330.493,-11.004295
1435362330.509,-9.310181
1435362330.524,-7.5228043
1435362330.54,-5.6255264
1435362330.556,-3.7159195
1435362330.571,-1.891365
1435362330.587,-0.14962769
1435362330.603,1.6249771
1435362330.618,3.6092453
1435362330.634,5.945179
1435362330.649,8.627979
1435362330.665,11.486263
1435362330.681,14.254982
1435362330.696,16.706043
1435362330.712,18.770237
1435362330.728,20.583664
1435362330.743,22.432755
1435362330.759,24.648788
1435362330.774,27.49736
1435362330.79,31.096375
1435362330.806,35.352127
1435362330.821,39.935913
1435362330.837,44.218975
1435362330.853,47.35824
1435362330.868,48.445057
1435362330.884,46.807045
1435362330.899,42.262222
1435362330.915,35.27138
1435362330.931,26.796196
1435362330.946,18.00032
1435362330.962,9.856991
1435362330.978,2.952652
1435362330.993,-2.584034
1435362331.009,-6.8740997
1435362331.024,-10.167892
1435362331.04,-12.649548
1435362331.056,-14.469036
1435362331.071,-15.747036
1435362331.087,-16.62759
1435362331.103,-17.243355
1435362331.118,-17.743153
1435362331.134,-18.24849
1435362331.149,-18.84119
1435362331.165,-19.576756
1435362331.181,-20.470196
1435362331.196,-21.456043
1435362331.212,-22.438324
1435362331.228,-23.321526
1435362331.243,-24.053688
1435362331.259,-24.585789
1435362331.274,-24.863754
1435362331.29,-24.772503
1435362331.306,-24.175125
1435362331.321,-22.967873
1435362331.337,-21.175396
1435362331.353,-18.957047
1435362331.368,-16.590034
1435362331.384,-14.315315
1435362331.4,-12.287506
1435362331.415,-10.5331955
1435362331.431,-8.960716
1435362331.446,-7.4360695
1435362331.462,-5.81855
1435362331.478,-3.9565887
1435362331.493,-1.7489967
1435362331.509,0.82533264
1435362331.525,3.6406174
1435362331.54,6.475662
1435362331.556,9.06012
1435362331.571,11.259705
1435362331.587,13.099785
1435362331.603,14.802433
1435362331.618,16.680172
1435362331.634,18.983753
1435362331.65,21.86399
1435362331.665,25.342575
1435362331.681,29.30877
1435362331.696,33.5268
1435362331.712,37.57449
1435362331.728,40.81756
1435362331.743,42.493813
1435362331.759,41.93383
1435362331.775,38.812447
1435362331.79,33.33999
1435362331.806,26.22281
1435362331.821,18.432932
1435362331.837,10.889456
1435362331.853,4.2305603
1435362331.868,-1.3057594
1435362331.884,-5.724394
1435362331.9,-9.149403
1435362331.915,-11.680376
1435362331.931,-13.368111
1435362331.946,-14.262821
1435362331.962,-14.51436
1435362331.978,-14.371992
1435362331.993,-14.135204
1435362332.009,-14.075369
1435362332.025,-14.344219
1435362332.04,-14.9391365
1435362332.056,-15.767265
1435362332.071,-16.665014
1435362332.087,-17.514864
1435362332.103,-18.213642
1435362332.118,-18.695215
1435362332.134,-18.863613
1435362332.15,-18.650822
1435362332.165,-17.992481
1435362332.181,-16.909912
1435362332.196,-15.497433
1435362332.212,-13.897812
1435362332.228,-12.237192
1435362332.243,-10.558598
1435362332.259,-8.810436
1435362332.275,-6.8835945
1435362332.29,-4.685261
1435362332.306,-2.2144222
1435362332.321,0.45848656
1435362332.337,3.192503
1435362332.353,5.8803883
1435362332.368,8.434965
1435362332.384,10.828848
1435362332.4,13.042028
1435362332.415,15.136234
1435362332.431,17.211859
1435362332.446,19.487642
1435362332.462,22.181328
1435362332.478,25.435064
1435362332.493,29.09163
1435362332.509,32.655872
1435362332.525,35.31376
1435362332.54,36.181274
1435362332.556,34.636024
1435362332.571,30.562683
1435362332.587,24.44342
1435362332.603,17.179384
1435362332.618,9.769711
1435362332.634,3.0074997
1435362332.65,-2.6950665
1435362332.665,-7.2623444
1435362332.681,-10.81632
1435362332.696,-13.44046
1435362332.712,-15.166893
1435362332.728,-15.972944
1435362332.743,-15.90773
1435362332.759,-15.162443
1435362332.775,-14.093115
1435362332.79,-13.107025
1435362332.806,-12.537487
1435362332.821,-12.530636
1435362332.837,-13.005711
1435362332.853,-13.732084
1435362332.868,-14.445139
1435362332.884,-14.9525795
1435362332.9,-15.214237
1435362332.915,-15.30356
1435362332.931,-15.320435
1435362332.946,-15.268503
1435362332.962,-14.988586
1435362332.978,-14.178883
1435362332.993,-12.550274
1435362333.009,-9.95809
1435362333.025,-6.541298
1435362333.04,-2.6804905
1435362333.056,1.0957737
1435362333.071,4.359541
1435362333.087,6.8978844
1435362333.103,8.806427
1435362333.118,10.383959
1435362333.134,12.019068
1435362333.15,14.066923
1435362333.165,16.744505
1435362333.181,20.06276
1435362333.196,23.808945
1435362333.212,27.544075
1435362333.228,30.659252
1435362333.243,32.468628
1435362333.259,32.417484
1435362333.275,30.196777
1435362333.29,25.905846
1435362333.306,19.985367
1435362333.321,13.14386
1435362333.337,6.1696014
1435362333.353,-0.24929047
1435362333.368,-5.6701355
1435362333.384,-9.908833
1435362333.4,-12.978172
1435362333.415,-15.018742
1435362333.431,-16.203701
1435362333.446,-16.686008
1435362333.462,-16.630733
1435362333.478,-16.230835
1435362333.493,-15.710175
1435362333.509,-15.291374
1435362333.525,-15.136604
1435362333.54,-15.263683
1435362333.556,-15.56414
1435362333.571,-15.852039
1435362333.587,-15.963539
1435362333.603,-15.82206
1435362333.618,-15.459427
1435362333.634,-14.9527855
1435362333.65,-14.380943
1435362333.665,-13.70512
1435362333.681,-12.800034
1435362333.696,-11.484104
1435362333.712,-9.565422
1435362333.728,-6.9905434
1435362333.743,-3.866356
1435362333.759,-0.46197128
1435362333.775,2.8674164
1435362333.79,5.862503
1435362333.806,8.4643135
1435362333.821,10.901947
1435362333.837,13.573299
1435362333.853,16.873589
1435362333.868,20.926315
1435362333.884,25.490864
1435362333.9,29.941319
1435362333.915,33.433727
1435362333.931,35.1335
1435362333.946,34.46693
1435362333.962,31.28746
1435362333.978,25.938496
1435362333.993,19.197586
1435362334.009,12.059292
1435362334.025,5.4419327
1435362334.04,-0.06493759
1435362334.056,-4.325096
1435362334.072,-7.575783
1435362334.087,-10.202496
1435362334.103,-12.47739
1435362334.118,-14.451267
1435362334.134,-15.966202
1435362334.15,-16.853779
1435362334.165,-17.104202
1435362334.181,-16.927277
1435362334.196,-16.649635
1435362334.212,-16.538342
1435362334.228,-16.675114
1435362334.243,-16.941376
1435362334.259,-17.12016
1435362334.275,-17.05803
1435362334.29,-16.718098
1435362334.306,-16.20832
1435362334.322,-15.6439705
1435362334.337,-15.078724
1435362334.353,-14.371929
1435362334.368,-13.294399
1435362334.384,-11.584816
1435362334.4,-9.146339
1435362334.415,-6.118614
1435362334.431,-2.8477325
1435362334.447,0.2580452
1435362334.462,2.9336243
1435362334.478,5.155472
1435362334.493,7.160759
1435362334.509,9.3298645
1435362334.525,12.0238
1435362334.54,15.490406
1435362334.556,19.730984
1435362334.572,24.519737
1435362334.587,29.34013
1435362334.603,33.492035
1435362334.618,36.137096
1435362334.634,36.569695
1435362334.65,34.397465
1435362334.665,29.728264
1435362334.681,23.157394
1435362334.697,15.608826
1435362334.712,8.045101
1435362334.728,1.1912231
1435362334.743,-4.595501
1435362334.759,-9.306103
1435362334.775,-13.1604
1435362334.79,-16.430008
1435362334.806,-19.340816
1435362334.822,-21.9781
1435362334.837,-24.34478
1435362334.853,-26.349304
1435362334.868,-27.917007
1435362334.884,-28.991108
1435362334.9,-29.579765
1435362334.915,-29.75708
1435362334.931,-29.645435
1435362334.947,-29.378288
1435362334.962,-29.08474
1435362334.978,-28.847355
1435362334.993,-28.682835
1435362335.009,-28.536575
1435362335.025,-28.25037
1435362335.04,-27.62482
1435362335.056,-26.495804
1435362335.072,-24.758537
1435362335.087,-22.47536
1435362335.103,-19.803913
1435362335.118,-16.981018
1435362335.134,-14.174377
1435362335.15,-11.460537
1435362335.165,-8.784035
1435362335.181,-6.0430527
1435362335.197,-3.1561203
1435362335.212,-0.12270737
1435362335.228,2.967949
1435362335.243,5.986103
1435362335.259,8.834286
1435362335.275,11.495728
1435362335.29,14.022715
1435362335.306,16.543777
1435362335.322,19.23911
1435362335.337,22.27783
1435362335.353,25.80481
1435362335.368,29.851414
1435362335.384,34.252872
1435362335.4,38.59307
1435362335.415,42.22113
1435362335.431,44.335205
1435362335.447,44.224144
1435362335.462,41.492287
1435362335.478,36.21752
1435362335.493,28.987442
1435362335.509,20.72054
1435362335.525,12.3962345
1435362335.54,4.8194656
1435362335.556,-1.5904369
1435362335.572,-6.746395
1435362335.587,-10.815367
1435362335.603,-14.04025
1435362335.618,-16.647903
1435362335.634,-18.836094
1435362335.65,-20.77193
1435362335.665,-22.587646
1435362335.681,-24.38799
1435362335.697,-26.16483
1435362335.712,-27.820417
1435362335.728,-29.19241
1435362335.743,-30.151627
1435362335.759,-30.65089
1435362335.775,-30.725546
1435362335.79,-30.468985
1435362335.806,-29.952288
1435362335.822,-29.215744
1435362335.837,-28.302876
1435362335.853,-27.27126
1435362335.868,-26.213367
1435362335.884,-25.193241
1435362335.9,-24.185001
1435362335.915,-23.070213
1435362335.931,-21.701319
1435362335.947,-19.987865
1435362335.962,-17.979483
1435362335.978,-15.830341
1435362335.993,-13.723284
1435362336.009,-11.742699
1435362336.025,-9.851316
1435362336.04,-7.9293003
1435362336.056,-5.879013
1435362336.072,-3.712534
1435362336.087,-1.5357361
1435362336.103,0.5397072
1435362336.118,2.4797478
1435362336.134,4.362068
1435362336.15,6.330208
1435362336.165,8.506416
1435362336.181,10.893143
1435362336.197,13.411629
1435362336.212,15.941536
1435362336.228,18.431557
1435362336.243,20.909748
1435362336.259,23.503513
1435362336.275,26.362446
1435362336.29,29.607082
1435362336.306,33.266735
1435362336.322,37.219013
1435362336.337,41.14846
1435362336.353,44.54545
1435362336.368,46.726242
1435362336.384,47.0167
1435362336.4,44.95246
1435362336.415,40.48758
1435362336.431,34.056404
1435362336.447,26.47287
1435362336.462,18.67958
1435362336.478,11.490997
1435362336.493,5.3738327
1435362336.509,0.43106842
1435362336.525,-3.521141
1435362336.54,-6.7557907
1435362336.556,-9.5155945
1435362336.572,-11.916466
1435362336.587,-13.977898
1435362336.603,-15.678719
1435362336.618,-17.029335
1435362336.634,-18.072197
1435362336.65,-18.90075
1435362336.665,-19.58928
1435362336.681,-20.166847
1435362336.697,-20.616142
1435362336.712,-20.902397
1435362336.728,-20.972267
1435362336.743,-20.842033
1435362336.759,-20.528183
1435362336.775,-20.076889
1435362336.79,-19.484444
1435362336.806,-18.739319
1435362336.822,-17.803497
1435362336.837,-16.680176
1435362336.853,-15.419548
1435362336.868,-14.107361
1435362336.884,-12.844139
1435362336.9,-11.666145
1435362336.915,-10.535065
1435362336.931,-9.376137
1435362336.947,-8.094742
1435362336.962,-6.652176
1435362336.978,-5.081192
1435362336.994,-3.4941788
1435362337.009,-1.9836044
1435362337.025,-0.6161957
1435362337.04,0.63809204
1435362337.056,1.8604584
1435362337.072,3.2219238
1435362337.087,4.8785706
1435362337.103,6.9474487
1435362337.119,9.444336
1435362337.134,12.244568
1435362337.15,15.119537
1435362337.165,17.803009
1435362337.181,20.09581
1435362337.197,21.975067
1435362337.212,23.613113
1435362337.228,25.335953
1435362337.244,27.496216
1435362337.259,30.333328
1435362337.275,33.814697
1435362337.29,37.565506
1435362337.306,40.919144
1435362337.322,43.0549
1435362337.337,43.232803
1435362337.353,41.05858
1435362337.369,36.60138
1435362337.384,30.404877
1435362337.4,23.298508
1435362337.415,16.166885
1435362337.431,9.694489
1435362337.447,4.246002
1435362337.462,-0.13153076
1435362337.478,-3.566162
1435362337.494,-6.2992554
1435362337.509,-8.533127
1435362337.525,-10.445587
1435362337.54,-12.146759
1435362337.556,-13.715836
1435362337.572,-15.15332
1435362337.587,-16.441788
1435362337.603,-17.53804
1435362337.619,-18.437073
1435362337.634,-19.144058
1435362337.65,-19.686493
1435362337.665,-20.041855
1435362337.681,-20.216293
1435362337.697,-20.2061
1435362337.712,-20.0486
1435362337.728,-19.818497
1435362337.744,-19.598373
1435362337.759,-19.372925
1435362337.775,-19.053452
1435362337.79,-18.449814
1435362337.806,-17.407059
1435362337.822,-15.872467
1435362337.837,-13.969284
1435362337.853,-11.924622
1435362337.869,-10.023712
1435362337.884,-8.439682
1435362337.9,-7.206787
1435362337.915,-6.2186584
1435362337.931,-5.313492
1435362337.947,-4.349716
1435362337.962,-3.3029327
1435362337.978,-2.157547
1435362337.994,-0.8922119
1435362338.009,0.597229
1435362338.025,2.4636383
1435362338.04,4.7993774
1435362338.056,7.5444794
1435362338.072,10.462265
1435362338.087,13.241852
1435362338.103,15.626373
1435362338.119,17.527252
1435362338.134,19.053925
1435362338.15,20.433624
1435362338.165,21.894623
1435362338.181,23.580505
1435362338.197,25.56099
1435362338.212,27.866013
1435362338.228,30.498245
1435362338.244,33.39421
1435362338.259,36.342163
1435362338.275,38.906082
1435362338.29,40.51146
1435362338.306,40.565567
1435362338.322,38.682816
1435362338.337,34.823395
1435362338.353,29.347855
1435362338.369,22.917648
1435362338.384,16.351746
1435362338.4,10.381287
1435362338.415,5.4760437
1435362338.431,1.7408905
1435362338.447,-1.0398254
1435362338.462,-3.2506561
1435362338.478,-5.230255
1435362338.494,-7.1531067
1435362338.509,-8.990311
1435362338.525,-10.612091
1435362338.54,-11.911011
1435362338.556,-12.925201
1435362338.572,-13.774963
1435362338.587,-14.641464
1435362338.603,-15.582642
1435362338.619,-16.554718
1435362338.634,-17.429077
1435362338.65,-18.101608
1435362338.665,-18.554337
1435362338.681,-18.887146
1435362338.697,-19.181747
1435362338.712,-19.48056
1435362338.728,-19.70073
1435362338.744,-19.656738
1435362338.759,-19.155441
1435362338.775,-18.073578
1435362338.79,-16.406586
1435362338.806,-14.332657
1435362338.822,-12.096939
1435362338.837,-9.963028
1435362338.853,-8.09198
1435362338.869,-6.5151367
1435362338.884,-5.126877
1435362338.9,-3.8377686
1435362338.915,-2.5437012
1435362338.931,-1.2197113
1435362338.947,0.16145325
1435362338.962,1.6737518
1435362338.978,3.440277
1435362338.994,5.5718384
1435362339.009,8.041367
1435362339.025,10.699921
1435362339.04,13.28624
1435362339.056,15.561127
1435362339.072,17.473251
1435362339.087,19.14441
1435362339.103,20.84079
1435362339.119,22.86763
1435362339.134,25.462051
1435362339.15,28.737656
1435362339.165,32.652283
1435362339.181,36.913773
1435362339.197,40.9935
1435362339.212,44.12198
1435362339.228,45.47383
1435362339.244,44.408447
1435362339.259,40.747375
1435362339.275,34.874634
1435362339.29,27.606003
1435362339.306,19.955154
1435362339.322,12.785233
1435362339.337,6.6144104
1435362339.353,1.5824127
1435362339.369,-2.405075
1435362339.384,-5.5351715
1435362339.4,-7.9502106
1435362339.415,-9.725937
1435362339.431,-10.89386
1435362339.447,-11.533676
1435362339.462,-11.8133545
1435362339.478,-11.968323
1435362339.494,-12.2655945
1435362339.509,-12.868881
1435362339.525,-13.796005
1435362339.54,-14.880539
1435362339.556,-15.912186
1435362339.572,-16.721786
1435362339.587,-17.293198
1435362339.603,-17.738983
1435362339.619,-18.197784
1435362339.634,-18.709793
1435362339.65,-19.176346
1435362339.666,-19.361465
1435362339.681,-19.061707
1435362339.697,-18.151459
1435362339.712,-16.690796
1435362339.728,-14.837189
1435362339.744,-12.790283
1435362339.759,-10.713425
1435362339.775,-8.686111
1435362339.791,-6.7113953
1435362339.806,-4.748352
1435362339.822,-2.7181854
1435362339.837,-0.5660858
1435362339.853,1.7463379
1435362339.869,4.1901703
1435362339.884,6.692581
1435362339.9,9.148331
1435362339.916,11.50061
1435362339.931,13.724182
1435362339.947,15.891129
1435362339.962,18.10672
1435362339.978,20.5074
1435362339.994,23.234528
1435362340.009,26.430176
1435362340.025,30.159592
1435362340.041,34.341705
1435362340.056,38.61795
1435362340.072,42.342316
1435362340.087,44.681763
1435362340.103,44.813263
1435362340.119,42.233353
1435362340.134,36.979416
1435362340.15,29.643356
1435362340.166,21.242996
1435362340.181,12.875137
1435362340.197,5.4349365
1435362340.212,-0.6615448
1435362340.228,-5.386627
1435362340.244,-9.002045
1435362340.259,-11.822403
1435362340.275,-14.055389
1435362340.291,-15.76239
1435362340.306,-16.958595
1435362340.322,-17.698135
1435362340.337,-18.123703
1435362340.353,-18.474808
1435362340.369,-18.959213
1435362340.384,-19.704956
1435362340.4,-20.706871
1435362340.416,-21.819061
1435362340.431,-22.882965
1435362340.447,-23.727623
1435362340.462,-24.251999
1435362340.478,-24.416534
1435362340.494,-24.249924
1435362340.509,-23.81041
1435362340.525,-23.134758
1435362340.541,-22.21251
1435362340.556,-20.957932
1435362340.572,-19.243744
1435362340.587,-16.989998
1435362340.603,-14.254189
1435362340.619,-11.264008
1435362340.634,-8.353462
1435362340.65,-5.8286667
1435362340.666,-3.8111725
1435362340.681,-2.171074
1435362340.697,-0.56327057
1435362340.712,1.3614578
1435362340.728,3.8335495
1435362340.744,6.8081512
1435362340.759,10.050186
1435362340.775,13.242073
1435362340.791,16.161255
1435362340.806,18.73896
1435362340.822,21.081757
1435362340.837,23.438057
1435362340.853,26.09407
1435362340.869,29.323654
1435362340.884,33.316856
1435362340.9,38.06231
1435362340.916,43.284615
1435362340.931,48.34579
1435362340.947,52.35795
1435362340.962,54.341793
1435362340.978,53.54384
1435362340.994,49.666176
1435362341.009,43.009163
1435362341.025,34.408566
1435362341.041,24.97931
1435362341.056,15.793121
1435362341.072,7.634865
1435362341.087,0.8573227
1435362341.103,-4.575062
1435362341.119,-8.922646
1435362341.134,-12.504929
1435362341.15,-15.5757885
1435362341.166,-18.236826
1435362341.181,-20.53697
1435362341.197,-22.465048
1435362341.212,-24.063253
1435362341.228,-25.389847
1435362341.244,-26.554482
1435362341.259,-27.606577
1435362341.275,-28.582539
1435362341.291,-29.4707
1435362341.306,-30.252209
1435362341.322,-30.941027
1435362341.337,-31.607363
1435362341.353,-32.3205
1435362341.369,-33.09755
1435362341.384,-33.851532
1435362341.4,-34.348522
1435362341.416,-34.305107
1435362341.431,-33.516098
1435362341.447,-31.97102
1435362341.462,-29.90337
1435362341.478,-27.680483
1435362341.494,-25.650387
1435362341.509,-23.969574
1435362341.525,-22.572174
1435362341.541,-21.196747
1435362341.556,-19.561295
1435362341.572,-17.496483
1435362341.587,-15.014582
1435362341.603,-12.282259
1435362341.619,-9.538326
1435362341.634,-6.961422
1435362341.65,-4.604023
1435362341.666,-2.3779087
1435362341.681,-0.11972046
1435362341.697,2.3436794
1435362341.712,5.0725765
1435362341.728,8.064571
1435362341.744,11.226959
1435362341.759,14.507271
1435362341.775,17.894756
1435362341.791,21.462627
1435362341.806,25.286213
1435362341.822,29.455875
1435362341.837,33.99068
1435362341.853,38.876015
1435362341.869,44.00965
1435362341.884,49.12135
1435362341.9,53.680546
1435362341.916,56.92077
1435362341.931,57.935043
1435362341.947,56.001144
1435362341.962,50.8759
1435362341.978,42.976563
1435362341.994,33.312363
1435362342.009,23.19785
1435362342.025,13.804901
1435362342.041,5.864788
1435362342.056,-0.45222473
1435362342.072,-5.373451
1435362342.087,-9.301712
1435362342.103,-12.559067
1435362342.119,-15.30896
1435362342.134,-17.582993
1435362342.15,-19.40683
1435362342.166,-20.879227
1435362342.181,-22.196869
1435362342.197,-23.544815
1435362342.212,-25.031906
1435362342.228,-26.638786
1435362342.244,-28.271286
1435362342.259,-29.834366
1435362342.275,-31.287834
1435362342.291,-32.65117
1435362342.306,-33.94069
1435362342.322,-35.093834
1435362342.338,-35.962654
1435362342.353,-36.33847
1435362342.369,-36.07241
1435362342.384,-35.105072
1435362342.4,-33.534424
1435362342.416,-31.555962
1435362342.431,-29.430885
1435362342.447,-27.36599
1435362342.463,-25.466728
1435362342.478,-23.689125
1435362342.494,-21.889763
1435362342.509,-19.894554
1435362342.525,-17.605988
1435362342.541,-15.053688
1435362342.556,-12.426582
1435362342.572,-9.9364395
1435362342.588,-7.7491455
1435362342.603,-5.875778
1435362342.619,-4.1616745
1435362342.634,-2.3521042
1435362342.65,-0.20987701
1435362342.666,2.4012222
1435362342.681,5.4674683
1435362342.697,8.86441
1435362342.713,12.366478
1435362342.728,15.784676
1435362342.744,18.9869
1435362342.759,22.008255
1435362342.775,25.020424
1435362342.791,28.330818
1435362342.806,32.262253
1435362342.822,37.0326
1435362342.838,42.579422
1435362342.853,48.522522
1435362342.869,54.074677
1435362342.884,58.180275
1435362342.9,59.744102
1435362342.916,57.9431
1435362342.931,52.49872
1435362342.947,43.86001
1435362342.963,33.116264
1435362342.978,21.700958
1435362342.994,10.9917145
1435362343.009,1.9481964
1435362343.025,-5.0658264
1435362343.041,-10.192352
1435362343.056,-13.902939
1435362343.072,-16.679443
1435362343.088,-18.867538
1435362343.103,-20.635452
1435362343.119,-22.05246
1435362343.134,-23.179016
1435362343.15,-24.10736
1435362343.166,-24.9691
1435362343.181,-25.883942
1435362343.197,-26.892868
1435362343.213,-28.021301
1435362343.228,-29.253494
1435362343.244,-30.570648
1435362343.259,-31.928879
1435362343.275,-33.192566
1435362343.291,-34.16411
1435362343.306,-34.60843
1435362343.322,-34.348694
1435362343.338,-33.39081
1435362343.353,-31.882797
1435362343.369,-30.084427
1435362343.384,-28.203735
1435362343.4,-26.329926
1435362343.416,-24.411652
1435362343.431,-22.366669
1435362343.447,-20.136017
1435362343.463,-17.782547
1435362343.478,-15.43309
1435362343.494,-13.209183
1435362343.509,-11.175522
1435362343.525,-9.257614
1435362343.541,-7.2789307
1435362343.556,-5.0512695
1435362343.572,-2.4266357
1435362343.588,0.6156311
1435362343.603,3.979309
1435362343.619,7.4715576
1435362343.634,10.867233
1435362343.65,14.023895
1435362343.666,16.91214
1435362343.681,19.618622
1435362343.697,22.328018
1435362343.713,25.255142
1435362343.728,28.618576
1435362343.744,32.56009
1435362343.759,37.120193
1435362343.775,42.10263
1435362343.791,46.989197
1435362343.806,50.930664
1435362343.822,52.903915
1435362343.838,51.956665
1435362343.853,47.62642
1435362343.869,40.10573
1435362343.884,30.293655
1435362343.9,19.541779
1435362343.916,9.247299
1435362343.931,0.4501648
1435362343.947,-6.3540497
1435362343.963,-11.258591
1435362343.978,-14.684891
1435362343.994,-17.122879
1435362344.009,-18.930695
1435362344.025,-20.226456
1435362344.041,-20.996414
1435362344.056,-21.264297
1435362344.072,-21.19899
1435362344.088,-21.102036
1435362344.103,-21.329391
1435362344.119,-22.120361
1435362344.134,-23.471909
1435362344.15,-25.176804
1435362344.166,-26.880493
1435362344.181,-28.283798
1435362344.197,-29.229202
1435362344.213,-29.752731
1435362344.228,-29.959122
1435362344.244,-29.976425
1435362344.259,-29.79425
1435362344.275,-29.290588
1435362344.291,-28.307648
1435362344.306,-26.752365
1435362344.322,-24.644943
1435362344.338,-22.155807
1435362344.353,-19.529785
1435362344.369,-17.003159
1435362344.384,-14.69783
1435362344.4,-12.605103
1435362344.416,-10.599319
1435362344.431,-8.5271
1435362344.447,-6.2894745
1435362344.463,-3.8819275
1435362344.478,-1.3607941
1435362344.494,1.1885223
1435362344.509,3.7454376
1435362344.525,6.3307343
1435362344.541,9.004196
1435362344.556,11.784683
1435362344.572,14.648239
1435362344.588,17.536499
1435362344.603,20.44165
1435362344.619,23.460175
1435362344.634,26.819626
1435362344.65,30.769974
1435362344.666,35.411575
1435362344.681,40.48665
1435362344.697,45.337738
1435362344.713,48.96846
1435362344.728,50.356384
1435362344.744,48.76535
1435362344.759,44.024612
1435362344.775,36.615097
1435362344.791,27.502487
1435362344.806,17.826996
1435362344.822,8.6214905
1435362344.838,0.57069397
1435362344.853,-6.0079193
1435362344.869,-11.102051
1435362344.884,-14.884338
1435362344.9,-17.607819
1435362344.916,-19.538315
1435362344.931,-20.940643
1435362344.947,-22.011246
1435362344.963,-22.889893
1435362344.978,-23.642975
1435362344.994,-24.301086
1435362345.01,-24.885117
1435362345.025,-25.411926
1435362345.041,-25.908081
1435362345.056,-26.396729
1435362345.072,-26.879623
1435362345.088,-27.375153
1435362345.103,-27.86615
1435362345.119,-28.293488
1435362345.134,-28.559708
1435362345.15,-28.550827
1435362345.166,-28.15802
1435362345.181,-27.36232
1435362345.197,-26.220917
1435362345.213,-24.82344
1435362345.228,-23.248672
1435362345.244,-21.479141
1435362345.26,-19.463287
1435362345.275,-17.151001
1435362345.291,-14.591461
1435362345.306,-11.928329
1435362345.322,-9.301544
1435362345.338,-6.7590485
1435362345.353,-4.2301025
1435362345.369,-1.5901184
1435362345.385,1.2549591
1435362345.4,4.230423
1435362345.416,7.211075
1435362345.431,10.043579
1435362345.447,12.669876
1435362345.463,15.097107
1435362345.478,17.421707
1435362345.494,19.729858
1435362345.51,22.110779
1435362345.525,24.673538
1435362345.541,27.607483
1435362345.556,31.151413
1435362345.572,35.435104
1435362345.588,40.359924
1435362345.603,45.467392
1435362345.619,49.932755
1435362345.635,52.756424
1435362345.65,53.00229
1435362345.666,50.10338
1435362345.681,44.042816
1435362345.697,35.42697
1435362345.713,25.341476
1435362345.728,15.081558
1435362345.744,5.807495
1435362345.76,-1.7461548
1435362345.775,-7.368286
1435362345.791,-11.311356
1435362345.806,-14.070389
1435362345.822,-16.114746
1435362345.838,-17.77774
1435362345.853,-19.207443
1435362345.869,-20.440445
1435362345.885,-21.479706
1435362345.9,-22.364304
1435362345.916,-23.160538
1435362345.931,-23.968567
1435362345.947,-24.859055
1435362345.963,-25.886032
1435362345.978,-27.02417
1435362345.994,-28.170807
1435362346.01,-29.143234
1435362346.025,-29.767395
1435362346.041,-29.912384
1435362346.056,-29.58107
1435362346.072,-28.83635
1435362346.088,-27.783981
1435362346.103,-26.44748
1435362346.119,-24.827744
1435362346.135,-22.895279
1435362346.15,-20.72171
1435362346.166,-18.447037
1435362346.181,-16.271637
1435362346.197,-14.318832
1435362346.213,-12.583984
1435362346.228,-10.921082
1435362346.244,-9.139824
1435362346.26,-7.0930557
1435362346.275,-4.759613
1435362346.291,-2.211174
1435362346.306,0.4119568
1435362346.322,3.0489655
1435362346.338,5.6844864
1435362346.353,8.377464
1435362346.369,11.1760025
1435362346.385,14.07534
1435362346.4,16.977142
1435362346.416,19.770699
1435362346.431,22.357033
1435362346.447,24.774155
1435362346.463,27.234238
1435362346.478,30.072006
1435362346.494,33.586327
1435362346.51,37.857826
1435362346.525,42.591057
1435362346.541,47.091026
1435362346.556,50.38056
1435362346.572,51.50213
1435362346.588,49.79059
1435362346.603,45.10711
1435362346.619,37.887367
1435362346.635,29.050163
1435362346.65,19.719284
1435362346.666,10.959549
1435362346.681,3.4943771
1435362346.697,-2.3929672
1435362346.713,-6.835808
1435362346.728,-10.1755905
1435362346.744,-12.782623
1435362346.76,-14.894203
1435362346.775,-16.580627
1435362346.791,-17.82309
1435362346.806,-18.650093
1435362346.822,-19.175331
1435362346.838,-19.628845
1435362346.853,-20.22245
1435362346.869,-21.09932
1435362346.885,-22.231133
1435362346.9,-23.478409
1435362346.916,-24.620163
1435362346.931,-25.510262
1435362346.947,-26.084892
1435362346.963,-26.363861
1435362346.978,-26.389725
1435362346.994,-26.16217
1435362347.01,-25.636139
1435362347.025,-24.732841
1435362347.041,-23.404724
1435362347.056,-21.682503
1435362347.072,-19.700325
1435362347.088,-17.616028
1435362347.103,-15.5644455
1435362347.119,-13.581924
1435362347.135,-11.595665
1435362347.15,-9.563568
1435362347.166,-7.488449
1435362347.181,-5.504715
1435362347.197,-3.7333755
1435362347.213,-2.2168808
1435362347.228,-0.8150177
1435362347.244,0.7482147
1435362347.26,2.7498322
1435362347.275,5.3196106
1435362347.291,8.363586
1435362347.306,11.616669
1435362347.322,14.801247
1435362347.338,17.745926
1435362347.353,20.465233
1435362347.369,23.090988
1435362347.385,25.831009
1435362347.4,28.879776
1435362347.416,32.408524
1435362347.431,36.48446
1435362347.447,41.01763
1435362347.463,45.61223
1435362347.478,49.57715
1435362347.494,51.99005
1435362347.51,51.99002
1435362347.525,49.066795
1435362347.541,43.31331
1435362347.556,35.38826
1435362347.572,26.334099
1435362347.588,17.208153
1435362347.603,8.835739
