1430947373.666,0.0
1430947373.682,0.0
1430947373.697,0.0
1430947373.713,0.0
1430947373.728,0.0
1430947373.744,0.0
1430947373.76,0.0
1430947373.775,0.0
1430947373.791,0.0
1430947373.807,0.0022315353
1430947373.822,-0.0045169927
1430947373.838,-0.011265522
1430947373.853,-0.011383951
1430947373.869,0.0011864507
1430947373.885,0.025910312
1430947373.9,0.050634187
1430947373.916,0.051362894
1430947373.932,-0.0014929791
1430947373.947,-0.1302426
1430947373.963,-0.35562757
1430947373.978,-0.6591247
1430947373.994,-1.0095103
1430947374.01,-1.3709826
1430947374.025,-1.7197359
1430947374.041,-2.0551105
1430947374.057,-2.39945
1430947374.072,-2.7866635
1430947374.088,-3.2399073
1430947374.103,-3.796012
1430947374.119,-4.418684
1430947374.135,-5.0592937
1430947374.15,-5.6644096
1430947374.166,-6.2021537
1430947374.182,-6.6808796
1430947374.197,-7.149598
1430947374.213,-7.6782336
1430947374.228,-8.310739
1430947374.244,-9.143657
1430947374.26,-10.089731
1430947374.275,-11.041313
1430947374.291,-11.8842125
1430947374.307,-12.564316
1430947374.322,-13.13563
1430947374.338,-13.760044
1430947374.353,-14.65232
1430947374.369,-15.962056
1430947374.385,-17.914442
1430947374.4,-20.317299
1430947374.416,-22.903854
1430947374.432,-25.37947
1430947374.447,-27.578028
1430947374.463,-29.57246
1430947374.478,-31.675173
1430947374.494,-34.3178
1430947374.51,-37.813618
1430947374.525,-42.541233
1430947374.541,-48.1463
1430947374.557,-54.104755
1430947374.572,-59.833084
1430947374.588,-64.97234
1430947374.603,-69.58287
1430947374.619,-74.1436
1430947374.635,-79.34546
1430947374.65,-85.70845
1430947374.666,-93.763824
1430947374.682,-102.99964
1430947374.697,-112.61784
1430947374.713,-121.72768
1430947374.728,-129.76086
1430947374.744,-136.74715
1430947374.76,-143.30753
1430947374.775,-150.76437
1430947374.791,-157.80525
1430947374.807,-166.67613
1430947374.822,-177.95679
1430947374.838,-191.7431
1430947374.853,-206.83482
1430947374.869,-220.33478
1430947374.885,-227.92804
1430947374.9,-224.98743
1430947374.916,-208.14238
1430947374.932,-176.49716
1430947374.947,-132.4155
1430947374.963,-79.71214
1430947374.978,-22.70404
1430947374.994,35.374207
1430947375.01,92.95514
1430947375.025,149.75641
1430947375.041,205.87595
1430947375.057,261.0244
1430947375.072,314.37573
1430947375.088,364.49802
1430947375.103,410.50156
1430947375.119,451.70242
1430947375.135,487.5006
1430947375.15,516.97284
1430947375.166,538.6624
1430947375.182,550.7587
1430947375.197,551.48834
1430947375.213,539.8115
1430947375.228,515.5958
1430947375.244,480.15424
1430947375.26,435.66907
1430947375.275,384.75854
1430947375.291,329.94824
1430947375.307,273.3253
1430947375.322,216.45508
1430947375.338,160.54196
1430947375.354,106.70328
1430947375.369,56.006348
1430947375.385,9.682373
1430947375.4,-31.227478
1430947375.416,-66.075195
1430947375.432,-94.78015
1430947375.447,-117.80499
1430947375.463,-135.95525
1430947375.479,-150.06209
1430947375.494,-160.7011
1430947375.51,-168.14581
1430947375.525,-172.36794
1430947375.541,-173.36421
1430947375.557,-171.3598
1430947375.572,-166.92
1430947375.588,-160.83968
1430947375.604,-153.94574
1430947375.619,-146.84956
1430947375.635,-139.802
1430947375.65,-132.73915
1430947375.666,-125.38144
1430947375.682,-117.38973
1430947375.697,-108.42261
1430947375.713,-98.24346
1430947375.729,-86.94719
1430947375.744,-75.27336
1430947375.76,-64.75111
1430947375.775,-57.426132
1430947375.791,-55.10818
1430947375.807,-58.428238
1430947375.822,-66.28336
1430947375.838,-75.964195
1430947375.854,-84.10964
1430947375.869,-87.97168
1430947375.885,-86.40971
1430947375.9,-80.08036
1430947375.916,-70.80115
1430947375.932,-60.74896
1430947375.947,-51.36743
1430947375.963,-43.328743
1430947375.979,-36.779274
1430947375.994,-31.701363
1430947376.01,-28.137012
1430947376.025,-26.163603
1430947376.041,-25.727507
1430947376.057,-26.483055
1430947376.072,-27.833504
1430947376.088,-28.988857
1430947376.104,-29.322277
1430947376.119,-28.55048
1430947376.135,-26.829628
1430947376.15,-24.64571
1430947376.166,-22.515125
1430947376.182,-20.617496
1430947376.197,-18.68827
1430947376.213,-16.224174
1430947376.229,-12.939262
1430947376.244,-9.250332
1430947376.26,-6.263817
1430947376.275,-5.2511063
1430947376.291,-6.8309975
1430947376.307,-10.420498
1430947376.322,-14.385094
1430947376.338,-16.756638
1430947376.354,-16.339108
1430947376.369,-13.240166
1430947376.385,-8.744606
1430947376.4,-4.45409
1430947376.416,-1.3372612
1430947376.432,0.6619148
1430947376.447,2.3623314
1430947376.463,4.546829
1430947376.479,7.3151627
1430947376.494,9.956215
1430947376.51,11.484295
1430947376.525,11.303883
1430947376.541,9.662964
1430947376.557,7.5558167
1430947376.572,6.1208687
1430947376.588,6.0220947
1430947376.604,7.1024094
1430947376.619,8.519249
1430947376.635,9.271084
1430947376.65,8.689316
1430947376.666,6.796753
1430947376.682,4.217537
1430947376.697,1.8856049
1430947376.713,0.60681534
1430947376.729,0.7287674
1430947376.744,2.0140495
1430947376.76,3.759697
1430947376.775,5.035946
1430947376.791,5.0261917
1430947376.807,3.2664223
1430947376.822,-0.20373154
1430947376.838,-4.8023815
1430947376.854,-9.561052
1430947376.869,-13.330923
1430947376.885,-15.057062
1430947376.9,-14.097797
1430947376.916,-10.465664
1430947376.932,-4.959179
1430947376.947,1.0809898
1430947376.963,6.1708736
1430947376.979,9.255901
1430947376.994,10.065123
1430947377.01,9.19346
1430947377.025,7.71661
1430947377.041,6.709753
1430947377.057,6.7380066
1430947377.072,7.688936
1430947377.088,8.901949
1430947377.104,9.534748
1430947377.119,8.9539585
1430947377.135,7.0421066
1430947377.15,4.1785393
1430947377.166,1.1488838
1430947377.182,-1.1902466
1430947377.197,-2.1866817
1430947377.213,-1.6115818
1430947377.229,0.25583076
1430947377.244,2.7314968
1430947377.26,5.0136623
1430947377.275,6.4447517
1430947377.291,6.787201
1430947377.307,6.216667
1430947377.322,5.167717
1430947377.338,4.0313816
1430947377.354,2.9479713
1430947377.369,1.7060852
1430947377.385,-0.09813309
1430947377.4,-2.8203602
1430947377.416,-6.517912
1430947377.432,-10.836052
1430947377.447,-15.085096
1430947377.463,-18.434172
1430947377.479,-20.098555
1430947377.494,-19.492765
1430947377.51,-16.294062
1430947377.525,-10.629093
1430947377.541,-3.1972294
1430947377.557,4.570013
1430947377.572,10.714783
1430947377.588,13.249933
1430947377.604,10.980577
1430947377.619,4.18009
1430947377.635,-5.2578316
1430947377.65,-14.413309
1430947377.666,-20.373003
1430947377.682,-21.297304
1430947377.697,-16.92395
1430947377.713,-8.387041
1430947377.729,2.4598274
1430947377.744,13.7557335
1430947377.76,24.09978
1430947377.775,32.539726
1430947377.791,38.40863
1430947377.807,41.20289
1430947377.822,40.63114
1430947377.838,36.77861
1430947377.854,30.236263
1430947377.869,22.029333
1430947377.885,13.410732
1430947377.9,5.522625
1430947377.916,-0.8134842
1430947377.932,-5.2555733
1430947377.947,-7.8787518
1430947377.963,-9.079163
1430947377.979,-9.384411
1430947377.994,-9.271614
1430947378.01,-9.072374
1430947378.026,-9.002026
1430947378.041,-9.211447
1430947378.057,-9.922068
1430947378.072,-11.344664
1430947378.088,-13.524103
1430947378.104,-16.086142
1430947378.119,-18.211605
1430947378.135,-18.810717
1430947378.151,-17.07746
1430947378.166,-12.978888
1430947378.182,-7.518236
1430947378.197,-2.4342346
1430947378.213,0.4892521
1430947378.229,0.2748947
1430947378.244,-2.8299656
1430947378.26,-7.390957
1430947378.276,-11.488865
1430947378.291,-13.561741
1430947378.307,-13.046219
1430947378.322,-10.488962
1430947378.338,-7.1540794
1430947378.354,-4.33333
1430947378.369,-2.8255444
1430947378.385,-2.6909637
1430947378.401,-3.3888035
1430947378.416,-4.113413
1430947378.432,-4.199402
1430947378.447,-3.303133
1430947378.463,-1.4882908
1430947378.479,0.8973713
1430947378.494,3.3472042
1430947378.51,5.542343
1430947378.526,7.2474146
1430947378.541,8.449704
1430947378.557,9.170716
1430947378.572,9.434453
1430947378.588,9.110263
1430947378.604,8.0089035
1430947378.619,5.8652687
1430947378.635,2.595934
1430947378.651,-1.6159296
1430947378.666,-6.2785826
1430947378.682,-10.640895
1430947378.697,-13.870498
1430947378.713,-15.214637
1430947378.729,-14.163226
1430947378.744,-10.575069
1430947378.76,-4.854827
1430947378.776,1.9630718
1430947378.791,8.287277
1430947378.807,12.286043
1430947378.822,12.515953
1430947378.838,8.5245
1430947378.854,1.2121015
1430947378.869,-7.3618145
1430947378.885,-14.59351
1430947378.901,-18.26426
1430947378.916,-17.253807
1430947378.932,-11.83765
1430947378.947,-3.3613777
1430947378.963,6.34311
1430947378.979,15.608949
1430947378.994,23.23298
1430947379.01,28.528149
1430947379.026,31.185417
1430947379.041,31.203619
1430947379.057,28.831232
1430947379.072,24.609085
1430947379.088,19.33098
1430947379.104,13.988486
1430947379.119,9.424449
1430947379.135,6.154728
1430947379.151,4.2108755
1430947379.166,3.2361367
1430947379.182,2.65451
1430947379.197,1.879473
1430947379.213,0.42843187
1430947379.229,-1.8861074
1430947379.244,-4.8811235
1430947379.26,-8.132547
1430947379.276,-11.231617
1430947379.291,-13.984961
1430947379.307,-16.622543
1430947379.322,-19.69734
1430947379.338,-23.808384
1430947379.354,-29.110865
1430947379.369,-34.90427
1430947379.385,-39.535553
1430947379.401,-41.02656
1430947379.416,-37.908756
1430947379.432,-29.989403
1430947379.447,-18.549154
1430947379.463,-5.9534707
1430947379.479,5.290337
1430947379.494,13.128115
1430947379.51,16.048887
1430947379.526,14.137421
1430947379.541,9.030071
1430947379.557,3.1938562
1430947379.572,-0.9864521
1430947379.588,-2.0545812
1430947379.604,0.1805811
1430947379.619,4.7579017
1430947379.635,10.175203
1430947379.651,15.067489
1430947379.666,18.834715
1430947379.682,21.67088
1430947379.697,24.294794
1430947379.713,27.555
1430947379.729,32.083084
1430947379.744,38.057644
1430947379.76,45.174065
1430947379.776,52.736694
1430947379.791,59.908035
1430947379.807,65.987595
1430947379.822,70.50391
1430947379.838,73.22949
1430947379.854,74.14818
1430947379.869,73.30698
1430947379.885,70.710526
1430947379.901,66.227104
1430947379.916,59.63543
1430947379.932,50.70517
1430947379.947,39.289196
1430947379.963,25.305914
1430947379.979,8.898363
1430947379.994,-9.287109
1430947380.01,-27.737968
1430947380.026,-44.091637
1430947380.041,-55.720726
1430947380.057,-60.87213
1430947380.072,-59.771294
1430947380.088,-55.049442
1430947380.104,-50.939655
1430947380.119,-51.492416
1430947380.135,-58.599396
1430947380.151,-70.96088
1430947380.166,-84.572205
1430947380.182,-94.568726
1430947380.197,-97.38543
1430947380.213,-92.12273
1430947380.229,-80.424126
1430947380.244,-65.18905
1430947380.26,-48.944443
1430947380.276,-32.92971
1430947380.291,-17.109686
1430947380.307,-1.0899181
1430947380.322,14.954197
1430947380.338,29.845009
1430947380.354,41.801563
1430947380.369,49.260387
1430947380.385,51.721893
1430947380.401,50.02478
1430947380.416,45.998306
1430947380.432,41.641068
1430947380.447,38.340603
1430947380.463,36.467983
1430947380.479,35.526466
1430947380.494,34.625538
1430947380.51,32.977238
1430947380.526,30.065144
1430947380.541,25.626247
1430947380.557,19.488762
1430947380.572,11.639469
1430947380.588,2.4184265
1430947380.604,-7.243744
1430947380.619,-15.879902
1430947380.635,-21.898998
1430947380.651,-24.270027
1430947380.666,-23.090832
1430947380.682,-19.68702
1430947380.698,-16.132633
1430947380.713,-14.396431
1430947380.729,-15.511337
1430947380.744,-19.25845
1430947380.76,-24.376606
1430947380.776,-29.280823
1430947380.791,-32.73124
1430947380.807,-34.260254
1430947380.822,-34.06014
1430947380.838,-32.613556
1430947380.854,-30.223427
1430947380.869,-26.839851
1430947380.885,-22.157291
1430947380.901,-15.980705
1430947380.916,-8.502918
1430947380.932,-0.37556458
1430947380.948,7.5519447
1430947380.963,14.651802
1430947380.979,20.82006
1430947380.994,26.491318
1430947381.01,32.363724
1430947381.026,38.93079
1430947381.041,46.162804
1430947381.057,53.349743
1430947381.073,59.354137
1430947381.088,62.911507
1430947381.104,63.067455
1430947381.119,59.344437
1430947381.135,51.869587
1430947381.151,41.37063
1430947381.166,29.197731
1430947381.182,17.251148
1430947381.198,7.7582474
1430947381.213,2.728424
1430947381.229,3.205902
1430947381.244,8.609726
1430947381.26,16.58313
1430947381.276,23.60241
1430947381.291,26.229988
1430947381.307,22.432533
1430947381.323,12.371872
1430947381.338,-1.8469543
1430947381.354,-17.219795
1430947381.369,-31.217377
1430947381.385,-42.576836
1430947381.401,-51.318703
1430947381.416,-57.96263
1430947381.432,-62.65236
1430947381.448,-64.71877
1430947381.463,-62.97917
1430947381.479,-56.505844
1430947381.494,-45.386147
1430947381.51,-30.997429
1430947381.526,-15.646545
1430947381.541,-1.7529068
1430947381.557,8.945396
1430947381.573,15.906685
1430947381.588,19.788383
1430947381.604,22.110268
1430947381.619,24.59468
1430947381.635,28.547295
1430947381.651,34.35997
1430947381.666,41.446144
1430947381.682,48.509926
1430947381.698,54.266945
1430947381.713,58.028954
1430947381.729,60.02057
1430947381.744,60.924248
1430947381.76,61.175934
1430947381.776,60.279694
1430947381.791,56.929375
1430947381.807,49.868515
1430947381.823,38.840637
1430947381.838,24.731453
1430947381.854,8.697762
1430947381.869,-8.985123
1430947381.885,-29.154854
1430947381.901,-52.647835
1430947381.916,-78.63419
1430947381.932,-103.92618
1430947381.948,-124.13598
1430947381.963,-136.32547
1430947381.979,-141.22879
1430947381.994,-143.32986
1430947382.01,-148.31343
1430947382.026,-159.61984
1430947382.041,-176.23285
1430947382.057,-193.2784
1430947382.073,-204.9883
1430947382.088,-207.96556
1430947382.104,-202.70229
1430947382.119,-192.6401
1430947382.135,-181.77884
1430947382.151,-172.64464
1430947382.166,-165.67358
1430947382.182,-159.93959
1430947382.198,-154.03687
1430947382.213,-146.49971
1430947382.229,-135.62451
1430947382.244,-119.495735
1430947382.26,-96.33345
1430947382.276,-65.43654
1430947382.291,-27.937632
1430947382.307,13.036031
1430947382.323,53.170288
1430947382.338,88.18942
1430947382.354,114.9212
1430947382.369,131.65843
1430947382.385,137.9024
1430947382.401,133.89561
1430947382.416,120.41527
1430947382.432,98.986206
1430947382.448,72.40799
1430947382.463,44.973656
1430947382.479,21.910446
1430947382.494,7.896103
1430947382.51,5.3834457
1430947382.526,13.48687
1430947382.541,28.298645
1430947382.557,44.565094
1430947382.573,57.894028
1430947382.588,66.38641
1430947382.604,70.84137
1430947382.619,73.56206
1430947382.635,76.623535
1430947382.651,80.686966
1430947382.666,84.933136
1430947382.682,87.92627
1430947382.698,88.798584
1430947382.713,87.89812
1430947382.729,86.58925
1430947382.744,86.40202
1430947382.76,88.117294
1430947382.776,91.3584
1430947382.791,94.939896
1430947382.807,97.54059
1430947382.823,98.38347
1430947382.838,97.49585
1430947382.854,95.4487
1430947382.869,92.79147
1430947382.885,89.56662
1430947382.901,85.14685
1430947382.916,78.54813
1430947382.932,69.01364
1430947382.948,56.57614
1430947382.963,42.263153
1430947382.979,27.889038
1430947382.994,15.448486
1430947383.01,6.3416443
1430947383.026,0.8404846
1430947383.041,-2.1043396
1430947383.057,-4.428467
1430947383.073,-8.1362
1430947383.088,-14.330078
1430947383.104,-22.57721
1430947383.119,-30.87555
1430947383.135,-36.441284
1430947383.151,-36.905975
1430947383.166,-31.427063
1430947383.182,-21.140198
1430947383.198,-8.745239
1430947383.213,2.5965881
1430947383.229,10.437134
1430947383.244,13.789825
1430947383.26,13.1414795
1430947383.276,9.861603
1430947383.291,5.4115906
1430947383.307,0.8345032
1430947383.323,-3.381195
1430947383.338,-7.063507
1430947383.354,-10.0672
1430947383.37,-12.0946045
1430947383.385,-12.700562
1430947383.401,-11.419586
1430947383.416,-7.9156494
1430947383.432,-2.1164856
1430947383.448,5.7217712
1430947383.463,15.014923
1430947383.479,24.929565
1430947383.494,34.59842
1430947383.51,43.286865
1430947383.526,50.5878
1430947383.541,56.437683
1430947383.557,60.99475
1430947383.573,64.391754
1430947383.588,66.53488
1430947383.604,67.05017
1430947383.62,65.42499
1430947383.635,61.189255
1430947383.651,54.02066
1430947383.666,43.766296
1430947383.682,30.412079
1430947383.698,14.207779
1430947383.713,-4.0069275
1430947383.729,-22.508636
1430947383.745,-38.662445
1430947383.76,-49.528976
1430947383.776,-52.869324
1430947383.791,-48.266403
1430947383.807,-37.54338
1430947383.823,-24.271729
1430947383.838,-12.475082
1430947383.854,-5.1907806
1430947383.87,-3.550415
1430947383.885,-6.807663
1430947383.901,-13.057373
1430947383.916,-20.16037
1430947383.932,-26.340088
1430947383.948,-30.292847
1430947383.963,-31.040863
1430947383.979,-27.865417
1430947383.995,-20.453156
1430947384.01,-9.2260895
1430947384.026,4.5096893
1430947384.041,18.778
1430947384.057,31.536407
1430947384.073,41.265045
1430947384.088,47.356705
1430947384.104,50.064804
1430947384.12,50.129105
1430947384.135,48.300903
1430947384.151,44.947723
1430947384.166,39.952606
1430947384.182,32.81166
1430947384.198,22.947128
1430947384.213,10.137955
1430947384.229,-5.165085
1430947384.245,-21.638214
1430947384.26,-37.290604
1430947384.276,-49.943115
1430947384.291,-57.98445
1430947384.307,-60.985535
1430947384.323,-59.931274
1430947384.338,-56.87018
1430947384.354,-54.123016
1430947384.37,-53.357147
1430947384.385,-54.99466
1430947384.401,-58.106323
1430947384.416,-60.86525
1430947384.432,-61.276276
1430947384.448,-57.896774
1430947384.463,-50.265198
1430947384.479,-38.988266
1430947384.495,-25.482346
1430947384.51,-11.62468
1430947384.526,0.76309204
1430947384.541,10.247253
1430947384.557,16.136826
1430947384.573,18.536179
1430947384.588,18.238007
1430947384.604,16.383347
1430947384.62,14.0824585
1430947384.635,12.061279
1430947384.651,10.581169
1430947384.666,9.509911
1430947384.682,8.652657
1430947384.698,7.965988
1430947384.713,7.707115
1430947384.729,8.328102
1430947384.745,10.296661
1430947384.76,13.867493
1430947384.776,18.997223
1430947384.791,25.331093
1430947384.807,32.32824
1430947384.823,39.32747
1430947384.838,45.624466
1430947384.854,50.480804
1430947384.87,53.22258
1430947384.885,53.333054
1430947384.901,50.62657
1430947384.916,45.335487
1430947384.932,38.068657
1430947384.948,29.559433
1430947384.963,20.383812
1430947384.979,10.76606
1430947384.995,0.7243042
1430947385.01,-9.633812
1430947385.026,-19.677544
1430947385.041,-28.148842
1430947385.057,-33.44806
1430947385.073,-34.32145
1430947385.088,-30.569435
1430947385.104,-23.377518
1430947385.12,-14.993492
1430947385.135,-7.9143295
1430947385.151,-3.9363174
1430947385.166,-3.640129
1430947385.182,-6.4431915
1430947385.198,-11.134911
1430947385.213,-16.453323
1430947385.229,-21.418976
1430947385.245,-25.2575
1430947385.26,-27.24591
1430947385.276,-26.594345
1430947385.291,-22.707253
1430947385.307,-15.483906
1430947385.323,-5.601948
1430947385.338,5.517414
1430947385.354,16.024662
1430947385.37,24.20842
1430947385.385,28.906261
1430947385.401,29.760098
1430947385.416,27.178928
1430947385.432,22.174881
1430947385.448,16.061348
1430947385.463,10.181435
1430947385.479,5.580776
1430947385.495,2.8162994
1430947385.51,1.7907753
1430947385.526,1.8832474
1430947385.541,2.2099628
1430947385.557,1.9938412
1430947385.573,0.8479862
1430947385.588,-1.1276054
1430947385.604,-3.4480705
1430947385.62,-5.467497
1430947385.635,-6.6465874
1430947385.651,-6.766939
1430947385.666,-6.122525
1430947385.682,-5.6159163
1430947385.698,-6.700528
1430947385.713,-10.966427
1430947385.729,-19.447834
1430947385.745,-31.75848
1430947385.76,-45.68681
1430947385.776,-57.461792
1430947385.791,-62.974506
1430947385.807,-59.342663
1430947385.823,-46.191757
1430947385.838,-25.964302
1430947385.854,-3.140842
1430947385.87,17.263824
1430947385.885,31.276726
1430947385.901,37.012585
1430947385.916,34.931824
1430947385.932,27.34565
1430947385.948,17.500923
1430947385.963,8.557532
1430947385.979,2.6931858
1430947385.995,0.66319084
1430947386.01,1.8083267
1430947386.026,4.602577
1430947386.041,7.422493
1430947386.057,9.273479
1430947386.073,10.058777
1430947386.088,10.387905
1430947386.104,11.044846
1430947386.12,12.540337
1430947386.135,14.928921
1430947386.151,17.978813
1430947386.166,21.417751
1430947386.182,25.06895
1430947386.198,28.78529
1430947386.213,32.304264
1430947386.229,35.1137
1430947386.245,36.530773
1430947386.26,35.869514
1430947386.276,32.70603
1430947386.292,27.066555
1430947386.307,19.41135
1430947386.323,10.374634
1430947386.338,0.49458694
1430947386.354,-9.914158
1430947386.37,-20.547588
1430947386.385,-30.751083
1430947386.401,-39.30209
1430947386.417,-44.664307
1430947386.432,-45.745377
1430947386.448,-42.73075
1430947386.463,-37.439575
1430947386.479,-32.808235
1430947386.495,-31.60102
1430947386.51,-35.03862
1430947386.526,-42.06846
1430947386.542,-49.816513
1430947386.557,-54.929047
1430947386.573,-55.13192
1430947386.588,-50.068222
1430947386.604,-41.109657
1430947386.62,-30.302185
1430947386.635,-19.214256
1430947386.651,-8.291603
1430947386.667,2.934433
1430947386.682,15.104149
1430947386.698,28.19809
1430947386.713,41.192368
1430947386.729,52.307312
1430947386.745,59.739326
1430947386.76,62.346504
1430947386.776,59.983124
1430947386.792,53.25505
1430947386.807,43.080917
1430947386.823,30.272911
1430947386.838,15.545578
1430947386.854,-0.22238159
1430947386.87,-15.664993
1430947386.885,-28.913628
1430947386.901,-38.007256
1430947386.917,-41.560226
1430947386.932,-39.33764
1430947386.948,-32.450714
1430947386.963,-23.075653
1430947386.979,-13.909256
1430947386.995,-7.4226913
1430947387.01,-5.3138504
1430947387.026,-8.062805
1430947387.042,-14.796722
1430947387.057,-23.475098
1430947387.073,-31.487114
1430947387.088,-36.45643
1430947387.104,-37.063805
1430947387.12,-33.397263
1430947387.135,-26.750023
1430947387.151,-18.862465
1430947387.167,-11.10527
1430947387.182,-3.983345
1430947387.198,2.7418976
1430947387.213,9.516106
1430947387.229,16.344765
1430947387.245,22.539902
1430947387.26,26.913559
1430947387.276,28.385345
1430947387.292,26.491081
1430947387.307,21.712997
1430947387.323,15.352325
1430947387.338,9.139595
1430947387.354,4.7099304
1430947387.37,3.1912537
1430947387.385,4.9343567
1430947387.401,9.512268
1430947387.417,15.860352
1430947387.432,22.638
1430947387.448,28.571228
1430947387.463,32.804535
1430947387.479,34.952835
1430947387.495,35.018616
1430947387.51,33.110794
1430947387.526,29.238022
1430947387.542,23.268768
1430947387.557,15.097565
1430947387.573,4.87825
1430947387.588,-6.777664
1430947387.604,-18.842758
1430947387.62,-30.048492
1430947387.635,-39.219482
1430947387.651,-45.538467
1430947387.667,-48.74315
1430947387.682,-49.113068
1430947387.698,-47.38243
1430947387.713,-44.47412
1430947387.729,-41.281586
1430947387.745,-38.42984
1430947387.76,-36.161163
1430947387.776,-34.349197
1430947387.792,-32.62697
1430947387.807,-30.560959
1430947387.823,-27.810577
1430947387.838,-24.1566
1430947387.854,-19.523087
1430947387.87,-13.908096
1430947387.885,-7.4589996
1430947387.901,-0.46340942
1430947387.917,6.576294
1430947387.932,13.01091
1430947387.948,18.158783
1430947387.963,21.552368
1430947387.979,23.080704
1430947387.995,23.081924
1430947388.01,22.228989
1430947388.026,21.306305
1430947388.042,20.95111
1430947388.057,21.47258
1430947388.073,22.782822
1430947388.088,24.491898
1430947388.104,26.03447
1430947388.12,26.824371
1430947388.135,26.347
1430947388.151,24.303741
1430947388.167,20.632996
1430947388.182,15.578476
1430947388.198,9.620514
1430947388.213,3.4210205
1430947388.229,-2.3263245
1430947388.245,-6.987564
1430947388.26,-10.06781
1430947388.276,-11.265442
1430947388.292,-10.574158
1430947388.307,-8.376129
1430947388.323,-5.5017242
1430947388.338,-3.138092
1430947388.354,-2.536911
1430947388.37,-4.557495
1430947388.385,-9.27916
1430947388.401,-15.835922
1430947388.417,-22.639206
1430947388.432,-27.904129
1430947388.448,-30.263351
1430947388.463,-29.199188
1430947388.479,-25.142944
1430947388.495,-19.165741
1430947388.51,-12.564941
1430947388.526,-6.392975
1430947388.542,-1.2267456
1430947388.557,2.8718414
1430947388.573,6.1962585
1430947388.588,9.173584
1430947388.604,12.157242
1430947388.62,15.306808
1430947388.635,18.501755
1430947388.651,21.435577
1430947388.667,23.67073
1430947388.682,24.817322
1430947388.698,24.672531
1430947388.713,23.352951
1430947388.729,21.288177
1430947388.745,19.089172
1430947388.76,17.27237
1430947388.776,15.968918
1430947388.792,14.753464
1430947388.807,12.727585
1430947388.823,8.824417
1430947388.838,2.2211761
1430947388.854,-7.3195496
1430947388.87,-19.320847
1430947388.885,-32.728683
1430947388.901,-46.19487
1430947388.917,-58.428482
1430947388.932,-68.48605
1430947388.948,-75.94916
1430947388.964,-80.94833
1430947388.979,-84.12749
1430947388.995,-86.36929
1430947389.01,-88.414536
1430947389.026,-90.40605
1430947389.042,-91.585526
1430947389.057,-90.36078
1430947389.073,-84.94038
1430947389.089,-74.32647
1430947389.104,-59.378235
1430947389.12,-43.270958
1430947389.135,-31.003342
1430947389.151,-27.6064
1430947389.167,-35.862854
1430947389.182,-54.405746
1430947389.198,-77.3808
1430947389.214,-95.949486
1430947389.229,-101.19633
1430947389.245,-87.19385
1430947389.26,-52.9449
1430947389.276,-2.4199295
1430947389.292,57.074356
1430947389.307,117.41846
1430947389.323,171.9341
1430947389.339,216.5757
1430947389.354,249.84393
1430947389.37,271.8756
1430947389.385,283.27994
1430947389.401,284.5537
1430947389.417,276.07794
1430947389.432,258.63135
1430947389.448,233.81812
1430947389.464,204.04181
1430947389.479,171.90439
1430947389.495,139.38776
1430947389.51,107.221954
1430947389.526,74.87188
1430947389.542,41.233192
1430947389.557,5.721054
1430947389.573,-31.08564
1430947389.589,-67.20999
1430947389.604,-99.789154
1430947389.62,-126.00939
1430947389.635,-144.15791
1430947389.651,-153.81529
1430947389.667,-155.7935
1430947389.682,-151.73091
1430947389.698,-143.88159
1430947389.714,-135.4159
1430947389.729,-130.93259
1430947389.745,-136.52632
1430947389.76,-158.5774
1430947389.776,-201.17462
1430947389.792,-263.13754
1430947389.807,-336.5424
1430947389.823,-407.96164
1430947389.839,-462.56662
1430947389.854,-489.2694
1430947389.87,-484.34952
1430947389.885,-451.70898
1430947389.901,-399.81042
1430947389.917,-337.32217
1430947389.932,-270.05963
1430947389.948,-200.64658
1430947389.964,-130.38742
1430947389.979,-61.484062
1430947389.995,2.2275047
1430947390.01,56.549538
1430947390.026,99.09476
1430947390.042,130.87842
1430947390.057,156.15341
1430947390.073,180.43747
1430947390.089,207.92773
1430947390.104,239.7777
1430947390.12,273.80988
1430947390.135,305.40125
1430947390.151,329.4081
1430947390.167,341.66943
1430947390.182,339.7011
1430947390.198,322.56714
1430947390.214,290.48596
1430947390.229,244.86163
1430947390.245,188.83012
1430947390.26,127.81117
1430947390.276,69.19524
1430947390.292,20.920822
1430947390.307,-10.915497
1430947390.323,-24.056717
1430947390.339,-20.66069
1430947390.354,-5.9110565
1430947390.37,14.386444
1430947390.385,36.042572
1430947390.401,57.267395
1430947390.417,77.94214
1430947390.432,98.2186
1430947390.448,117.58383
1430947390.464,134.97687
1430947390.479,149.577
1430947390.495,161.39178
1430947390.51,171.05637
1430947390.526,178.9245
1430947390.542,184.29553
1430947390.557,185.17535
1430947390.573,179.08026
1430947390.589,164.12122
1430947390.604,140.0792
1430947390.62,108.79144
1430947390.635,73.79358
1430947390.651,39.286804
1430947390.667,8.906586
1430947390.682,-15.339478
1430947390.698,-33.490997
1430947390.714,-47.264008
1430947390.729,-58.940216
1430947390.745,-70.06033
1430947390.76,-80.55209
1430947390.776,-88.7478
1430947390.792,-92.255554
1430947390.807,-89.27219
1430947390.823,-79.53746
1430947390.839,-64.5502
1430947390.854,-46.96994
1430947390.87,-29.705582
1430947390.885,-15.120682
1430947390.901,-4.7247925
1430947390.917,0.76745605
1430947390.932,1.2286224
1430947390.948,-2.990799
1430947390.964,-11.100067
1430947390.979,-21.894485
1430947390.995,-33.990677
1430947391.01,-46.124115
1430947391.026,-57.44008
1430947391.042,-67.49008
1430947391.057,-76.05316
1430947391.073,-82.79628
1430947391.089,-87.17299
1430947391.104,-88.466705
1430947391.12,-86.129074
1430947391.135,-80.01312
1430947391.151,-70.468765
1430947391.167,-58.121872
1430947391.182,-43.680206
1430947391.198,-27.793335
1430947391.214,-11.211533
1430947391.229,5.039963
1430947391.245,19.630371
1430947391.26,31.24614
1430947391.276,39.129776
1430947391.292,43.544785
1430947391.307,45.726166
1430947391.323,47.326538
1430947391.339,49.559555
1430947391.354,52.548553
1430947391.37,55.302048
1430947391.385,56.362946
1430947391.401,54.7379
1430947391.417,50.511658
1430947391.432,44.7518
1430947391.448,38.817245
1430947391.464,33.452255
1430947391.479,28.409561
1430947391.495,22.717453
1430947391.51,15.550705
1430947391.526,6.931366
1430947391.542,-2.0304413
1430947391.557,-9.7348175
1430947391.573,-14.881088
1430947391.589,-17.137924
1430947391.604,-17.06903
1430947391.62,-15.473099
1430947391.636,-12.719696
1430947391.651,-8.6418
1430947391.667,-3.1696777
1430947391.682,2.7253113
1430947391.698,6.6471863
1430947391.714,5.370163
1430947391.729,-3.629654
1430947391.745,-20.730804
1430947391.76,-43.510193
1430947391.776,-67.60318
1430947391.792,-88.416916
1430947391.807,-102.980316
1430947391.823,-110.73306
1430947391.839,-113.048325
1430947391.854,-111.79141
1430947391.87,-107.978745
1430947391.886,-101.18115
1430947391.901,-90.06723
1430947391.917,-73.55838
1430947391.932,-51.933914
1430947391.948,-27.224747
1430947391.964,-2.795044
1430947391.979,17.671417
1430947391.995,31.334305
1430947392.011,37.16313
1430947392.026,36.145203
1430947392.042,30.937286
1430947392.057,24.700241
1430947392.073,19.884857
1430947392.089,17.305923
1430947392.104,16.132446
1430947392.12,14.879974
1430947392.136,12.776428
1430947392.151,10.851685
1430947392.167,11.932053
1430947392.182,19.485214
1430947392.198,35.899597
1430947392.214,61.163315
1430947392.229,92.59621
1430947392.245,125.62076
1430947392.261,155.08437
1430947392.276,176.34581
1430947392.292,185.91756
1430947392.307,181.66997
1430947392.323,163.01027
1430947392.339,131.23134
1430947392.354,89.78099
1430947392.37,44.010498
1430947392.386,0.27449036
1430947392.401,-35.50255
1430947392.417,-59.283646
1430947392.432,-69.83388
1430947392.448,-68.76637
1430947392.464,-59.733505
1430947392.479,-47.184113
1430947392.495,-35.06363
1430947392.511,-25.881752
1430947392.526,-20.415154
1430947392.542,-17.936256
1430947392.557,-16.877663
1430947392.573,-15.587059
1430947392.589,-12.851959
1430947392.604,-8.223457
1430947392.62,-1.922142
1430947392.636,5.2215424
1430947392.651,11.907158
1430947392.667,16.521355
1430947392.682,17.363083
1430947392.698,13.050392
1430947392.714,3.074051
1430947392.729,-11.814369
1430947392.745,-29.475159
1430947392.761,-46.73043
1430947392.776,-60.226578
1430947392.792,-67.439095
1430947392.807,-67.522865
1430947392.823,-61.60132
1430947392.839,-52.286034
1430947392.854,-42.612137
1430947392.87,-34.84617
1430947392.886,-29.756035
1430947392.901,-26.57882
1430947392.917,-23.715607
1430947392.932,-19.610336
1430947392.948,-13.509659
1430947392.964,-5.630329
1430947392.979,3.1359825
1430947392.995,11.764137
1430947393.011,19.451458
1430947393.026,25.711845
1430947393.042,30.210197
1430947393.057,32.58654
1430947393.073,32.396297
1430947393.089,29.346691
1430947393.104,23.537395
1430947393.12,15.70763
1430947393.136,7.229332
1430947393.151,-0.15623856
1430947393.167,-4.828224
1430947393.182,-5.7931404
1430947393.198,-3.0708504
1430947393.214,2.3432846
1430947393.229,8.662212
1430947393.245,13.728149
1430947393.261,15.501755
1430947393.276,12.572075
1430947393.292,4.6018486
1430947393.307,-7.381283
1430947393.323,-21.037006
1430947393.339,-33.234474
1430947393.354,-40.978752
1430947393.37,-42.357925
1430947393.386,-37.15454
1430947393.401,-26.767029
1430947393.417,-13.528694
1430947393.432,0.24549675
1430947393.448,12.950247
1430947393.464,23.79821
1430947393.479,32.366158
1430947393.495,37.980473
1430947393.511,39.42481
1430947393.526,35.34182
1430947393.542,25.096096
1430947393.557,9.691203
1430947393.573,-7.9905233
1430947393.589,-23.831844
1430947393.604,-33.918655
1430947393.62,-36.065014
1430947393.636,-30.732533
1430947393.651,-20.725536
1430947393.667,-9.923354
1430947393.682,-1.5571504
1430947393.698,2.9888005
1430947393.714,4.428771
1430947393.729,4.74175
1430947393.745,5.950472
1430947393.761,9.064305
1430947393.776,13.768768
1430947393.792,18.820198
1430947393.807,22.76855
1430947393.823,24.43973
1430947393.839,23.158426
1430947393.854,18.602291
1430947393.87,10.705641
1430947393.886,-0.26972008
1430947393.901,-13.479237
1430947393.917,-27.3256
1430947393.932,-39.57898
1430947393.948,-47.909378
1430947393.964,-50.64928
1430947393.979,-47.448902
1430947393.995,-39.485348
1430947394.011,-29.128841
1430947394.026,-19.157187
1430947394.042,-11.942694
1430947394.057,-8.839983
1430947394.073,-10.002119
1430947394.089,-14.526056
1430947394.104,-20.812094
1430947394.12,-26.916973
1430947394.136,-30.911201
1430947394.151,-31.155949
1430947394.167,-26.657345
1430947394.182,-17.272234
1430947394.198,-3.7917023
1430947394.214,12.264557
1430947394.229,29.061308
1430947394.245,45.000034
1430947394.261,59.035824
1430947394.276,70.74687
1430947394.292,80.06156
1430947394.308,87.03204
1430947394.323,91.57926
1430947394.339,93.48915
1430947394.354,92.42465
1430947394.37,87.98491
1430947394.386,79.711815
1430947394.401,67.17516
1430947394.417,50.122833
1430947394.432,28.827972
1430947394.448,4.3568077
1430947394.464,-21.336071
1430947394.479,-45.689766
1430947394.495,-66.11694
1430947394.511,-80.65303
1430947394.526,-88.41376
1430947394.542,-89.665695
1430947394.558,-85.57023
1430947394.573,-77.693924
1430947394.589,-67.607834
1430947394.604,-56.7307
1430947394.62,-46.300564
1430947394.636,-37.47163
1430947394.651,-31.262432
1430947394.667,-28.313717
1430947394.683,-28.56213
1430947394.698,-31.08408
1430947394.714,-34.256252
1430947394.729,-36.34196
1430947394.745,-36.12005
1430947394.761,-33.34848
1430947394.776,-28.746513
1430947394.792,-23.538788
1430947394.808,-18.749542
1430947394.823,-14.68103
1430947394.839,-10.822613
1430947394.854,-6.196472
1430947394.87,0.037986755
1430947394.886,8.125885
1430947394.901,17.622025
1430947394.917,27.6278
1430947394.933,37.266716
1430947394.948,46.00679
1430947394.964,53.786514
1430947394.979,60.757217
1430947394.995,67.003075
1430947395.011,72.25639
1430947395.026,75.91485
1430947395.042,77.20516
1430947395.058,75.506096
1430947395.073,70.58886
1430947395.089,62.7548
1430947395.104,52.692924
1430947395.12,41.37938
1430947395.136,29.884308
1430947395.151,19.17096
1430947395.167,9.881638
1430947395.183,2.1578674
1430947395.198,-4.5388565
1430947395.214,-11.310959
1430947395.229,-19.518776
1430947395.245,-30.200897
1430947395.261,-43.52266
1430947395.276,-58.534714
1430947395.292,-73.4057
1430947395.308,-86.02606
1430947395.323,-94.73249
1430947395.339,-98.774666
1430947395.354,-98.35373
1430947395.37,-94.221954
1430947395.386,-87.17897
1430947395.401,-77.66709
1430947395.417,-65.77312
1430947395.433,-51.48825
1430947395.448,-35.11975
1430947395.464,-17.482193
1430947395.479,0.111465454
1430947395.495,16.180023
1430947395.511,29.47042
1430947395.526,39.344055
1430947395.542,45.854103
1430947395.558,49.68389
1430947395.573,51.825485
1430947395.589,53.198753
1430947395.604,54.378708
1430947395.62,55.434845
1430947395.636,56.009834
1430947395.651,55.500954
1430947395.667,53.211494
1430947395.683,48.504616
1430947395.698,40.867935
1430947395.714,30.059113
1430947395.729,16.265633
1430947395.745,0.31986237
1430947395.761,-16.258385
1430947395.776,-31.454773
1430947395.792,-43.267693
1430947395.808,-50.3227
1430947395.823,-52.38652
1430947395.839,-50.462517
1430947395.854,-46.49984
1430947395.87,-42.73488
1430947395.886,-40.947853
1430947395.901,-41.926514
1430947395.917,-45.303474
1430947395.933,-49.770027
1430947395.948,-53.61464
1430947395.964,-55.24066
1430947395.979,-53.626877
1430947395.995,-48.46428
1430947396.011,-40.15213
1430947396.026,-29.513878
1430947396.042,-17.584518
1430947396.058,-5.343193
1430947396.073,6.447113
1430947396.089,17.340172
1430947396.104,27.260345
1430947396.12,36.483665
1430947396.136,45.445015
1430947396.151,54.477074
1430947396.167,63.524467
1430947396.183,72.038475
1430947396.198,79.0785
1430947396.214,83.73379
1430947396.229,85.52262
1430947396.245,84.629135
1430947396.261,81.833305
1430947396.276,78.14811
1430947396.292,74.28526
1430947396.308,70.33678
1430947396.323,65.62313
1430947396.339,58.921844
1430947396.354,48.85344
1430947396.37,34.390793
1430947396.386,15.365433
1430947396.401,-7.1191406
1430947396.417,-30.569962
1430947396.433,-51.39264
1430947396.448,-65.73394
1430947396.464,-70.701
1430947396.479,-65.51538
1430947396.495,-52.016457
1430947396.511,-34.224792
1430947396.526,-16.98034
1430947396.542,-4.274124
1430947396.558,2.005722
1430947396.573,2.27919
1430947396.589,-1.4448853
1430947396.604,-6.84111
1430947396.62,-12.245018
1430947396.636,-16.926704
1430947396.651,-20.689041
1430947396.667,-23.257957
1430947396.683,-23.895714
1430947396.698,-21.614288
1430947396.714,-15.727737
1430947396.729,-6.406555
1430947396.745,5.199646
1430947396.761,17.330185
1430947396.776,28.28917
1430947396.792,36.983574
1430947396.808,43.122566
1430947396.823,46.822235
1430947396.839,48.06246
1430947396.854,46.27984
1430947396.87,40.567688
1430947396.886,30.330315
1430947396.901,16.02407
1430947396.917,-0.6176605
1430947396.933,-17.088066
1430947396.948,-31.116539
1430947396.964,-41.50052
1430947396.979,-48.328346
1430947396.995,-52.413155
1430947397.011,-54.47972
1430947397.026,-54.717857
1430947397.042,-53.05677
1430947397.058,-49.79608
1430947397.073,-45.966057
1430947397.089,-42.979134
1430947397.104,-41.666473
1430947397.12,-41.460953
1430947397.136,-40.468964
1430947397.151,-36.46617
1430947397.167,-28.386932
1430947397.183,-17.20208
1430947397.198,-5.6153717
1430947397.214,3.2667542
1430947397.23,7.4361877
1430947397.245,6.8514786
1430947397.261,3.2155533
1430947397.276,-1.0779037
1430947397.292,-4.0771027
1430947397.308,-4.9277344
1430947397.323,-3.7962952
1430947397.339,-1.3114471
1430947397.355,2.0152283
1430947397.37,6.050621
1430947397.386,10.898201
1430947397.401,16.545074
1430947397.417,22.501877
1430947397.433,27.752853
1430947397.448,30.989388
1430947397.464,31.15001
1430947397.48,27.89016
1430947397.495,21.803558
1430947397.511,14.237556
1430947397.526,6.8412247
1430947397.542,0.9779434
1430947397.558,-2.6683578
1430947397.573,-4.164253
1430947397.589,-4.1956635
1430947397.605,-3.7469711
1430947397.62,-3.7948532
1430947397.636,-5.092003
1430947397.651,-8.000687
1430947397.667,-12.458122
1430947397.683,-17.976318
1430947397.698,-23.71798
1430947397.714,-28.652725
1430947397.73,-31.788475
1430947397.745,-32.386673
1430947397.761,-30.179787
1430947397.776,-25.514076
1430947397.792,-19.318428
1430947397.808,-12.880562
1430947397.823,-7.473877
1430947397.839,-3.8819504
1430947397.855,-2.131096
1430947397.87,-1.4613037
1430947397.886,-0.6604538
1430947397.901,1.4849701
1430947397.917,5.7695923
1430947397.933,12.350746
1430947397.948,20.767319
1430947397.964,30.073708
1430947397.98,39.08719
1430947397.995,46.6177
1430947398.011,51.708496
1430947398.026,53.803116
1430947398.042,52.746437
1430947398.058,48.60161
1430947398.073,41.48301
1430947398.089,31.509583
1430947398.105,18.987
1430947398.12,4.767639
1430947398.136,-9.564278
1430947398.151,-21.831223
1430947398.167,-29.952164
1430947398.183,-32.823463
1430947398.198,-30.973167
1430947398.214,-26.561562
1430947398.23,-22.606148
1430947398.245,-21.800758
1430947398.261,-25.397247
1430947398.276,-32.73681
1430947398.292,-41.56566
1430947398.308,-48.89064
1430947398.323,-52.083244
1430947398.339,-49.611725
1430947398.355,-41.38292
1430947398.37,-28.538078
1430947398.386,-13.050179
1430947398.401,2.7986755
1430947398.417,16.81643
1430947398.433,27.258583
1430947398.448,33.088608
1430947398.464,34.185127
1430947398.48,31.352615
1430947398.495,26.083542
1430947398.511,20.048073
1430947398.526,14.589584
1430947398.542,10.376083
1430947398.558,7.3985825
1430947398.573,5.3699875
1430947398.589,4.112549
1430947398.605,3.864029
1430947398.62,5.2470703
1430947398.636,8.913895
1430947398.651,15.2107315
1430947398.667,23.902481
1430947398.683,34.1892
1430947398.698,44.893715
1430947398.714,54.763412
1430947398.73,62.685036
1430947398.745,67.854485
1430947398.761,69.86507
1430947398.776,68.69264
1430947398.792,64.6314
1430947398.808,58.173103
1430947398.823,49.794632
1430947398.839,39.77044
1430947398.855,28.106712
1430947398.87,14.649284
1430947398.886,-0.62280273
1430947398.901,-17.143684
1430947398.917,-33.457283
1430947398.933,-47.221542
1430947398.948,-55.75077
1430947398.964,-56.987923
1430947398.98,-50.549812
1430947398.995,-38.29995
1430947399.011,-24.057144
1430947399.026,-12.341934
1430947399.042,-6.7212524
1430947399.058,-8.472107
1430947399.073,-16.186562
1430947399.089,-26.607231
1430947399.105,-36.178467
1430947399.12,-42.45146
1430947399.136,-44.75921
1430947399.151,-43.865883
1430947399.167,-41.00779
1430947399.183,-36.91552
1430947399.198,-31.493813
1430947399.214,-24.045876
1430947399.23,-14.017784
1430947399.245,-1.6414337
1430947399.261,11.875435
1430947399.276,24.499794
1430947399.292,33.795593
1430947399.308,37.47136
1430947399.323,33.896767
1430947399.339,22.596558
1430947399.355,4.6329803
1430947399.37,-17.343369
1430947399.386,-39.504875
1430947399.401,-57.574318
1430947399.417,-67.82218
1430947399.433,-67.992035
1430947399.448,-57.981056
1430947399.464,-40.112022
1430947399.48,-18.775581
1430947399.495,0.6707001
1430947399.511,13.504227
1430947399.526,17.234077
1430947399.542,12.487305
1430947399.558,2.705185
1430947399.573,-7.375046
1430947399.589,-13.755867
1430947399.605,-14.778328
1430947399.62,-11.466705
1430947399.636,-6.489647
1430947399.651,-2.482994
1430947399.667,-0.6729126
1430947399.683,-0.5729675
1430947399.698,-0.7835617
1430947399.714,-0.14952087
1430947399.73,1.4805908
1430947399.745,3.361145
1430947399.761,4.5631256
1430947399.776,4.8159943
1430947399.792,4.7718506
1430947399.808,5.7407074
1430947399.823,8.942337
1430947399.839,14.77552
1430947399.855,22.512192
1430947399.87,30.54544
1430947399.886,37.017975
1430947399.902,40.55314
1430947399.917,40.727814
1430947399.933,38.124725
1430947399.948,33.985283
1430947399.964,29.705677
1430947399.98,26.297192
1430947399.995,24.127464
1430947400.011,22.934776
1430947400.027,22.042725
1430947400.042,20.706253
1430947400.058,18.500946
1430947400.073,15.478203
1430947400.089,12.104008
1430947400.105,8.922836
1430947400.12,6.210972
1430947400.136,3.7218971
1430947400.152,0.80892944
1430947400.167,-3.2277222
1430947400.183,-8.713051
1430947400.198,-15.323353
1430947400.214,-22.173462
1430947400.23,-28.164463
1430947400.245,-32.387726
1430947400.261,-34.384285
1430947400.277,-34.136936
1430947400.292,-31.947033
1430947400.308,-28.223206
1430947400.323,-23.428455
1430947400.339,-17.99068
1430947400.355,-12.299568
1430947400.37,-6.633766
1430947400.386,-1.0946198
1430947400.402,4.394493
1430947400.417,9.956345
1430947400.433,15.639317
1430947400.448,21.28889
1430947400.464,26.550167
1430947400.48,30.930016
1430947400.495,33.864098
1430947400.511,34.695663
1430947400.527,32.692204
1430947400.542,27.102829
1430947400.558,17.427593
1430947400.573,3.8085938
1430947400.589,-12.671482
1430947400.605,-29.9705
1430947400.62,-45.41647
1430947400.636,-56.408604
1430947400.652,-61.19489
1430947400.667,-59.477123
1430947400.683,-52.609245
1430947400.698,-43.238716
1430947400.714,-34.41074
1430947400.73,-28.550884
1430947400.745,-26.623043
1430947400.761,-27.840591
1430947400.777,-30.05141
1430947400.792,-30.699055
1430947400.808,-27.796177
1430947400.823,-20.6363
1430947400.839,-9.880047
1430947400.855,2.8772812
1430947400.87,15.81588
1430947400.886,27.434082
1430947400.902,36.848473
1430947400.917,43.726215
1430947400.933,48.09313
1430947400.948,50.168724
1430947400.964,50.34094
1430947400.98,49.128117
1430947400.995,47.200726
1430947401.011,45.225433
1430947401.027,43.643883
1430947401.042,42.476967
1430947401.058,41.317417
1430947401.073,39.51253
1430947401.089,36.45847
1430947401.105,31.805202
1430947401.12,25.556007
1430947401.136,18.096424
1430947401.152,10.143459
1430947401.167,2.6252403
1430947401.183,-3.6002445
1430947401.198,-8.145643
1430947401.214,-11.377502
1430947401.23,-14.374355
1430947401.245,-18.415607
1430947401.261,-24.22457
1430947401.277,-31.335913
1430947401.292,-38.12181
1430947401.308,-42.448746
1430947401.323,-42.675087
1430947401.339,-38.42742
1430947401.355,-30.676834
1430947401.37,-21.051964
1430947401.386,-10.951649
1430947401.402,-0.9596939
1430947401.417,9.024216
1430947401.433,19.17202
1430947401.448,29.059933
1430947401.464,37.644398
1430947401.48,43.675938
1430947401.495,46.472214
1430947401.511,46.429886
1430947401.527,44.951344
1430947401.542,43.794838
1430947401.558,44.2575
1430947401.573,46.589745
1430947401.589,49.89277
1430947401.605,52.574574
1430947401.62,52.990223
1430947401.636,49.965336
1430947401.652,42.990143
1430947401.667,32.10779
1430947401.683,17.700996
1430947401.698,0.41461563
1430947401.714,-18.749817
1430947401.73,-38.339523
1430947401.745,-56.42464
1430947401.761,-70.970566
1430947401.777,-80.34827
1430947401.792,-83.873924
1430947401.808,-82.05226
1430947401.823,-76.41409
1430947401.839,-68.99863
1430947401.855,-61.73826
1430947401.87,-55.994755
1430947401.886,-52.33855
1430947401.902,-50.68722
1430947401.917,-50.58857
1430947401.933,-51.462746
1430947401.948,-52.76826
1430947401.964,-53.97437
1430947401.98,-54.521194
1430947401.995,-53.77483
1430947402.011,-51.14423
1430947402.027,-46.139473
1430947402.042,-38.45164
1430947402.058,-28.029491
1430947402.073,-15.154411
1430947402.089,-0.44537735
1430947402.105,15.131435
1430947402.12,30.481167
1430947402.136,44.53637
1430947402.152,56.406345
1430947402.167,65.54251
1430947402.183,71.910095
1430947402.198,75.885506
1430947402.214,78.009384
1430947402.23,78.704636
1430947402.245,78.055756
1430947402.261,75.83738
1430947402.277,71.63895
1430947402.292,64.91052
1430947402.308,55.343773
1430947402.323,43.311172
1430947402.339,30.004654
1430947402.355,17.145744
1430947402.37,6.5342216
1430947402.386,-0.7591286
1430947402.402,-4.6652927
1430947402.417,-6.213936
1430947402.433,-7.441824
1430947402.448,-10.315643
1430947402.464,-15.42819
1430947402.48,-21.773165
1430947402.495,-27.647402
1430947402.511,-31.635223
1430947402.527,-33.75822
1430947402.542,-34.954567
1430947402.558,-36.32272
1430947402.574,-39.110542
1430947402.589,-43.644455
1430947402.605,-48.478302
1430947402.62,-51.056908
1430947402.636,-49.54547
1430947402.652,-43.476704
1430947402.667,-34.489372
1430947402.683,-24.344997
1430947402.699,-14.016808
1430947402.714,-4.6636333
1430947402.73,2.9643965
1430947402.745,9.703334
1430947402.761,17.490654
1430947402.777,27.562218
1430947402.792,40.227383
1430947402.808,53.601635
1430947402.824,65.60206
1430947402.839,74.219666
1430947402.855,75.58719
1430947402.87,65.08085
1430947402.886,40.242374
1430947402.902,1.9701786
1430947402.917,-46.748096
1430947402.933,-101.13025
1430947402.949,-157.50583
1430947402.964,-212.20515
1430947402.98,-251.80838
1430947402.995,-263.48596
1430947403.011,-248.01634
1430947403.027,-218.77925
1430947403.042,-188.30063
1430947403.058,-167.26636
1430947403.074,-151.3782
1430947403.089,-138.19194
1430947403.105,-126.96368
1430947403.12,-117.506134
1430947403.136,-110.49239
1430947403.152,-107.74233
1430947403.167,-108.9859
1430947403.183,-111.81833
1430947403.199,-114.041916
1430947403.214,-114.08397
1430947403.23,-112.9225
1430947403.245,-111.424576
1430947403.261,-109.8638
1430947403.277,-109.40004
1430947403.292,-111.60559
1430947403.308,-116.68802
1430947403.324,-123.26642
1430947403.339,-129.40518
1430947403.355,-132.34824
1430947403.37,-130.06537
1430947403.386,-120.28787
1430947403.402,-101.77362
1430947403.417,-76.64801
1430947403.433,-50.233734
1430947403.449,-28.3945
1430947403.464,-14.934204
1430947403.48,-10.358429
1430947403.495,-11.62439
1430947403.511,-14.7083435
1430947403.527,-16.12207
1430947403.542,-14.682983
1430947403.558,-11.843811
1430947403.574,-9.722107
1430947403.589,-8.235596
1430947403.605,-4.2404175
1430947403.62,6.7558594
1430947403.636,28.188354
1430947403.652,59.980957
1430947403.667,99.23639
1430947403.683,141.88422
1430947403.699,184.28455
1430947403.714,223.95844
1430947403.73,259.05963
1430947403.745,287.1527
1430947403.761,304.6673
1430947403.777,308.05444
1430947403.792,295.83435
1430947403.808,270.5063
1430947403.824,238.6051
1430947403.839,208.71576
1430947403.855,188.49506
1430947403.87,182.40906
1430947403.886,191.143
1430947403.902,212.77802
1430947403.917,244.52087
1430947403.933,283.75128
1430947403.949,327.9156
1430947403.964,373.69354
1430947403.98,416.56317
1430947403.995,451.15137
1430947404.011,472.51965
1430947404.027,477.55048
1430947404.042,465.7395
1430947404.058,439.1364
1430947404.074,401.22522
1430947404.089,355.75342
1430947404.105,305.75842
1430947404.12,253.36975
1430947404.136,200.05365
1430947404.152,146.76422
1430947404.167,93.97247
1430947404.183,41.309753
1430947404.199,-12.377441
1430947404.214,-68.42224
1430947404.23,-127.04767
1430947404.245,-186.16663
1430947404.261,-240.94183
1430947404.277,-284.7574
1430947404.292,-311.31628
1430947404.308,-316.90222
1430947404.324,-301.57147
1430947404.339,-268.68915
1430947404.355,-223.29071
1430947404.37,-170.37671
1430947404.386,-114.21454
1430947404.402,-58.689453
1430947404.417,-8.0998535
1430947404.433,32.826294
1430947404.449,60.128418
1430947404.464,72.48419
1430947404.48,72.56799
1430947404.495,66.72327
1430947404.511,62.796814
1430947404.527,66.83954
1430947404.542,80.57788
1430947404.558,100.55466
1430947404.574,119.40231
1430947404.589,128.7052
1430947404.605,121.88925
1430947404.62,96.05139
1430947404.636,52.031067
1430947404.652,-6.489441
1430947404.667,-74.08624
1430947404.683,-144.3913
1430947404.699,-210.41373
1430947404.714,-265.13806
1430947404.73,-302.8054
1430947404.745,-320.8836
1430947404.761,-321.50662
1430947404.777,-311.31653
1430947404.792,-299.09607
1430947404.808,-292.11038
1430947404.824,-292.92007
1430947404.839,-298.36472
1430947404.855,-301.2288
1430947404.87,-293.6706
1430947404.886,-270.55798
1430947404.902,-231.14902
1430947404.917,-178.81772
1430947404.933,-119.285645
1430947404.949,-58.621063
1430947404.964,-1.8562622
1430947404.98,47.60269
1430947404.995,87.96643
1430947405.011,118.8963
1430947405.027,141.05536
1430947405.042,155.91626
1430947405.058,165.34494
1430947405.074,171.17133
1430947405.089,174.70593
1430947405.105,176.39816
1430947405.12,175.7826
1430947405.136,171.78
1430947405.152,163.20724
1430947405.167,149.34854
1430947405.183,130.45096
1430947405.199,107.84656
1430947405.214,83.77219
1430947405.23,60.872223
1430947405.246,41.500854
1430947405.261,26.996246
1430947405.277,16.982178
1430947405.292,9.125519
1430947405.308,-0.37335205
1430947405.324,-15.311462
1430947405.339,-37.65555
1430947405.355,-66.06055
1430947405.37,-95.808685
1430947405.386,-120.37256
1430947405.402,-134.06216
1430947405.417,-134.4024
1430947405.433,-122.99667
1430947405.449,-104.39853
1430947405.464,-83.68594
1430947405.48,-64.1055
1430947405.496,-46.04608
1430947405.511,-27.663544
1430947405.527,-6.689789
1430947405.542,17.861267
1430947405.558,44.935608
1430947405.574,71.92944
1430947405.589,95.92409
1430947405.605,114.9086
1430947405.621,128.28891
1430947405.636,136.69962
1430947405.652,141.22827
1430947405.667,142.61205
1430947405.683,140.84377
1430947405.699,135.32323
1430947405.714,125.46062
1430947405.73,111.42326
1430947405.746,94.54677
1430947405.761,77.121506
1430947405.777,61.62758
1430947405.792,49.685165
1430947405.808,41.30475
1430947405.824,34.950256
1430947405.839,28.29219
1430947405.855,19.405014
1430947405.871,7.730606
1430947405.886,-5.5635376
1430947405.902,-18.059662
1430947405.917,-26.916656
1430947405.933,-29.848373
1430947405.949,-25.784332
1430947405.964,-15.326904
1430947405.98,-0.8642578
1430947405.996,13.47374
1430947406.011,22.299255
1430947406.027,19.953598
1430947406.042,2.0596619
1430947406.058,-32.794167
1430947406.074,-81.89757
1430947406.089,-138.50061
1430947406.105,-193.28877
1430947406.121,-236.91785
1430947406.136,-262.53265
1430947406.152,-267.36755
1430947406.167,-252.79233
1430947406.183,-223.05798
1430947406.199,-183.37627
1430947406.214,-138.44499
1430947406.23,-91.754395
1430947406.246,-45.872337
1430947406.261,-3.0258026
1430947406.277,34.504223
1430947406.292,64.593796
1430947406.308,85.889885
1430947406.324,98.40665
1430947406.339,103.6346
1430947406.355,103.97423
1430947406.371,101.82157
1430947406.386,98.78403
1430947406.402,95.31061
1430947406.417,90.99096
1430947406.433,85.13684
1430947406.449,77.47249
1430947406.464,68.28319
1430947406.48,58.276455
1430947406.496,47.996456
1430947406.511,37.39668
1430947406.527,25.750093
1430947406.542,12.097032
1430947406.558,-3.9968834
1430947406.574,-21.794674
1430947406.589,-39.29587
1430947406.605,-53.804447
1430947406.621,-62.938057
1430947406.636,-65.56678
1430947406.652,-62.287415
1430947406.667,-55.089985
1430947406.683,-46.594547
1430947406.699,-39.07647
1430947406.714,-33.790905
1430947406.73,-30.70778
1430947406.746,-28.782354
1430947406.761,-26.444231
1430947406.777,-22.198648
1430947406.792,-15.103676
1430947406.808,-5.0104523
1430947406.824,7.5383415
1430947406.839,21.569847
1430947406.855,36.08075
1430947406.871,50.263252
1430947406.886,63.482132
1430947406.902,75.06786
1430947406.917,84.1262
1430947406.933,89.57135
1430947406.949,90.48171
1430947406.964,86.50809
1430947406.98,78.19517
1430947406.996,66.89815
1430947407.011,54.381737
1430947407.027,42.17917
1430947407.042,31.104752
1430947407.058,21.070114
1430947407.074,11.320038
1430947407.089,0.9548874
1430947407.105,-10.479378
1430947407.121,-22.611847
1430947407.136,-34.134735
1430947407.152,-43.13546
1430947407.167,-47.696198
1430947407.183,-46.581367
1430947407.199,-39.791702
1430947407.214,-28.755371
1430947407.23,-16.063477
1430947407.246,-4.8620605
1430947407.261,1.9305267
1430947407.277,2.373413
1430947407.292,-4.059967
1430947407.308,-16.345871
1430947407.324,-32.13037
1430947407.339,-48.236465
1430947407.355,-61.354675
1430947407.371,-68.75406
1430947407.386,-68.84575
1430947407.402,-61.44368
1430947407.417,-47.63536
1430947407.433,-29.327286
1430947407.449,-8.6219635
1430947407.464,12.690247
1430947407.48,33.40593
1430947407.496,52.785812
1430947407.511,70.28557
1430947407.527,85.21669
1430947407.542,96.64621
1430947407.558,103.55238
1430947407.574,105.13757
1430947407.589,101.076675
1430947407.605,91.60881
1430947407.621,77.33458
1430947407.636,58.95436
1430947407.652,37.067978
1430947407.667,12.116501
1430947407.683,-15.491394
1430947407.699,-45.246124
1430947407.714,-76.39792
1430947407.73,-107.89227
1430947407.746,-138.27267
1430947407.761,-165.66492
1430947407.777,-187.80536
1430947407.792,-202.37103
1430947407.808,-207.5198
1430947407.824,-202.57645
1430947407.839,-188.45724
1430947407.855,-167.64896
1430947407.871,-143.5676
1430947407.886,-119.57443
1430947407.902,-98.07797
1430947407.917,-80.10248
1430947407.933,-65.43741
1430947407.949,-53.21518
1430947407.964,-42.581818
1430947407.98,-33.060516
1430947407.996,-24.582123
1430947408.011,-17.234253
1430947408.027,-10.984009
1430947408.042,-5.591034
1430947408.058,-0.6876831
1430947408.074,3.933075
1430947408.089,8.248138
1430947408.105,11.990112
1430947408.121,14.886078
1430947408.136,16.898346
1430947408.152,18.320679
1430947408.168,19.667816
1430947408.183,21.639557
1430947408.199,25.16397
1430947408.214,31.386475
1430947408.23,41.355743
1430947408.246,55.36905
1430947408.261,72.25897
1430947408.277,89.19754
1430947408.293,102.349365
1430947408.308,108.321396
1430947408.324,105.69966
1430947408.339,95.86072
1430947408.355,82.466644
1430947408.371,69.95982
1430947408.386,61.69391
1430947408.402,58.764877
1430947408.418,59.88315
1430947408.433,62.34285
1430947408.449,63.35112
1430947408.464,61.053894
1430947408.48,54.856216
1430947408.496,45.155655
1430947408.511,32.77945
1430947408.527,18.496094
1430947408.543,2.7788696
1430947408.558,-14.069061
1430947408.574,-31.73639
1430947408.589,-49.451813
1430947408.605,-65.89131
1430947408.621,-79.280045
1430947408.636,-87.79016
1430947408.652,-90.00351
1430947408.668,-85.34569
1430947408.683,-74.19006
1430947408.699,-57.732605
1430947408.714,-37.591293
1430947408.73,-15.433105
1430947408.746,7.3251343
1430947408.761,29.5607
1430947408.777,50.399963
1430947408.793,68.99396
1430947408.808,84.4057
1430947408.824,95.68747
1430947408.839,102.11853
1430947408.855,103.48462
1430947408.871,100.16809
1430947408.886,92.91879
1430947408.902,82.41803
1430947408.918,68.85828
1430947408.933,51.88022
1430947408.949,30.92923
1430947408.964,5.9854736
1430947408.98,-21.841553
1430947408.996,-50.11383
1430947409.011,-75.516815
1430947409.027,-94.815735
1430947409.043,-105.88687
1430947409.058,-108.37326
1430947409.074,-103.68924
1430947409.089,-94.49823
1430947409.105,-83.82004
1430947409.121,-74.18915
1430947409.136,-67.07507
1430947409.152,-62.686554
1430947409.168,-60.141846
1430947409.183,-57.92993
1430947409.199,-54.551636
1430947409.214,-49.106567
1430947409.23,-41.654663
1430947409.246,-33.153473
1430947409.261,-24.983673
1430947409.277,-18.302795
1430947409.293,-13.533844
1430947409.308,-10.248322
1430947409.324,-7.446411
1430947409.339,-4.1104126
1430947409.355,0.42037964
1430947409.371,6.2886353
1430947409.386,13.294006
1430947409.402,21.11322
1430947409.418,29.449463
1430947409.433,37.94751
1430947409.449,46.002045
1430947409.464,52.616882
1430947409.48,56.54947
1430947409.496,56.776886
1430947409.511,53.095276
1430947409.527,46.533447
1430947409.543,39.287598
1430947409.558,34.066742
1430947409.574,33.186188
1430947409.589,37.649628
1430947409.605,46.80475
1430947409.621,58.55008
1430947409.636,70.10248
1430947409.652,78.777954
1430947409.668,82.64023
1430947409.683,80.7168
1430947409.699,72.93375
1430947409.714,59.921387
1430947409.73,42.885468
1430947409.746,23.459503
1430947409.761,3.5573425
1430947409.777,-14.99353
1430947409.793,-30.826996
1430947409.808,-43.342163
1430947409.824,-52.655945
1430947409.839,-59.378296
1430947409.855,-64.13504
1430947409.871,-67.27063
1430947409.886,-68.70456
1430947409.902,-68.10336
1430947409.918,-65.09332
1430947409.933,-59.46176
1430947409.949,-51.204224
1430947409.964,-40.559784
1430947409.98,-28.110931
1430947409.996,-14.956329
1430947410.011,-2.8332825
1430947410.027,6.0380554
1430947410.043,9.526337
1430947410.058,6.38678
1430947410.074,-3.0171509
1430947410.089,-16.559814
1430947410.105,-30.876495
1430947410.121,-42.460236
1430947410.136,-48.72589
1430947410.152,-48.726746
1430947410.168,-43.188446
1430947410.183,-33.957733
1430947410.199,-23.202942
1430947410.214,-12.673279
1430947410.23,-3.2489014
1430947410.246,5.1269226
1430947410.261,13.166565
1430947410.277,21.730042
1430947410.293,31.21811
1430947410.308,41.098633
1430947410.324,49.881348
1430947410.339,55.47577
1430947410.355,56.00177
1430947410.371,50.556396
1430947410.386,39.736237
1430947410.402,25.603485
1430947410.418,11.122528
1430947410.433,-0.76849365
1430947410.449,-8.074463
1430947410.464,-10.295746
1430947410.48,-8.41272
1430947410.496,-4.2635803
1430947410.511,0.33587646
1430947410.527,4.40567
1430947410.543,8.169678
1430947410.558,12.808105
1430947410.574,19.790771
1430947410.589,30.213715
1430947410.605,44.376526
1430947410.621,61.77588
1430947410.636,81.43436
1430947410.652,102.041534
1430947410.668,121.82126
1430947410.683,138.21146
1430947410.699,147.75546
1430947410.714,146.59698
1430947410.73,131.5716
1430947410.746,101.466095
1430947410.761,57.71039
1430947410.777,4.2710266
1430947410.793,-53.379486
1430947410.808,-109.575195
1430947410.824,-159.52948
1430947410.84,-199.80237
1430947410.855,-228.28497
1430947410.871,-243.73944
1430947410.886,-245.57755
1430947410.902,-234.025
1430947410.918,-210.44821
1430947410.933,-177.5502
1430947410.949,-139.1203
1430947410.965,-99.16882
1430947410.98,-60.91983
1430947410.996,-26.166962
1430947411.011,4.656494
1430947411.027,31.902191
1430947411.043,55.821777
1430947411.058,76.04797
1430947411.074,91.52466
1430947411.09,101.0574
1430947411.105,103.84119
1430947411.121,99.71384
1430947411.136,88.87427
1430947411.152,71.16257
1430947411.168,45.61435
1430947411.183,10.745361
1430947411.199,-34.38333
1430947411.215,-88.916016
1430947411.23,-149.48956
1430947411.246,-210.55704
1430947411.261,-265.6706
1430947411.277,-309.1243
1430947411.293,-337.54907
1430947411.308,-350.72205
1430947411.324,-351.30615
1430947411.34,-343.6032
1430947411.355,-332.08133
1430947411.371,-319.9651
1430947411.386,-308.7436
1430947411.402,-298.647
1430947411.418,-289.4057
1430947411.433,-280.70828
1430947411.449,-272.11618
1430947411.465,-262.4295
1430947411.48,-249.2289
1430947411.496,-229.25952
1430947411.511,-199.82701
1430947411.527,-160.47638
1430947411.543,-114.03438
1430947411.558,-66.08232
1430947411.574,-23.014128
1430947411.59,10.320236
1430947411.605,32.130764
1430947411.621,43.735
1430947411.636,48.449623
1430947411.652,50.238678
1430947411.668,52.802063
1430947411.683,59.192078
1430947411.699,71.528625
1430947411.715,90.48807
1430947411.73,114.71454
1430947411.746,140.67352
1430947411.761,163.41202
1430947411.777,178.12686
1430947411.793,181.79901
1430947411.808,174.28275
1430947411.824,158.26865
1430947411.84,138.36023
1430947411.855,119.62164
1430947411.871,106.37567
1430947411.886,101.54855
1430947411.902,106.44391
1430947411.918,120.83783
1430947411.933,143.19675
1430947411.949,170.92123
1430947411.965,200.59698
1430947411.98,228.38739
1430947411.996,250.57678
1430947412.011,264.24097
1430947412.027,267.96948
1430947412.043,262.3542
1430947412.058,250.05365
1430947412.074,235.17456
1430947412.09,221.92224
1430947412.105,213.0426
1430947412.121,208.57703
1430947412.136,205.49323
1430947412.152,198.55646
1430947412.168,182.26288
1430947412.183,153.24548
1430947412.199,112.20746
1430947412.215,64.403015
1430947412.23,18.226685
1430947412.246,-17.642334
1430947412.261,-37.29785
1430947412.277,-39.556396
1430947412.293,-27.865173
1430947412.308,-8.342346
1430947412.324,12.892212
1430947412.34,31.91156
1430947412.355,47.5354
1430947412.371,60.42047
1430947412.386,71.50836
1430947412.402,80.888916
1430947412.418,87.66504
1430947412.433,90.727234
1430947412.449,89.68445
1430947412.465,85.27753
1430947412.48,79.08234
1430947412.496,72.7478
1430947412.511,67.317444
1430947412.527,62.986023
1430947412.543,59.270508
1430947412.558,55.528503
1430947412.574,51.480347
1430947412.59,47.456787
1430947412.605,44.22882
1430947412.621,42.657104
1430947412.636,43.23242
1430947412.652,45.686096
1430947412.668,48.829285
1430947412.683,50.790222
1430947412.699,49.55066
1430947412.715,43.782227
1430947412.73,33.537292
1430947412.746,20.473755
1430947412.761,7.437317
1430947412.777,-2.6132202
1430947412.793,-7.830139
1430947412.808,-8.271851
1430947412.824,-5.9033203
1430947412.84,-3.64917
1430947412.855,-4.1001587
1430947412.871,-8.324402
1430947412.886,-15.534546
1430947412.902,-23.523865
1430947412.918,-29.764404
1430947412.933,-32.457153
1430947412.949,-31.130188
1430947412.965,-26.547302
1430947412.98,-20.202637
1430947412.996,-13.700867
1430947413.011,-8.263611
1430947413.027,-4.5672607
1430947413.043,-2.8059082
1430947413.058,-2.8328247
1430947413.074,-4.2973633
1430947413.09,-6.6191406
1430947413.105,-9.025574
1430947413.121,-10.591553
1430947413.136,-10.37561
1430947413.152,-7.6678467
1430947413.168,-2.21521
1430947413.183,5.637146
1430947413.199,14.988281
1430947413.215,24.5755
1430947413.23,33.018677
1430947413.246,38.999573
1430947413.261,41.345947
1430947413.277,39.224304
1430947413.293,32.407684
1430947413.308,21.608856
1430947413.324,8.557007
1430947413.34,-4.315613
1430947413.355,-14.644806
1430947413.371,-20.958923
1430947413.386,-23.240875
1430947413.402,-22.862488
1430947413.418,-21.937744
1430947413.433,-22.446503
1430947413.449,-25.587555
1430947413.465,-31.566101
1430947413.48,-39.755615
1430947413.496,-48.99948
1430947413.512,-57.80774
1430947413.527,-64.50964
1430947413.543,-67.49945
1430947413.558,-65.62839
1430947413.574,-58.65039
1430947413.59,-47.423218
1430947413.605,-33.69937
1430947413.621,-19.48462
1430947413.637,-6.448456
1430947413.652,4.4344788
1430947413.668,12.824585
1430947413.683,18.681274
1430947413.699,21.98407
1430947413.715,22.656525
1430947413.73,20.765503
1430947413.746,16.820435
1430947413.762,11.885651
1430947413.777,7.4308777
1430947413.793,4.9111633
1430947413.808,5.335846
1430947413.824,8.874329
1430947413.84,14.79184
1430947413.855,21.661621
1430947413.871,27.885773
1430947413.887,32.312195
1430947413.902,34.730194
1430947413.918,35.899475
1430947413.933,37.082214
1430947413.949,39.321716
1430947413.965,42.852966
1430947413.98,46.955902
1430947413.996,50.299316
1430947414.012,51.445526
1430947414.027,49.30301
1430947414.043,43.22107
1430947414.058,33.02231
1430947414.074,19.060822
1430947414.09,2.3853455
1430947414.105,-15.166489
1430947414.121,-31.154922
1430947414.137,-43.228394
1430947414.152,-49.928314
1430947414.168,-51.34874
1430947414.183,-49.08835
1430947414.199,-45.525925
1430947414.215,-42.7753
1430947414.23,-41.84265
1430947414.246,-42.423874
1430947414.262,-43.382065
1430947414.277,-43.49556
1430947414.293,-42.08206
1430947414.308,-39.18358
1430947414.324,-35.364548
1430947414.34,-31.282684
1430947414.355,-27.355667
1430947414.371,-23.647522
1430947414.387,-20.082489
1430947414.402,-16.716034
1430947414.418,-13.910767
1430947414.433,-12.185013
1430947414.449,-11.856598
1430947414.465,-12.6480255
1430947414.48,-13.5833435
1430947414.496,-13.264053
1430947414.512,-10.452866
1430947414.527,-4.6210556
1430947414.543,3.7963867
1430947414.558,13.590279
1430947414.574,23.207321
1430947414.59,31.215843
1430947414.605,36.582474
1430947414.621,38.730576
1430947414.637,37.480537
1430947414.652,33.09664
1430947414.668,26.367477
1430947414.683,18.6781
1430947414.699,11.724739
1430947414.715,6.9453125
1430947414.73,4.7829437
1430947414.746,4.247734
1430947414.762,3.032051
1430947414.777,-1.7083817
1430947414.793,-12.300785
1430947414.808,-29.585045
1430947414.824,-52.51777
1430947414.84,-78.30208
1430947414.855,-103.08655
1430947414.871,-122.7928
1430947414.887,-134.03816
1430947414.902,-134.8415
1430947414.918,-125.092186
1430947414.933,-106.52691
1430947414.949,-82.30091
1430947414.965,-56.08899
1430947414.98,-31.173128
1430947414.996,-9.698177
1430947415.012,7.4811573
1430947415.027,20.541471
1430947415.043,30.102255
1430947415.058,36.79714
1430947415.074,41.059464
1430947415.09,43.174694
1430947415.105,43.454727
1430947415.121,42.34288
1430947415.137,40.33397
1430947415.152,37.901905
1430947415.168,35.353443
1430947415.183,32.79531
1430947415.199,30.174011
1430947415.215,27.46834
1430947415.23,24.85395
1430947415.246,22.79863
1430947415.262,21.982555
1430947415.277,23.03303
1430947415.293,26.15147
1430947415.308,30.905481
1430947415.324,36.201836
1430947415.34,40.601646
1430947415.355,42.769585
1430947415.371,41.895004
1430947415.387,37.896248
1430947415.402,31.37221
1430947415.418,23.256855
1430947415.433,14.443123
1430947415.449,5.453762
1430947415.465,-3.6839447
1430947415.48,-13.278156
1430947415.496,-23.578262
1430947415.512,-34.41979
1430947415.527,-44.962234
1430947415.543,-53.86122
1430947415.558,-59.684937
1430947415.574,-61.49821
1430947415.59,-59.248974
1430947415.605,-53.743523
1430947415.621,-46.244522
1430947415.637,-37.978905
1430947415.652,-29.721924
1430947415.668,-21.806046
1430947415.683,-14.366516
1430947415.699,-7.6714706
1430947415.715,-2.232605
1430947415.73,1.3682785
1430947415.746,2.8893661
1430947415.762,2.7028732
1430947415.777,1.8293304
1430947415.793,1.5871353
1430947415.808,3.054329
1430947415.824,6.6128387
1430947415.84,11.79892
1430947415.855,17.48555
1430947415.871,22.317932
1430947415.887,25.113846
1430947415.902,25.167519
1430947415.918,22.31948
1430947415.933,16.952522
1430947415.949,9.876038
1430947415.965,2.213356
1430947415.98,-4.7689743
1430947415.996,-9.931572
1430947416.012,-12.566246
1430947416.027,-12.624283
1430947416.043,-10.851753
1430947416.058,-8.581078
1430947416.074,-7.317482
1430947416.09,-8.148094
1430947416.105,-11.310356
1430947416.121,-16.100769
1430947416.137,-21.205597
1430947416.152,-25.336182
1430947416.168,-27.834915
1430947416.184,-28.886597
1430947416.199,-29.272003
1430947416.215,-29.778671
1430947416.23,-30.6568
1430947416.246,-31.410065
1430947416.262,-31.10736
1430947416.277,-28.926132
1430947416.293,-24.636093
1430947416.308,-18.691422
1430947416.324,-11.926895
1430947416.34,-5.136215
1430947416.355,1.1958923
1430947416.371,6.9073944
1430947416.387,11.912064
1430947416.402,15.997925
1430947416.418,18.82518
1430947416.434,20.065338
1430947416.449,19.548538
1430947416.465,17.459839
1430947416.48,14.31723
1430947416.496,10.844376
1430947416.512,7.8190765
1430947416.527,5.9494476
1430947416.543,5.7709045
1430947416.559,7.50412
1430947416.574,10.886581
1430947416.59,15.031464
1430947416.605,18.551743
1430947416.621,19.944824
1430947416.637,18.232498
1430947416.652,13.524902
1430947416.668,7.1207733
1430947416.684,1.0839539
1430947416.699,-2.605484
1430947416.715,-2.9023132
1430947416.73,-0.085250854
1430947416.746,4.519226
1430947416.762,9.243134
1430947416.777,12.862869
1430947416.793,14.981812
1430947416.809,15.867676
1430947416.824,15.922363
1430947416.84,15.202789
1430947416.855,13.281723
1430947416.871,9.589737
1430947416.887,3.9178314
1430947416.902,-3.2494965
1430947416.918,-10.741943
1430947416.934,-17.081497
1430947416.949,-21.129333
1430947416.965,-22.522003
1430947416.98,-21.803558
1430947416.996,-20.079147
1430947417.012,-18.417404
1430947417.027,-17.303665
1430947417.043,-16.376694
1430947417.059,-14.685455
1430947417.074,-11.215927
1430947417.09,-5.5472717
1430947417.105,1.8384705
1430947417.121,9.610275
1430947417.137,16.002182
1430947417.152,19.373108
1430947417.168,18.667404
1430947417.184,13.704407
1430947417.199,5.234207
1430947417.215,-5.2160187
1430947417.23,-15.670105
1430947417.246,-24.146454
1430947417.262,-29.168716
1430947417.277,-30.191315
1430947417.293,-27.75
1430947417.309,-23.320862
1430947417.324,-18.824478
1430947417.34,-15.988174
1430947417.355,-15.763565
1430947417.371,-18.01123
1430947417.387,-21.595886
1430947417.402,-24.76683
1430947417.418,-25.813782
1430947417.434,-23.56691
1430947417.449,-17.762863
1430947417.465,-9.039673
1430947417.48,1.3064423
1430947417.496,11.760727
1430947417.512,20.964447
1430947417.527,27.922226
1430947417.543,32.030075
1430947417.559,33.05571
1430947417.574,31.070251
1430947417.59,26.480927
1430947417.605,20.047485
1430947417.621,12.880798
1430947417.637,6.1972656
1430947417.652,1.0324707
1430947417.668,-2.0218353
1430947417.684,-2.9429169
1430947417.699,-2.1623993
1430947417.715,-0.2833252
1430947417.73,2.1775513
1430947417.746,4.751419
1430947417.762,6.9009094
1430947417.777,8.023102
1430947417.793,7.6552124
1430947417.809,5.7990875
1430947417.824,3.0425415
1430947417.84,0.24282837
1430947417.855,-2.046936
1430947417.871,-3.9949188
1430947417.887,-6.3975525
1430947417.902,-10.037079
1430947417.918,-14.879974
1430947417.934,-19.765717
1430947417.949,-22.898499
1430947417.965,-22.879211
1430947417.98,-19.644928
1430947417.996,-14.60025
1430947418.012,-9.809601
1430947418.027,-6.820923
1430947418.043,-5.833374
1430947418.059,-5.7291565
1430947418.074,-4.8889465
1430947418.09,-2.2316284
1430947418.105,2.2929382
1430947418.121,7.900238
1430947418.137,13.526855
1430947418.152,18.404694
1430947418.168,22.32608
1430947418.184,25.42273
1430947418.199,27.838287
1430947418.215,29.352356
1430947418.23,29.433594
1430947418.246,27.455963
1430947418.262,23.119202
1430947418.277,16.766754
1430947418.293,9.480469
1430947418.309,2.816162
1430947418.324,-1.6721802
1430947418.34,-3.0466003
1430947418.355,-1.3543396
1430947418.371,2.2870483
1430947418.387,6.097229
1430947418.402,8.216675
1430947418.418,7.4328613
1430947418.434,3.557373
1430947418.449,-2.5019836
1430947418.465,-9.188995
1430947418.48,-14.906525
1430947418.496,-18.615784
1430947418.512,-20.170288
1430947418.527,-20.341461
1430947418.543,-20.533173
1430947418.559,-22.235626
1430947418.574,-26.368866
1430947418.59,-32.828003
1430947418.605,-40.33673
1430947418.621,-46.84207
1430947418.637,-50.233765
1430947418.652,-49.21109
1430947418.668,-43.757202
1430947418.684,-35.099487
1430947418.699,-25.074097
1430947418.715,-15.2812195
1430947418.73,-6.4737244
1430947418.746,1.5263672
1430947418.762,9.360443
1430947418.777,17.459137
1430947418.793,25.559296
1430947418.809,32.725525
1430947418.824,37.83081
1430947418.84,40.11508
1430947418.856,39.57141
1430947418.871,36.86389
1430947418.887,32.91507
1430947418.902,28.426788
1430947418.918,23.641418
1430947418.934,18.442932
1430947418.949,12.709076
1430947418.965,6.642456
1430947418.98,0.83483887
1430947418.996,-3.9058838
1430947419.012,-6.931061
1430947419.027,-8.004517
1430947419.043,-7.393219
1430947419.059,-5.686554
1430947419.074,-3.5778503
1430947419.09,-1.660553
1430947419.106,-0.37704468
1430947419.121,-0.06732178
1430947419.137,-0.9812927
1430947419.152,-3.2066345
1430947419.168,-6.5177917
1430947419.184,-10.27536
1430947419.199,-13.517883
1430947419.215,-15.242096
1430947419.231,-14.834595
1430947419.246,-12.400391
1430947419.262,-8.788818
1430947419.277,-5.268738
1430947419.293,-2.9719543
1430947419.309,-2.3426208
1430947419.324,-2.945221
1430947419.34,-3.7030334
1430947419.356,-3.5099487
1430947419.371,-1.8040161
1430947419.387,1.2131042
1430947419.402,4.813385
1430947419.418,8.286682
1430947419.434,11.367157
1430947419.449,14.302032
1430947419.465,17.44284
1430947419.481,20.7406
1430947419.496,23.472443
1430947419.512,24.483887
1430947419.527,22.786133
1430947419.543,18.165588
1430947419.559,11.462219
1430947419.574,4.276245
1430947419.59,-1.7054749
1430947419.606,-5.377228
1430947419.621,-6.5579834
1430947419.637,-5.9088745
1430947419.652,-4.5243835
1430947419.668,-3.4892578
1430947419.684,-3.5882568
1430947419.699,-5.183197
1430947419.715,-8.278809
1430947419.731,-12.608337
1430947419.746,-17.721008
1430947419.762,-22.974243
1430947419.777,-27.606415
1430947419.793,-30.793854
1430947419.809,-31.827515
1430947419.824,-30.377594
1430947419.84,-26.63443
1430947419.856,-21.38858
1430947419.871,-15.867737
1430947419.887,-11.389648
1430947419.902,-8.980286
1430947419.918,-9.102356
1430947419.934,-11.577698
1430947419.949,-15.64978
1430947419.965,-20.276764
1430947419.981,-24.31192
1430947419.996,-26.747498
1430947420.012,-26.855865
1430947420.027,-24.28952
1430947420.043,-19.13031
1430947420.059,-11.8280945
1430947420.074,-3.025116
1430947420.09,6.5778503
1430947420.106,16.303741
1430947420.121,25.49179
1430947420.137,33.465454
1430947420.152,39.493988
1430947420.168,42.923615
1430947420.184,43.36212
1430947420.199,40.78772
1430947420.215,35.61374
1430947420.231,28.614899
1430947420.246,20.709717
1430947420.262,12.8871765
1430947420.277,6.0464783
1430947420.293,0.8353882
1430947420.309,-2.510437
1430947420.324,-4.2263794
1430947420.34,-4.875305
1430947420.356,-5.007202
1430947420.371,-4.8454895
1430947420.387,-4.2562256
1430947420.402,-2.9554443
1430947420.418,-0.93829346
1430947420.434,1.2987671
1430947420.449,2.9319153
1430947420.465,3.2180786
1430947420.481,1.9631653
1430947420.496,-0.34643555
1430947420.512,-2.879425
1430947420.527,-5.0357666
1430947420.543,-6.8565674
1430947420.559,-8.98938
1430947420.574,-12.185669
1430947420.59,-16.649841
1430947420.606,-21.745026
1430947420.621,-26.19983
1430947420.637,-28.684967
1430947420.652,-28.508423
1430947420.668,-25.91394
1430947420.684,-21.85086
1430947420.699,-17.437378
1430947420.715,-13.350464
1430947420.731,-9.417816
1430947420.746,-4.860901
1430947420.762,1.1680908
1430947420.777,8.935455
1430947420.793,17.719635
1430947420.809,25.91867
1430947420.824,31.677795
1430947420.84,33.576202
1430947420.856,31.222076
1430947420.871,25.36905
1430947420.887,17.59076
1430947420.902,9.674377
1430947420.918,3.0491028
1430947420.934,-1.5834045
1430947420.949,-4.266144
1430947420.965,-5.576996
1430947420.981,-6.280609
1430947420.996,-7.0235596
1430947421.012,-8.13446
1430947421.027,-9.63208
1430947421.043,-11.3289795
1430947421.059,-12.996307
1430947421.074,-14.44046
1430947421.09,-15.529938
1430947421.106,-16.092072
1430947421.121,-15.9086
1430947421.137,-14.760712
1430947421.152,-12.5772705
1430947421.168,-9.596252
1430947421.184,-6.3865356
1430947421.199,-3.6913757
1430947421.215,-2.1940308
1430947421.231,-2.2792358
1430947421.246,-3.9799805
1430947421.262,-7.0375977
1430947421.277,-11.074188
1430947421.293,-15.672394
1430947421.309,-20.383545
1430947421.324,-24.623718
1430947421.34,-27.678009
1430947421.356,-28.753296
1430947421.371,-27.234985
1430947421.387,-22.870636
1430947421.402,-15.931
1430947421.418,-7.1602783
1430947421.434,2.350586
1430947421.449,11.421967
1430947421.465,18.983917
1430947421.481,24.262665
1430947421.496,26.88971
1430947421.512,26.927399
1430947421.527,24.822632
1430947421.543,21.278809
1430947421.559,17.065552
1430947421.574,12.905731
1430947421.59,9.31897
1430947421.606,6.62381
1430947421.621,4.9172974
1430947421.637,4.140869
1430947421.652,4.095978
1430947421.668,4.487549
1430947421.684,4.9365234
1430947421.699,5.0579224
1430947421.715,4.60553
1430947421.731,3.5717773
1430947421.746,2.243042
1430947421.762,1.1357422
1430947421.778,0.7647705
1430947421.793,1.4277039
1430947421.809,3.0237427
1430947421.824,5.0877075
1430947421.84,6.957611
1430947421.856,8.070343
1430947421.871,8.156708
1430947421.887,7.2832336
1430947421.903,5.7270813
1430947421.918,3.7879028
1430947421.934,1.6671143
1430947421.949,-0.53430176
1430947421.965,-2.725647
1430947421.981,-4.7164917
1430947421.996,-6.166565
1430947422.012,-6.613556
1430947422.028,-5.6127014
1430947422.043,-2.893982
1430947422.059,1.48349
1430947422.074,7.0331116
1430947422.09,12.906952
1430947422.106,18.071442
1430947422.121,21.61966
1430947422.137,23.080627
1430947422.153,22.53537
1430947422.168,20.555817
1430947422.184,17.917053
1430947422.199,15.244812
1430947422.215,12.788635
1430947422.231,10.352539
1430947422.246,7.47052
1430947422.262,3.637848
1430947422.278,-1.3880005
1430947422.293,-7.4325256
1430947422.309,-13.835419
1430947422.324,-19.593231
1430947422.34,-23.663208
1430947422.356,-25.375336
1430947422.371,-24.747162
1430947422.387,-22.584167
1430947422.403,-20.21756
1430947422.418,-19.013245
1430947422.434,-19.799255
1430947422.449,-22.57135
1430947422.465,-26.521942
1430947422.481,-30.471008
1430947422.496,-33.386047
1430947422.512,-34.756714
1430947422.528,-34.706055
1430947422.543,-33.777985
1430947422.559,-32.56369
1430947422.574,-31.361115
1430947422.59,-30.022308
1430947422.606,-28.029877
1430947422.621,-24.782959
1430947422.637,-19.934631
1430947422.653,-13.596558
1430947422.668,-6.3700867
1430947422.684,0.93414307
1430947422.699,7.6471252
1430947422.715,13.558685
1430947422.731,18.951233
1430947422.746,24.345947
1430947422.762,30.100586
1430947422.778,36.038055
1430947422.793,41.364655
1430947422.809,44.924103
1430947422.824,45.71399
1430947422.84,43.353363
1430947422.856,38.305817
1430947422.871,31.739777
1430947422.887,25.072418
1430947422.903,19.43509
1430947422.918,15.3160095
1430947422.934,12.505188
1430947422.949,10.264587
1430947422.965,7.6610107
1430947422.981,3.8605042
1430947422.996,-1.6474915
1430947423.012,-8.8810425
1430947423.028,-17.297699
1430947423.043,-25.819733
1430947423.059,-33.042236
1430947423.074,-37.59265
1430947423.09,-38.667755
1430947423.106,-36.37332
1430947423.121,-31.781525
1430947423.137,-26.516022
1430947423.153,-22.141296
1430947423.168,-19.558075
1430947423.184,-18.763947
1430947423.199,-19.072876
1430947423.215,-19.553894
1430947423.231,-19.485168
1430947423.246,-18.539673
1430947423.262,-16.658173
1430947423.278,-13.85733
1430947423.293,-10.076935
1430947423.309,-5.219864
1430947423.324,0.695282
1430947423.34,7.335449
1430947423.356,14.049393
1430947423.371,20.027695
1430947423.387,24.578018
1430947423.403,27.361053
1430947423.418,28.540787
1430947423.434,28.696487
1430947423.449,28.679657
1430947423.465,29.299866
1430947423.481,31.062653
1430947423.496,33.952866
1430947423.512,37.372894
1430947423.528,40.245117
1430947423.543,41.3358
1430947423.559,39.62648
1430947423.574,34.698074
1430947423.59,26.92604
1430947423.606,17.378342
1430947423.621,7.452347
1430947423.637,-1.5051117
1430947423.653,-8.584549
1430947423.668,-13.435623
1430947423.684,-16.200607
1430947423.699,-17.32985
1430947423.715,-17.555862
1430947423.731,-17.870407
1430947423.746,-19.51471
1430947423.762,-23.645935
1430947423.778,-30.762909
1430947423.793,-40.121002
1430947423.809,-49.61841
1430947423.824,-56.358627
1430947423.84,-57.836685
1430947423.856,-53.119476
1430947423.871,-43.317398
1430947423.887,-31.09729
1430947423.903,-19.407715
1430947423.918,-10.143295
1430947423.934,-3.5370026
1430947423.949,1.4957123
1430947423.965,6.33757
1430947423.981,11.671188
1430947423.996,17.061111
1430947424.012,21.361206
1430947424.028,23.446136
1430947424.043,22.94487
1430947424.059,20.426315
1430947424.074,17.182358
1430947424.09,14.645248
1430947424.106,13.902863
1430947424.121,15.313782
1430947424.137,18.469849
1430947424.153,22.42714
1430947424.168,26.089722
1430947424.184,28.600708
1430947424.199,29.651993
1430947424.215,29.46904
1430947424.231,28.558502
1430947424.246,27.331757
1430947424.262,25.833328
1430947424.278,23.709732
1430947424.293,20.476746
1430947424.309,15.831436
1430947424.324,9.875717
1430947424.34,3.110199
1430947424.356,-3.733429
1430947424.371,-9.919601
1430947424.387,-14.806519
1430947424.403,-17.93512
1430947424.418,-19.042114
1430947424.434,-18.145508
1430947424.45,-15.575287
1430947424.465,-11.98082
1430947424.481,-8.171158
1430947424.496,-4.9293823
1430947424.512,-2.7962036
1430947424.528,-1.9948578
1430947424.543,-2.4066315
1430947424.559,-3.6773071
1430947424.575,-5.283432
1430947424.59,-6.6724396
1430947424.606,-7.343277
1430947424.621,-6.995804
1430947424.637,-5.5865173
1430947424.653,-3.346115
1430947424.668,-0.655777
1430947424.684,2.0888062
1430947424.7,4.611496
1430947424.715,6.751007
1430947424.731,8.453384
1430947424.746,9.699936
1430947424.762,10.603775
1430947424.778,11.435013
1430947424.793,12.6688385
1430947424.809,14.794586
1430947424.825,18.09166
1430947424.84,22.385773
1430947424.856,27.02597
1430947424.871,31.051071
1430947424.887,33.52011
1430947424.903,33.798065
1430947424.918,31.707733
1430947424.934,27.459122
1430947424.95,21.507828
1430947424.965,14.375977
1430947424.981,6.575409
1430947424.996,-1.4168091
1430947425.012,-9.111404
1430947425.028,-15.990555
1430947425.043,-21.580032
1430947425.059,-25.547653
1430947425.075,-27.861237
1430947425.09,-28.87732
1430947425.106,-29.305939
1430947425.121,-29.975967
1430947425.137,-31.425613
1430947425.153,-33.559708
1430947425.168,-35.57228
1430947425.184,-36.23735
1430947425.2,-34.53012
1430947425.215,-30.184204
1430947425.231,-23.898972
1430947425.246,-17.063522
1430947425.262,-11.118515
1430947425.278,-6.938919
1430947425.293,-4.561371
1430947425.309,-3.385498
1430947425.325,-2.5967712
1430947425.34,-1.6374664
1430947425.356,-0.3757019
1430947425.371,1.0068207
1430947425.387,2.2810974
1430947425.403,3.3677826
1430947425.418,4.399399
1430947425.434,5.6728363
1430947425.45,7.5545197
1430947425.465,10.379257
1430947425.481,14.332916
1430947425.496,19.316391
1430947425.512,24.815094
1430947425.528,30.016693
1430947425.543,34.049942
1430947425.559,36.360565
1430947425.575,36.859055
1430947425.59,35.851395
1430947425.606,33.693665
1430947425.621,30.482193
1430947425.637,25.952438
1430947425.653,19.79065
1430947425.668,12.026154
1430947425.684,3.3856354
1430947425.7,-4.817215
1430947425.715,-11.134171
1430947425.731,-14.625839
1430947425.746,-15.227234
1430947425.762,-13.726242
1430947425.778,-11.33316
1430947425.793,-9.130325
1430947425.809,-7.692871
1430947425.825,-7.0266876
1430947425.84,-6.781021
1430947425.856,-6.5720215
1430947425.871,-6.2147217
1430947425.887,-5.765259
1430947425.903,-5.414612
1430947425.918,-5.36409
1430947425.934,-5.6517334
1430947425.95,-6.146393
1430947425.965,-6.613434
1430947425.981,-6.8210297
1430947425.996,-6.568115
1430947426.012,-5.7732697
1430947426.028,-4.418457
1430947426.043,-2.5398102
1430947426.059,-0.1958313
1430947426.075,2.4669495
1430947426.09,5.18486
1430947426.106,7.56398
1430947426.121,9.2155
1430947426.137,9.929611
1430947426.153,9.864319
1430947426.168,9.550705
1430947426.184,9.719299
1430947426.2,10.902725
1430947426.215,13.136337
1430947426.231,15.792847
1430947426.246,17.808472
1430947426.262,18.138794
1430947426.278,16.217545
1430947426.293,12.145622
1430947426.309,6.63768
1430947426.325,0.6507263
1430947426.34,-4.951462
1430947426.356,-9.633316
1430947426.371,-13.182861
1430947426.387,-15.649521
1430947426.403,-17.226921
1430947426.418,-18.2471
1430947426.434,-19.180397
1430947426.45,-20.56176
1430947426.465,-22.821114
1430947426.481,-26.110092
1430947426.496,-30.13263
1430947426.512,-34.22355
1430947426.528,-37.58349
1430947426.543,-39.543587
1430947426.559,-39.750504
1430947426.575,-38.156914
1430947426.59,-34.831398
1430947426.606,-29.7826
1430947426.621,-22.906532
1430947426.637,-14.13488
1430947426.653,-3.6989136
1430947426.668,7.6413193
1430947426.684,18.653168
1430947426.7,27.894928
1430947426.715,34.20806
1430947426.731,37.103012
1430947426.746,36.9113
1430947426.762,34.5991
1430947426.778,31.445953
1430947426.793,28.610321
1430947426.809,26.846405
1430947426.825,26.448547
1430947426.84,27.28814
1430947426.856,28.941055
1430947426.871,30.897522
1430947426.887,32.6911
1430947426.903,33.991158
1430947426.918,34.610565
1430947426.934,34.482826
1430947426.95,33.58264
1430947426.965,31.873695
1430947426.981,29.215462
1430947426.996,25.371704
1430947427.012,20.122139
1430947427.028,13.431717
1430947427.043,5.6209793
1430947427.059,-2.5333862
1430947427.075,-9.943787
1430947427.09,-15.502098
1430947427.106,-18.428215
1430947427.122,-18.562782
1430947427.137,-16.431679
1430947427.153,-13.047821
1430947427.168,-9.553261
1430947427.184,-6.850914
1430947427.2,-5.3814697
1430947427.215,-5.091675
1430947427.231,-5.6338043
1430947427.246,-6.5211334
1430947427.262,-7.327217
1430947427.278,-7.6916275
1430947427.293,-7.3649826
1430947427.309,-6.221695
1430947427.325,-4.2675705
1430947427.34,-1.6677094
1430947427.356,1.2935104
1430947427.372,4.2759857
1430947427.387,7.026474
1430947427.403,9.501053
1430947427.418,11.91095
1430947427.434,14.684158
1430947427.45,18.287292
1430947427.465,23.030334
1430947427.481,28.846832
1430947427.497,35.267197
1430947427.512,41.51143
1430947427.528,46.768753
1430947427.543,50.458893
1430947427.559,52.43483
1430947427.575,52.95964
1430947427.59,52.541733
1430947427.606,51.683426
1430947427.622,50.63443
1430947427.637,49.283615
1430947427.653,47.17668
1430947427.668,43.69188
1430947427.684,38.136993
1430947427.7,29.845703
1430947427.715,18.275665
1430947427.731,3.103653
1430947427.747,-15.547775
1430947427.762,-36.91179
1430947427.778,-59.498642
1430947427.793,-81.31171
1430947427.809,-100.29312
1430947427.825,-114.9005
1430947427.84,-124.5842
1430947427.856,-129.88312
1430947427.872,-132.17705
1430947427.887,-133.11884
1430947427.903,-134.06134
1430947427.918,-135.59624
1430947427.934,-137.44498
1430947427.95,-138.56836
1430947427.965,-137.51996
1430947427.981,-132.83554
1430947427.997,-123.427505
1430947428.012,-108.884186
1430947428.028,-89.613556
1430947428.043,-66.764435
1430947428.059,-41.954742
1430947428.075,-16.945343
1430947428.09,6.6681213
1430947428.106,27.727936
1430947428.122,45.612488
1430947428.137,60.317734
1430947428.153,72.321106
1430947428.168,82.459305
1430947428.184,91.6028
1430947428.2,100.399414
1430947428.215,109.04091
1430947428.231,117.227905
1430947428.247,124.36861
1430947428.262,129.85649
1430947428.278,133.3394
1430947428.293,134.824
1430947428.309,134.63747
1430947428.325,133.27835
1430947428.34,131.1804
1430947428.356,128.51773
1430947428.372,124.84006
1430947428.387,118.88522
1430947428.403,108.551544
1430947428.418,91.40416
1430947428.434,65.37429
1430947428.45,29.637054
1430947428.465,-14.856529
1430947428.481,-65.22834
1430947428.497,-117.188126
1430947428.512,-165.91623
1430947428.528,-207.143
1430947428.543,-238.07094
1430947428.559,-257.86847
1430947428.575,-267.5414
1430947428.59,-269.3265
1430947428.606,-265.68048
1430947428.622,-258.3861
1430947428.637,-248.01202
1430947428.653,-234.13924
1430947428.668,-216.16287
1430947428.684,-194.29146
1430947428.7,-170.01721
1430947428.715,-145.8463
1430947428.731,-124.24793
1430947428.747,-106.55699
1430947428.762,-92.38221
1430947428.778,-79.89303
1430947428.793,-66.69936
1430947428.809,-50.836662
1430947428.825,-31.345024
1430947428.84,-8.218758
1430947428.856,18.06762
1430947428.872,47.020256
1430947428.887,78.22391
1430947428.903,110.90587
1430947428.918,143.41049
1430947428.934,172.93144
1430947428.95,196.01201
1430947428.965,209.52734
1430947428.981,211.90833
1430947428.997,203.78311
1430947429.012,187.84607
1430947429.028,167.8688
1430947429.043,147.41153
1430947429.059,128.77008
1430947429.075,112.70843
1430947429.09,98.83414
1430947429.106,86.38443
1430947429.122,74.83206
1430947429.137,64.1111
1430947429.153,54.413544
1430947429.168,45.917618
1430947429.184,38.618256
1430947429.2,32.4541
1430947429.215,27.50232
1430947429.231,24.081558
1430947429.247,22.606476
1430947429.262,23.312317
1430947429.278,25.949234
1430947429.293,29.769058
1430947429.309,33.679825
1430947429.325,36.649796
1430947429.34,38.048492
1430947429.356,37.85388
1430947429.372,36.54358
1430947429.387,34.840927
1430947429.403,33.374573
1430947429.418,32.459335
1430947429.434,32.05208
1430947429.45,31.906418
1430947429.465,31.767456
1430947429.481,31.514816
1430947429.497,31.183441
1430947429.512,30.90953
1430947429.528,30.81108
1430947429.543,30.967636
1430947429.559,31.404709
1430947429.575,32.129562
1430947429.59,33.09262
1430947429.606,34.128616
1430947429.622,34.887817
1430947429.637,34.896408
1430947429.653,33.62343
1430947429.668,30.734512
1430947429.684,26.190323
1430947429.7,20.386154
1430947429.715,14.062576
1430947429.731,8.15239
1430947429.747,3.5106049
1430947429.762,0.6732025
1430947429.778,-0.3695221
1430947429.794,-0.16215515
1430947429.809,0.39024353
1430947429.825,0.3754425
1430947429.84,-0.76568604
1430947429.856,-3.039032
1430947429.872,-5.9651184
1430947429.887,-8.847275
1430947429.903,-11.100296
1430947429.918,-12.440903
1430947429.934,-12.900604
1430947429.95,-12.639885
1430947429.965,-11.823425
1430947429.981,-10.550934
1430947429.997,-8.924629
1430947430.012,-7.074753
1430947430.028,-5.18425
1430947430.044,-3.3954391
1430947430.059,-1.7607117
1430947430.075,-0.25400543
1430947430.09,1.1389847
1430947430.106,2.3437653
1430947430.122,3.2289352
1430947430.137,3.7382965
1430947430.153,4.00177
1430947430.169,4.396538
1430947430.184,5.3322372
1430947430.2,7.048874
1430947430.215,9.401482
1430947430.231,11.929596
1430947430.247,14.082417
1430947430.262,15.558487
1430947430.278,16.449356
1430947430.294,17.212254
1430947430.309,18.36546
1430947430.325,20.151115
1430947430.34,22.272888
1430947430.356,23.877682
1430947430.372,23.820759
1430947430.387,21.09903
1430947430.403,15.291729
1430947430.419,6.8432655
1430947430.434,-3.0051613
1430947430.45,-12.519859
1430947430.465,-20.042816
1430947430.481,-24.545185
1430947430.497,-26.06939
1430947430.512,-25.869915
1430947430.528,-26.219582
1430947430.544,-29.743689
1430947430.559,-38.44872
1430947430.575,-52.667305
1430947430.59,-70.4741
1430947430.606,-87.94752
1430947430.622,-100.32213
1430947430.637,-103.75276
1430947430.653,-96.79764
1430947430.669,-80.977425
1430947430.684,-60.063774
1430947430.7,-38.46916
1430947430.715,-19.57774
1430947430.731,-4.823326
1430947430.747,6.122447
1430947430.762,14.455038
1430947430.778,21.158693
1430947430.794,26.527033
1430947430.809,30.27366
1430947430.825,32.086163
1430947430.84,31.990627
1430947430.856,30.430153
1430947430.872,27.960148
1430947430.887,24.96877
1430947430.903,21.57358
1430947430.919,17.810997
1430947430.934,13.884235
1430947430.95,10.347195
1430947430.965,7.925537
1430947430.981,7.270584
1430947430.997,8.638054
1430947431.012,11.786823
1430947431.028,16.0864
1430947431.044,20.72565
1430947431.059,24.862549
1430947431.075,27.708103
1430947431.09,28.576351
1430947431.106,26.984692
1430947431.122,22.8549
1430947431.137,16.693886
1430947431.153,9.53783
1430947431.169,2.7003212
1430947431.184,-2.674347
1430947431.2,-5.93824
1430947431.215,-7.077362
1430947431.231,-6.525795
1430947431.247,-4.899643
1430947431.262,-2.7620926
1430947431.278,-0.5704498
1430947431.294,1.2385864
1430947431.309,2.1422806
1430947431.325,1.6075363
1430947431.34,-0.7900238
1430947431.356,-5.13266
1430947431.372,-11.108803
1430947431.387,-18.043655
1430947431.403,-25.109863
1430947431.419,-31.494682
1430947431.434,-36.59632
1430947431.45,-40.08795
1430947431.465,-42.00586
1430947431.481,-42.692833
1430947431.497,-42.684723
1430947431.512,-42.435432
1430947431.528,-42.10578
1430947431.544,-41.397377
1430947431.559,-39.648346
1430947431.575,-36.110107
1430947431.59,-30.315659
1430947431.606,-22.296257
1430947431.622,-12.601555
1430947431.637,-2.1158981
1430947431.653,8.17231
1430947431.669,17.36142
1430947431.684,24.64698
1430947431.7,29.416061
1430947431.715,31.27163
1430947431.731,30.282837
1430947431.747,27.134056
1430947431.762,23.1278
1430947431.778,19.917038
1430947431.794,19.034904
1430947431.809,21.361938
1430947431.825,26.782036
1430947431.84,34.116676
1430947431.856,41.387375
1430947431.872,46.27143
1430947431.887,46.66854
1430947431.903,41.139473
1430947431.919,29.274834
1430947431.934,11.803543
1430947431.95,-9.452423
1430947431.965,-31.877113
1430947431.981,-52.502113
1430947431.997,-68.60562
1430947432.012,-78.25076
1430947432.028,-80.70059
1430947432.044,-76.52377
1430947432.059,-67.33296
1430947432.075,-55.21228
1430947432.09,-42.15345
1430947432.106,-29.569939
1430947432.122,-18.245934
1430947432.137,-8.521637
1430947432.153,-0.66238403
1430947432.169,4.978485
1430947432.184,7.9983063
1430947432.2,8.30127
1430947432.215,6.320122
1430947432.231,3.077713
1430947432.247,-0.09944153
1430947432.262,-2.0100403
1430947432.278,-1.9920807
1430947432.294,-0.06034851
1430947432.309,3.1998596
1430947432.325,6.9922943
1430947432.34,10.651108
1430947432.356,13.854446
1430947432.372,16.622452
1430947432.387,19.190964
1430947432.403,21.771927
1430947432.419,24.40364
1430947432.434,26.84935
1430947432.45,28.66272
1430947432.465,29.316238
1430947432.481,28.391418
1430947432.497,25.728256
1430947432.512,21.457382
1430947432.528,15.954224
1430947432.544,9.713226
1430947432.559,3.2118073
1430947432.575,-3.1332245
1430947432.59,-9.026352
1430947432.606,-14.248535
1430947432.622,-18.626312
1430947432.637,-21.929153
1430947432.653,-23.848633
1430947432.669,-23.97116
1430947432.684,-21.869415
1430947432.7,-17.219955
1430947432.716,-9.962402
1430947432.731,-0.4445343
1430947432.747,10.542282
1430947432.762,21.764694
1430947432.778,31.61621
1430947432.794,38.24411
1430947432.809,39.743576
1430947432.825,34.575043
1430947432.841,22.040253
1430947432.856,2.8279114
1430947432.872,-20.75261
1430947432.887,-44.981308
1430947432.903,-65.53412
1430947432.919,-78.5977
1430947432.934,-81.95093
1430947432.95,-75.52594
1430947432.966,-61.24501
1430947432.981,-42.239426
1430947432.997,-21.846527
1430947433.012,-2.786148
1430947433.028,13.165314
1430947433.044,25.088821
1430947433.059,32.568253
1430947433.075,35.500473
1430947433.091,34.020645
1430947433.106,28.67302
1430947433.122,20.507263
1430947433.137,11.011826
1430947433.153,1.818512
1430947433.169,-5.712204
1430947433.184,-10.843491
1430947433.2,-13.552551
1430947433.216,-14.378357
1430947433.231,-14.081696
1430947433.247,-13.318451
1430947433.262,-12.427185
1430947433.278,-11.44651
1430947433.294,-10.274086
1430947433.309,-8.910248
1430947433.325,-7.5627747
1430947433.341,-6.6423492
1430947433.356,-6.5545044
1430947433.372,-7.44722
1430947433.387,-9.01133
1430947433.403,-10.487427
1430947433.419,-10.873756
1430947433.434,-9.312149
1430947433.45,-5.4389725
1430947433.466,0.34560394
1430947433.481,6.956764
1430947433.497,12.929092
1430947433.512,16.933426
1430947433.528,18.233276
1430947433.544,16.972603
1430947433.559,14.049393
1430947433.575,10.743439
1430947433.591,8.131187
1430947433.606,6.671707
1430947433.622,6.102455
1430947433.637,5.704277
1430947433.653,4.7561035
1430947433.669,2.9075775
1430947433.684,0.27622223
1430947433.7,-2.6281586
1430947433.716,-5.1110916
1430947433.731,-6.381134
1430947433.747,-5.633171
1430947433.762,-2.1500015
1430947433.778,4.341507
1430947433.794,13.316231
1430947433.809,23.212013
1430947433.825,31.730576
1430947433.841,36.561714
1430947433.856,36.325905
1430947433.872,31.17797
1430947433.887,22.77272
1430947433.903,13.528694
1430947433.919,5.6794434
1430947433.934,0.50723267
1430947433.95,-1.7747116
1430947433.966,-1.704483
1430947433.981,0.022109985
1430947433.997,2.9204712
1430947434.012,6.7796555
1430947434.028,11.409935
1430947434.044,16.4636
1430947434.059,21.295471
1430947434.075,25.115189
1430947434.091,27.184013
1430947434.106,26.98513
1430947434.122,24.29203
1430947434.137,19.158463
1430947434.153,11.859467
1430947434.169,2.8456879
1430947434.184,-7.3006516
1430947434.2,-17.905273
1430947434.216,-28.296875
1430947434.231,-37.86496
1430947434.247,-46.120758
1430947434.262,-52.661407
1430947434.278,-57.169914
1430947434.294,-59.397003
1430947434.309,-59.25025
1430947434.325,-56.863297
1430947434.341,-52.712296
1430947434.356,-47.597664
1430947434.372,-42.565475
1430947434.387,-38.688988
1430947434.403,-36.83416
1430947434.419,-37.39959
1430947434.434,-40.112534
1430947434.45,-43.882645
1430947434.466,-46.89898
1430947434.481,-47.006577
1430947434.497,-42.374504
1430947434.512,-32.26831
1430947434.528,-17.631714
1430947434.544,-0.99614716
1430947434.559,14.215393
1430947434.575,24.94735
1430947434.591,29.593697
1430947434.606,28.49598
1430947434.622,23.5626
1430947434.637,17.270668
1430947434.653,11.626099
1430947434.669,7.62632
1430947434.684,5.374054
1430947434.7,4.661545
1430947434.716,5.4169235
1430947434.731,7.8792267
1430947434.747,12.275509
1430947434.762,18.485146
1430947434.778,25.844223
1430947434.794,33.369728
1430947434.809,40.12727
1430947434.825,45.590855
1430947434.841,49.68661
1430947434.856,52.596653
1430947434.872,54.489468
1430947434.887,55.3265
1430947434.903,54.85374
1430947434.919,52.79838
1430947434.934,49.037746
1430947434.95,43.761692
1430947434.966,37.47094
1430947434.981,30.86631
1430947434.997,24.632973
1430947435.012,19.272503
1430947435.028,14.940239
1430947435.044,11.472168
1430947435.059,8.4975815
1430947435.075,5.721817
1430947435.091,3.0694656
1430947435.106,0.79367447
1430947435.122,-0.6333809
1430947435.137,-0.7054367
1430947435.153,0.83384323
1430947435.169,3.8343048
1430947435.184,7.692936
1430947435.2,11.523785
1430947435.216,14.438225
1430947435.231,15.898472
1430947435.247,15.966591
1430947435.262,15.404972
1430947435.278,15.442131
1430947435.294,17.288715
1430947435.309,21.40382
1430947435.325,26.993435
1430947435.341,31.878471
1430947435.356,33.02505
1430947435.372,27.495327
1430947435.388,13.508915
1430947435.403,-8.953968
1430947435.419,-38.102596
1430947435.434,-70.94958
1430947435.45,-104.067154
1430947435.466,-134.2704
1430947435.481,-158.97374
1430947435.497,-176.31682
1430947435.513,-185.18704
1430947435.528,-185.29962
1430947435.544,-177.27931
1430947435.559,-162.56122
1430947435.575,-143.02744
1430947435.591,-120.56347
1430947435.606,-96.747185
1430947435.622,-72.88302
1430947435.638,-50.16658
1430947435.653,-29.910982
1430947435.669,-13.363312
1430947435.684,-1.3465409
1430947435.7,6.1394234
1430947435.716,9.986386
1430947435.731,11.608866
1430947435.747,12.306543
1430947435.763,12.763422
1430947435.778,12.962919
1430947435.794,12.530022
1430947435.809,11.21817
1430947435.825,9.207489
1430947435.841,6.9413414
1430947435.856,4.7009583
1430947435.872,2.1479187
1430947435.888,-1.6808853
1430947435.903,-7.9961395
1430947435.919,-17.550392
1430947435.934,-30.116798
1430947435.95,-44.32277
1430947435.966,-57.967834
1430947435.981,-68.64857
1430947435.997,-74.45105
1430947436.013,-74.33539
1430947436.028,-68.24867
1430947436.044,-56.937332
1430947436.059,-41.678818
1430947436.075,-23.967087
1430947436.091,-5.3399963
1430947436.106,12.781982
1430947436.122,29.192398
1430947436.138,43.125015
1430947436.153,54.38925
1430947436.169,63.46875
1430947436.184,71.34689
1430947436.2,79.10217
1430947436.216,87.408905
1430947436.231,96.13901
1430947436.247,104.28319
1430947436.263,110.277435
1430947436.278,112.562836
1430947436.294,110.265015
1430947436.309,103.555756
1430947436.325,93.66545
1430947436.341,82.4505
1430947436.356,71.825165
1430947436.372,63.17978
1430947436.388,57.1597
1430947436.403,53.68683
1430947436.419,52.266205
1430947436.434,52.288177
1430947436.45,53.27057
1430947436.466,54.92929
1430947436.481,57.15805
1430947436.497,59.891785
1430947436.513,63.007538
1430947436.528,66.22464
1430947436.544,69.10571
1430947436.559,71.063934
1430947436.575,71.54959
1430947436.591,70.17401
1430947436.606,66.901764
1430947436.622,62.049286
1430947436.638,56.23459
1430947436.653,50.125305
1430947436.669,44.261383
1430947436.684,38.893616
1430947436.7,34.008667
1430947436.716,29.46402
1430947436.731,25.130524
1430947436.747,20.955841
1430947436.763,16.96051
1430947436.778,13.126801
1430947436.794,9.383911
1430947436.809,5.6249084
1430947436.825,1.8226929
1430947436.841,-1.935791
1430947436.856,-5.4458313
1430947436.872,-8.51004
1430947436.888,-11.0095825
1430947436.903,-12.932159
1430947436.919,-14.215088
1430947436.934,-14.626099
1430947436.95,-13.672424
1430947436.966,-10.80542
1430947436.981,-5.7844543
1430947436.997,0.90882874
1430947437.013,8.000381
1430947437.028,13.733719
1430947437.044,16.571655
1430947437.059,15.883011
1430947437.075,12.267792
1430947437.091,7.301819
1430947437.106,2.8949432
1430947437.122,0.49110413
1430947437.138,0.6395416
1430947437.153,2.938263
1430947437.169,6.436264
1430947437.184,10.092834
1430947437.2,13.182999
1430947437.216,15.330994
1430947437.231,16.42279
1430947437.247,16.38179
1430947437.263,15.124756
1430947437.278,12.596542
1430947437.294,8.965393
1430947437.309,4.694809
1430947437.325,0.53131104
1430947437.341,-2.7510986
1430947437.356,-4.6264496
1430947437.372,-5.0304413
1430947437.388,-4.350525
1430947437.403,-3.250183
1430947437.419,-2.3562164
1430947437.434,-2.0745087
1430947437.45,-2.5453491
1430947437.466,-3.7678833
1430947437.481,-5.6757965
1430947437.497,-8.221466
1430947437.513,-11.26004
1430947437.528,-14.53923
1430947437.544,-17.700775
1430947437.559,-20.449875
1430947437.575,-22.65966
1430947437.591,-24.405563
1430947437.606,-25.78888
1430947437.622,-26.742264
1430947437.638,-26.949661
1430947437.653,-25.944893
1430947437.669,-23.42337
1430947437.684,-19.522995
1430947437.7,-14.873375
1430947437.716,-10.432457
1430947437.731,-7.1019516
1430947437.747,-5.403839
1430947437.763,-5.2733307
1430947437.778,-6.1840973
1430947437.794,-7.394867
1430947437.809,-8.283821
1430947437.825,-8.522072
1430947437.841,-8.118866
1430947437.856,-7.3113174
1430947437.872,-6.4193954
1430947437.888,-5.6878815
1430947437.903,-5.2884903
1430947437.919,-5.3145103
1430947437.934,-5.808819
1430947437.95,-6.739479
1430947437.966,-8.007996
1430947437.981,-9.4153595
1430947437.997,-10.686493
1430947438.013,-11.480869
1430947438.028,-11.473824
1430947438.044,-10.394939
1430947438.06,-8.133774
1430947438.075,-4.7899513
1430947438.091,-0.7943268
1430947438.106,3.1879387
1430947438.122,6.4353504
1430947438.138,8.457392
1430947438.153,9.1748905
1430947438.169,8.9026985
1430947438.184,8.110167
1430947438.2,7.1256905
1430947438.216,5.9567156
1430947438.231,4.383768
1430947438.247,2.2448483
1430947438.263,-0.23995209
1430947438.278,-2.3927088
1430947438.294,-3.2695723
1430947438.31,-2.0607805
1430947438.325,1.5387533
1430947438.341,7.142294
1430947438.356,13.777212
1430947438.372,20.146803
1430947438.388,24.98655
1430947438.403,27.347973
1430947438.419,26.785015
1430947438.435,23.404724
1430947438.45,17.83968
1430947438.466,11.059189
1430947438.481,4.1377163
1430947438.497,-2.010456
1430947438.513,-6.7926464
1430947438.528,-9.997036
1430947438.544,-11.71463
1430947438.56,-12.206699
1430947438.575,-11.733952
1430947438.591,-10.517162
1430947438.606,-8.736565
1430947438.622,-6.5939217
1430947438.638,-4.328026
1430947438.653,-2.2153625
1430947438.669,-0.42892838
1430947438.685,1.0317612
1430947438.7,2.401432
1430947438.716,4.0019073
1430947438.731,6.0231857
1430947438.747,8.3109665
1430947438.763,10.352325
1430947438.778,11.433289
1430947438.794,10.9771805
1430947438.81,8.822243
1430947438.825,5.3323517
1430947438.841,1.2622299
1430947438.856,-2.5393448
1430947438.872,-5.435257
1430947438.888,-7.1420364
1430947438.903,-7.706352
1430947438.919,-7.374298
1430947438.935,-6.4965286
1430947438.95,-5.4713364
1430947438.966,-4.827759
1430947438.981,-5.20446
1430947438.997,-7.275055
1430947439.013,-11.47065
1430947439.028,-17.749039
1430947439.044,-25.423363
1430947439.06,-33.28093
1430947439.075,-39.874413
1430947439.091,-43.97545
1430947439.106,-44.97811
1430947439.122,-43.06044
1430947439.138,-39.103348
1430947439.153,-34.380554
1430947439.169,-30.13237
1430947439.185,-27.207245
1430947439.2,-25.853775
1430947439.216,-25.719208
1430947439.231,-26.040619
1430947439.247,-25.978241
1430947439.263,-24.89212
1430947439.278,-22.567245
1430947439.294,-19.21727
1430947439.31,-15.36908
1430947439.325,-11.591263
1430947439.341,-8.304123
1430947439.356,-5.668701
1430947439.372,-3.6427765
1430947439.388,-2.098816
1430947439.403,-0.96217346
1430947439.419,-0.19561768
1430947439.435,0.2570343
1430947439.45,0.60842896
1430947439.466,1.2393646
1430947439.481,2.6316376
1430947439.497,5.1406097
1430947439.513,8.843567
1430947439.528,13.436569
1430947439.544,18.341095
1430947439.56,22.844345
1430947439.575,26.315903
1430947439.591,28.262527
1430947439.606,28.367828
1430947439.622,26.475906
1430947439.638,22.612732
1430947439.653,17.058762
1430947439.669,10.383911
1430947439.685,3.3743591
1430947439.7,-3.1521454
1430947439.716,-8.584778
1430947439.731,-12.66629
1430947439.747,-15.510803
1430947439.763,-17.417572
1430947439.778,-18.668457
1430947439.794,-19.346024
1430947439.81,-19.315445
1430947439.825,-18.297455
1430947439.841,-16.044281
1430947439.856,-12.533203
1430947439.872,-8.118698
1430947439.888,-3.5659332
1430947439.903,0.03678894
1430947439.919,1.5856476
1430947439.935,0.30142212
1430947439.95,-3.8909302
1430947439.966,-10.286606
1430947439.981,-17.503586
1430947439.997,-23.931732
1430947440.013,-28.159973
1430947440.028,-29.361694
1430947440.044,-27.381134
1430947440.06,-22.641083
1430947440.075,-15.879486
1430947440.091,-7.9544373
1430947440.106,0.29940796
1430947440.122,8.065079
1430947440.138,14.635315
1430947440.153,19.496552
1430947440.169,22.528229
1430947440.185,24.070618
1430947440.2,24.827896
1430947440.216,25.500824
1430947440.231,26.394623
1430947440.247,27.146408
1430947440.263,26.83046
1430947440.278,24.388687
1430947440.294,19.235733
1430947440.31,11.666336
1430947440.325,2.8483887
1430947440.341,-5.569687
1430947440.356,-12.071701
1430947440.372,-15.783585
1430947440.388,-16.608902
1430947440.403,-15.093643
1430947440.419,-12.076843
1430947440.435,-8.416092
1430947440.45,-4.8062286
1430947440.466,-1.7735901
1430947440.481,0.36470032
1430947440.497,1.4516449
1430947440.513,1.551712
1430947440.528,0.8643341
1430947440.544,-0.2993164
1430947440.56,-1.6266022
1430947440.575,-2.8623962
1430947440.591,-3.8043365
1430947440.606,-4.3216248
1430947440.622,-4.3483734
1430947440.638,-3.921646
1430947440.653,-3.185089
1430947440.669,-2.372055
1430947440.685,-1.7160492
1430947440.7,-1.3715057
1430947440.716,-1.3635559
1430947440.732,-1.592102
1430947440.747,-1.9137726
1430947440.763,-2.1613007
1430947440.778,-2.198471
1430947440.794,-1.8909149
1430947440.81,-1.1320038
1430947440.825,0.073516846
1430947440.841,1.5117493
1430947440.856,2.702057
1430947440.872,2.982376
1430947440.888,1.7073059
1430947440.903,-1.5184174
1430947440.919,-6.6561737
1430947440.935,-13.215149
1430947440.95,-20.412216
1430947440.966,-27.37912
1430947440.982,-33.332016
1430947440.997,-37.70479
1430947441.013,-40.11473
1430947441.028,-40.392258
1430947441.044,-38.56848
1430947441.06,-34.89926
1430947441.075,-29.876572
1430947441.091,-24.132568
1430947441.107,-18.357346
1430947441.122,-13.090042
1430947441.138,-8.673386
1430947441.153,-5.181473
1430947441.169,-2.515564
1430947441.185,-0.48576355
1430947441.2,1.0681458
1430947441.216,2.2299957
1430947441.232,3.0265045
1430947441.247,3.4771118
1430947441.263,3.6600494
1430947441.278,3.7183838
1430947441.294,3.8359528
1430947441.31,4.172333
1430947441.325,4.8074036
1430947441.341,5.6988373
1430947441.357,6.7187195
1430947441.372,7.7145233
1430947441.388,8.578369
1430947441.403,9.333603
1430947441.419,10.107941
1430947441.435,11.130829
1430947441.45,12.598068
1430947441.466,14.580765
1430947441.482,16.936325
1430947441.497,19.277039
1430947441.513,21.038208
1430947441.528,21.632095
1430947441.544,20.601929
1430947441.56,17.763977
1430947441.575,13.258728
1430947441.591,7.5193024
1430947441.607,1.1586914
1430947441.622,-5.126358
1430947441.638,-10.708542
1430947441.653,-15.06987
1430947441.669,-17.889343
1430947441.685,-19.037598
1430947441.7,-18.600899
1430947441.716,-16.825478
1430947441.732,-14.104553
1430947441.747,-10.883766
1430947441.763,-7.5892105
1430947441.778,-4.5340424
1430947441.794,-1.8972626
1430947441.81,0.2864151
1430947441.825,2.0712128
1430947441.841,3.5214996
1430947441.857,4.637123
1430947441.872,5.358902
1430947441.888,5.589981
1430947441.903,5.303993
1430947441.919,4.552162
1430947441.935,3.5372467
1430947441.95,2.515915
1430947441.966,1.7676544
1430947441.982,1.501831
1430947441.997,1.8329468
1430947442.013,2.7400208
1430947442.028,4.0976105
1430947442.044,5.6765594
1430947442.06,7.2333603
1430947442.075,8.578232
1430947442.091,9.653969
1430947442.107,10.565727
1430947442.122,11.558052
1430947442.138,12.902611
1430947442.153,14.820488
1430947442.169,17.335022
1430947442.185,20.242805
1430947442.2,23.080307
1430947442.216,25.23841
1430947442.232,26.061996
1430947442.247,25.047028
1430947442.263,21.975014
1430947442.278,17.036919
1430947442.294,10.765434
1430947442.31,3.927353
1430947442.325,-2.7045746
1430947442.341,-8.501434
1430947442.357,-13.057198
1430947442.372,-16.147217
1430947442.388,-17.674545
1430947442.403,-17.615082
1430947442.419,-16.094643
1430947442.435,-13.429199
1430947442.45,-10.161331
1430947442.466,-6.913681
1430947442.482,-4.231262
1430947442.497,-2.3819122
1430947442.513,-1.322113
1430947442.528,-0.7841263
1430947442.544,-0.5334549
1430947442.56,-0.48867035
1430947442.575,-0.7989807
1430947442.591,-1.6739883
1430947442.607,-3.2132492
1430947442.622,-5.2825394
1430947442.638,-7.5674744
1430947442.653,-9.688995
1430947442.669,-11.358612
1430947442.685,-12.429382
1430947442.7,-12.839272
1430947442.716,-12.514961
1430947442.732,-11.335548
1430947442.747,-9.186943
1430947442.763,-6.106476
1430947442.778,-2.401703
1430947442.794,1.3210144
1430947442.81,4.333893
1430947442.825,6.0092926
1430947442.841,6.1059113
1430947442.857,4.851982
1430947442.872,2.8644638
1430947442.888,0.8451843
1430947442.903,-0.6910248
1430947442.919,-1.6225357
1430947442.935,-2.1834335
1430947442.95,-2.780548
1430947442.966,-3.7359238
1430947442.982,-5.1355057
1430947442.997,-6.8051376
1430947443.013,-8.469376
1430947443.028,-9.893654
1430947443.044,-11.016762
1430947443.06,-11.877899
1430947443.075,-12.571377
1430947443.091,-13.110531
1430947443.107,-13.423267
1430947443.122,-13.374184
1430947443.138,-12.838467
1430947443.153,-11.743847
1430947443.169,-10.068253
1430947443.185,-7.8234215
1430947443.2,-5.031994
1430947443.216,-1.717453
1430947443.232,2.0508995
1430947443.247,6.101864
1430947443.263,10.097813
1430947443.278,13.588352
1430947443.294,16.064
1430947443.31,17.208538
1430947443.325,17.018814
1430947443.341,15.896637
1430947443.357,14.492634
1430947443.372,13.461597
1430947443.388,13.106693
1430947443.403,13.169712
1430947443.419,12.856113
1430947443.435,11.173908
1430947443.45,7.4068794
1430947443.466,1.5316277
1430947443.482,-5.705738
1430947443.497,-13.007433
1430947443.513,-19.023083
1430947443.528,-22.784836
1430947443.544,-23.943586
1430947443.56,-22.648462
1430947443.575,-19.328968
1430947443.591,-14.45149
1430947443.607,-8.547899
1430947443.622,-2.3028069
1430947443.638,3.314602
1430947443.654,7.170083
1430947443.669,8.291743
1430947443.685,6.307803
1430947443.7,1.7120218
1430947443.716,-4.252042
1430947443.732,-9.999001
1430947443.747,-14.165398
1430947443.763,-16.037008
1430947443.779,-15.630245
1430947443.794,-13.534085
1430947443.81,-10.511537
1430947443.825,-7.16322
1430947443.841,-3.6854758
1430947443.857,0.09282601
1430947443.872,4.5579576
1430947443.888,9.9947405
1430947443.904,16.38649
1430947443.919,23.297274
1430947443.935,29.986095
1430947443.95,35.612923
1430947443.966,39.569862
1430947443.982,41.611507
1430947443.997,41.89052
1430947444.013,40.81453
1430947444.029,38.88874
1430947444.044,36.562378
1430947444.06,34.19944
1430947444.075,32.053417
1430947444.091,30.272747
1430947444.107,28.851187
1430947444.122,27.60064
1430947444.138,26.160952
1430947444.154,24.151249
1430947444.169,21.298336
1430947444.185,17.608973
1430947444.2,13.42846
1430947444.216,9.339196
1430947444.232,5.937022
1430947444.247,3.584916
1430947444.263,2.186967
1430947444.279,1.1655769
1430947444.294,-0.41340828
1430947444.31,-3.481656
1430947444.325,-8.624349
1430947444.341,-15.765542
1430947444.357,-24.103226
1430947444.372,-32.32737
1430947444.388,-39.04685
1430947444.404,-43.261757
1430947444.419,-44.690723
1430947444.435,-43.77803
1430947444.45,-41.45629
1430947444.466,-38.687176
1430947444.482,-36.04798
1430947444.497,-33.50106
1430947444.513,-30.472233
1430947444.529,-26.142328
1430947444.544,-19.912537
1430947444.56,-11.692336
1430947444.575,-2.0151196
1430947444.591,8.103865
1430947444.607,17.482555
1430947444.622,25.044079
1430947444.638,30.040726
1430947444.654,32.15985
1430947444.669,31.503521
1430947444.685,28.589272
1430947444.7,24.215958
1430947444.716,19.40683
1430947444.732,15.221657
1430947444.747,12.568574
1430947444.763,11.976534
1430947444.779,13.516634
1430947444.794,16.791744
1430947444.81,21.106573
1430947444.825,25.637249
1430947444.841,29.577362
1430947444.857,32.228153
1430947444.872,33.06107
1430947444.888,31.808086
1430947444.904,28.525394
1430947444.919,23.645828
1430947444.935,17.911911
1430947444.95,12.184206
1430947444.966,7.21332
1430947444.982,3.422267
1430947444.997,0.835865
1430947445.013,-0.88092947
1430947445.029,-2.189317
1430947445.044,-3.483303
1430947445.06,-4.9095154
1430947445.075,-6.3392124
1430947445.091,-7.451234
1430947445.107,-7.9209075
1430947445.122,-7.5785203
1430947445.138,-6.524324
1430947445.154,-5.0762835
1430947445.169,-3.6298428
1430947445.185,-2.4203644
1430947445.2,-1.4246106
1430947445.216,-0.40509605
1430947445.232,0.8928318
1430947445.247,2.5601015
1430947445.263,4.4328194
1430947445.279,6.232744
1430947445.294,7.7003307
1430947445.31,8.7805
1430947445.325,9.639727
1430947445.341,10.548302
1430947445.357,11.761585
1430947445.372,13.413805
1430947445.388,15.48938
1430947445.404,17.824
1430947445.419,20.070156
1430947445.435,21.696394
1430947445.45,22.00695
1430947445.466,20.340904
1430947445.482,16.291115
1430947445.497,9.951057
1430947445.513,1.9628372
1430947445.529,-6.60693
1430947445.544,-14.604149
1430947445.56,-21.118458
1430947445.575,-25.715168
1430947445.591,-28.453964
1430947445.607,-29.777699
1430947445.622,-30.26331
1430947445.638,-30.406158
1430947445.654,-30.444519
1430947445.669,-30.323483
1430947445.685,-29.798653
1430947445.7,-28.668674
1430947445.716,-26.976784
1430947445.732,-25.15871
1430947445.747,-23.935665
1430947445.763,-24.047626
1430947445.779,-25.833149
1430947445.794,-28.948627
1430947445.81,-32.324463
1430947445.825,-34.49217
1430947445.841,-34.088047
1430947445.857,-30.370506
1430947445.872,-23.4463
1430947445.888,-14.192421
1430947445.904,-3.864193
1430947445.919,6.320717
1430947445.935,15.524502
1430947445.95,23.358383
1430947445.966,29.842617
1430947445.982,35.231712
1430947445.997,39.85093
1430947446.013,43.933945
1430947446.029,47.537354
1430947446.044,50.424347
1430947446.06,52.089294
1430947446.075,51.8058
1430947446.091,48.86582
1430947446.107,42.87596
1430947446.122,34.01216
1430947446.138,23.103058
1430947446.154,11.438805
1430947446.169,0.3727417
1430947446.185,-9.065407
1430947446.2,-16.45951
1430947446.216,-21.958214
1430947446.232,-26.092545
1430947446.247,-29.41565
1430947446.263,-32.301888
1430947446.279,-34.861877
1430947446.294,-37.007324
1430947446.31,-38.54647
1430947446.326,-39.26922
1430947446.341,-38.953186
1430947446.357,-37.401283
1430947446.372,-34.469635
1430947446.388,-30.17929
1430947446.404,-24.803886
1430947446.419,-18.886871
1430947446.435,-13.064941
1430947446.451,-7.883011
1430947446.466,-3.5697937
1430947446.482,-0.0012817383
1430947446.497,3.2330246
1430947446.513,6.5782547
1430947446.529,10.384842
1430947446.544,14.791283
1430947446.56,19.82705
1430947446.576,25.481544
1430947446.591,31.803192
1430947446.607,38.774956
1430947446.622,46.147903
1430947446.638,53.24372
1430947446.654,59.010086
1430947446.669,62.26113
1430947446.685,62.096344
1430947446.701,58.19886
1430947446.716,50.8954
1430947446.732,40.86666
1430947446.747,28.867973
1430947446.763,15.50943
1430947446.779,1.3760223
1430947446.794,-12.773209
1430947446.81,-25.842163
1430947446.826,-36.561684
1430947446.841,-43.87461
1430947446.857,-47.37928
1430947446.872,-47.470238
1430947446.888,-45.155815
1430947446.904,-41.581657
1430947446.919,-37.63511
1430947446.935,-33.80047
1430947446.951,-30.30516
1430947446.966,-27.37819
1430947446.982,-25.438446
1430947446.997,-25.032051
1430947447.013,-26.640831
1430947447.029,-30.376
1430947447.044,-35.802765
1430947447.06,-41.902206
1430947447.076,-47.231445
1430947447.091,-50.22574
1430947447.107,-49.611122
1430947447.122,-44.773293
1430947447.138,-35.963783
1430947447.154,-24.237274
1430947447.169,-11.136589
1430947447.185,1.7694931
1430947447.201,13.283974
1430947447.216,22.809334
1430947447.232,30.307663
1430947447.247,36.141235
1430947447.263,40.800476
1430947447.279,44.725418
1430947447.294,48.12039
1430947447.31,50.886917
1430947447.326,52.639412
1430947447.341,52.860703
1430947447.357,51.073395
1430947447.372,47.05207
1430947447.388,40.894135
1430947447.404,32.996086
1430947447.419,23.90329
1430947447.435,14.168114
1430947447.451,4.27256
1430947447.466,-5.329605
1430947447.482,-14.188026
1430947447.497,-21.82605
1430947447.513,-27.806778
1430947447.529,-31.806
1430947447.544,-33.65599
1430947447.56,-33.385323
1430947447.576,-31.223839
1430947447.591,-27.605324
1430947447.607,-23.15915
1430947447.622,-18.623383
1430947447.638,-14.745728
1430947447.654,-12.047798
1430947447.669,-10.72184
1430947447.685,-10.537125
1430947447.701,-10.954788
1430947447.716,-11.308273
1430947447.732,-11.025246
1430947447.747,-9.744049
1430947447.763,-7.3764267
1430947447.779,-3.9995193
1430947447.794,0.28121948
1430947447.81,5.41317
1430947447.826,11.406273
1430947447.841,18.282516
1430947447.857,25.918274
1430947447.872,33.918854
1430947447.888,41.545853
1430947447.904,47.815506
1430947447.919,51.703125
1430947447.935,52.45706
1430947447.951,49.84729
1430947447.966,44.3201
1430947447.982,36.85179
1430947447.997,28.680237
1430947448.013,20.913925
1430947448.029,14.18364
1430947448.044,8.505188
1430947448.06,3.4070435
1430947448.076,-1.7397461
1430947448.091,-7.339157
1430947448.107,-13.332291
1430947448.122,-19.191437
1430947448.138,-24.189621
1430947448.154,-27.74408
1430947448.169,-29.669937
1430947448.185,-30.170563
1430947448.201,-29.632492
1430947448.216,-28.327637
1430947448.232,-26.282776
1430947448.247,-23.317688
1430947448.263,-19.366028
1430947448.279,-14.680084
1430947448.294,-9.950058
1430947448.31,-6.1234283
1430947448.326,-4.0475616
1430947448.341,-4.099533
1430947448.357,-6.0083923
1430947448.372,-8.952927
1430947448.388,-11.891846
1430947448.404,-13.944519
1430947448.419,-14.670868
1430947448.435,-14.113068
1430947448.451,-12.666519
1430947448.466,-10.748428
