1433807215.38,0.0
1433807215.396,0.0
1433807215.411,0.0
1433807215.427,0.0
1433807215.443,0.0
1433807215.458,0.0
1433807215.474,0.0
1433807215.49,0.0
1433807215.505,0.0
1433807215.521,0.0022315353
1433807215.536,-0.0045169927
1433807215.552,-0.011265522
1433807215.568,-0.011383951
1433807215.583,0.0011864507
1433807215.599,0.025910312
1433807215.615,0.050634187
1433807215.63,0.051362894
1433807215.646,-0.0014929791
1433807215.661,-0.1302426
1433807215.677,-0.35562757
1433807215.693,-0.6591247
1433807215.708,-1.0095103
1433807215.724,-1.3709826
1433807215.74,-1.7197359
1433807215.755,-2.0551105
1433807215.771,-2.39945
1433807215.786,-2.7866635
1433807215.802,-3.2399073
1433807215.818,-3.796012
1433807215.833,-4.418684
1433807215.849,-5.0592937
1433807215.865,-5.6644096
1433807215.88,-6.2021537
1433807215.896,-6.6808796
1433807215.912,-7.149598
1433807215.927,-7.6782336
1433807215.943,-8.310739
1433807215.958,-9.143657
1433807215.974,-10.089731
1433807215.99,-11.041313
1433807216.005,-11.8842125
1433807216.021,-12.564316
1433807216.037,-13.13563
1433807216.052,-13.760044
1433807216.068,-14.65232
1433807216.083,-15.962056
1433807216.099,-17.914442
1433807216.115,-20.317299
1433807216.13,-22.903854
1433807216.146,-25.37947
1433807216.162,-27.578028
1433807216.177,-29.57246
1433807216.193,-31.675173
1433807216.208,-34.3178
1433807216.224,-37.813618
1433807216.24,-42.541233
1433807216.255,-48.1463
1433807216.271,-54.104755
1433807216.287,-59.83309
1433807216.302,-64.972374
1433807216.318,-69.58293
1433807216.333,-74.14353
1433807216.349,-79.344986
1433807216.365,-85.70726
1433807216.38,-93.76193
1433807216.396,-102.99779
1433807216.412,-112.61757
1433807216.427,-121.73034
1433807216.443,-129.76602
1433807216.458,-136.75102
1433807216.474,-143.30344
1433807216.49,-150.74623
1433807216.505,-157.77356
1433807216.521,-166.64323
1433807216.537,-177.94798
1433807216.552,-191.79102
1433807216.568,-206.96808
1433807216.583,-220.56592
1433807216.599,-228.24644
1433807216.615,-225.36154
1433807216.63,-208.53198
1433807216.646,-176.87024
1433807216.662,-132.76222
1433807216.677,-80.04997
1433807216.693,-23.069275
1433807216.708,34.94345
1433807216.724,92.43701
1433807216.74,149.15686
1433807216.755,205.22723
1433807216.771,260.3685
1433807216.787,313.73965
1433807216.802,363.8725
1433807216.818,409.8337
1433807216.833,450.9106
1433807216.849,486.5072
1433807216.865,515.74146
1433807216.88,537.22217
1433807216.896,549.2018
1433807216.912,549.93176
1433807216.927,538.339
1433807216.943,514.20276
1433807216.958,478.72574
1433807216.974,434.0099
1433807216.99,382.669
1433807217.005,327.31406
1433807217.021,270.1809
1433807217.037,212.98447
1433807217.052,156.9978
1433807217.068,103.276
1433807217.083,52.70349
1433807217.099,6.2760925
1433807217.115,-35.135468
1433807217.13,-70.89514
1433807217.146,-100.75159
1433807217.162,-124.87103
1433807217.177,-143.76392
1433807217.193,-158.11603
1433807217.208,-168.59427
1433807217.224,-175.77731
1433807217.24,-180.0375
1433807217.255,-181.66896
1433807217.271,-180.94948
1433807217.287,-178.2186
1433807217.302,-173.87715
1433807217.318,-168.33759
1433807217.333,-161.95638
1433807217.349,-154.97041
1433807217.365,-147.51755
1433807217.38,-139.6739
1433807217.396,-131.54393
1433807217.412,-123.28593
1433807217.427,-115.117294
1433807217.443,-107.2376
1433807217.458,-99.74228
1433807217.474,-92.582664
1433807217.49,-85.57971
1433807217.505,-78.52557
1433807217.521,-71.2989
1433807217.537,-63.969162
1433807217.552,-56.784668
1433807217.568,-50.09379
1433807217.583,-44.179432
1433807217.599,-39.108723
1433807217.615,-34.681736
1433807217.63,-30.495613
1433807217.646,-26.130688
1433807217.662,-21.341349
1433807217.677,-16.207413
1433807217.693,-11.099443
1433807217.708,-6.515675
1433807217.724,-2.8527737
1433807217.74,-0.22574711
1433807217.755,1.595556
1433807217.771,3.058892
1433807217.787,4.6495795
1433807217.802,6.7798433
1433807217.818,9.707758
1433807217.833,13.491809
1433807217.849,17.858894
1433807217.865,22.019278
1433807217.88,24.658253
1433807217.896,24.202665
1433807217.912,19.462193
1433807217.927,10.30447
1433807217.943,-2.0215511
1433807217.958,-15.126251
1433807217.974,-26.370838
1433807217.99,-33.87271
1433807218.005,-37.126343
1433807218.021,-36.955383
1433807218.037,-34.846317
1433807218.052,-32.1449
1433807218.068,-29.534863
1433807218.083,-27.069038
1433807218.099,-24.50422
1433807218.115,-21.772648
1433807218.13,-19.108189
1433807218.146,-16.9449
1433807218.162,-15.567749
1433807218.177,-14.932148
1433807218.193,-14.663361
1433807218.208,-14.207203
1433807218.224,-13.148258
1433807218.24,-11.386238
1433807218.255,-9.152729
1433807218.271,-6.878399
1433807218.287,-5.0003014
1433807218.302,-3.7623749
1433807218.318,-3.1797256
1433807218.333,-3.043419
1433807218.349,-3.065319
1433807218.365,-2.9634895
1433807218.38,-2.5581017
1433807218.396,-1.80476
1433807218.412,-0.7779579
1433807218.427,0.34128952
1433807218.443,1.3137283
1433807218.458,1.974884
1433807218.474,2.3055458
1433807218.49,2.4627533
1433807218.505,2.7000809
1433807218.521,3.2144852
1433807218.537,4.035431
1433807218.552,5.0112915
1433807218.568,5.9118576
1433807218.584,6.57856
1433807218.599,7.006752
1433807218.615,7.2865677
1433807218.63,7.4508667
1433807218.646,7.311821
1433807218.662,6.506897
1433807218.677,4.6611023
1433807218.693,1.6556473
1433807218.708,-2.1951523
1433807218.724,-6.203842
1433807218.74,-9.515163
1433807218.755,-11.493027
1433807218.771,-11.904381
1433807218.787,-11.005409
1433807218.802,-9.353035
1433807218.818,-7.555485
1433807218.834,-6.0356026
1433807218.849,-4.941818
1433807218.865,-4.1858673
1433807218.88,-3.5969849
1433807218.896,-3.0319595
1433807218.912,-2.486515
1433807218.927,-2.011982
1433807218.943,-1.7026291
1433807218.959,-1.5438576
1433807218.974,-1.4268856
1433807218.99,-1.1819477
1433807219.005,-0.6712856
1433807219.021,0.11498642
1433807219.037,0.9876156
1433807219.052,1.6885223
1433807219.068,1.9850044
1433807219.084,1.822279
1433807219.099,1.3565693
1433807219.115,0.88929176
1433807219.13,0.71925926
1433807219.146,1.0006924
1433807219.162,1.6768951
1433807219.177,2.5346298
1433807219.193,3.301939
1433807219.209,3.7829247
1433807219.224,3.8756638
1433807219.24,3.6425018
1433807219.255,3.2183857
1433807219.271,2.8038864
1433807219.287,2.5616188
1433807219.302,2.5835266
1433807219.318,2.8616676
1433807219.334,3.2760754
1433807219.349,3.6863937
1433807219.365,3.985281
1433807219.38,4.133829
1433807219.396,4.201502
1433807219.412,4.2573986
1433807219.427,4.3841743
1433807219.443,4.5767155
1433807219.459,4.82563
1433807219.474,5.120516
1433807219.49,5.500328
1433807219.505,5.953165
1433807219.521,6.3657207
1433807219.537,6.4134274
1433807219.552,5.6559906
1433807219.568,3.7003517
1433807219.584,0.44882965
1433807219.599,-3.7739792
1433807219.615,-8.231688
1433807219.63,-12.039192
1433807219.646,-14.474888
1433807219.662,-15.293472
1433807219.677,-14.730938
1433807219.693,-13.40835
1433807219.709,-12.014486
1433807219.724,-11.064327
1433807219.74,-10.726534
1433807219.755,-10.880165
1433807219.771,-11.223251
1433807219.787,-11.485327
1433807219.802,-11.51545
1433807219.818,-11.312356
1433807219.834,-10.934937
1433807219.849,-10.436258
1433807219.865,-9.794554
1433807219.88,-8.890457
1433807219.896,-7.6728497
1433807219.912,-6.018688
1433807219.927,-3.9605618
1433807219.943,-1.6451378
1433807219.959,0.7777376
1433807219.974,3.1191902
1433807219.99,5.257924
1433807220.005,7.110668
1433807220.021,8.6658535
1433807220.037,9.911463
1433807220.052,10.852734
1433807220.068,11.456913
1433807220.084,11.717301
1433807220.099,11.612488
1433807220.115,11.178776
1433807220.13,10.481503
1433807220.146,9.65988
1433807220.162,8.872795
1433807220.177,8.259228
1433807220.193,7.911352
1433807220.209,7.8104057
1433807220.224,7.8667555
1433807220.24,7.953358
1433807220.255,7.955611
1433807220.271,7.8365755
1433807220.287,7.5873666
1433807220.302,7.272559
1433807220.318,6.9351597
1433807220.334,6.645171
1433807220.349,6.4486856
1433807220.365,6.42486
1433807220.38,6.625083
1433807220.396,6.994805
1433807220.412,7.331264
1433807220.427,7.2270584
1433807220.443,6.188416
1433807220.459,3.8460727
1433807220.474,0.16138983
1433807220.49,-4.4347606
1433807220.505,-9.121971
1433807220.521,-12.984891
1433807220.537,-15.335906
1433807220.552,-15.942041
1433807220.568,-15.111048
1433807220.584,-13.444345
1433807220.599,-11.617462
1433807220.615,-10.072274
1433807220.63,-8.976735
1433807220.646,-8.249055
1433807220.662,-7.776146
1433807220.677,-7.5050306
1433807220.693,-7.5016785
1433807220.709,-7.8604565
1433807220.724,-8.604478
1433807220.74,-9.624526
1433807220.755,-10.718127
1433807220.771,-11.664732
1433807220.787,-12.341241
1433807220.802,-12.769315
1433807220.818,-13.054658
1433807220.834,-13.318638
1433807220.849,-13.597234
1433807220.865,-13.797684
1433807220.88,-13.719622
1433807220.896,-13.231489
1433807220.912,-12.248827
1433807220.927,-10.793051
1433807220.943,-8.994919
1433807220.959,-7.0372105
1433807220.974,-5.1101055
1433807220.99,-3.361864
1433807221.005,-1.8790722
1433807221.021,-0.63339996
1433807221.037,0.45640182
1433807221.052,1.5935459
1433807221.068,2.9643574
1433807221.084,4.7053165
1433807221.099,6.8189907
1433807221.115,9.160257
1433807221.13,11.478291
1433807221.146,13.53186
1433807221.162,15.223507
1433807221.177,16.644127
1433807221.193,18.071259
1433807221.209,19.915321
1433807221.224,22.517918
1433807221.24,26.073334
1433807221.256,30.430962
1433807221.271,35.07757
1433807221.287,39.156193
1433807221.302,41.675762
1433807221.318,41.706905
1433807221.334,38.72086
1433807221.349,32.74684
1433807221.365,24.43552
1433807221.38,14.882912
1433807221.396,5.365879
1433807221.412,-3.0235634
1433807221.427,-9.611542
1433807221.443,-14.217667
1433807221.459,-17.06622
1433807221.474,-18.606216
1433807221.49,-19.308868
1433807221.506,-19.561424
1433807221.521,-19.608025
1433807221.537,-19.567741
1433807221.552,-19.489197
1433807221.568,-19.398941
1433807221.584,-19.330265
1433807221.599,-19.355927
1433807221.615,-19.539196
1433807221.631,-19.928253
1433807221.646,-20.485813
1433807221.662,-21.11414
1433807221.677,-21.638828
1433807221.693,-21.885345
1433807221.709,-21.69101
1433807221.724,-20.986137
1433807221.74,-19.777805
1433807221.756,-18.12687
1433807221.771,-16.11097
1433807221.787,-13.783264
1433807221.802,-11.217102
1433807221.818,-8.487076
1433807221.834,-5.6923714
1433807221.849,-2.9329643
1433807221.865,-0.26688766
1433807221.881,2.3217964
1433807221.896,4.9435234
1433807221.912,7.7116776
1433807221.927,10.683445
1433807221.943,13.81134
1433807221.959,16.915977
1433807221.974,19.817299
1433807221.99,22.463028
1433807222.006,25.020386
1433807222.021,27.84909
1433807222.037,31.352219
1433807222.052,35.68608
1433807222.068,40.571312
1433807222.084,45.205833
1433807222.099,48.44925
1433807222.115,49.170418
1433807222.131,46.66516
1433807222.146,40.907463
1433807222.162,32.59813
1433807222.177,22.929474
1433807222.193,13.198357
1433807222.209,4.48349
1433807222.224,-2.5740814
1433807222.24,-7.788315
1433807222.256,-11.326622
1433807222.271,-13.5662155
1433807222.287,-14.947968
1433807222.302,-15.89225
1433807222.318,-16.717476
1433807222.334,-17.604965
1433807222.349,-18.592278
1433807222.365,-19.600082
1433807222.381,-20.498596
1433807222.396,-21.194336
1433807222.412,-21.662445
1433807222.427,-21.954185
1433807222.443,-22.141335
1433807222.459,-22.279938
1433807222.474,-22.368668
1433807222.49,-22.355354
1433807222.506,-22.176376
1433807222.521,-21.722267
1433807222.537,-20.862968
1433807222.552,-19.479385
1433807222.568,-17.500671
1433807222.584,-14.969429
1433807222.599,-12.02552
1433807222.615,-8.904808
1433807222.631,-5.7964783
1433807222.646,-2.8072052
1433807222.662,0.14949799
1433807222.677,3.2081604
1433807222.693,6.541092
1433807222.709,10.180878
1433807222.724,13.999786
1433807222.74,17.746124
1433807222.756,21.166412
1433807222.771,24.155891
1433807222.787,26.815453
1433807222.802,29.492905
1433807222.818,32.64138
1433807222.834,36.65538
1433807222.849,41.67047
1433807222.865,47.375313
1433807222.881,53.018288
1433807222.896,57.482704
1433807222.912,59.5879
1433807222.927,58.390633
1433807222.943,53.53337
1433807222.959,45.37731
1433807222.974,34.952065
1433807222.99,23.652847
1433807223.006,12.8504715
1433807223.021,3.5530472
1433807223.037,-3.798172
1433807223.052,-9.2844925
1433807223.068,-13.31633
1433807223.084,-16.397835
1433807223.099,-18.909157
1433807223.115,-21.083305
1433807223.131,-22.974335
1433807223.146,-24.628681
1433807223.162,-26.088058
1433807223.177,-27.434944
1433807223.193,-28.71312
1433807223.209,-29.923382
1433807223.224,-30.959988
1433807223.24,-31.71431
1433807223.256,-32.089935
1433807223.271,-32.104973
1433807223.287,-31.880348
1433807223.302,-31.567978
1433807223.318,-31.241096
1433807223.334,-30.78077
1433807223.349,-29.90044
1433807223.365,-28.25956
1433807223.381,-25.644547
1433807223.396,-22.13108
1433807223.412,-18.062649
1433807223.427,-13.971725
1433807223.443,-10.290661
1433807223.459,-7.241577
1433807223.474,-4.6730576
1433807223.49,-2.183319
1433807223.506,0.708786
1433807223.521,4.3186264
1433807223.537,8.648277
1433807223.552,13.383274
1433807223.568,18.004581
1433807223.584,22.050674
1433807223.599,25.286194
1433807223.615,27.829514
1433807223.631,30.142254
1433807223.646,32.839455
1433807223.662,36.48522
1433807223.677,41.339306
1433807223.693,47.1926
1433807223.709,53.329647
1433807223.724,58.674934
1433807223.74,61.98225
1433807223.756,62.20391
1433807223.771,58.754963
1433807223.787,51.72943
1433807223.802,41.889812
1433807223.818,30.489777
1433807223.834,18.935944
1433807223.849,8.4380245
1433807223.865,-0.2757473
1433807223.881,-6.9978924
1433807223.896,-11.982788
1433807223.912,-15.729891
1433807223.927,-18.775278
1433807223.943,-21.514503
1433807223.959,-24.16105
1433807223.974,-26.756493
1433807223.99,-29.244736
1433807224.006,-31.505106
1433807224.021,-33.404816
1433807224.037,-34.801247
1433807224.052,-35.5912
1433807224.068,-35.72149
1433807224.084,-35.266205
1433807224.099,-34.402893
1433807224.115,-33.41456
1433807224.131,-32.559486
1433807224.146,-32.006664
1433807224.162,-31.727783
1433807224.178,-31.498695
1433807224.193,-30.957619
1433807224.209,-29.74594
1433807224.224,-27.6415
1433807224.24,-24.657484
1433807224.256,-21.06694
1433807224.271,-17.29578
1433807224.287,-13.755644
1433807224.303,-10.682308
1433807224.318,-7.9961452
1433807224.334,-5.3767014
1433807224.349,-2.3872395
1433807224.365,1.2413495
1433807224.381,5.50217
1433807224.396,10.039704
1433807224.412,14.367508
1433807224.428,18.070595
1433807224.443,21.0434
1433807224.459,23.548368
1433807224.474,26.133286
1433807224.49,29.408785
1433807224.506,33.8366
1433807224.521,39.529545
1433807224.537,46.176117
1433807224.553,53.04163
1433807224.568,59.077526
1433807224.584,63.071785
1433807224.599,63.95129
1433807224.615,61.046494
1433807224.631,54.35857
1433807224.646,44.586643
1433807224.662,33.02269
1433807224.678,21.128029
1433807224.693,10.1650095
1433807224.709,0.9122238
1433807224.724,-6.400076
1433807224.74,-11.9849205
1433807224.756,-16.229717
1433807224.771,-19.548992
1433807224.787,-22.232307
1433807224.803,-24.490166
1433807224.818,-26.45577
1433807224.834,-28.25592
1433807224.849,-29.954247
1433807224.865,-31.563564
1433807224.881,-33.034996
1433807224.896,-34.28022
1433807224.912,-35.202236
1433807224.928,-35.782043
1433807224.943,-36.03234
1433807224.959,-36.045887
1433807224.974,-35.923916
1433807224.99,-35.75213
1433807225.006,-35.50301
1433807225.021,-35.048794
1433807225.037,-34.18078
1433807225.053,-32.666557
1433807225.068,-30.377281
1433807225.084,-27.39159
1433807225.099,-23.951813
1433807225.115,-20.4352
1433807225.131,-17.16785
1433807225.146,-14.321438
1433807225.162,-11.808441
1433807225.178,-9.355103
1433807225.193,-6.621773
1433807225.209,-3.3699036
1433807225.224,0.45376968
1433807225.24,4.650696
1433807225.256,8.911633
1433807225.271,12.902508
1433807225.287,16.435734
1433807225.303,19.537106
1433807225.318,22.459126
1433807225.334,25.594185
1433807225.349,29.373009
1433807225.365,34.10453
1433807225.381,39.85756
1433807225.396,46.351162
1433807225.412,52.894268
1433807225.428,58.43194
1433807225.443,61.767685
1433807225.459,61.859814
1433807225.474,58.1935
1433807225.49,50.966347
1433807225.506,41.108303
1433807225.521,29.955643
1433807225.537,18.887493
1433807225.553,8.9254875
1433807225.568,0.57128906
1433807225.584,-6.17041
1433807225.599,-11.579643
1433807225.615,-16.01426
1433807225.631,-19.73162
1433807225.646,-22.873623
1433807225.662,-25.509663
1433807225.678,-27.710407
1433807225.693,-29.56485
1433807225.709,-31.204845
1433807225.724,-32.71138
1433807225.74,-34.10324
1433807225.756,-35.288353
1433807225.771,-36.133053
1433807225.787,-36.51246
1433807225.803,-36.438057
1433807225.818,-36.032265
1433807225.834,-35.522484
1433807225.849,-35.080414
1433807225.865,-34.70614
1433807225.881,-34.226723
1433807225.896,-33.34636
1433807225.912,-31.806763
1433807225.928,-29.4954
1433807225.943,-26.497154
1433807225.959,-23.04551
1433807225.974,-19.448036
1433807225.99,-15.978874
1433807226.006,-12.801407
1433807226.021,-9.948616
1433807226.037,-7.307762
1433807226.053,-4.6705704
1433807226.068,-1.8043213
1433807226.084,1.4304886
1433807226.099,5.029152
1433807226.115,8.812752
1433807226.131,12.524719
1433807226.146,15.975777
1433807226.162,19.165382
1433807226.178,22.321877
1433807226.193,25.816956
1433807226.209,30.012047
1433807226.224,35.084953
1433807226.24,40.880264
1433807226.256,46.87526
1433807226.271,52.185043
1433807226.287,55.74685
1433807226.303,56.50894
1433807226.318,53.80896
1433807226.334,47.587044
1433807226.349,38.51593
1433807226.365,27.822449
1433807226.381,16.946167
1433807226.396,7.087837
1433807226.412,-1.0498505
1433807226.428,-7.3784714
1433807226.443,-12.223549
1433807226.459,-16.086037
1433807226.474,-19.369377
1433807226.49,-22.295937
1433807226.506,-24.903831
1433807226.521,-27.136276
1433807226.537,-28.952293
1433807226.553,-30.366417
1433807226.568,-31.443932
1433807226.584,-32.26317
1433807226.599,-32.873215
1433807226.615,-33.294888
1433807226.631,-33.529392
1433807226.646,-33.61643
1433807226.662,-33.59756
1433807226.678,-33.57135
1433807226.693,-33.558945
1433807226.709,-33.471325
1433807226.724,-33.078007
1433807226.74,-32.091393
1433807226.756,-30.288616
1433807226.771,-27.666115
1433807226.787,-24.435402
1433807226.803,-20.975674
1433807226.818,-17.67929
1433807226.834,-14.7845955
1433807226.85,-12.312794
1433807226.865,-10.092892
1433807226.881,-7.879627
1433807226.896,-5.448967
1433807226.912,-2.6871529
1433807226.928,0.38567734
1433807226.943,3.6627808
1433807226.959,6.951542
1433807226.975,10.110935
1433807226.99,13.0713005
1433807227.006,15.921616
1433807227.021,18.861805
1433807227.037,22.220955
1433807227.053,26.303776
1433807227.068,31.29921
1433807227.084,37.144283
1433807227.1,43.446438
1433807227.115,49.447544
1433807227.131,54.1369
1433807227.146,56.45502
1433807227.162,55.598675
1433807227.178,51.266956
1433807227.193,43.81242
1433807227.209,34.187138
1433807227.225,23.686539
1433807227.24,13.571636
1433807227.256,4.758583
1433807227.271,-2.353447
1433807227.287,-7.8281097
1433807227.303,-12.021721
1433807227.318,-15.340164
1433807227.334,-18.08257
1433807227.35,-20.373697
1433807227.365,-22.24678
1433807227.381,-23.712934
1433807227.396,-24.84362
1433807227.412,-25.75463
1433807227.428,-26.590143
1433807227.443,-27.405962
1433807227.459,-28.185547
1433807227.475,-28.83496
1433807227.49,-29.2432
1433807227.506,-29.3791
1433807227.521,-29.310007
1433807227.537,-29.166065
1433807227.553,-29.032997
1433807227.568,-28.874922
1433807227.584,-28.508049
1433807227.6,-27.663065
1433807227.615,-26.115011
1433807227.631,-23.803377
1433807227.646,-20.9179
1433807227.662,-17.804026
1433807227.678,-14.875257
1433807227.693,-12.395743
1433807227.709,-10.407333
1433807227.725,-8.687284
1433807227.74,-6.887332
1433807227.756,-4.661849
1433807227.771,-1.8181186
1433807227.787,1.6036739
1433807227.803,5.349127
1433807227.818,9.076372
1433807227.834,12.463396
1433807227.85,15.336097
1433807227.865,17.788637
1433807227.881,20.134483
1433807227.896,22.834373
1433807227.912,26.335855
1433807227.928,30.884647
1433807227.943,36.3973
1433807227.959,42.342865
1433807227.975,47.835903
1433807227.99,51.778908
1433807228.006,53.16738
1433807228.021,51.37493
1433807228.037,46.361843
1433807228.053,38.713085
1433807228.068,29.483078
1433807228.084,19.880512
1433807228.1,10.977776
1433807228.115,3.461462
1433807228.131,-2.4624653
1433807228.146,-6.9546585
1433807228.162,-10.380215
1433807228.178,-13.089088
1433807228.193,-15.291042
1433807228.209,-17.042912
1433807228.225,-18.325386
1433807228.24,-19.178326
1433807228.256,-19.752043
1433807228.271,-20.303467
1433807228.287,-21.06387
1433807228.303,-22.150352
1433807228.318,-23.451864
1433807228.334,-24.696972
1433807228.35,-25.570648
1433807228.365,-25.874825
1433807228.381,-25.603874
1433807228.396,-24.941544
1433807228.412,-24.08678
1433807228.428,-23.130863
1433807228.443,-21.998894
1433807228.459,-20.5051
1433807228.475,-18.510147
1433807228.49,-16.046295
1433807228.506,-13.342285
1433807228.521,-10.727333
1433807228.537,-8.459381
1433807228.553,-6.5931816
1433807228.568,-4.943882
1433807228.584,-3.219925
1433807228.6,-1.1487923
1433807228.615,1.3395271
1433807228.631,4.121605
1433807228.646,6.917053
1433807228.662,9.492916
1433807228.678,11.736988
1433807228.693,13.747433
1433807228.709,15.777515
1433807228.725,18.147045
1433807228.74,21.132572
1433807228.756,24.89627
1433807228.771,29.422955
1433807228.787,34.50156
1433807228.803,39.66959
1433807228.818,44.25894
1433807228.834,47.423023
1433807228.85,48.332657
1433807228.865,46.399902
1433807228.881,41.546036
1433807228.896,34.258034
1433807228.912,25.536255
1433807228.928,16.550232
1433807228.943,8.334076
1433807228.959,1.4951248
1433807228.975,-3.8107376
1433807228.99,-7.7821198
1433807229.006,-10.727478
1433807229.021,-12.940788
1433807229.037,-14.597176
1433807229.053,-15.834526
1433807229.068,-16.796532
1433807229.084,-17.672981
1433807229.1,-18.62426
1433807229.115,-19.726883
1433807229.131,-20.934303
1433807229.146,-22.100739
1433807229.162,-23.052864
1433807229.178,-23.68734
1433807229.193,-24.003159
1433807229.209,-24.10025
1433807229.225,-24.090828
1433807229.24,-24.02858
1433807229.256,-23.841377
1433807229.271,-23.390457
1433807229.287,-22.499275
1433807229.303,-21.075287
1433807229.318,-19.107986
1433807229.334,-16.74813
1433807229.35,-14.182838
1433807229.365,-11.643753
1433807229.381,-9.304871
1433807229.396,-7.2662354
1433807229.412,-5.502617
1433807229.428,-3.9123917
1433807229.443,-2.2981873
1433807229.459,-0.4610901
1433807229.475,1.7456284
1433807229.49,4.351677
1433807229.506,7.2495575
1433807229.522,10.212898
1433807229.537,13.010559
1433807229.553,15.511154
1433807229.568,17.773705
1433807229.584,20.050758
1433807229.6,22.734169
1433807229.615,26.172401
1433807229.631,30.533875
1433807229.646,35.585182
1433807229.662,40.70581
1433807229.678,44.962494
1433807229.693,47.372025
1433807229.709,47.17798
1433807229.725,44.1137
1433807229.74,38.47419
1433807229.756,31.027245
1433807229.772,22.78614
1433807229.787,14.711372
1433807229.803,7.493927
1433807229.818,1.491539
1433807229.834,-3.228302
1433807229.85,-6.782242
1433807229.865,-9.342827
1433807229.881,-11.0931015
1433807229.897,-12.260056
1433807229.912,-13.084518
1433807229.928,-13.841537
1433807229.943,-14.7441635
1433807229.959,-15.893837
1433807229.975,-17.21856
1433807229.99,-18.528442
1433807230.006,-19.586441
1433807230.022,-20.226418
1433807230.037,-20.430695
1433807230.053,-20.354446
1433807230.068,-20.23011
1433807230.084,-20.279518
1433807230.1,-20.578194
1433807230.115,-21.00486
1433807230.131,-21.248703
1433807230.147,-20.967102
1433807230.162,-19.8965
1433807230.178,-17.999847
1433807230.193,-15.492157
1433807230.209,-12.752243
1433807230.225,-10.158356
1433807230.24,-7.94223
1433807230.256,-6.0789185
1433807230.272,-4.356476
1433807230.287,-2.4536743
1433807230.303,-0.15800476
1433807230.318,2.5790405
1433807230.334,5.5913086
1433807230.35,8.623352
1433807230.365,11.443161
1433807230.381,13.95813
1433807230.397,16.227219
1433807230.412,18.433792
1433807230.428,20.805206
1433807230.443,23.574677
1433807230.459,26.93451
1433807230.475,30.992233
1433807230.49,35.669846
1433807230.506,40.609756
1433807230.522,45.128326
1433807230.537,48.303757
1433807230.553,49.201385
1433807230.568,47.230927
1433807230.584,42.377975
1433807230.6,35.262375
1433807230.615,26.935547
1433807230.631,18.552368
1433807230.647,11.005325
1433807230.662,4.750458
1433807230.678,-0.19454956
1433807230.693,-4.050308
1433807230.709,-7.089203
1433807230.725,-9.511337
1433807230.74,-11.4189
1433807230.756,-12.880005
1433807230.772,-14.015167
1433807230.787,-14.988647
1433807230.803,-15.971283
1433807230.818,-17.031128
1433807230.834,-18.143494
1433807230.85,-19.169159
1433807230.865,-19.978119
1433807230.881,-20.497269
1433807230.897,-20.774536
1433807230.912,-20.945786
1433807230.928,-21.122513
1433807230.943,-21.340439
1433807230.959,-21.511688
1433807230.975,-21.432495
1433807230.99,-20.901688
1433807231.006,-19.795029
1433807231.022,-18.149094
1433807231.037,-16.113876
1433807231.053,-13.916473
1433807231.068,-11.780289
1433807231.084,-9.83992
1433807231.1,-8.109787
1433807231.115,-6.4895325
1433807231.131,-4.81102
1433807231.147,-2.8905182
1433807231.162,-0.61486816
1433807231.178,1.9992981
1433807231.193,4.85141
1433807231.209,7.791504
1433807231.225,10.71347
1433807231.24,13.604416
1433807231.256,16.597534
1433807231.272,19.888779
1433807231.287,23.712555
1433807231.303,28.219208
1433807231.318,33.416824
1433807231.334,39.071014
1433807231.35,44.653046
1433807231.365,49.363327
1433807231.381,52.249435
1433807231.397,52.437805
1433807231.412,49.46338
1433807231.428,43.48517
1433807231.443,35.31378
1433807231.459,26.177094
1433807231.475,17.321213
1433807231.49,9.66404
1433807231.506,3.5851822
1433807231.522,-1.0274887
1433807231.537,-4.5388107
1433807231.553,-7.3443832
1433807231.568,-9.715469
1433807231.584,-11.749023
1433807231.6,-13.498909
1433807231.615,-15.010544
1433807231.631,-16.38572
1433807231.647,-17.732498
1433807231.662,-19.143341
1433807231.678,-20.612366
1433807231.693,-22.086578
1433807231.709,-23.459778
1433807231.725,-24.645378
1433807231.74,-25.593025
1433807231.756,-26.285538
1433807231.772,-26.70626
1433807231.787,-26.841782
1433807231.803,-26.634491
1433807231.818,-25.998962
1433807231.834,-24.851433
1433807231.85,-23.157303
1433807231.865,-20.981323
1433807231.881,-18.482834
1433807231.897,-15.884468
1433807231.912,-13.392319
1433807231.928,-11.114258
1433807231.943,-8.987389
1433807231.959,-6.8173676
1433807231.975,-4.3654785
1433807231.99,-1.444931
1433807232.006,1.967247
1433807232.022,5.7251587
1433807232.037,9.536835
1433807232.053,13.120934
1433807232.068,16.280365
1433807232.084,19.037186
1433807232.1,21.595444
1433807232.115,24.30922
1433807232.131,27.553955
1433807232.147,31.58384
1433807232.162,36.374825
1433807232.178,41.55503
1433807232.194,46.375618
1433807232.209,49.857292
1433807232.225,51.031822
1433807232.24,49.236794
1433807232.256,44.327995
1433807232.272,36.810234
1433807232.287,27.664566
1433807232.303,18.108215
1433807232.318,9.264069
1433807232.334,1.8693085
1433807232.35,-3.8219223
1433807232.365,-7.9718246
1433807232.381,-10.975243
1433807232.397,-13.258804
1433807232.412,-15.137184
1433807232.428,-16.784119
1433807232.444,-18.295181
1433807232.459,-19.735558
1433807232.475,-21.192635
1433807232.49,-22.713173
1433807232.506,-24.290596
1433807232.522,-25.79142
1433807232.537,-27.040756
1433807232.553,-27.883904
1433807232.569,-28.331947
1433807232.584,-28.499367
1433807232.6,-28.592659
1433807232.615,-28.727402
1433807232.631,-28.86908
1433807232.647,-28.803177
1433807232.662,-28.253937
1433807232.678,-27.013306
1433807232.694,-25.057213
1433807232.709,-22.547447
1433807232.725,-19.778366
1433807232.74,-17.049423
1433807232.756,-14.583233
1433807232.772,-12.432331
1433807232.787,-10.502155
1433807232.803,-8.573853
1433807232.819,-6.410885
1433807232.834,-3.8364143
1433807232.85,-0.8241272
1433807232.865,2.52602
1433807232.881,5.9818535
1433807232.897,9.3359375
1433807232.912,12.457264
1433807232.928,15.410805
1433807232.944,18.446796
1433807232.959,21.962418
1433807232.975,26.309391
1433807232.99,31.646637
1433807233.006,37.714478
1433807233.022,43.801914
1433807233.037,48.82969
1433807233.053,51.630856
1433807233.069,51.296417
1433807233.084,47.50774
1433807233.1,40.663017
1433807233.115,31.741314
1433807233.131,22.013317
1433807233.147,12.630871
1433807233.162,4.412033
1433807233.178,-2.2999039
1433807233.194,-7.538887
1433807233.209,-11.554798
1433807233.225,-14.640865
1433807233.24,-17.01931
1433807233.256,-18.832779
1433807233.272,-20.15384
1433807233.287,-21.094257
1433807233.303,-21.819561
1433807233.319,-22.536713
1433807233.334,-23.442268
1433807233.35,-24.623024
1433807233.365,-26.005959
1433807233.381,-27.382496
1433807233.397,-28.511326
1433807233.412,-29.240341
1433807233.428,-29.556038
1433807233.444,-29.587486
1433807233.459,-29.471756
1433807233.475,-29.252663
1433807233.49,-28.813843
1433807233.506,-27.92126
1433807233.522,-26.360989
1433807233.537,-24.076809
1433807233.553,-21.217678
1433807233.569,-18.099483
1433807233.584,-15.095501
1433807233.6,-12.473961
1433807233.615,-10.284771
1433807233.631,-8.334892
1433807233.647,-6.306122
1433807233.662,-3.9131355
1433807233.678,-1.0547104
1433807233.694,2.131401
1433807233.709,5.355873
1433807233.725,8.304283
1433807233.74,10.840958
1433807233.756,13.05434
1433807233.772,15.248905
1433807233.787,17.82138
1433807233.803,21.122448
1433807233.819,25.356308
1433807233.834,30.503162
1433807233.85,36.234375
1433807233.865,41.90643
1433807233.881,46.582882
1433807233.897,49.216393
1433807233.912,48.919724
1433807233.928,45.314415
1433807233.944,38.669846
1433807233.959,29.936802
1433807233.975,20.417475
1433807233.99,11.395304
1433807234.006,3.7786388
1433807234.022,-2.0815144
1433807234.037,-6.323183
1433807234.053,-9.371969
1433807234.069,-11.693083
1433807234.084,-13.609362
1433807234.1,-15.271982
1433807234.115,-16.707047
1433807234.131,-17.927242
1433807234.147,-19.015959
1433807234.162,-20.136364
1433807234.178,-21.43246
1433807234.194,-22.93749
1433807234.209,-24.479803
1433807234.225,-25.782879
1433807234.24,-26.58926
1433807234.256,-26.824503
1433807234.272,-26.653948
1433807234.287,-26.376345
1433807234.303,-26.199083
1433807234.319,-26.130133
1433807234.334,-25.89976
1433807234.35,-25.137365
1433807234.365,-23.58567
1433807234.381,-21.264164
1433807234.397,-18.440472
1433807234.412,-15.531519
1433807234.428,-12.895275
1433807234.444,-10.689457
1433807234.459,-8.846973
1433807234.475,-7.147394
1433807234.49,-5.3094635
1433807234.506,-3.128601
1433807234.522,-0.53837585
1433807234.537,2.3758755
1433807234.553,5.4067745
1433807234.569,8.318523
1433807234.584,10.944052
1433807234.6,13.268364
1433807234.615,15.463028
1433807234.631,17.831758
1433807234.647,20.772917
1433807234.662,24.610815
1433807234.678,29.4843
1433807234.694,35.16181
1433807234.709,41.013924
1433807234.725,46.023056
1433807234.74,49.024525
1433807234.756,49.055443
1433807234.772,45.71939
1433807234.787,39.350136
1433807234.803,30.975101
1433807234.819,21.944447
1433807234.834,13.496401
1433807234.85,6.414894
1433807234.865,0.89307785
1433807234.881,-3.3516636
1433807234.897,-6.7501373
1433807234.912,-9.644094
1433807234.928,-12.139355
1433807234.944,-14.181015
1433807234.959,-15.67956
1433807234.975,-16.705353
1433807234.99,-17.467901
1433807235.006,-18.26506
1433807235.022,-19.319008
1433807235.037,-20.652628
1433807235.053,-22.115772
1433807235.069,-23.457602
1433807235.084,-24.48511
1433807235.1,-25.141312
1433807235.116,-25.4942
1433807235.131,-25.683064
1433807235.147,-25.806873
1433807235.162,-25.861362
1433807235.178,-25.715246
1433807235.194,-25.18373
1433807235.209,-24.07508
1433807235.225,-22.322418
1433807235.241,-19.993967
1433807235.256,-17.331402
1433807235.272,-14.6588
1433807235.287,-12.266331
1433807235.303,-10.275337
1433807235.319,-8.604223
1433807235.334,-6.9671783
1433807235.35,-5.05344
1433807235.366,-2.653473
1433807235.381,0.23236084
1433807235.397,3.4118347
1433807235.412,6.6084976
1433807235.428,9.613964
1433807235.444,12.359055
1433807235.459,14.947441
1433807235.475,17.604294
1433807235.491,20.616642
1433807235.506,24.258839
1433807235.522,28.691917
1433807235.537,33.856552
1433807235.553,39.36417
1433807235.569,44.484444
1433807235.584,48.23868
1433807235.6,49.65656
1433807235.616,48.128304
1433807235.631,43.592777
1433807235.647,36.624733
1433807235.662,28.250362
1433807235.678,19.639412
1433807235.694,11.788292
1433807235.709,5.308071
1433807235.725,0.3303337
1433807235.741,-3.359848
1433807235.756,-6.1732445
1433807235.772,-8.516182
1433807235.787,-10.673786
1433807235.803,-12.737679
1433807235.819,-14.678162
1433807235.834,-16.41674
1433807235.85,-17.946262
1433807235.866,-19.340374
1433807235.881,-20.728561
1433807235.897,-22.167843
1433807235.912,-23.584488
1433807235.928,-24.779728
1433807235.944,-25.561916
1433807235.959,-25.868523
1433807235.975,-25.819576
1433807235.991,-25.646156
1433807236.006,-25.544605
1433807236.022,-25.518173
1433807236.037,-25.34787
1433807236.053,-24.708492
1433807236.069,-23.353363
1433807236.084,-21.258118
1433807236.1,-18.681805
1433807236.116,-16.023335
1433807236.131,-13.684868
1433807236.147,-11.850422
1433807236.162,-10.461475
1433807236.178,-9.191059
1433807236.194,-7.653515
1433807236.209,-5.4975357
1433807236.225,-2.5938873
1433807236.241,0.9292908
1433807236.256,4.7531548
1433807236.272,8.477062
1433807236.287,11.78334
1433807236.303,14.552185
1433807236.319,16.914108
1433807236.334,19.192993
1433807236.35,21.801456
1433807236.366,25.132538
1433807236.381,29.3927
1433807236.397,34.530308
1433807236.412,40.134315
1433807236.428,45.48367
1433807236.444,49.61896
1433807236.459,51.588158
1433807236.475,50.64609
1433807236.491,46.57282
1433807236.506,39.745926
1433807236.522,31.10638
1433807236.537,21.87976
1433807236.553,13.261539
1433807236.569,6.041336
1433807236.584,0.47039032
1433807236.6,-3.6866112
1433807236.616,-6.923336
1433807236.631,-9.708694
1433807236.647,-12.289318
1433807236.662,-14.684788
1433807236.678,-16.789337
1433807236.694,-18.547081
1433807236.709,-20.027405
1433807236.725,-21.388882
1433807236.741,-22.754925
1433807236.756,-24.112965
1433807236.772,-25.286804
1433807236.787,-26.078407
1433807236.803,-26.406914
1433807236.819,-26.38499
1433807236.834,-26.278946
1433807236.85,-26.374783
1433807236.866,-26.769745
1433807236.881,-27.33574
1433807236.897,-27.73796
1433807236.912,-27.578579
1433807236.928,-26.57249
1433807236.944,-24.670444
1433807236.959,-22.01537
1433807236.975,-18.959984
1433807236.991,-15.86116
1433807237.006,-13.033138
1433807237.022,-10.620239
1433807237.037,-8.638325
1433807237.053,-6.913582
1433807237.069,-5.227768
1433807237.084,-3.3328514
1433807237.1,-1.0686684
1433807237.116,1.6135559
1433807237.131,4.624939
1433807237.147,7.8107414
1433807237.162,11.011757
1433807237.178,14.136433
1433807237.194,17.188656
1433807237.209,20.280712
1433807237.225,23.586803
1433807237.241,27.341454
1433807237.256,31.688663
1433807237.272,36.61204
1433807237.287,41.781567
1433807237.303,46.523087
1433807237.319,49.903393
1433807237.334,50.992733
1433807237.35,49.183018
1433807237.366,44.438007
1433807237.381,37.370293
1433807237.397,29.025764
1433807237.412,20.56778
1433807237.428,12.911823
1433807237.444,6.5338173
1433807237.459,1.4405861
1433807237.475,-2.6417313
1433807237.491,-6.0583305
1433807237.506,-9.04874
1433807237.522,-11.665501
1433807237.537,-13.874825
1433807237.553,-15.623539
1433807237.569,-16.985744
1433807237.584,-18.13974
1433807237.6,-19.34293
1433807237.616,-20.761654
1433807237.631,-22.407532
1433807237.647,-24.080357
1433807237.662,-25.486946
1433807237.678,-26.394901
1433807237.694,-26.76849
1433807237.709,-26.778801
1433807237.725,-26.696556
1433807237.741,-26.70906
1433807237.756,-26.815899
1433807237.772,-26.801346
1433807237.788,-26.386951
1433807237.803,-25.342506
1433807237.819,-23.646423
1433807237.834,-21.433865
1433807237.85,-18.968193
1433807237.866,-16.481018
1433807237.881,-14.129227
1433807237.897,-11.964142
1433807237.913,-9.952389
1433807237.928,-8.0103
1433807237.944,-6.0153275
1433807237.959,-3.8247604
1433807237.975,-1.3231201
1433807237.991,1.5391083
1433807238.006,4.6766815
1433807238.022,7.910103
1433807238.038,11.060978
1433807238.053,14.054775
1433807238.069,16.968445
1433807238.084,20.039307
1433807238.1,23.56015
1433807238.116,27.77755
1433807238.131,32.728745
1433807238.147,38.19787
1433807238.163,43.658897
1433807238.178,48.33063
1433807238.194,51.29337
1433807238.209,51.734432
1433807238.225,49.19866
1433807238.241,43.808918
1433807238.256,36.248917
1433807238.272,27.607727
1433807238.288,19.024532
1433807238.303,11.362915
1433807238.319,5.0210648
1433807238.334,-0.025238037
1433807238.35,-4.0560837
1433807238.366,-7.3740387
1433807238.381,-10.154144
1433807238.397,-12.452049
1433807238.413,-14.288101
1433807238.428,-15.727753
1433807238.444,-16.941193
1433807238.459,-18.114937
1433807238.475,-19.415215
1433807238.491,-20.838547
1433807238.506,-22.252827
1433807238.522,-23.420597
1433807238.538,-24.155922
1433807238.553,-24.404926
1433807238.569,-24.292458
1433807238.584,-24.047161
1433807238.6,-23.865192
1433807238.616,-23.739094
1433807238.631,-23.490002
1433807238.647,-22.818783
1433807238.663,-21.508476
1433807238.678,-19.526863
1433807238.694,-17.074238
1433807238.709,-14.47821
1433807238.725,-12.067005
1433807238.741,-9.998344
1433807238.756,-8.251198
1433807238.772,-6.6284447
1433807238.788,-4.8798523
1433807238.803,-2.784134
1433807238.819,-0.25924683
1433807238.834,2.6491547
1433807238.85,5.7470512
1433807238.866,8.823017
1433807238.881,11.709106
1433807238.897,14.371048
1433807238.913,16.948338
1433807238.928,19.730453
1433807238.944,23.092167
1433807238.959,27.353981
1433807238.975,32.625175
1433807238.991,38.687325
1433807239.006,44.904602
1433807239.022,50.29458
1433807239.038,53.754326
1433807239.053,54.374325
1433807239.069,51.765274
1433807239.084,46.22284
1433807239.1,38.60847
1433807239.116,30.083178
1433807239.131,21.707756
1433807239.147,14.208197
1433807239.163,7.8569717
1433807239.178,2.6139984
1433807239.194,-1.7026997
1433807239.209,-5.257738
1433807239.225,-8.17021
1433807239.241,-10.534124
1433807239.256,-12.478464
1433807239.272,-14.161137
1433807239.288,-15.759544
1433807239.303,-17.381132
1433807239.319,-19.053104
1433807239.334,-20.709568
1433807239.35,-22.227472
1433807239.366,-23.502518
1433807239.381,-24.484436
1433807239.397,-25.19756
1433807239.413,-25.737751
1433807239.428,-26.202171
1433807239.444,-26.60904
1433807239.459,-26.850256
1433807239.475,-26.721052
1433807239.491,-25.981342
1433807239.506,-24.49776
1433807239.522,-22.301275
1433807239.538,-19.625568
1433807239.553,-16.820856
1433807239.569,-14.223517
1433807239.584,-11.99612
1433807239.6,-10.087645
1433807239.616,-8.225191
1433807239.631,-6.0728006
1433807239.647,-3.3732898
1433807239.663,-0.09604344
1433807239.678,3.5829163
1433807239.694,7.3370514
1433807239.709,10.8872
1433807239.725,14.084782
1433807239.741,16.993885
1433807239.756,19.847946
1433807239.772,22.981323
1433807239.788,26.70789
1433807239.803,31.266256
1433807239.819,36.64671
1433807239.834,42.54744
1433807239.85,48.278038
1433807239.866,52.842655
1433807239.881,55.143364
1433807239.897,54.346893
1433807239.913,50.213932
1433807239.928,43.236618
1433807239.944,34.49933
1433807239.959,25.30395
1433807239.975,16.736269
1433807239.991,9.379217
1433807240.006,3.288311
1433807240.022,-1.8056679
1433807240.038,-6.233177
1433807240.053,-10.158197
1433807240.069,-13.603748
1433807240.084,-16.502155
1433807240.1,-18.864826
1433807240.116,-20.81155
1433807240.131,-22.552456
1433807240.147,-24.257656
1433807240.163,-26.007904
1433807240.178,-27.706963
1433807240.194,-29.196896
1433807240.209,-30.2985
1433807240.225,-30.945755
1433807240.241,-31.194061
1433807240.256,-31.192764
1433807240.272,-31.057
1433807240.288,-30.790173
1433807240.303,-30.182869
1433807240.319,-28.967
1433807240.334,-26.929634
1433807240.35,-24.10669
1433807240.366,-20.823719
1433807240.381,-17.60345
1433807240.397,-14.929523
1433807240.413,-13.027973
1433807240.428,-11.768345
1433807240.444,-10.721909
1433807240.46,-9.401127
1433807240.475,-7.4814796
1433807240.491,-4.9053574
1433807240.506,-1.8579788
1433807240.522,1.3778954
1433807240.538,4.5715256
1433807240.553,7.6839943
1433807240.569,10.834
1433807240.585,14.272545
1433807240.6,18.269753
1433807240.616,23.021645
1433807240.631,28.532776
1433807240.647,34.547104
1433807240.663,40.491447
1433807240.678,45.573677
1433807240.694,48.84665
1433807240.71,49.496666
1433807240.725,47.022827
1433807240.741,41.467964
1433807240.756,33.410934
1433807240.772,23.912003
1433807240.788,14.174408
1433807240.803,5.277115
1433807240.819,-2.1140823
1433807240.835,-7.814766
1433807240.85,-12.057083
1433807240.866,-15.277252
1433807240.881,-17.900024
1433807240.897,-20.19889
1433807240.913,-22.2641
1433807240.928,-24.095322
1433807240.944,-25.693314
1433807240.96,-27.08464
1433807240.975,-28.330704
1433807240.991,-29.452385
1433807241.006,-30.415146
1433807241.022,-31.142174
1433807241.038,-31.62622
1433807241.053,-31.902641
1433807241.069,-32.106712
1433807241.085,-32.32776
1433807241.1,-32.556587
1433807241.116,-32.583633
1433807241.131,-32.129616
1433807241.147,-30.920486
1433807241.163,-28.888771
1433807241.178,-26.218521
1433807241.194,-23.30297
1433807241.21,-20.556488
1433807241.225,-18.252296
1433807241.241,-16.39898
1433807241.256,-14.751343
1433807241.272,-12.956375
1433807241.288,-10.692101
1433807241.303,-7.8062057
1433807241.319,-4.384659
1433807241.335,-0.6769333
1433807241.35,2.9746933
1433807241.366,6.297188
1433807241.381,9.176697
1433807241.397,11.7552185
1433807241.413,14.350639
1433807241.428,17.447662
1433807241.444,21.43673
1433807241.46,26.470726
1433807241.475,32.252098
1433807241.491,38.035698
1433807241.506,42.722153
1433807241.522,45.16607
1433807241.538,44.52208
1433807241.553,40.53724
1433807241.569,33.65493
1433807241.585,24.911293
1433807241.6,15.594597
1433807241.616,6.937668
1433807241.631,-0.2450409
1433807241.647,-5.673668
1433807241.663,-9.529442
1433807241.678,-12.232384
1433807241.694,-14.231377
1433807241.71,-15.812889
1433807241.725,-17.116402
1433807241.741,-18.199913
1433807241.756,-19.162346
1433807241.772,-20.143578
1433807241.788,-21.303246
1433807241.803,-22.660606
1433807241.819,-24.087349
1433807241.835,-25.284317
1433807241.85,-25.992065
1433807241.866,-26.082497
1433807241.881,-25.676819
1433807241.897,-25.0747
1433807241.913,-24.596123
1433807241.928,-24.364143
1433807241.944,-24.270874
1433807241.96,-23.989235
1433807241.975,-23.158379
1433807241.991,-21.521767
1433807242.006,-19.083542
1433807242.022,-16.08989
1433807242.038,-12.937096
1433807242.053,-10.018082
1433807242.069,-7.571541
1433807242.085,-5.577442
1433807242.1,-3.819561
1433807242.116,-1.9565849
1433807242.131,0.27667236
1433807242.147,2.9868164
1433807242.163,6.052925
1433807242.178,9.251823
1433807242.194,12.31554
1433807242.21,15.137554
1433807242.225,17.79393
1433807242.241,20.601078
1433807242.256,23.961918
1433807242.272,28.22292
1433807242.288,33.452515
1433807242.303,39.279842
1433807242.319,44.911716
1433807242.335,49.28133
1433807242.35,51.339905
1433807242.366,50.45473
1433807242.381,46.58224
1433807242.397,40.320908
1433807242.413,32.632614
1433807242.428,24.576267
1433807242.444,16.938793
1433807242.46,10.15678
1433807242.475,4.296871
1433807242.491,-0.76914215
1433807242.506,-5.241066
1433807242.522,-9.25404
1433807242.538,-12.849403
1433807242.553,-15.960991
1433807242.569,-18.498508
1433807242.585,-20.416206
1433807242.6,-21.768047
1433807242.616,-22.740395
1433807242.631,-23.603249
1433807242.647,-24.56945
1433807242.663,-25.725967
1433807242.678,-26.934658
1433807242.694,-27.960567
1433807242.71,-28.551544
1433807242.725,-28.629738
1433807242.741,-28.266022
1433807242.756,-27.653877
1433807242.772,-26.955975
1433807242.788,-26.201708
1433807242.803,-25.29548
1433807242.819,-24.055956
1433807242.835,-22.354883
1433807242.85,-20.192463
1433807242.866,-17.713015
1433807242.881,-15.172884
1433807242.897,-12.807213
1433807242.913,-10.80018
1433807242.928,-9.1151085
1433807242.944,-7.5838814
1433807242.96,-5.9204426
1433807242.975,-3.8625221
1433807242.991,-1.2772045
1433807243.006,1.7452297
1433807243.022,4.9292164
1433807243.038,7.9407215
1433807243.053,10.543163
1433807243.069,12.726699
1433807243.085,14.718091
1433807243.1,16.880327
1433807243.116,19.564266
1433807243.132,22.979301
1433807243.147,27.146637
1433807243.163,31.882074
1433807243.178,36.83927
1433807243.194,41.492607
1433807243.21,45.1847
1433807243.225,47.152805
1433807243.241,46.76376
1433807243.256,43.689808
1433807243.272,38.132057
1433807243.288,30.79543
1433807243.303,22.72054
1433807243.319,14.935243
1433807243.335,8.177538
1433807243.35,2.6947932
1433807243.366,-1.6380017
1433807243.382,-5.1701202
1433807243.397,-8.217319
1433807243.413,-10.961068
1433807243.428,-13.435063
1433807243.444,-15.622717
1433807243.46,-17.537245
1433807243.475,-19.261953
1433807243.491,-20.871086
1433807243.507,-22.388441
1433807243.522,-23.729725
1433807243.538,-24.76196
1433807243.553,-25.355625
1433807243.569,-25.486217
1433807243.585,-25.238312
1433807243.6,-24.792023
1433807243.616,-24.349373
1433807243.632,-24.029802
1433807243.647,-23.820679
1433807243.663,-23.600935
1433807243.678,-23.16286
1433807243.694,-22.324553
1433807243.71,-20.987041
1433807243.725,-19.179966
1433807243.741,-17.033949
1433807243.757,-14.751926
1433807243.772,-12.527294
1433807243.788,-10.508471
1433807243.803,-8.762583
1433807243.819,-7.284775
1433807243.835,-5.970297
1433807243.85,-4.670391
1433807243.866,-3.1829605
1433807243.882,-1.3353615
1433807243.897,0.9479332
1433807243.913,3.606636
1433807243.928,6.4635124
1433807243.944,9.292538
1433807243.96,11.93663
1433807243.975,14.373207
1433807243.991,16.730099
1433807244.007,19.216251
1433807244.022,22.06989
1433807244.038,25.47454
1433807244.053,29.552486
1433807244.069,34.25781
1433807244.085,39.285034
1433807244.1,44.01901
1433807244.116,47.58093
1433807244.132,49.046104
1433807244.147,47.749283
1433807244.163,43.568302
1433807244.178,37.026093
1433807244.194,29.123268
1433807244.21,21.046883
1433807244.225,13.758961
1433807244.241,7.8155785
1433807244.257,3.2996216
1433807244.272,-0.06220627
1433807244.288,-2.727459
1433807244.303,-5.1004143
1433807244.319,-7.4633636
1433807244.335,-9.878124
1433807244.35,-12.235699
1433807244.366,-14.340958
1433807244.382,-16.04145
1433807244.397,-17.283844
1433807244.413,-18.147202
1433807244.428,-18.744751
1433807244.444,-19.168663
1433807244.46,-19.45568
1433807244.475,-19.631104
1433807244.491,-19.755371
1433807244.507,-19.951935
1433807244.522,-20.328484
1433807244.538,-20.915382
1433807244.553,-21.563057
1433807244.569,-22.015472
1433807244.585,-21.981293
1433807244.6,-21.322311
1433807244.616,-20.056183
1433807244.632,-18.350197
1433807244.647,-16.41867
1433807244.663,-14.4561615
1433807244.678,-12.570198
1433807244.694,-10.826744
1433807244.71,-9.232216
1433807244.725,-7.782173
1433807244.741,-6.409157
1433807244.757,-5.0421295
1433807244.772,-3.5527115
1433807244.788,-1.8421478
1433807244.803,0.19625092
1433807244.819,2.606285
1433807244.835,5.3775864
1433807244.85,8.395515
1433807244.866,11.496582
1433807244.882,14.491089
1433807244.897,17.224586
1433807244.913,19.675987
1433807244.928,21.95945
1433807244.944,24.344017
1433807244.96,27.160805
1433807244.975,30.698624
1433807244.991,35.040756
1433807245.007,39.91156
1433807245.022,44.672028
1433807245.038,48.371094
1433807245.053,50.023224
1433807245.069,48.90155
1433807245.085,44.886192
1433807245.1,38.500862
1433807245.116,30.787003
1433807245.132,22.928192
1433807245.147,15.875336
1433807245.163,10.084763
1433807245.178,5.555969
1433807245.194,1.9704971
1433807245.21,-1.0298004
1433807245.225,-3.6996384
1433807245.241,-6.1312485
1433807245.257,-8.327332
1433807245.272,-10.283623
1433807245.288,-12.0525055
1433807245.303,-13.714401
1433807245.319,-15.341576
1433807245.335,-16.932457
1433807245.35,-18.410667
1433807245.366,-19.676178
1433807245.382,-20.690994
1433807245.397,-21.504196
1433807245.413,-22.245872
1433807245.428,-23.008995
1433807245.444,-23.795135
1433807245.46,-24.45546
1433807245.475,-24.743965
1433807245.491,-24.450691
1433807245.507,-23.492111
1433807245.522,-21.973083
1433807245.538,-20.124016
1433807245.553,-18.187157
1433807245.569,-16.346886
1433807245.585,-14.681412
1433807245.6,-13.194031
1433807245.616,-11.835648
1433807245.632,-10.558617
1433807245.647,-9.281311
1433807245.663,-7.94442
1433807245.678,-6.417938
1433807245.694,-4.606186
1433807245.71,-2.4206543
1433807245.725,0.16142273
1433807245.741,3.0974197
1433807245.757,6.260048
1433807245.772,9.517014
1433807245.788,12.718582
1433807245.803,15.809837
1433807245.819,18.789536
1433807245.835,21.745682
1433807245.85,24.81887
1433807245.866,28.192413
1433807245.882,32.00209
1433807245.897,36.32038
1433807245.913,41.02643
1433807245.928,45.74363
1433807245.944,49.787483
1433807245.96,52.28647
1433807245.975,52.42724
1433807245.991,49.756996
1433807246.007,44.394005
1433807246.022,37.045364
1433807246.038,28.74054
1433807246.054,20.527832
1433807246.069,13.146378
1433807246.085,6.929619
1433807246.1,1.8417816
1433807246.116,-2.279274
1433807246.132,-5.630287
1433807246.147,-8.334244
1433807246.163,-10.546257
1433807246.179,-12.449905
1433807246.194,-14.272652
1433807246.21,-16.202194
1433807246.225,-18.31202
1433807246.241,-20.520775
1433807246.257,-22.648384
1433807246.272,-24.4879
1433807246.288,-25.913216
1433807246.304,-26.85096
1433807246.319,-27.34774
1433807246.335,-27.490067
1433807246.35,-27.405174
1433807246.366,-27.192947
1433807246.382,-26.931076
1433807246.397,-26.61155
1433807246.413,-26.190582
1433807246.429,-25.560425
1433807246.444,-24.629494
1433807246.46,-23.328262
1433807246.475,-21.651207
1433807246.491,-19.6363
1433807246.507,-17.383873
1433807246.522,-15.0372925
1433807246.538,-12.773354
1433807246.554,-10.751877
1433807246.569,-9.0601425
1433807246.585,-7.6649246
1433807246.6,-6.4089355
1433807246.616,-5.027069
1433807246.632,-3.268692
1433807246.647,-0.95874023
1433807246.663,1.9037323
1433807246.679,5.1779633
1433807246.694,8.604729
1433807246.71,11.94973
1433807246.725,15.045082
1433807246.741,17.905418
1433807246.757,20.697495
1433807246.772,23.712471
1433807246.788,27.240273
1433807246.804,31.49739
1433807246.819,36.484055
1433807246.835,41.921455
1433807246.85,47.217476
1433807246.866,51.561165
1433807246.882,54.04957
1433807246.897,53.95031
1433807246.913,50.9284
1433807246.929,45.205566
1433807246.944,37.49787
1433807246.96,28.856758
1433807246.975,20.325294
1433807246.991,12.709618
1433807247.007,6.395439
1433807247.022,1.3759384
1433807247.038,-2.620987
1433807247.054,-5.9551773
1433807247.069,-8.9370575
1433807247.085,-11.736961
1433807247.1,-14.4129715
1433807247.116,-16.910526
1433807247.132,-19.118568
1433807247.147,-20.970394
1433807247.163,-22.48679
1433807247.179,-23.77295
1433807247.194,-24.99495
1433807247.21,-26.28032
1433807247.225,-27.674847
1433807247.241,-29.085701
1433807247.257,-30.368515
1433807247.272,-31.342224
1433807247.288,-31.892975
1433807247.304,-31.938038
1433807247.319,-31.460342
1433807247.335,-30.465897
1433807247.35,-29.001438
1433807247.366,-27.123405
1433807247.382,-24.948563
1433807247.397,-22.62561
1433807247.413,-20.328484
1433807247.429,-18.20353
1433807247.444,-16.35122
1433807247.46,-14.755295
1433807247.475,-13.330273
1433807247.491,-11.912758
1433807247.507,-10.332756
1433807247.522,-8.412365
1433807247.538,-6.051586
1433807247.554,-3.2070236
1433807247.569,0.06022644
1433807247.585,3.6256523
1433807247.6,7.307102
1433807247.616,10.9436035
1433807247.632,14.414139
1433807247.647,17.68332
1433807247.663,20.806232
1433807247.679,23.904224
1433807247.694,27.15878
1433807247.71,30.800743
1433807247.725,35.040733
1433807247.741,40.00378
1433807247.757,45.525284
1433807247.772,51.098064
1433807247.788,55.77245
1433807247.804,58.431362
1433807247.819,58.081123
1433807247.835,54.270893
1433807247.85,47.311382
1433807247.866,38.192593
1433807247.882,28.290802
1433807247.897,18.9058
1433807247.913,10.916599
1433807247.929,4.632824
1433807247.944,-0.10845947
1433807247.96,-3.7172775
1433807247.975,-6.6272144
1433807247.991,-9.132345
1433807248.007,-11.420174
1433807248.022,-13.563156
1433807248.038,-15.621592
1433807248.054,-17.641018
1433807248.069,-19.67114
1433807248.085,-21.720037
1433807248.1,-23.757692
1433807248.116,-25.692879
1433807248.132,-27.40768
1433807248.147,-28.80919
1433807248.163,-29.847414
1433807248.179,-30.521812
1433807248.194,-30.89323
1433807248.21,-31.01056
1433807248.225,-30.905071
1433807248.241,-30.548023
1433807248.257,-29.884304
1433807248.272,-28.82412
1433807248.288,-27.346962
1433807248.304,-25.472633
1433807248.319,-23.303331
1433807248.335,-20.974878
1433807248.35,-18.640524
1433807248.366,-16.39866
1433807248.382,-14.303098
1433807248.397,-12.313221
1433807248.413,-10.335852
1433807248.429,-8.207837
1433807248.444,-5.789687
1433807248.46,-2.9533179
1433807248.475,0.31811404
1433807248.491,3.928794
1433807248.507,7.7014217
1433807248.522,11.411575
1433807248.538,14.9165
1433807248.554,18.213718
1433807248.569,21.425137
1433807248.585,24.788254
1433807248.6,28.562885
1433807248.616,32.988068
1433807248.632,38.19107
1433807248.647,44.145607
1433807248.663,50.55288
1433807248.679,56.79158
1433807248.694,61.879898
1433807248.71,64.67653
1433807248.726,64.178535
1433807248.741,59.92063
1433807248.757,52.19472
1433807248.772,42.062363
1433807248.788,31.02758
1433807248.804,20.562193
1433807248.819,11.66954
1433807248.835,4.680298
1433807248.851,-0.66810226
1433807248.866,-4.911768
1433807248.882,-8.570532
1433807248.897,-11.906254
1433807248.913,-14.940905
1433807248.929,-17.559055
1433807248.944,-19.718159
1433807248.96,-21.52388
1433807248.976,-23.200714
1433807248.991,-24.974537
1433807249.007,-26.925835
1433807249.022,-28.933239
1433807249.038,-30.76612
1433807249.054,-32.170097
1433807249.069,-33.05006
1433807249.085,-33.47392
1433807249.101,-33.62957
1433807249.116,-33.689476
1433807249.132,-33.711357
1433807249.147,-33.59531
1433807249.163,-33.147514
1433807249.179,-32.16142
1433807249.194,-30.518684
1433807249.21,-28.247139
1433807249.226,-25.518642
1433807249.241,-22.593227
1433807249.257,-19.746685
1433807249.272,-17.157097
1433807249.288,-14.888138
1433807249.304,-12.81604
1433807249.319,-10.723999
1433807249.335,-8.347115
1433807249.351,-5.5050507
1433807249.366,-2.1176147
1433807249.382,1.7123642
1433807249.397,5.816429
1433807249.413,9.971146
1433807249.429,14.015251
1433807249.444,17.851532
1433807249.46,21.524727
1433807249.476,25.208931
1433807249.491,29.225983
1433807249.507,33.942245
1433807249.522,39.635323
1433807249.538,46.29464
1433807249.554,53.467247
1433807249.569,60.210648
1433807249.585,65.2352
1433807249.601,67.25191
1433807249.616,65.385445
1433807249.632,59.48876
1433807249.647,50.2567
1433807249.663,38.98044
1433807249.679,27.195122
1433807249.694,16.198196
1433807249.71,6.774971
1433807249.726,-0.8596039
1433807249.741,-6.9110794
1433807249.757,-11.7511215
1433807249.772,-15.700981
1433807249.788,-18.94992
1433807249.804,-21.57724
1433807249.819,-23.671288
1433807249.835,-25.396935
1433807249.851,-27.021767
1433807249.866,-28.763695
1433807249.882,-30.74131
1433807249.897,-32.841133
1433807249.913,-34.78972
1433807249.929,-36.238663
1433807249.944,-36.988647
1433807249.96,-37.058113
1433807249.976,-36.709137
1433807249.991,-36.3116
1433807250.007,-36.144135
1433807250.022,-36.208664
1433807250.038,-36.204407
1433807250.054,-35.661423
1433807250.069,-34.17662
1433807250.085,-31.620926
1433807250.101,-28.238907
1433807250.116,-24.537476
1433807250.132,-21.067871
1433807250.147,-18.145859
1433807250.163,-15.774994
1433807250.179,-13.646957
1433807250.194,-11.378296
1433807250.21,-8.667343
1433807250.226,-5.4253387
1433807250.241,-1.7570343
1433807250.257,2.138626
1433807250.272,6.0812225
1433807250.288,9.948578
1433807250.304,13.711182
1433807250.319,17.400818
1433807250.335,21.152054
1433807250.351,25.209595
1433807250.366,29.916382
1433807250.382,35.543503
1433807250.397,42.118942
1433807250.413,49.192535
1433807250.429,55.819824
1433807250.444,60.689346
1433807250.46,62.51248
1433807250.476,60.410614
1433807250.491,54.256393
1433807250.507,44.73758
1433807250.522,33.127533
1433807250.538,20.96518
1433807250.554,9.609436
1433807250.569,-0.04560852
1433807250.585,-7.6286316
1433807250.601,-13.2439575
1433807250.616,-17.234573
1433807250.632,-20.022064
1433807250.647,-21.95111
1433807250.663,-23.288956
1433807250.679,-24.247192
1433807250.694,-25.058578
1433807250.71,-25.978073
1433807250.726,-27.240189
1433807250.741,-28.93605
1433807250.757,-30.97638
1433807250.772,-33.076874
1433807250.788,-34.86133
1433807250.804,-36.02864
1433807250.819,-36.48123
1433807250.835,-36.35515
1433807250.851,-35.940994
1433807250.866,-35.467804
1433807250.882,-34.985138
1433807250.897,-34.284348
1433807250.913,-33.047516
1433807250.929,-31.006989
1433807250.944,-28.16867
1433807250.96,-24.8293
1433807250.976,-21.462982
1433807250.991,-18.445816
1433807251.007,-15.882233
1433807251.022,-13.5429535
1433807251.038,-10.999374
1433807251.054,-7.8730316
1433807251.069,-4.046829
1433807251.085,0.27656555
1433807251.101,4.6674347
1433807251.116,8.711304
1433807251.132,12.200638
1433807251.147,15.233994
1433807251.163,18.176834
1433807251.179,21.550491
1433807251.194,25.85048
1433807251.21,31.383865
1433807251.226,38.082123
1433807251.241,45.406097
1433807251.257,52.30934
1433807251.272,57.447037
1433807251.288,59.478333
1433807251.304,57.511536
1433807251.319,51.411865
1433807251.335,41.882004
1433807251.351,30.259918
1433807251.366,18.129303
1433807251.382,6.883774
1433807251.398,-2.5829468
1433807251.413,-9.943558
1433807251.429,-15.323547
1433807251.444,-19.116928
1433807251.46,-21.756104
1433807251.476,-23.623642
1433807251.491,-25.016663
1433807251.507,-26.167114
1433807251.523,-27.22789
1433807251.538,-28.303986
1433807251.554,-29.404968
1433807251.569,-30.480698
1433807251.585,-31.441086
1433807251.601,-32.224396
1433807251.616,-32.835785
1433807251.632,-33.34091
1433807251.648,-33.795288
1433807251.663,-34.18283
1433807251.679,-34.367126
1433807251.694,-34.09636
1433807251.71,-33.11711
1433807251.726,-31.317978
1433807251.741,-28.754333
1433807251.757,-25.672424
1433807251.773,-22.398773
1433807251.788,-19.200043
1433807251.804,-16.203476
1433807251.819,-13.390396
1433807251.835,-10.648117
1433807251.851,-7.853607
1433807251.866,-4.930359
1433807251.882,-1.8808136
1433807251.898,1.2346649
1433807251.913,4.3116455
1433807251.929,7.2820587
1433807251.944,10.102249
1433807251.96,12.844025
1433807251.976,15.689972
1433807251.991,18.959152
1433807252.007,22.993866
1433807252.023,28.024536
1433807252.038,33.95871
1433807252.054,40.265747
1433807252.069,45.953705
1433807252.085,49.7863
1433807252.101,50.611572
1433807252.116,47.767426
1433807252.132,41.297745
1433807252.148,32.012863
1433807252.163,21.23317
1433807252.179,10.445541
1433807252.194,0.87319946
1433807252.21,-6.7592926
1433807252.226,-12.317963
1433807252.241,-16.111984
1433807252.257,-18.68953
1433807252.273,-20.560608
1433807252.288,-22.083069
1433807252.304,-23.355255
1433807252.319,-24.335632
1433807252.335,-24.962128
1433807252.351,-25.290298
1433807252.366,-25.492477
1433807252.382,-25.818115
1433807252.398,-26.425644
1433807252.413,-27.300293
1433807252.429,-28.228546
1433807252.444,-28.8956
1433807252.46,-29.028687
1433807252.476,-28.502243
1433807252.491,-27.351898
1433807252.507,-25.671585
1433807252.523,-23.544815
1433807252.538,-21.01204
1433807252.554,-18.070847
1433807252.569,-14.757431
1433807252.585,-11.200363
1433807252.601,-7.6089935
1433807252.616,-4.1890717
1433807252.632,-1.0932312
1433807252.648,1.6774902
1433807252.663,4.210205
1433807252.679,6.715332
1433807252.694,9.378403
1433807252.71,12.303955
1433807252.726,15.512711
1433807252.741,19.005478
1433807252.757,22.82315
1433807252.773,27.100342
1433807252.788,31.980331
1433807252.804,37.45311
1433807252.819,43.154816
1433807252.835,48.32904
1433807252.851,51.916153
1433807252.866,52.908005
1433807252.882,50.669434
1433807252.898,45.20687
1433807252.913,37.158234
1433807252.929,27.643333
1433807252.944,17.873177
1433807252.96,8.897789
1433807252.976,1.3572159
1433807252.991,-4.5731964
1433807253.007,-9.098595
1433807253.023,-12.614578
1433807253.038,-15.561958
1433807253.054,-18.208458
1433807253.069,-20.647652
1433807253.085,-22.820946
1433807253.101,-24.635376
1433807253.116,-26.048637
1433807253.132,-27.102348
1433807253.148,-27.856659
1433807253.163,-28.389755
1433807253.179,-28.704292
1433807253.194,-28.774132
1433807253.21,-28.602203
1433807253.226,-28.229385
1433807253.241,-27.72676
1433807253.257,-27.126411
1433807253.273,-26.372505
1433807253.288,-25.331848
1433807253.304,-23.83181
1433807253.319,-21.788605
1433807253.335,-19.216042
1433807253.351,-16.27481
1433807253.366,-13.153709
1433807253.382,-9.998047
1433807253.398,-6.835228
1433807253.413,-3.6000671
1433807253.429,-0.1656723
1433807253.444,3.5285797
1433807253.46,7.4242935
1433807253.476,11.35321
1433807253.491,15.092079
1433807253.507,18.505974
1433807253.523,21.626709
1433807253.538,24.65422
1433807253.554,27.927437
1433807253.569,31.800804
1433807253.585,36.529182
1433807253.601,42.118843
1433807253.616,48.243744
1433807253.632,54.147537
1433807253.648,58.775696
1433807253.663,60.97625
1433807253.679,59.86055
1433807253.694,55.152184
1433807253.71,47.33586
1433807253.726,37.55108
1433807253.741,27.225708
1433807253.757,17.627197
1433807253.773,9.527946
1433807253.788,3.0688019
1433807253.804,-2.0920258
1433807253.819,-6.498764
1433807253.835,-10.595375
1433807253.851,-14.602509
1433807253.866,-18.494339
1433807253.882,-22.13462
1433807253.898,-25.384789
1433807253.913,-28.175156
1433807253.929,-30.49218
1433807253.944,-32.334824
1433807253.96,-33.675163
1433807253.976,-34.4833
1433807253.991,-34.71817
1433807254.007,-34.444504
1433807254.023,-33.805595
1433807254.038,-33.041885
1433807254.054,-32.362915
1433807254.07,-31.856926
1433807254.085,-31.437767
1433807254.101,-30.853691
1433807254.116,-29.803223
1433807254.132,-28.088493
1433807254.148,-25.706474
1433807254.163,-22.859924
1433807254.179,-19.846779
1433807254.194,-16.920303
1433807254.21,-14.18071
1433807254.226,-11.527229
1433807254.241,-8.736576
1433807254.257,-5.60548
1433807254.273,-2.0573273
1433807254.288,1.7941933
1433807254.304,5.7169266
1433807254.32,9.438274
1433807254.335,12.792763
1433807254.351,15.739246
1433807254.366,18.447346
1433807254.382,21.192242
1433807254.398,24.292763
1433807254.413,28.022312
1433807254.429,32.525127
1433807254.445,37.703636
1433807254.46,43.183502
1433807254.476,48.26101
1433807254.491,51.99628
1433807254.507,53.405212
1433807254.523,51.791378
1433807254.538,47.015865
1433807254.554,39.652252
1433807254.57,30.828808
1433807254.585,21.864914
1433807254.601,13.806778
1433807254.616,7.155979
1433807254.632,1.812397
1433807254.648,-2.676443
1433807254.663,-6.807947
1433807254.679,-10.853842
1433807254.695,-14.827551
1433807254.71,-18.537367
1433807254.726,-21.795948
1433807254.741,-24.49106
1433807254.757,-26.598124
1433807254.773,-28.184753
1433807254.788,-29.347225
1433807254.804,-30.153994
1433807254.82,-30.692013
1433807254.835,-31.002155
1433807254.851,-31.119473
1433807254.866,-31.059277
1433807254.882,-30.867622
1433807254.898,-30.584509
1433807254.913,-30.245274
1433807254.929,-29.787876
1433807254.945,-29.070305
1433807254.96,-27.88712
1433807254.976,-26.098272
1433807254.991,-23.693851
1433807255.007,-20.869844
1433807255.023,-17.954779
1433807255.038,-15.281059
1433807255.054,-13.057301
1433807255.07,-11.3153305
1433807255.085,-9.899875
1433807255.101,-8.539877
1433807255.116,-6.9152145
1433807255.132,-4.784949
1433807255.148,-2.0522327
1433807255.163,1.1736279
1433807255.179,4.624303
1433807255.195,7.928667
1433807255.21,10.783802
1433807255.226,13.066643
1433807255.241,14.910397
1433807255.257,16.662039
1433807255.273,18.763597
1433807255.288,21.59133
1433807255.304,25.360943
1433807255.32,30.027668
1433807255.335,35.288242
1433807255.351,40.564323
1433807255.366,45.08335
1433807255.382,47.962616
1433807255.398,48.452244
1433807255.413,46.14508
1433807255.429,41.175365
1433807255.445,34.20543
1433807255.46,26.274826
1433807255.476,18.471256
1433807255.491,11.642166
1433807255.507,6.172058
1433807255.523,1.971302
1433807255.538,-1.3746529
1433807255.554,-4.32983
1433807255.57,-7.221649
1433807255.585,-10.126736
1433807255.601,-12.92852
1433807255.616,-15.480511
1433807255.632,-17.71806
1433807255.648,-19.683197
1433807255.663,-21.480927
1433807255.679,-23.124039
1433807255.695,-24.513687
1433807255.71,-25.43681
1433807255.726,-25.745987
1433807255.741,-25.425636
1433807255.757,-24.69088
1433807255.773,-23.881554
1433807255.788,-23.32692
1433807255.804,-23.161629
1433807255.82,-23.276665
1433807255.835,-23.355751
1433807255.851,-23.034294
1433807255.866,-22.027359
1433807255.882,-20.271324
1433807255.898,-17.927216
1433807255.913,-15.340729
1433807255.929,-12.876282
1433807255.945,-10.810226
1433807255.96,-9.223167
1433807255.976,-8.006729
1433807255.991,-6.920845
1433807256.007,-5.7172623
1433807256.023,-4.2061462
1433807256.038,-2.3154755
1433807256.054,-0.03992462
1433807256.07,2.5420837
1433807256.085,5.2931976
1433807256.101,8.043854
1433807256.116,10.6343155
1433807256.132,12.977478
1433807256.148,15.125824
1433807256.163,17.280777
1433807256.179,19.749504
1433807256.195,22.823357
1433807256.21,26.677612
1433807256.226,31.200981
1433807256.241,36.01248
1433807256.257,40.417618
1433807256.273,43.56714
1433807256.288,44.622017
1433807256.304,43.074432
1433807256.32,38.899353
1433807256.335,32.674797
1433807256.351,25.408012
1433807256.366,18.206284
1433807256.382,11.914078
1433807256.398,6.9024963
1433807256.413,3.0665283
1433807256.429,0.055923462
1433807256.445,-2.504654
1433807256.46,-4.834442
1433807256.476,-7.0612793
1433807256.491,-9.236069
1433807256.507,-11.491959
1433807256.523,-13.933731
1433807256.538,-16.638275
1433807256.554,-19.515625
1433807256.57,-22.354965
1433807256.585,-24.856064
1433807256.601,-26.75531
1433807256.616,-27.90393
1433807256.632,-28.29216
1433807256.648,-28.055252
1433807256.663,-27.403702
1433807256.679,-26.533752
1433807256.695,-25.559296
1433807256.71,-24.471497
1433807256.726,-23.170853
1433807256.742,-21.515106
1433807256.757,-19.436142
1433807256.773,-16.953018
1433807256.788,-14.202942
1433807256.804,-11.317169
1433807256.82,-8.414413
1433807256.835,-5.556015
1433807256.851,-2.8170013
1433807256.866,-0.25442505
1433807256.882,2.0540771
1433807256.898,4.0998993
1433807256.913,5.987671
1433807256.929,7.890564
1433807256.945,9.972443
1433807256.96,12.284103
1433807256.976,14.732132
1433807256.992,17.172943
1433807257.007,19.469162
1433807257.023,21.59459
1433807257.038,23.593689
1433807257.054,25.61345
1433807257.07,27.78917
1433807257.085,30.273743
1433807257.101,33.165222
1433807257.117,36.44774
1433807257.132,39.862885
1433807257.148,42.86461
1433807257.163,44.673218
1433807257.179,44.543076
1433807257.195,42.055878
1433807257.21,37.335724
1433807257.226,31.058868
1433807257.242,24.203415
1433807257.257,17.703522
1433807257.273,12.15538
1433807257.288,7.740982
1433807257.304,4.330414
1433807257.32,1.6475983
1433807257.335,-0.53785706
1433807257.351,-2.3966675
1433807257.367,-4.03479
1433807257.382,-5.5496216
1433807257.398,-7.035492
1433807257.413,-8.580658
1433807257.429,-10.209702
1433807257.445,-11.859543
1433807257.46,-13.418991
1433807257.476,-14.766052
1433807257.492,-15.811432
1433807257.507,-16.545807
1433807257.523,-17.028015
1433807257.538,-17.371323
1433807257.554,-17.654114
1433807257.57,-17.913864
1433807257.585,-18.072693
1433807257.601,-18.007294
1433807257.617,-17.581894
1433807257.632,-16.753006
1433807257.648,-15.55806
1433807257.663,-14.106857
1433807257.679,-12.518265
1433807257.695,-10.857086
1433807257.71,-9.145081
1433807257.726,-7.416504
1433807257.742,-5.7395935
1433807257.757,-4.2207336
1433807257.773,-2.938858
1433807257.788,-1.8744965
1433807257.804,-0.86364746
1433807257.82,0.3173828
1433807257.835,1.8671417
1433807257.851,3.8236542
1433807257.867,6.0337067
1433807257.882,8.252289
1433807257.898,10.283829
1433807257.913,12.059616
1433807257.929,13.678894
1433807257.945,15.355728
1433807257.96,17.301682
1433807257.976,19.704056
1433807257.992,22.66565
1433807258.007,26.2173
1433807258.023,30.290695
1433807258.038,34.643173
1433807258.054,38.762955
1433807258.07,41.905243
1433807258.085,43.27066
1433807258.101,42.25905
1433807258.117,38.796814
1433807258.132,33.35292
1433807258.148,26.849014
1433807258.163,20.31932
1433807258.179,14.544952
1433807258.195,9.863831
1433807258.21,6.1931915
1433807258.226,3.214569
1433807258.242,0.5731659
1433807258.257,-1.8963013
1433807258.273,-4.2078094
1433807258.288,-6.269638
1433807258.304,-7.985489
1433807258.32,-9.322418
1433807258.335,-10.351547
1433807258.351,-11.208084
1433807258.367,-12.051575
1433807258.382,-12.983963
1433807258.398,-13.998428
1433807258.413,-14.981232
1433807258.429,-15.769669
1433807258.445,-16.221268
1433807258.46,-16.33368
1433807258.476,-16.214584
1433807258.492,-15.981125
1433807258.507,-15.683838
1433807258.523,-15.23526
1433807258.538,-14.43544
1433807258.554,-13.163559
1433807258.57,-11.412476
1433807258.585,-9.389603
1433807258.601,-7.4039307
1433807258.617,-5.719818
1433807258.632,-4.449341
1433807258.648,-3.4788818
1433807258.663,-2.5623932
1433807258.679,-1.3939209
1433807258.695,0.25856018
1433807258.71,2.4874115
1433807258.726,5.236313
1433807258.742,8.298767
1433807258.757,11.426865
1433807258.773,14.377029
1433807258.788,17.004974
1433807258.804,19.30664
1433807258.82,21.433075
1433807258.835,23.67067
1433807258.851,26.385864
1433807258.867,29.89888
1433807258.882,34.385284
1433807258.898,39.685562
1433807258.913,45.25653
1433807258.929,50.188263
1433807258.945,53.389618
1433807258.96,53.917465
1433807258.976,51.29695
1433807258.992,45.723694
1433807259.007,38.060394
1433807259.023,29.526962
1433807259.038,21.349365
1433807259.054,14.3502655
1433807259.07,8.802902
1433807259.085,4.4813232
1433807259.101,0.92111206
1433807259.117,-2.2887878
1433807259.132,-5.325836
1433807259.148,-8.159332
1433807259.163,-10.649582
1433807259.179,-12.751892
1433807259.195,-14.561768
1433807259.21,-16.27304
1433807259.226,-18.007263
1433807259.242,-19.700241
1433807259.257,-21.114487
1433807259.273,-22.004318
1433807259.288,-22.291672
1433807259.304,-22.162811
1433807259.32,-21.985489
1433807259.335,-22.120483
1433807259.351,-22.658646
1433807259.367,-23.3927
1433807259.382,-23.847488
1433807259.398,-23.58603
1433807259.413,-22.385529
1433807259.429,-20.381432
1433807259.445,-17.960182
1433807259.46,-15.59803
1433807259.476,-13.603996
1433807259.492,-12.032616
1433807259.507,-10.653427
1433807259.523,-9.109016
1433807259.538,-7.0668106
1433807259.554,-4.369972
1433807259.57,-1.097786
1433807259.585,2.485672
1433807259.601,6.0500336
1433807259.617,9.339333
1433807259.632,12.290642
1433807259.648,15.040817
1433807259.664,17.880898
1433807259.679,21.156822
1433807259.695,25.162102
1433807259.71,29.983986
1433807259.726,35.48432
1433807259.742,41.14823
1433807259.757,46.172638
1433807259.773,49.569557
1433807259.789,50.43386
1433807259.804,48.231262
1433807259.82,42.991844
1433807259.835,35.36315
1433807259.851,26.398277
1433807259.867,17.26604
1433807259.882,8.883503
1433807259.898,1.761261
1433807259.914,-4.0228996
1433807259.929,-8.6829605
1433807259.945,-12.5076065
1433807259.96,-15.750828
1433807259.976,-18.514435
1433807259.992,-20.84591
1433807260.007,-22.73656
1433807260.023,-24.279144
1433807260.039,-25.6086
1433807260.054,-26.891033
1433807260.07,-28.211426
1433807260.085,-29.534754
1433807260.101,-30.720297
1433807260.117,-31.630867
1433807260.132,-32.225426
1433807260.148,-32.60656
1433807260.164,-32.945618
1433807260.179,-33.335907
1433807260.195,-33.65114
1433807260.21,-33.587154
1433807260.226,-32.779995
1433807260.242,-31.008516
1433807260.257,-28.35222
1433807260.273,-25.190477
1433807260.289,-21.982037
1433807260.304,-19.126604
1433807260.32,-16.733212
1433807260.335,-14.668341
1433807260.351,-12.642334
1433807260.367,-10.359533
1433807260.382,-7.6837454
1433807260.398,-4.670334
1433807260.414,-1.5247641
1433807260.429,1.4868469
1433807260.445,4.2130165
1433807260.46,6.6988373
1433807260.476,9.183914
1433807260.492,12.020496
1433807260.507,15.584318
1433807260.523,20.093494
1433807260.539,25.544712
1433807260.554,31.598211
1433807260.57,37.574696
1433807260.585,42.502357
1433807260.601,45.306507
1433807260.617,45.06718
1433807260.632,41.353565
1433807260.648,34.427177
1433807260.664,25.226326
1433807260.679,15.088463
1433807260.695,5.3481483
1433807260.71,-3.057705
1433807260.726,-9.738689
1433807260.742,-14.7687
1433807260.757,-18.452686
1433807260.773,-21.140846
1433807260.789,-23.055489
1433807260.804,-24.394928
1433807260.82,-25.335361
1433807260.835,-26.085033
1433807260.851,-26.825405
1433807260.867,-27.656265
1433807260.882,-28.571468
1433807260.898,-29.481037
1433807260.914,-30.267181
1433807260.929,-30.816315
1433807260.945,-31.091171
1433807260.96,-31.089523
1433807260.976,-30.854843
1433807260.992,-30.435574
1433807261.007,-29.880566
1433807261.023,-29.168514
1433807261.039,-28.183083
1433807261.054,-26.79734
1433807261.07,-24.906929
1433807261.085,-22.551323
1433807261.101,-19.882607
1433807261.117,-17.12436
1433807261.132,-14.417587
1433807261.148,-11.791565
1433807261.164,-9.131088
1433807261.179,-6.2847366
1433807261.195,-3.1840134
1433807261.21,0.14971924
1433807261.226,3.5859528
1433807261.242,6.9726715
1433807261.257,10.19397
1433807261.273,13.217194
1433807261.289,16.10376
1433807261.304,19.059425
1433807261.32,22.399834
1433807261.335,26.470009
1433807261.351,31.500267
1433807261.367,37.379578
1433807261.382,43.52291
1433807261.398,48.86624
1433807261.414,52.20085
1433807261.429,52.468384
1433807261.445,49.224213
1433807261.46,42.76451
1433807261.476,34.05593
1433807261.492,24.433876
1433807261.507,15.137444
1433807261.523,6.987686
1433807261.539,0.28495026
1433807261.554,-5.1262283
1433807261.57,-9.587448
1433807261.585,-13.410812
1433807261.601,-16.766891
1433807261.617,-19.700615
1433807261.632,-22.211617
1433807261.648,-24.352608
1433807261.664,-26.242722
1433807261.679,-27.978836
1433807261.695,-29.580078
1433807261.71,-30.957916
1433807261.726,-31.948166
1433807261.742,-32.43827
1433807261.757,-32.396652
1433807261.773,-31.953804
1433807261.789,-31.325378
1433807261.804,-30.77488
1433807261.82,-30.420982
1433807261.835,-30.258026
1433807261.851,-30.06643
1433807261.867,-29.51133
1433807261.882,-28.255043
1433807261.898,-26.111877
1433807261.914,-23.159027
1433807261.929,-19.708504
1433807261.945,-16.199707
1433807261.96,-13.01812
1433807261.976,-10.317123
1433807261.992,-7.981659
1433807262.007,-5.697769
1433807262.023,-3.152031
1433807262.039,-0.14591217
1433807262.054,3.2542648
1433807262.07,6.8178864
1433807262.085,10.221001
1433807262.101,13.259865
1433807262.117,15.930504
1433807262.132,18.476418
1433807262.148,21.286987
1433807262.164,24.759422
1433807262.179,29.129318
1433807262.195,34.378517
1433807262.21,40.15828
1433807262.226,45.83248
1433807262.242,50.538757
1433807262.257,53.355354
1433807262.273,53.507484
1433807262.289,50.60955
1433807262.304,44.796516
1433807262.32,36.773438
1433807262.336,27.608208
1433807262.351,18.454483
1433807262.367,10.18251
1433807262.382,3.2315369
1433807262.398,-2.4391937
1433807262.414,-7.1449127
1433807262.429,-11.238815
1433807262.445,-14.943611
1433807262.461,-18.304176
1433807262.476,-21.246109
1433807262.492,-23.691376
1433807262.507,-25.644196
1433807262.523,-27.188622
1433807262.539,-28.447784
1433807262.554,-29.541069
1433807262.57,-30.51789
1433807262.586,-31.368034
1433807262.601,-32.012398
1433807262.617,-32.37545
1433807262.632,-32.397217
1433807262.648,-32.084244
1433807262.664,-31.501862
1433807262.679,-30.772942
1433807262.695,-29.975105
1433807262.711,-29.10492
1433807262.726,-28.063263
1433807262.742,-26.70729
1433807262.757,-24.911888
1433807262.773,-22.70018
1433807262.789,-20.209297
1433807262.804,-17.673065
1433807262.82,-15.311195
1433807262.836,-13.272186
1433807262.851,-11.52317
1433807262.867,-9.915634
1433807262.882,-8.185562
1433807262.898,-6.081833
1433807262.914,-3.451088
1433807262.929,-0.3246765
1433807262.945,3.1261826
1433807262.961,6.629692
1433807262.976,9.959259
1433807262.992,13.044754
1433807263.007,16.006851
1433807263.023,19.08709
1433807263.039,22.565857
1433807263.054,26.59864
1433807263.07,31.184921
1433807263.086,36.090065
1433807263.101,40.903706
1433807263.117,45.01872
1433807263.132,47.76982
1433807263.148,48.50318
1433807263.164,46.808235
1433807263.179,42.6628
1433807263.195,36.512753
1433807263.211,29.136837
1433807263.226,21.456432
1433807263.242,14.228931
1433807263.257,7.9221
1433807263.273,2.637104
1433807263.289,-1.7553673
1433807263.304,-5.5007324
1433807263.32,-8.820251
1433807263.336,-11.863106
1433807263.351,-14.675037
1433807263.367,-17.229076
1433807263.382,-19.446484
1433807263.398,-21.287994
1433807263.414,-22.764156
1433807263.429,-23.983387
1433807263.445,-25.088264
1433807263.461,-26.190666
1433807263.476,-27.279251
1433807263.492,-28.250408
1433807263.507,-28.914745
1433807263.523,-29.143433
1433807263.539,-28.936684
1433807263.554,-28.394829
1433807263.57,-27.670849
1433807263.586,-26.858727
1433807263.601,-25.921555
1433807263.617,-24.744202
1433807263.632,-23.198784
1433807263.648,-21.244804
1433807263.664,-18.988956
1433807263.679,-16.65982
1433807263.695,-14.493313
1433807263.711,-12.687714
1433807263.726,-11.265821
1433807263.742,-10.095085
1433807263.757,-8.901453
1433807263.773,-7.3932858
1433807263.789,-5.3521137
1433807263.804,-2.7505646
1433807263.82,0.2802391
1433807263.836,3.495943
1433807263.851,6.6373577
1433807263.867,9.548578
1433807263.882,12.226294
1433807263.898,14.769371
1433807263.914,17.355177
1433807263.929,20.173622
1433807263.945,23.39054
1433807263.961,27.115248
1433807263.976,31.383106
1433807263.992,36.033745
1433807264.007,40.653164
1433807264.023,44.539314
1433807264.039,46.84533
1433807264.054,46.80025
1433807264.07,44.047394
1433807264.086,38.78224
1433807264.101,31.767677
1433807264.117,24.07424
1433807264.132,16.728914
1433807264.148,10.404986
1433807264.164,5.291044
1433807264.179,1.2083354
1433807264.195,-2.1996527
1433807264.211,-5.2349687
1433807264.226,-8.015192
1433807264.242,-10.553437
1433807264.257,-12.78254
1433807264.273,-14.693479
1433807264.289,-16.326395
1433807264.304,-17.756195
1433807264.32,-19.033333
1433807264.336,-20.173351
1433807264.351,-21.17337
1433807264.367,-22.020592
1433807264.382,-22.718775
1433807264.398,-23.283346
1433807264.414,-23.742102
1433807264.429,-24.120285
1433807264.445,-24.430826
1433807264.461,-24.646626
1433807264.476,-24.696144
1433807264.492,-24.45615
1433807264.507,-23.780209
1433807264.523,-22.624912
1433807264.539,-21.046545
1433807264.554,-19.229437
1433807264.57,-17.360067
1433807264.586,-15.573494
1433807264.601,-13.878925
1433807264.617,-12.212688
1433807264.632,-10.513947
1433807264.648,-8.786251
1433807264.664,-7.0768013
1433807264.679,-5.4231796
1433807264.695,-3.774662
1433807264.711,-1.9836502
1433807264.726,0.111061096
1433807264.742,2.5972404
1433807264.757,5.4395447
1433807264.773,8.502888
1433807264.789,11.623062
1433807264.804,14.676727
1433807264.82,17.629639
1433807264.836,20.519257
1433807264.851,23.444305
1433807264.867,26.54351
1433807264.882,29.95998
1433807264.898,33.75617
1433807264.914,37.812378
1433807264.929,41.730736
1433807264.945,44.852654
1433807264.961,46.401817
1433807264.976,45.725433
1433807264.992,42.54329
1433807265.008,37.109116
1433807265.023,30.139442
1433807265.039,22.62658
1433807265.054,15.508194
1433807265.07,9.464676
1433807265.086,4.732437
1433807265.101,1.1916428
1433807265.117,-1.5155029
1433807265.132,-3.7747803
1433807265.148,-5.853859
1433807265.164,-7.863014
1433807265.179,-9.777611
1433807265.195,-11.547333
1433807265.211,-13.13279
1433807265.226,-14.545517
1433807265.242,-15.805664
1433807265.258,-16.90844
1433807265.273,-17.843376
1433807265.289,-18.589836
1433807265.304,-19.172737
1433807265.32,-19.651405
1433807265.336,-20.106209
1433807265.351,-20.5587
1433807265.367,-20.985397
1433807265.383,-21.278625
1433807265.398,-21.334694
1433807265.414,-21.071701
1433807265.429,-20.487106
1433807265.445,-19.632576
1433807265.461,-18.585258
1433807265.476,-17.378654
1433807265.492,-16.032555
1433807265.508,-14.517395
1433807265.523,-12.838707
1433807265.539,-11.03138
1433807265.554,-9.189682
1433807265.57,-7.4138107
1433807265.586,-5.772911
1433807265.601,-4.2606354
1433807265.617,-2.7650452
1433807265.633,-1.1220703
1433807265.648,0.8254471
1433807265.664,3.1428833
1433807265.679,5.74942
1433807265.695,8.489952
1433807265.711,11.179741
1433807265.726,13.723129
1433807265.742,16.136108
1433807265.758,18.567657
1433807265.773,21.210945
1433807265.789,24.27108
1433807265.804,27.867462
1433807265.82,32.00885
1433807265.836,36.501427
1433807265.851,40.900337
1433807265.867,44.53784
1433807265.883,46.6239
1433807265.898,46.472244
1433807265.914,43.738144
1433807265.929,38.579353
1433807265.945,31.6773
1433807265.961,24.034813
1433807265.976,16.68869
1433807265.992,10.428459
1433807266.008,5.6041718
1433807266.023,2.098816
1433807266.039,-0.49987793
1433807266.054,-2.6901245
1433807266.07,-4.837372
1433807266.086,-7.05101
1433807266.101,-9.202347
1433807266.117,-11.103195
1433807266.133,-12.646011
1433807266.148,-13.905487
1433807266.164,-15.098694
1433807266.179,-16.439026
1433807266.195,-17.983017
1433807266.211,-19.580765
1433807266.226,-20.944061
1433807266.242,-21.833664
1433807266.258,-22.15094
1433807266.273,-22.017838
1433807266.289,-21.652374
1433807266.304,-21.274323
1433807266.32,-20.941574
1433807266.336,-20.555054
1433807266.351,-19.919266
1433807266.367,-18.850739
1433807266.383,-17.273163
1433807266.398,-15.285263
1433807266.414,-13.1219635
1433807266.429,-11.0551605
1433807266.445,-9.271042
1433807266.461,-7.788391
1433807266.476,-6.4650116
1433807266.492,-5.076126
1433807266.508,-3.422882
1433807266.523,-1.4180298
1433807266.539,0.88116455
1433807266.554,3.329239
1433807266.57,5.7972565
1433807266.586,8.167694
1433807266.601,10.436554
1433807266.617,12.6501465
1433807266.633,14.95105
1433807266.648,17.526733
1433807266.664,20.588455
1433807266.679,24.295074
1433807266.695,28.65799
1433807266.711,33.48854
1433807266.726,38.347717
1433807266.742,42.609833
1433807266.758,45.539276
1433807266.773,46.443115
1433807266.789,44.885406
1433807266.804,40.78955
1433807266.82,34.580963
1433807266.836,27.065903
1433807266.851,19.285553
1433807266.867,12.192444
1433807266.883,6.42157
1433807266.898,2.1388702
1433807266.914,-0.89328
1433807266.929,-3.1274261
1433807266.945,-4.9783325
1433807266.961,-6.6768646
1433807266.976,-8.242462
1433807266.992,-9.599182
1433807267.008,-10.694992
1433807267.023,-11.5967865
1433807267.039,-12.489136
1433807267.054,-13.5820465
1433807267.07,-14.943619
1433807267.086,-16.47876
1433807267.101,-17.905334
1433807267.117,-18.923157
1433807267.133,-19.368546
1433807267.148,-19.323486
1433807267.164,-19.031845
1433807267.179,-18.767654
1433807267.195,-18.639313
1433807267.211,-18.510025
1433807267.226,-18.055588
1433807267.242,-16.967285
1433807267.258,-15.136078
1433807267.273,-12.736877
1433807267.289,-10.137466
1433807267.304,-7.735977
1433807267.32,-5.753601
1433807267.336,-4.1724396
1433807267.351,-2.7400055
1433807267.367,-1.1435242
1433807267.383,0.87190247
1433807267.398,3.3825989
1433807267.414,6.277603
1433807267.429,9.323776
1433807267.445,12.283691
1433807267.461,15.007706
1433807267.476,17.488327
1433807267.492,19.863113
1433807267.508,22.341599
1433807267.523,25.14589
1433807267.539,28.451706
1433807267.554,32.37526
1433807267.57,36.937813
1433807267.586,41.976036
1433807267.601,47.073418
1433807267.617,51.4974
1433807267.633,54.358467
1433807267.648,54.75592
1433807267.664,52.20175
1433807267.68,46.788483
1433807267.695,39.248062
1433807267.711,30.686638
1433807267.726,22.205742
1433807267.742,14.587318
1433807267.758,8.141846
1433807267.773,2.8186798
1433807267.789,-1.5934372
1433807267.804,-5.295822
1433807267.82,-8.408035
1433807267.836,-10.995804
1433807267.851,-13.156776
1433807267.867,-15.032768
1433807267.883,-16.753952
1433807267.898,-18.399773
1433807267.914,-19.959854
1433807267.93,-21.413467
1433807267.945,-22.717941
1433807267.961,-23.884087
1433807267.976,-24.914108
1433807267.992,-25.818893
1433807268.008,-26.545586
1433807268.023,-27.033066
1433807268.039,-27.24665
1433807268.055,-27.186745
1433807268.07,-26.875526
1433807268.086,-26.32132
1433807268.101,-25.478561
1433807268.117,-24.264023
1433807268.133,-22.581017
1433807268.148,-20.427086
1433807268.164,-17.919159
1433807268.18,-15.290604
1433807268.195,-12.766991
1433807268.211,-10.494606
1433807268.226,-8.467613
1433807268.242,-6.540062
1433807268.258,-4.4900894
1433807268.273,-2.138317
1433807268.289,0.604187
1433807268.305,3.6963844
1433807268.32,7.0302353
1433807268.336,10.4846115
1433807268.351,13.946945
1433807268.367,17.314869
1433807268.383,20.562836
1433807268.398,23.716637
1433807268.414,26.917309
1433807268.43,30.432919
1433807268.445,34.59811
1433807268.461,39.65815
1433807268.476,45.57624
1433807268.492,51.86404
1433807268.508,57.581326
1433807268.523,61.522083
1433807268.539,62.57264
1433807268.555,60.06394
1433807268.57,54.06894
1433807268.586,45.344803
1433807268.601,35.116344
1433807268.617,24.663034
1433807268.633,15.020567
1433807268.648,6.752803
1433807268.664,-0.015239716
1433807268.68,-5.47711
1433807268.695,-9.952652
1433807268.711,-13.776907
1433807268.726,-17.190416
1433807268.742,-20.33115
1433807268.758,-23.212725
1433807268.773,-25.807068
1433807268.789,-28.04878
1433807268.805,-29.968819
1433807268.82,-31.639404
1433807268.836,-33.176384
1433807268.851,-34.590282
1433807268.867,-35.798058
1433807268.883,-36.61132
1433807268.898,-36.89192
1433807268.914,-36.64758
1433807268.93,-36.08378
1433807268.945,-35.47567
1433807268.961,-35.010162
1433807268.976,-34.633842
1433807268.992,-34.073704
1433807269.008,-32.966026
1433807269.023,-31.091251
1433807269.039,-28.473618
1433807269.055,-25.422005
1433807269.07,-22.310703
1433807269.086,-19.445076
1433807269.101,-16.930984
1433807269.117,-14.707611
1433807269.133,-12.605209
1433807269.148,-10.483967
1433807269.164,-8.234745
1433807269.18,-5.770653
1433807269.195,-3.0052185
1433807269.211,0.120601654
1433807269.226,3.6338615
1433807269.242,7.418293
1433807269.258,11.292976
1433807269.273,15.057678
1433807269.289,18.633678
1433807269.305,22.131641
1433807269.32,25.837929
1433807269.336,30.122398
1433807269.351,35.25792
1433807269.367,41.25582
1433807269.383,47.73368
1433807269.398,53.91028
1433807269.414,58.6978
1433807269.43,60.928223
1433807269.445,59.714645
1433807269.461,54.726692
1433807269.476,46.386147
1433807269.492,35.787804
1433807269.508,24.403267
1433807269.523,13.622322
1433807269.539,4.42601
1433807269.555,-2.87249
1433807269.57,-8.501915
1433807269.586,-12.990929
1433807269.601,-16.871254
1433807269.617,-20.483902
1433807269.633,-23.898766
1433807269.648,-27.051384
1433807269.664,-29.848076
1433807269.68,-32.269463
1433807269.695,-34.373596
1433807269.711,-36.225983
1433807269.726,-37.817604
1433807269.742,-39.065643
1433807269.758,-39.881767
1433807269.773,-40.236572
1433807269.789,-40.212593
1433807269.805,-39.956757
1433807269.82,-39.582634
1433807269.836,-39.116096
1433807269.851,-38.47078
1433807269.867,-37.545685
1433807269.883,-36.288025
1433807269.898,-34.766945
1433807269.914,-33.095802
1433807269.93,-31.366386
1433807269.945,-29.564827
1433807269.961,-27.614449
1433807269.976,-25.41835
1433807269.992,-22.987839
1433807270.008,-20.42376
1433807270.023,-17.9086
1433807270.039,-15.535934
1433807270.055,-13.266922
1433807270.07,-10.928024
1433807270.086,-8.307785
1433807270.101,-5.249344
1433807270.117,-1.7348175
1433807270.133,2.107895
1433807270.148,6.065346
1433807270.164,9.922501
1433807270.18,13.533661
1433807270.195,16.92598
1433807270.211,20.279953
1433807270.226,23.92257
1433807270.242,28.187897
1433807270.258,33.315865
1433807270.273,39.311035
1433807270.289,45.849625
1433807270.305,52.22119
1433807270.32,57.441055
1433807270.336,60.411995
1433807270.351,60.22664
1433807270.367,56.44523
1433807270.383,49.2978
1433807270.398,39.663033
1433807270.414,28.865768
1433807270.43,18.277496
1433807270.445,8.97142
1433807270.461,1.4428864
1433807270.476,-4.376236
1433807270.492,-8.940704
1433807270.508,-12.799011
1433807270.523,-16.377243
1433807270.539,-19.849014
1433807270.555,-23.202545
1433807270.57,-26.281097
1433807270.586,-28.949722
1433807270.602,-31.13388
1433807270.617,-32.87117
1433807270.633,-34.246384
1433807270.648,-35.357162
1433807270.664,-36.25865
1433807270.68,-36.95323
1433807270.695,-37.378952
1433807270.711,-37.51793
1433807270.727,-37.387436
1433807270.742,-37.06964
1433807270.758,-36.59462
1433807270.773,-35.931595
1433807270.789,-34.96164
1433807270.805,-33.572723
1433807270.82,-31.7341
1433807270.836,-29.579102
1433807270.852,-27.345413
1433807270.867,-25.257324
1433807270.883,-23.394592
1433807270.898,-21.657883
1433807270.914,-19.826256
1433807270.93,-17.73919
1433807270.945,-15.385101
1433807270.961,-12.933762
1433807270.977,-10.643425
1433807270.992,-8.677429
1433807271.008,-6.9887314
1433807271.023,-5.3275223
1433807271.039,-3.3254547
1433807271.055,-0.70007324
1433807271.07,2.6078415
1433807271.086,6.4027176
1433807271.102,10.312744
1433807271.117,13.989311
1433807271.133,17.269981
1433807271.148,20.24025
1433807271.164,23.210197
1433807271.18,26.536903
1433807271.195,30.533669
1433807271.211,35.345573
1433807271.227,40.897118
1433807271.242,46.83435
1433807271.258,52.48922
1433807271.273,56.886353
1433807271.289,58.929634
1433807271.305,57.70346
1433807271.32,52.8664
1433807271.336,44.86561
1433807271.352,34.878647
1433807271.367,24.441795
1433807271.383,14.962502
1433807271.398,7.2421646
1433807271.414,1.4286652
1433807271.43,-2.8909683
1433807271.445,-6.300827
1433807271.461,-9.277496
1433807271.477,-12.040451
1433807271.492,-14.628609
1433807271.508,-16.999474
1433807271.523,-19.175308
1433807271.539,-21.222748
1433807271.555,-23.198036
1433807271.57,-25.065544
1433807271.586,-26.69149
1433807271.602,-27.930763
1433807271.617,-28.722885
1433807271.633,-29.168343
1433807271.648,-29.489494
1433807271.664,-29.905441
1433807271.68,-30.52153
1433807271.695,-31.22506
1433807271.711,-31.73236
1433807271.727,-31.70948
1433807271.742,-30.960762
1433807271.758,-29.477097
1433807271.773,-27.439583
1433807271.789,-25.120384
1433807271.805,-22.77938
1433807271.82,-20.588264
1433807271.836,-18.6213
1433807271.852,-16.88842
1433807271.867,-15.3550415
1433807271.883,-13.952263
1433807271.898,-12.575737
1433807271.914,-11.107552
1433807271.93,-9.464867
1433807271.945,-7.598152
1433807271.961,-5.5196457
1433807271.977,-3.2674103
1433807271.992,-0.8454323
1433807272.008,1.7774696
1433807272.023,4.6126976
1433807272.039,7.662243
1433807272.055,10.846439
1433807272.07,14.046486
1433807272.086,17.14558
1433807272.102,20.13139
1433807272.117,23.101692
1433807272.133,26.29874
1433807272.148,30.005276
1433807272.164,34.444786
1433807272.18,39.623096
1433807272.195,45.199688
1433807272.211,50.465866
1433807272.227,54.44754
1433807272.242,56.144337
1433807272.258,54.8997
1433807272.273,50.60472
1433807272.289,43.78509
1433807272.305,35.4186
1433807272.32,26.634888
1433807272.336,18.359798
1433807272.352,11.158916
1433807272.367,5.2017593
1433807272.383,0.370018
1433807272.398,-3.5588036
1433807272.414,-6.807537
1433807272.43,-9.543919
1433807272.445,-11.88431
1433807272.461,-13.914604
1433807272.477,-15.720434
1433807272.492,-17.373182
1433807272.508,-18.934483
1433807272.523,-20.450924
1433807272.539,-21.92121
1433807272.555,-23.315361
1433807272.57,-24.57977
1433807272.586,-25.669312
1433807272.602,-26.56618
1433807272.617,-27.290447
1433807272.633,-27.826881
1433807272.648,-28.116207
1433807272.664,-28.065592
1433807272.68,-27.582756
1433807272.695,-26.627455
1433807272.711,-25.275213
1433807272.727,-23.675732
1433807272.742,-21.999546
1433807272.758,-20.367023
1433807272.773,-18.804419
1433807272.789,-17.25748
1433807272.805,-15.650086
1433807272.82,-13.935528
1433807272.836,-12.138273
1433807272.852,-10.338249
1433807272.867,-8.615069
1433807272.883,-6.9894295
1433807272.898,-5.4035473
1433807272.914,-3.7232926
1433807272.93,-1.793573
1433807272.945,0.5111177
1433807272.961,3.2044563
1433807272.977,6.20638
1433807272.992,9.359917
1433807273.008,12.509472
1433807273.023,15.538051
1433807273.039,18.40811
1433807273.055,21.163614
1433807273.07,23.937363
1433807273.086,26.935972
1433807273.102,30.424402
1433807273.117,34.594597
1433807273.133,39.441948
1433807273.148,44.58869
1433807273.164,49.243576
1433807273.18,52.341743
1433807273.195,52.902
1433807273.211,50.37696
1433807273.227,44.94181
1433807273.242,37.406677
1433807273.258,28.969723
1433807273.274,20.76479
1433807273.289,13.569664
1433807273.305,7.668396
1433807273.32,2.968893
1433807273.336,-0.79990387
1433807273.352,-3.89184
1433807273.367,-6.4892826
1433807273.383,-8.699434
1433807273.399,-10.643513
1433807273.414,-12.449278
1433807273.43,-14.245207
1433807273.445,-16.092731
1433807273.461,-17.980871
1433807273.477,-19.816162
1433807273.492,-21.494934
1433807273.508,-22.935051
1433807273.524,-24.124527
1433807273.539,-25.076073
1433807273.555,-25.84692
1433807273.57,-26.461437
1433807273.586,-26.932571
1433807273.602,-27.200893
1433807273.617,-27.183292
1433807273.633,-26.769085
1433807273.649,-25.89758
1433807273.664,-24.5862
1433807273.68,-22.924908
1433807273.695,-21.075897
1433807273.711,-19.217384
1433807273.727,-17.456646
1433807273.742,-15.803242
1433807273.758,-14.138615
1433807273.774,-12.331818
1433807273.789,-10.313667
1433807273.805,-8.151066
1433807273.82,-6.014908
1433807273.836,-4.099964
1433807273.852,-2.4861298
1433807273.867,-1.0802536
1433807273.883,0.37537766
1433807273.899,2.1532974
1433807273.914,4.445305
1433807273.93,7.2466774
1433807273.945,10.364445
1433807273.961,13.543659
1433807273.977,16.574371
1433807273.992,19.370113
1433807274.008,22.043
1433807274.024,24.818634
1433807274.039,28.01735
1433807274.055,31.888702
1433807274.07,36.50991
1433807274.086,41.63215
1433807274.102,46.6465
1433807274.117,50.625145
1433807274.133,52.581657
1433807274.149,51.730103
1433807274.164,47.814957
1433807274.18,41.206024
1433807274.195,32.88083
1433807274.211,24.052246
1433807274.227,15.83773
1433807274.242,8.935364
1433807274.258,3.5702362
1433807274.274,-0.4515915
1433807274.289,-3.4766312
1433807274.305,-5.870636
1433807274.32,-7.876114
1433807274.336,-9.661278
1433807274.352,-11.338135
1433807274.367,-13.029892
1433807274.383,-14.809975
1433807274.399,-16.711777
1433807274.414,-18.654877
1433807274.43,-20.478157
1433807274.445,-22.010414
1433807274.461,-23.151321
1433807274.477,-23.911446
1433807274.492,-24.431335
1433807274.508,-24.86686
1433807274.524,-25.31694
1433807274.539,-25.73632
1433807274.555,-25.96959
1433807274.57,-25.794235
1433807274.586,-25.084862
1433807274.602,-23.845306
1433807274.617,-22.259705
1433807274.633,-20.553246
1433807274.649,-18.931839
1433807274.664,-17.459862
1433807274.68,-16.075844
1433807274.695,-14.638046
1433807274.711,-13.028
1433807274.727,-11.206947
1433807274.742,-9.243126
1433807274.758,-7.2404785
1433807274.774,-5.295868
1433807274.789,-3.4147873
1433807274.805,-1.5252609
1433807274.82,0.49273682
1433807274.836,2.7274475
1433807274.852,5.2020874
1433807274.867,7.84095
1433807274.883,10.549255
1433807274.899,13.259491
1433807274.914,15.961227
1433807274.93,18.70475
1433807274.945,21.583626
1433807274.961,24.720398
1433807274.977,28.251472
1433807274.992,32.29769
1433807275.008,36.86783
1433807275.024,41.71218
1433807275.039,46.260857
1433807275.055,49.623222
1433807275.07,50.890297
1433807275.086,49.38658
1433807275.102,44.99559
1433807275.117,38.207245
1433807275.133,29.983978
1433807275.149,21.441765
1433807275.164,13.5125885
1433807275.18,6.767914
1433807275.195,1.3805771
1433807275.211,-2.7464142
1433807275.227,-5.847069
1433807275.242,-8.191048
1433807275.258,-9.998039
1433807275.274,-11.460045
1433807275.289,-12.727135
1433807275.305,-13.92955
1433807275.32,-15.155304
1433807275.336,-16.472893
1433807275.352,-17.883072
1433807275.367,-19.353134
1433807275.383,-20.814453
1433807275.399,-22.191643
1433807275.414,-23.405685
1433807275.43,-24.404236
1433807275.445,-25.137825
1433807275.461,-25.575531
1433807275.477,-25.694405
1433807275.492,-25.477493
1433807275.508,-24.923706
1433807275.524,-24.060333
1433807275.539,-22.937721
1433807275.555,-21.68203
1433807275.57,-20.413795
1433807275.586,-19.254929
1433807275.602,-18.215714
1433807275.617,-17.220528
1433807275.633,-16.081802
1433807275.649,-14.640785
1433807275.664,-12.838898
1433807275.68,-10.764542
1433807275.695,-8.611755
1433807275.711,-6.5616684
1433807275.727,-4.633621
1433807275.742,-2.6685104
1433807275.758,-0.44081116
1433807275.774,2.2167053
1433807275.789,5.2745743
1433807275.805,8.508469
1433807275.82,11.610268
1433807275.836,14.370575
1433807275.852,16.78099
1433807275.867,19.052444
1433807275.883,21.511925
1433807275.899,24.4636
1433807275.914,28.095665
1433807275.93,32.43122
1433807275.946,37.290176
1433807275.961,42.287117
1433807275.977,46.84562
1433807275.992,50.22561
1433807276.008,51.65577
1433807276.024,50.519806
1433807276.039,46.594933
1433807276.055,40.15541
1433807276.07,32.033234
1433807276.086,23.358917
1433807276.102,15.270691
1433807276.117,8.600044
1433807276.133,3.666542
1433807276.149,0.27124786
1433807276.164,-2.097084
1433807276.18,-4.014122
1433807276.196,-5.8778763
1433807276.211,-7.80558
1433807276.227,-9.71447
1433807276.242,-11.43782
1433807276.258,-12.90345
1433807276.274,-14.1896515
1433807276.289,-15.47831
1433807276.305,-16.918884
1433807276.321,-18.550003
1433807276.336,-20.238953
1433807276.352,-21.772606
1433807276.367,-22.947151
1433807276.383,-23.67772
1433807276.399,-23.989769
1433807276.414,-23.975533
1433807276.43,-23.748878
1433807276.446,-23.347939
1433807276.461,-22.791412
1433807276.477,-22.02671
1433807276.492,-21.01342
1433807276.508,-19.730164
1433807276.524,-18.182571
1433807276.539,-16.414734
1433807276.555,-14.500221
1433807276.571,-12.513824
1433807276.586,-10.516052
1433807276.602,-8.547714
1433807276.617,-6.6102448
1433807276.633,-4.703964
1433807276.649,-2.789711
1433807276.664,-0.8052292
1433807276.68,1.3390121
1433807276.696,3.7474213
1433807276.711,6.483528
1433807276.727,9.542709
1433807276.742,12.825157
1433807276.758,16.193329
1433807276.774,19.51947
1433807276.789,22.796234
1433807276.805,26.135635
1433807276.821,29.768143
1433807276.836,33.906647
1433807276.852,38.60955
1433807276.867,43.633904
1433807276.883,48.430717
1433807276.899,52.169518
1433807276.914,53.975426
1433807276.93,53.17536
1433807276.946,49.567917
1433807276.961,43.461494
1433807276.977,35.664673
1433807276.992,27.190887
1433807277.008,18.990417
1433807277.024,11.704071
1433807277.039,5.606827
1433807277.055,0.6615906
1433807277.071,-3.3246841
1433807277.086,-6.563751
1433807277.102,-9.200134
1433807277.117,-11.343277
1433807277.133,-13.069229
1433807277.149,-14.530777
1433807277.164,-15.887733
1433807277.18,-17.311554
1433807277.196,-18.903267
1433807277.211,-20.651863
1433807277.227,-22.441704
1433807277.242,-24.110489
1433807277.258,-25.521423
1433807277.274,-26.62735
1433807277.289,-27.446198
1433807277.305,-28.053932
1433807277.321,-28.469109
1433807277.336,-28.655945
1433807277.352,-28.527206
1433807277.367,-28.017982
1433807277.383,-27.08802
1433807277.399,-25.773216
1433807277.414,-24.141083
1433807277.43,-22.28798
1433807277.446,-20.295013
1433807277.461,-18.266266
1433807277.477,-16.304077
1433807277.492,-14.500496
1433807277.508,-12.868355
1433807277.524,-11.339874
1433807277.539,-9.734161
1433807277.555,-7.8377914
1433807277.571,-5.5239334
1433807277.586,-2.7963333
1433807277.602,0.23835754
1433807277.617,3.4041824
1433807277.633,6.594017
1433807277.649,9.764015
1433807277.664,12.937843
1433807277.68,16.151596
1433807277.696,19.442547
1433807277.711,22.840893
1433807277.727,26.4385
1433807277.742,30.38874
1433807277.758,34.84539
1433807277.774,39.81414
1433807277.789,44.99862
1433807277.805,49.744347
1433807277.821,53.117397
1433807277.836,54.18351
1433807277.852,52.311615
1433807277.867,47.41402
1433807277.883,40.04937
1433807277.899,31.224514
1433807277.914,22.10888
1433807277.93,13.691853
1433807277.946,6.5727844
1433807277.961,0.87890625
1433807277.977,-3.5690155
1433807277.992,-7.109436
1433807278.008,-10.051098
1433807278.024,-12.60928
1433807278.039,-14.908058
1433807278.055,-17.003315
1433807278.071,-18.926891
1433807278.086,-20.703606
1433807278.102,-22.34542
1433807278.117,-23.86496
1433807278.133,-25.226158
1433807278.149,-26.409313
1433807278.164,-27.365353
1433807278.18,-28.100487
1433807278.196,-28.649412
1433807278.211,-29.119392
1433807278.227,-29.61377
1433807278.242,-30.188503
1433807278.258,-30.74768
1433807278.274,-31.099874
1433807278.289,-30.990608
1433807278.305,-30.2352
1433807278.321,-28.802477
1433807278.336,-26.857323
1433807278.352,-24.659512
1433807278.367,-22.474428
1433807278.383,-20.457499
1433807278.399,-18.640856
1433807278.414,-16.971912
1433807278.43,-15.372894
1433807278.446,-13.748611
1433807278.461,-12.037008
1433807278.477,-10.160385
1433807278.492,-8.036629
1433807278.508,-5.5871334
1433807278.524,-2.77705
1433807278.539,0.35055542
1433807278.555,3.6588764
1433807278.571,6.9574814
1433807278.586,10.068258
1433807278.602,12.919714
1433807278.618,15.589285
1433807278.633,18.334545
1433807278.649,21.50216
1433807278.664,25.423782
1433807278.68,30.251041
1433807278.696,35.87365
1433807278.711,41.848663
1433807278.727,47.434074
1433807278.742,51.709385
1433807278.758,53.76052
1433807278.774,52.912064
1433807278.789,48.953106
1433807278.805,42.24926
1433807278.821,33.705036
1433807278.836,24.503845
1433807278.852,15.796312
1433807278.868,8.367782
1433807278.883,2.4725304
1433807278.899,-2.106845
1433807278.914,-5.8233213
1433807278.93,-9.114736
1433807278.946,-12.228513
1433807278.961,-15.188769
1433807278.977,-17.880386
1433807278.993,-20.197678
1433807279.008,-22.129326
1433807279.024,-23.728834
1433807279.039,-25.113916
1433807279.055,-26.369768
1433807279.071,-27.51208
1433807279.086,-28.507872
1433807279.102,-29.30998
1433807279.118,-29.876762
1433807279.133,-30.215855
1433807279.149,-30.36494
1433807279.164,-30.36104
1433807279.18,-30.209183
1433807279.196,-29.828018
1433807279.211,-29.089909
1433807279.227,-27.875792
1433807279.243,-26.15266
1433807279.258,-23.994509
1433807279.274,-21.603724
1433807279.289,-19.205423
1433807279.305,-16.970768
1433807279.321,-14.980989
1433807279.336,-13.214791
1433807279.352,-11.609537
1433807279.368,-10.105609
1433807279.383,-8.636546
1433807279.399,-7.134648
1433807279.414,-5.463803
1433807279.43,-3.477025
1433807279.446,-1.0248327
1433807279.461,1.8959595
1433807279.477,5.1870337
1433807279.493,8.636283
1433807279.508,12.027483
1433807279.524,15.206655
1433807279.539,18.179314
1433807279.555,21.07261
1433807279.571,24.149845
1433807279.586,27.686352
1433807279.602,31.878426
1433807279.618,36.677406
1433807279.633,41.70347
1433807279.649,46.187244
1433807279.664,49.155975
1433807279.68,49.659843
1433807279.696,47.156807
1433807279.711,41.725403
1433807279.727,34.087593
1433807279.743,25.386316
1433807279.758,16.82619
1433807279.774,9.300031
1433807279.789,3.2204366
1433807279.805,-1.483059
1433807279.821,-5.148288
1433807279.836,-8.188085
1433807279.852,-10.889253
1433807279.868,-13.391654
1433807279.883,-15.713321
1433807279.899,-17.82021
1433807279.914,-19.708443
1433807279.93,-21.399826
1433807279.946,-22.90389
1433807279.961,-24.225077
1433807279.977,-25.34258
1433807279.993,-26.24438
1433807280.008,-26.966248
1433807280.024,-27.59311
1433807280.039,-28.215195
1433807280.055,-28.878202
1433807280.071,-29.54304
1433807280.086,-30.06784
1433807280.102,-30.254227
1433807280.118,-29.95086
1433807280.133,-29.060135
1433807280.149,-27.605812
1433807280.164,-25.6913
1433807280.18,-23.476917
1433807280.196,-21.099258
1433807280.211,-18.661343
1433807280.227,-16.220434
1433807280.243,-13.8199625
1433807280.258,-11.509042
1433807280.274,-9.356308
1433807280.289,-7.403161
1433807280.305,-5.623985
1433807280.321,-3.8827167
1433807280.336,-1.9879065
1433807280.352,0.22872925
1433807280.368,2.8166914
1433807280.383,5.674264
1433807280.399,8.591839
1433807280.414,11.39674
1433807280.43,14.021852
1433807280.446,16.592138
1433807280.461,19.37381
1433807280.477,22.668842
1433807280.493,26.678038
1433807280.508,31.47281
1433807280.524,36.86445
1433807280.539,42.42095
1433807280.555,47.440834
1433807280.571,51.06825
1433807280.586,52.43033
1433807280.602,50.914154
1433807280.618,46.403885
1433807280.633,39.369324
1433807280.649,30.784338
1433807280.664,21.857002
1433807280.68,13.645788
1433807280.696,6.801819
1433807280.711,1.4777412
1433807280.727,-2.5950642
1433807280.743,-5.834593
1433807280.758,-8.608183
1433807280.774,-11.10976
1433807280.789,-13.358866
1433807280.805,-15.317511
1433807280.821,-16.978163
1433807280.836,-18.414566
1433807280.852,-19.748135
1433807280.868,-21.0752
1433807280.883,-22.362097
1433807280.899,-23.498953
1433807280.914,-24.329401
1433807280.93,-24.796373
1433807280.946,-24.95793
1433807280.961,-24.999643
1433807280.977,-25.101938
1433807280.993,-25.359478
1433807281.008,-25.677616
1433807281.024,-25.823385
1433807281.039,-25.541517
1433807281.055,-24.677776
1433807281.071,-23.233902
1433807281.086,-21.367893
1433807281.102,-19.28689
1433807281.118,-17.14579
1433807281.133,-14.996412
1433807281.149,-12.83371
1433807281.164,-10.657452
1433807281.18,-8.541866
1433807281.196,-6.5997467
1433807281.211,-4.9138184
1433807281.227,-3.4418278
1433807281.243,-2.0093536
1433807281.258,-0.36058617
1433807281.274,1.695795
1433807281.289,4.2296066
1433807281.305,7.1054535
1433807281.321,10.143112
1433807281.336,13.156853
1433807281.352,16.10859
1433807281.368,19.069817
1433807281.383,22.191238
1433807281.399,25.618965
1433807281.414,29.467342
1433807281.43,33.749004
1433807281.446,38.345943
1433807281.461,42.875538
1433807281.477,46.70432
1433807281.493,48.969532
1433807281.508,48.86786
1433807281.524,45.931892
1433807281.54,40.32409
1433807281.555,32.816013
1433807281.571,24.5878
1433807281.586,16.801548
1433807281.602,10.233215
1433807281.618,5.084404
1433807281.633,1.1090775
1433807281.649,-2.175972
1433807281.665,-5.1498375
1433807281.68,-7.99226
1433807281.696,-10.656372
1433807281.711,-13.020878
1433807281.727,-15.017273
1433807281.743,-16.68261
1433807281.758,-18.132065
1433807281.774,-19.515186
1433807281.79,-20.884552
1433807281.805,-22.21944
1433807281.821,-23.409084
1433807281.836,-24.347252
1433807281.852,-24.981709
1433807281.868,-25.371075
1433807281.883,-25.618378
1433807281.899,-25.827354
1433807281.915,-26.005947
1433807281.93,-26.057335
1433807281.946,-25.800278
1433807281.961,-25.076302
1433807281.977,-23.815407
1433807281.993,-22.120556
1433807282.008,-20.17414
1433807282.024,-18.186844
1433807282.04,-16.303726
1433807282.055,-14.587322
1433807282.071,-12.995365
1433807282.086,-11.491619
1433807282.102,-10.04113
1433807282.118,-8.625351
1433807282.133,-7.2104263
1433807282.149,-5.71793
1433807282.165,-4.0246696
1433807282.18,-1.9915085
1433807282.196,0.48496246
1433807282.211,3.3915367
1433807282.227,6.617832
1433807282.243,9.947861
1433807282.258,13.165745
1433807282.274,16.10933
1433807282.29,18.779617
1433807282.305,21.305908
1433807282.321,23.9641
1433807282.336,27.065254
1433807282.352,30.888752
1433807282.368,35.490833
1433807282.383,40.648468
1433807282.399,45.746277
1433807282.415,49.887417
1433807282.43,52.05463
1433807282.446,51.48421
1433807282.461,47.894115
1433807282.477,41.660294
1433807282.493,33.690342
1433807282.508,25.175114
1433807282.524,17.184238
1433807282.54,10.434853
1433807282.555,5.1500435
1433807282.571,1.187252
1433807282.586,-1.8378792
1433807282.602,-4.312771
1433807282.618,-6.556671
1433807282.633,-8.747101
1433807282.649,-10.965469
1433807282.665,-13.214993
1433807282.68,-15.423668
1433807282.696,-17.507542
1433807282.711,-19.394203
1433807282.727,-21.01767
1433807282.743,-22.359676
1433807282.758,-23.40638
1433807282.774,-24.216488
1433807282.79,-24.828926
1433807282.805,-25.330837
1433807282.821,-25.80011
1433807282.836,-26.265049
1433807282.852,-26.662445
1433807282.868,-26.84504
1433807282.883,-26.613491
1433807282.899,-25.809242
1433807282.915,-24.400494
1433807282.93,-22.524235
1433807282.946,-20.434849
1433807282.961,-18.415813
1433807282.977,-16.668537
1433807282.993,-15.250874
1433807283.008,-14.06712
1433807283.024,-12.957169
1433807283.04,-11.758869
1433807283.055,-10.4133415
1433807283.071,-8.919872
1433807283.086,-7.3438606
1433807283.102,-5.6914635
1433807283.118,-3.9239578
1433807283.133,-1.8938065
1433807283.149,0.5453949
1433807283.165,3.4680023
1433807283.18,6.8097076
1433807283.196,10.392128
1433807283.211,13.962761
1433807283.227,17.335602
1433807283.243,20.439919
1433807283.258,23.380707
1433807283.274,26.360046
1433807283.29,29.670341
1433807283.305,33.52038
1433807283.321,37.99035
1433807283.336,42.885307
1433807283.352,47.697327
1433807283.368,51.600365
1433807283.383,53.665985
1433807283.399,53.117508
1433807283.415,49.622498
1433807283.43,43.45552
1433807283.446,35.434555
1433807283.461,26.67498
1433807283.477,18.244354
1433807283.493,10.894493
1433807283.508,4.9613876
1433807283.524,0.41355133
1433807283.54,-2.970108
1433807283.555,-5.504265
1433807283.571,-7.472458
1433807283.586,-9.147125
1433807283.602,-10.724213
1433807283.618,-12.365662
1433807283.633,-14.1358185
1433807283.649,-16.034477
1433807283.665,-17.977303
1433807283.68,-19.860954
1433807283.696,-21.588535
1433807283.711,-23.108986
1433807283.727,-24.407722
1433807283.743,-25.485794
1433807283.758,-26.364773
1433807283.774,-27.047474
1433807283.79,-27.53659
1433807283.805,-27.822056
1433807283.821,-27.845001
1433807283.836,-27.553734
1433807283.852,-26.880878
1433807283.868,-25.82264
1433807283.883,-24.435032
1433807283.899,-22.82745
1433807283.915,-21.09933
1433807283.93,-19.34214
1433807283.946,-17.55394
1433807283.961,-15.714516
1433807283.977,-13.802444
1433807283.993,-11.835075
1433807284.008,-9.88166
1433807284.024,-8.015003
1433807284.04,-6.2436256
1433807284.055,-4.4326935
1433807284.071,-2.3846436
1433807284.086,0.09502411
1433807284.102,3.0749207
1433807284.118,6.4237175
1433807284.133,9.882805
1433807284.149,13.163612
1433807284.165,16.117504
1433807284.18,18.79874
1433807284.196,21.467705
1433807284.212,24.450558
1433807284.227,28.056137
1433807284.243,32.42438
1433807284.258,37.513474
1433807284.274,43.066498
1433807284.29,48.588333
1433807284.305,53.34884
1433807284.321,56.493416
1433807284.337,57.18519
1433807284.352,54.904835
1433807284.368,49.62929
1433807284.383,41.941284
1433807284.399,32.859848
1433807284.415,23.580276
1433807284.43,15.133202
1433807284.446,8.175282
1433807284.462,2.9005356
1433807284.477,-0.8839226
1433807284.493,-3.625286
1433807284.508,-5.8192596
1433807284.524,-7.91024
1433807284.54,-10.143215
1433807284.555,-12.576084
1433807284.571,-15.053627
1433807284.587,-17.358013
1433807284.602,-19.29385
1433807284.618,-20.805744
1433807284.633,-21.964088
1433807284.649,-22.930344
1433807284.665,-23.813023
1433807284.68,-24.636276
1433807284.696,-25.334507
1433807284.712,-25.835728
1433807284.727,-26.12405
1433807284.743,-26.244358
1433807284.758,-26.230999
1433807284.774,-26.060238
1433807284.79,-25.616203
1433807284.805,-24.745152
1433807284.821,-23.318474
1433807284.837,-21.34743
1433807284.852,-18.952948
1433807284.868,-16.388435
1433807284.883,-13.8975525
1433807284.899,-11.685661
1433807284.915,-9.792307
1433807284.93,-8.125912
1433807284.946,-6.4557896
1433807284.962,-4.5217495
1433807284.977,-2.114893
1433807284.993,0.8391571
1433807285.008,4.267643
1433807285.024,7.9738903
1433807285.04,11.726728
1433807285.055,15.324894
1433807285.071,18.703136
1433807285.087,21.885193
1433807285.102,25.03429
1433807285.118,28.375948
1433807285.133,32.177982
1433807285.149,36.66368
1433807285.165,41.911854
1433807285.18,47.68126
1433807285.196,53.364204
1433807285.212,58.017345
1433807285.227,60.55685
1433807285.243,60.091694
1433807285.258,56.24464
1433807285.274,49.317646
1433807285.29,40.254196
1433807285.305,30.348312
1433807285.321,20.8499
1433807285.337,12.62724
1433807285.352,6.005786
1433807285.368,0.81777287
1433807285.383,-3.3196626
1433807285.399,-6.782364
1433807285.415,-9.763434
1433807285.43,-12.326594
1433807285.446,-14.455709
1433807285.462,-16.232418
1433807285.477,-17.82959
1433807285.493,-19.463442
1433807285.508,-21.239418
1433807285.524,-23.11616
1433807285.54,-24.909874
1433807285.555,-26.407942
1433807285.571,-27.509735
1433807285.587,-28.260695
1433807285.602,-28.829475
1433807285.618,-29.343018
1433807285.633,-29.795761
1433807285.649,-30.02964
1433807285.665,-29.777458
1433807285.68,-28.828533
1433807285.696,-27.09914
1433807285.712,-24.710457
1433807285.727,-21.89328
1433807285.743,-18.959606
1433807285.758,-16.118225
1433807285.774,-13.497089
1433807285.79,-11.089401
1433807285.805,-8.804035
1433807285.821,-6.488453
1433807285.837,-4.0064163
1433807285.852,-1.259018
1433807285.868,1.7554436
1433807285.883,4.957302
1433807285.899,8.210968
1433807285.915,11.40023
1433807285.93,14.48214
1433807285.946,17.563057
1433807285.962,20.888573
1433807285.977,24.783028
1433807285.993,29.495361
1433807286.008,35.08573
1433807286.024,41.234436
1433807286.04,47.241447
1433807286.055,52.082314
1433807286.071,54.653084
1433807286.087,54.091652
1433807286.102,50.067085
1433807286.118,42.9486
1433807286.133,33.71467
1433807286.149,23.656837
1433807286.165,13.984901
1433807286.18,5.5272293
1433807286.196,-1.4154434
1433807286.212,-6.98748
1433807286.227,-11.521454
1433807286.243,-15.358604
1433807286.258,-18.677452
1433807286.274,-21.546547
1433807286.29,-23.96405
1433807286.305,-25.987785
1433807286.321,-27.692833
1433807286.337,-29.175972
1433807286.352,-30.49038
1433807286.368,-31.630753
1433807286.383,-32.55664
1433807286.399,-33.28102
1433807286.415,-33.845833
1433807286.43,-34.33567
1433807286.446,-34.773697
1433807286.462,-35.12024
1433807286.477,-35.23047
1433807286.493,-34.92273
1433807286.508,-34.011124
1433807286.524,-32.4243
1433807286.54,-30.21936
1433807286.555,-27.595459
1433807286.571,-24.827438
1433807286.587,-22.195602
1433807286.602,-19.853836
1433807286.618,-17.772766
1433807286.633,-15.753464
1433807286.649,-13.518951
1433807286.665,-10.830017
1433807286.68,-7.636917
1433807286.696,-4.0758667
1433807286.712,-0.41662598
1433807286.727,3.0967865
1433807286.743,6.380249
1433807286.758,9.566666
1433807286.774,12.95137
1433807286.79,16.89769
1433807286.805,21.65274
1433807286.821,27.245377
1433807286.837,33.374985
1433807286.852,39.384216
1433807286.868,44.332214
1433807286.884,47.19014
1433807286.899,47.09221
1433807286.915,43.643875
1433807286.93,37.0903
1433807286.946,28.310867
1433807286.962,18.551285
1433807286.977,9.086792
1433807286.993,0.84358215
1433807287.009,-5.7669983
1433807287.024,-10.836044
1433807287.04,-14.727646
1433807287.055,-17.871872
1433807287.071,-20.51506
1433807287.087,-22.753082
1433807287.102,-24.574432
1433807287.118,-25.994202
1433807287.134,-27.111938
1433807287.149,-28.096008
1433807287.165,-29.074554
1433807287.18,-30.097916
1433807287.196,-31.075699
1433807287.212,-31.863968
1433807287.227,-32.34836
1433807287.243,-32.51039
1433807287.259,-32.38063
1433807287.274,-32.01062
1433807287.29,-31.383804
1433807287.305,-30.428558
1433807287.321,-29.05066
1433807287.337,-27.209106
1433807287.352,-24.966629
1433807287.368,-22.461227
1433807287.384,-19.843811
1433807287.399,-17.241928
1433807287.415,-14.703354
1433807287.43,-12.223679
1433807287.446,-9.730026
1433807287.462,-7.157654
1433807287.477,-4.4482117
1433807287.493,-1.5942383
1433807287.509,1.4070892
1433807287.524,4.5210114
1433807287.54,7.7579803
1433807287.555,11.171173
1433807287.571,14.919342
1433807287.587,19.154007
1433807287.602,23.972427
1433807287.618,29.244919
1433807287.634,34.54033
1433807287.649,39.090454
1433807287.665,41.9722
1433807287.68,42.341522
1433807287.696,39.75305
1433807287.712,34.335815
1433807287.727,26.82489
1433807287.743,18.286682
1433807287.759,9.844162
1433807287.774,2.3132172
1433807287.79,-3.9159546
1433807287.805,-8.877899
1433807287.821,-12.825241
1433807287.837,-16.021957
1433807287.852,-18.62297
1433807287.868,-20.697113
1433807287.884,-22.250214
1433807287.899,-23.332275
1433807287.915,-24.063843
1433807287.93,-24.596817
1433807287.946,-25.054565
1433807287.962,-25.534088
1433807287.977,-26.053009
1433807287.993,-26.561218
1433807288.009,-26.955109
1433807288.024,-27.086746
1433807288.04,-26.80783
1433807288.055,-26.070496
1433807288.071,-24.912796
1433807288.087,-23.457214
1433807288.102,-21.860596
1433807288.118,-20.226028
1433807288.134,-18.533295
1433807288.149,-16.709015
1433807288.165,-14.633057
1433807288.18,-12.24968
1433807288.196,-9.544289
1433807288.212,-6.558464
1433807288.227,-3.3301773
1433807288.243,0.08811188
1433807288.259,3.6177063
1433807288.274,7.127022
1433807288.29,10.465805
1433807288.305,13.519485
1433807288.321,16.324669
1433807288.337,19.060738
1433807288.352,22.061066
1433807288.368,25.673347
1433807288.384,30.115623
1433807288.399,35.323624
1433807288.415,40.876663
1433807288.43,45.98455
1433807288.446,49.659996
1433807288.462,50.949547
1433807288.477,49.254425
1433807288.493,44.543823
1433807288.509,37.425438
1433807288.524,28.96009
1433807288.54,20.345436
1433807288.555,12.530327
1433807288.571,5.9936447
1433807288.587,0.7087326
1433807288.602,-3.6732407
1433807288.618,-7.6029816
1433807288.634,-11.364708
1433807288.649,-15.035408
1433807288.665,-18.495888
1433807288.68,-21.566864
1433807288.696,-24.12458
1433807288.712,-26.152908
1433807288.727,-27.723495
1433807288.743,-28.939354
1433807288.759,-29.830223
1433807288.774,-30.391975
1433807288.79,-30.5737
1433807288.805,-30.393372
1433807288.821,-29.956802
1433807288.837,-29.448029
1433807288.852,-29.01847
1433807288.868,-28.715538
1433807288.884,-28.409515
1433807288.899,-27.842072
1433807288.915,-26.748604
1433807288.93,-24.988777
1433807288.946,-22.597015
1433807288.962,-19.787613
1433807288.977,-16.812843
1433807288.993,-13.936241
1433807289.009,-11.317009
1433807289.024,-9.009346
1433807289.04,-6.94516
1433807289.055,-4.979618
1433807289.071,-2.9089851
1433807289.087,-0.5576782
1433807289.102,2.1681328
1433807289.118,5.2258453
1433807289.134,8.471233
1433807289.149,11.69138
1433807289.165,14.730087
1433807289.18,17.541416
1433807289.196,20.22393
1433807289.212,22.982471
1433807289.227,26.048973
1433807289.243,29.617695
1433807289.259,33.797997
1433807289.274,38.46618
1433807289.29,43.237076
1433807289.305,47.4174
1433807289.321,50.14728
1433807289.337,50.577534
1433807289.352,48.239136
1433807289.368,43.19259
1433807289.384,36.072716
1433807289.399,27.907341
1433807289.415,19.784113
1433807289.43,12.508074
1433807289.446,6.444872
1433807289.462,1.5010357
1433807289.477,-2.6754456
1433807289.493,-6.4949093
1433807289.509,-10.200783
1433807289.524,-13.836945
1433807289.54,-17.249142
1433807289.556,-20.229927
1433807289.571,-22.62688
1433807289.587,-24.421293
1433807289.602,-25.731499
1433807289.618,-26.728102
1433807289.634,-27.559345
1433807289.649,-28.294136
1433807289.665,-28.88934
1433807289.68,-29.245152
1433807289.696,-29.253242
1433807289.712,-28.882925
1433807289.727,-28.1582
1433807289.743,-27.185434
1433807289.759,-26.0672
1433807289.774,-24.877598
1433807289.79,-23.63072
1433807289.806,-22.297207
