1425424014.791,0.0
1425424014.807,0.0
1425424014.822,0.0
1425424014.838,0.0
1425424014.854,0.0
1425424014.869,0.0
1425424014.885,0.0
1425424014.9,0.0
1425424014.916,0.0
1425424014.932,0.0022315353
1425424014.947,-0.0045169927
1425424014.963,-0.011265522
1425424014.979,-0.011383951
1425424014.994,0.0011864507
1425424015.01,0.025910312
1425424015.025,0.050634187
1425424015.041,0.051362894
1425424015.057,-0.0014929791
1425424015.072,-0.1302426
1425424015.088,-0.35562757
1425424015.104,-0.6591247
1425424015.119,-1.0095103
1425424015.135,-1.3709826
1425424015.15,-1.7197359
1425424015.166,-2.0551105
1425424015.182,-2.39945
1425424015.197,-2.7866635
1425424015.213,-3.2399073
1425424015.229,-3.796012
1425424015.244,-4.418684
1425424015.26,-5.0592937
1425424015.275,-5.6644096
1425424015.291,-6.2021537
1425424015.307,-6.6808796
1425424015.322,-7.149598
1425424015.338,-7.6782336
1425424015.354,-8.310739
1425424015.369,-9.143657
1425424015.385,-10.089731
1425424015.4,-11.041313
1425424015.416,-11.8842125
1425424015.432,-12.564316
1425424015.447,-13.13563
1425424015.463,-13.760044
1425424015.479,-14.65232
1425424015.494,-15.962056
1425424015.51,-17.914442
1425424015.525,-20.317299
1425424015.541,-22.903854
1425424015.557,-25.37947
1425424015.572,-27.578028
1425424015.588,-29.57246
1425424015.604,-31.675173
1425424015.619,-34.3178
1425424015.635,-37.813618
1425424015.65,-42.541233
1425424015.666,-48.1463
1425424015.682,-54.104755
1425424015.697,-59.83309
1425424015.713,-64.972374
1425424015.729,-69.58293
1425424015.744,-74.14353
1425424015.76,-79.344986
1425424015.775,-85.70726
1425424015.791,-93.76193
1425424015.807,-102.99779
1425424015.822,-112.61757
1425424015.838,-121.73034
1425424015.854,-129.76602
1425424015.869,-136.75102
1425424015.885,-143.30344
1425424015.9,-150.74623
1425424015.916,-157.77356
1425424015.932,-166.64323
1425424015.947,-177.94798
1425424015.963,-191.79102
1425424015.979,-206.96808
1425424015.994,-220.56592
1425424016.01,-228.24644
1425424016.025,-225.36154
1425424016.041,-208.53198
1425424016.057,-176.87024
1425424016.072,-132.76222
1425424016.088,-80.04997
1425424016.104,-23.069275
1425424016.119,34.94339
1425424016.135,92.43695
1425424016.15,149.15695
1425424016.166,205.22772
1425424016.182,260.36963
1425424016.197,313.74133
1425424016.213,363.87396
1425424016.229,409.83353
1425424016.244,450.90775
1425424016.26,486.50244
1425424016.275,515.73865
1425424016.291,537.2274
1425424016.307,549.22
1425424016.322,549.9613
1425424016.338,538.367
1425424016.354,514.2055
1425424016.369,478.674
1425424016.385,433.87952
1425424016.4,382.45126
1425424016.416,327.02106
1425424016.432,269.84186
1425424016.447,212.63379
1425424016.463,156.6594
1425424016.479,102.95233
1425424016.494,52.373596
1425424016.51,5.9046936
1425424016.526,-35.580414
1425424016.541,-71.42584
1425424016.557,-101.35184
1425424016.572,-125.50113
1425424016.588,-144.3797
1425424016.604,-158.69403
1425424016.619,-169.15071
1425424016.635,-176.3711
1425424016.651,-180.75139
1425424016.666,-182.57419
1425424016.682,-182.06863
1425424016.697,-179.5066
1425424016.713,-175.23325
1425424016.729,-169.65286
1425424016.744,-163.17691
1425424016.76,-156.14568
1425424016.776,-148.80681
1425424016.791,-141.29686
1425424016.807,-133.68983
1425424016.822,-126.01962
1425424016.838,-118.33268
1425424016.854,-110.68864
1425424016.869,-103.15572
1425424016.885,-95.80455
1425424016.901,-88.684166
1425424016.916,-81.82744
1425424016.932,-75.24594
1425424016.947,-68.9526
1425424016.963,-62.949085
1425424016.979,-57.247494
1425424016.994,-51.857185
1425424017.01,-46.78282
1425424017.026,-42.02776
1425424017.041,-37.58521
1425424017.057,-33.451748
1425424017.072,-29.613855
1425424017.088,-26.070963
1425424017.104,-22.808779
1425424017.119,-19.824995
1425424017.135,-17.113392
1425424017.151,-14.666497
1425424017.166,-12.47932
1425424017.182,-10.538469
1425424017.197,-8.833674
1425424017.213,-7.3478527
1425424017.229,-6.067689
1425424017.244,-4.9734235
1425424017.26,-4.046258
1425424017.276,-3.2673752
1425424017.291,-2.6211367
1425424017.307,-2.088365
1425424017.322,-1.6507506
1425424017.338,-1.2976913
1425424017.354,-1.0147024
1425424017.369,-0.79105926
1425424017.385,-0.6133206
1425424017.401,-0.47516227
1425424017.416,-0.3684653
1425424017.432,-0.28461677
1425424017.447,-0.22397345
1425424017.463,-0.17647654
1425424017.479,-0.14055526
1425424017.494,-0.11251485
1425424017.51,-0.0926249
1425424017.526,-0.07977182
1425424017.541,-0.06783539
1425424017.557,-0.05929327
1425424017.572,-0.052183747
1425424017.588,-0.046860814
1425424017.604,-0.044131815
1425424017.619,-0.040358156
1425424017.635,-0.039164305
1425424017.651,-0.034330726
1425424017.666,-0.03515649
1425424017.682,-0.03181714
1425424017.697,-0.0307433
1425424017.713,-0.028030515
1425424017.729,-0.029069006
1425424017.744,-0.027006388
1425424017.76,-0.025328785
1425424017.776,-0.022768408
1425424017.791,-0.021674186
1425424017.807,-0.020923585
1425424017.822,-0.021621495
1425424017.838,-0.022072166
1425424017.854,-0.024832875
1425424017.869,-0.029398799
1425424017.885,-0.036900997
1425424017.901,-0.04858923
1425424017.916,-0.06148407
1425424017.932,-0.07922211
1425424017.947,-0.10225335
1425424017.963,-0.12783751
1425424017.979,-0.1581946
1425424017.994,-0.1872971
1425424018.01,-0.22549418
1425424018.026,-0.26302746
1425424018.041,-0.30396092
1425424018.057,-0.34099883
1425424018.072,-0.38514847
1425424018.088,-0.42692327
1425424018.104,-0.4709348
1425424018.119,-0.5167798
1425424018.135,-0.5653657
1425424018.151,-0.61579573
1425424018.166,-0.66807944
1425424018.182,-0.7280115
1425424018.197,-0.7919762
1425424018.213,-0.8600509
1425424018.229,-0.9409783
1425424018.244,-1.0230916
1425424018.26,-1.1187211
1425424018.276,-1.2235811
1425424018.291,-1.3437651
1425424018.307,-1.4758561
1425424018.322,-1.631227
1425424018.338,-1.7941148
1425424018.354,-1.9808214
1425424018.369,-2.187985
1425424018.385,-2.4151578
1425424018.401,-2.666958
1425424018.416,-2.9437351
1425424018.432,-3.2518415
1425424018.447,-3.5782504
1425424018.463,-3.945188
1425424018.479,-4.335346
1425424018.494,-4.7650948
1425424018.51,-5.225607
1425424018.526,-5.7148833
1425424018.541,-6.244513
1425424018.557,-6.8149295
1425424018.572,-7.417557
1425424018.588,-8.064123
1425424018.604,-8.750392
1425424018.619,-9.475974
1425424018.635,-10.236558
1425424018.651,-11.041182
1425424018.666,-11.881687
1425424018.682,-12.771663
1425424018.697,-13.72248
1425424018.713,-14.736255
1425424018.729,-15.81049
1425424018.744,-16.937521
1425424018.76,-18.079123
1425424018.776,-19.181837
1425424018.791,-20.168243
1425424018.807,-20.941898
1425424018.822,-21.42869
1425424018.838,-21.54187
1425424018.854,-21.197437
1425424018.869,-20.338747
1425424018.885,-18.910822
1425424018.901,-16.869057
1425424018.916,-14.208933
1425424018.932,-10.975199
1425424018.947,-7.2272797
1425424018.963,-3.1388779
1425424018.979,1.0640526
1425424018.994,5.164139
1425424019.01,8.946491
1425424019.026,12.251823
1425424019.041,14.998905
1425424019.057,17.176937
1425424019.072,18.809937
1425424019.088,19.95644
1425424019.104,20.627369
1425424019.119,20.83178
1425424019.135,20.558907
1425424019.151,19.821724
1425424019.166,18.710754
1425424019.182,17.404713
1425424019.198,16.116894
1425424019.213,15.067665
1425424019.229,14.367237
1425424019.244,14.00655
1425424019.26,13.798435
1425424019.276,13.535763
1425424019.291,13.012955
1425424019.307,12.195377
1425424019.322,11.268997
1425424019.338,10.539833
1425424019.354,10.32415
1425424019.369,10.801453
1425424019.385,11.868622
1425424019.401,13.1549835
1425424019.416,14.197113
1425424019.432,14.61351
1425424019.448,14.336632
1425424019.463,13.674797
1425424019.479,13.196533
1425424019.494,13.496033
1425424019.51,14.885078
1425424019.526,17.236633
1425424019.541,20.000443
1425424019.557,22.51167
1425424019.573,24.20385
1425424019.588,24.883293
1425424019.604,24.841911
1425424019.619,24.656498
1425424019.635,25.011307
1425424019.651,26.566872
1425424019.666,29.82494
1425424019.682,35.017048
1425424019.698,41.745083
1425424019.713,48.623283
1425424019.729,53.35547
1425424019.744,53.287548
1425424019.76,46.458733
1425424019.776,32.655357
1425424019.791,13.829906
1425424019.807,-6.460232
1425424019.823,-24.289406
1425424019.838,-36.855404
1425424019.854,-43.35458
1425424019.869,-44.81379
1425424019.885,-43.18702
1425424019.901,-40.2161
1425424019.916,-36.779507
1425424019.932,-32.87564
1425424019.948,-28.398243
1425424019.963,-23.41904
1425424019.979,-18.381004
1425424019.994,-13.932955
1425424020.01,-10.608801
1425424020.026,-8.463539
1425424020.041,-7.0723553
1425424020.057,-5.6304474
1425424020.073,-3.3673763
1425424020.088,0.10553169
1425424020.104,4.712244
1425424020.119,9.996368
1425424020.135,15.332834
1425424020.151,20.181917
1425424020.166,24.140406
1425424020.182,26.86028
1425424020.198,27.877975
1425424020.213,26.612213
1425424020.229,22.48433
1425424020.244,15.315371
1425424020.26,5.5420465
1425424020.276,-5.746228
1425424020.291,-17.059635
1425424020.307,-26.955448
1425424020.323,-34.478428
1425424020.338,-39.34349
1425424020.354,-41.916546
1425424020.369,-42.89651
1425424020.385,-42.952686
1425424020.401,-42.50724
1425424020.416,-41.714638
1425424020.432,-40.58348
1425424020.448,-39.148808
1425424020.463,-37.591393
1425424020.479,-36.224586
1425424020.494,-35.350475
1425424020.51,-35.098255
1425424020.526,-35.353214
1425424020.541,-35.788338
1425424020.557,-36.045433
1425424020.573,-35.866394
1425424020.588,-35.1634
1425424020.604,-34.00287
1425424020.619,-32.46698
1425424020.635,-30.594826
1425424020.651,-28.333395
1425424020.666,-25.604084
1425424020.682,-22.34278
1425424020.698,-18.599241
1425424020.713,-14.516245
1425424020.729,-10.321852
1425424020.744,-6.1826324
1425424020.76,-2.1995564
1425424020.776,1.6233025
1425424020.791,5.345873
1425424020.807,9.031292
1425424020.823,12.731457
1425424020.838,16.4561
1425424020.854,20.237171
1425424020.869,24.141075
1425424020.885,28.355038
1425424020.901,33.095455
1425424020.916,38.464375
1425424020.932,44.237995
1425424020.948,49.77821
1425424020.963,54.12161
1425424020.979,56.259205
1425424020.994,55.418484
1425424021.01,51.29928
1425424021.026,44.18617
1425424021.041,34.90214
1425424021.057,24.540466
1425424021.073,14.245007
1425424021.088,4.967373
1425424021.104,-2.5637512
1425424021.119,-7.890774
1425424021.135,-10.931431
1425424021.151,-11.949898
1425424021.166,-11.294125
1425424021.182,-9.241055
1425424021.198,-6.0867424
1425424021.213,-2.074566
1425424021.229,2.2802658
1425424021.244,6.4781685
1425424021.26,10.16304
1425424021.276,12.972736
1425424021.291,14.609699
1425424021.307,15.329159
1425424021.323,15.911133
1425424021.338,17.220905
1425424021.354,20.006065
1425424021.369,24.233894
1425424021.385,29.495014
1425424021.401,35.335793
1425424021.416,40.968266
1425424021.432,45.43776
1425424021.448,48.376316
1425424021.463,50.06643
1425424021.479,50.873096
1425424021.494,51.191154
1425424021.51,50.3632
1425424021.526,47.538303
1425424021.541,42.01425
1425424021.557,32.872444
1425424021.573,19.04037
1425424021.588,0.27779388
1425424021.604,-22.640228
1425424021.619,-48.5035
1425424021.635,-75.66518
1425424021.651,-103.374374
1425424021.666,-131.01097
1425424021.682,-154.45107
1425424021.698,-168.45758
1425424021.713,-171.43964
1425424021.729,-166.35605
1425424021.744,-157.21976
1425424021.76,-149.88922
1425424021.776,-143.32771
1425424021.791,-136.84079
1425424021.807,-130.49942
1425424021.823,-124.69787
1425424021.838,-118.64066
1425424021.854,-112.72649
1425424021.869,-106.595535
1425424021.885,-98.996155
1425424021.901,-88.62856
1425424021.916,-74.54658
1425424021.932,-57.613144
1425424021.948,-39.413193
1425424021.963,-21.525291
1425424021.979,-5.4698944
1425424021.994,7.586212
1425424022.01,17.829773
1425424022.026,26.70697
1425424022.041,35.95848
1425424022.057,47.180725
1425424022.073,60.399902
1425424022.088,74.82008
1425424022.104,89.316025
1425424022.12,102.620544
1425424022.135,113.504105
1425424022.151,121.531204
1425424022.166,126.90021
1425424022.182,129.98262
1425424022.198,131.2043
1425424022.213,130.4458
1425424022.229,127.63016
1425424022.245,122.99986
1425424022.26,116.97325
1425424022.276,110.02214
1425424022.291,102.84494
1425424022.307,96.29228
1425424022.323,91.1174
1425424022.338,87.92738
1425424022.354,86.7892
1425424022.37,87.33197
1425424022.385,88.781006
1425424022.401,89.94911
1425424022.416,89.50305
1425424022.432,86.40993
1425424022.448,80.30458
1425424022.463,71.564026
1425424022.479,61.173843
1425424022.495,50.261703
1425424022.51,39.733536
1425424022.526,30.079712
1425424022.541,21.328308
1425424022.557,13.327469
1425424022.573,6.047226
1425424022.588,-0.310318
1425424022.604,-5.366791
1425424022.62,-8.843094
1425424022.635,-10.828354
1425424022.651,-11.819351
1425424022.666,-12.571182
1425424022.682,-13.788101
1425424022.698,-15.829086
1425424022.713,-18.657837
1425424022.729,-21.96431
1425424022.745,-25.395142
1425424022.76,-28.722687
1425424022.776,-31.885345
1425424022.791,-34.83638
1425424022.807,-37.376266
1425424022.823,-39.186737
1425424022.838,-39.841263
1425424022.854,-39.060974
1425424022.87,-36.862
1425424022.885,-33.58017
1425424022.901,-29.7509
1425424022.916,-25.929993
1425424022.932,-22.482529
1425424022.948,-19.478897
1425424022.963,-16.736435
1425424022.979,-13.892532
1425424022.995,-10.516464
1425424023.01,-6.2421875
1425424023.026,-0.8695221
1425424023.041,5.4828186
1425424023.057,12.270615
1425424023.073,18.528748
1425424023.088,23.055832
1425424023.104,24.715057
1425424023.12,22.856934
1425424023.135,17.551727
1425424023.151,9.64946
1425424023.166,0.44335938
1425424023.182,-8.687576
1425424023.198,-16.729134
1425424023.213,-23.185715
1425424023.229,-27.999718
1425424023.245,-31.313057
1425424023.26,-33.165443
1425424023.276,-33.435104
1425424023.291,-31.967072
1425424023.307,-28.914673
1425424023.323,-24.902199
1425424023.338,-21.045456
1425424023.354,-18.619698
1425424023.37,-18.57853
1425424023.385,-21.224709
1425424023.401,-26.096504
1425424023.416,-32.260414
1425424023.432,-38.684494
1425424023.448,-44.560158
1425424023.463,-49.354034
1425424023.479,-52.685097
1425424023.495,-54.15248
1425424023.51,-53.355865
1425424023.526,-50.064636
1425424023.541,-44.56131
1425424023.557,-37.741577
1425424023.573,-30.983932
1425424023.588,-25.696953
1425424023.604,-22.82515
1425424023.62,-22.547508
1425424023.635,-24.25441
1425424023.651,-26.865524
1425424023.666,-29.279602
1425424023.682,-30.731667
1425424023.698,-30.895782
1425424023.713,-29.815994
1425424023.729,-27.745422
1425424023.745,-25.11306
1425424023.76,-22.566216
1425424023.776,-20.98764
1425424023.791,-21.277733
1425424023.807,-23.924759
1425424023.823,-28.549591
1425424023.838,-33.725357
1425424023.854,-37.33174
1425424023.87,-37.356583
1425424023.885,-32.79799
1425424023.901,-24.173721
1425424023.916,-13.356262
1425424023.932,-2.7839203
1425424023.948,5.5398865
1425424023.963,10.761154
1425424023.979,13.289673
1425424023.995,14.31279
1425424024.01,15.042725
1425424024.026,16.161652
1425424024.041,17.64148
1425424024.057,18.959549
1425424024.073,19.501938
1425424024.088,18.91063
1425424024.104,17.157974
1425424024.12,14.516129
1425424024.135,11.398682
1425424024.151,8.23587
1425424024.166,5.460434
1425424024.182,3.4210358
1425424024.198,2.4031982
1425424024.213,2.4897766
1425424024.229,3.6088867
1425424024.245,5.532486
1425424024.26,7.9584656
1425424024.276,10.618439
1425424024.291,13.268341
1425424024.307,15.680603
1425424024.323,17.602097
1425424024.338,18.82399
1425424024.354,19.319778
1425424024.37,19.401505
1425424024.385,19.73616
1425424024.401,21.168304
1425424024.416,24.425354
1425424024.432,29.792694
1425424024.448,36.91986
1425424024.463,44.879303
1425424024.479,52.342255
1425424024.495,57.930267
1425424024.51,60.47647
1425424024.526,59.32486
1425424024.541,54.441193
1425424024.557,46.441223
1425424024.573,36.432343
1425424024.588,25.779755
1425424024.604,15.705017
1425424024.62,7.076935
1425424024.635,0.250885
1425424024.651,-4.931427
1425424024.666,-8.843964
1425424024.682,-11.952545
1425424024.698,-14.550354
1425424024.713,-16.748016
1425424024.729,-18.53183
1425424024.745,-19.868835
1425424024.76,-20.824188
1425424024.776,-21.565521
1425424024.792,-22.31424
1425424024.807,-23.167267
1425424024.823,-24.086945
1425424024.838,-24.86087
1425424024.854,-25.228394
1425424024.87,-25.044617
1425424024.885,-24.361572
1425424024.901,-23.440674
1425424024.917,-22.595673
1425424024.932,-22.002075
1425424024.948,-21.564484
1425424024.963,-20.884888
1425424024.979,-19.44107
1425424024.995,-16.804718
1425424025.01,-12.908447
1425424025.026,-8.054474
1425424025.042,-2.842743
1425424025.057,2.1157532
1425424025.073,6.3908997
1425424025.088,9.95047
1425424025.104,13.111572
1425424025.12,16.420166
1425424025.135,20.443298
1425424025.151,25.53122
1425424025.167,31.6745
1425424025.182,38.347168
1425424025.198,44.602264
1425424025.213,49.228027
1425424025.229,51.056854
1425424025.245,49.322296
1425424025.26,43.888428
1425424025.276,35.404144
1425424025.292,25.066498
1425424025.307,14.303558
1425424025.323,4.345001
1425424025.338,-4.045471
1425424025.354,-10.69751
1425424025.37,-15.818695
1425424025.385,-19.74887
1425424025.401,-22.72403
1425424025.417,-24.827667
1425424025.432,-26.072662
1425424025.448,-26.544159
1425424025.463,-26.48767
1425424025.479,-26.303955
1425424025.495,-26.337372
1425424025.51,-26.712555
1425424025.526,-27.263733
1425424025.542,-27.607208
1425424025.557,-27.370422
1425424025.573,-26.395447
1425424025.588,-24.81314
1425424025.604,-22.988434
1425424025.62,-21.277557
1425424025.635,-19.916626
1425424025.651,-18.824158
1425424025.667,-17.684662
1425424025.682,-16.083313
1425424025.698,-13.652313
1425424025.713,-10.2013855
1425424025.729,-5.779419
1425424025.745,-0.60446167
1425424025.76,4.9280396
1425424025.776,10.384247
1425424025.792,15.387939
1425424025.807,19.746338
1425424025.823,23.495483
1425424025.838,26.965393
1425424025.854,30.618347
1425424025.87,34.881042
1425424025.885,39.75638
1425424025.901,44.71054
1425424025.917,48.667145
1425424025.932,50.29541
1425424025.948,48.484436
1425424025.963,42.836823
1425424025.979,33.856445
1425424025.995,22.84903
1425424026.01,11.45813
1425424026.026,1.1349182
1425424026.042,-7.1979675
1425424026.057,-13.312439
1425424026.073,-17.468048
1425424026.088,-20.134369
1425424026.104,-21.729462
1425424026.12,-22.538757
1425424026.135,-22.70987
1425424026.151,-22.39508
1425424026.167,-21.816742
1425424026.182,-21.259644
1425424026.198,-20.968475
1425424026.213,-21.033813
1425424026.229,-21.352905
1425424026.245,-21.679321
1425424026.26,-21.777954
1425424026.276,-21.556885
1425424026.292,-21.096832
1425424026.307,-20.664642
1425424026.323,-20.462952
1425424026.338,-20.552887
1425424026.354,-20.764923
1425424026.37,-20.70285
1425424026.385,-19.938232
1425424026.401,-18.161438
1425424026.417,-15.332825
1425424026.432,-11.668457
1425424026.448,-7.6201477
1425424026.463,-3.713684
1425424026.479,-0.316864
1425424026.495,2.5155334
1425424026.51,5.1069946
1425424026.526,8.084778
1425424026.542,12.117554
1425424026.557,17.630676
1425424026.573,24.598328
1425424026.588,32.44403
1425424026.604,40.125
1425424026.62,46.381348
1425424026.635,49.968384
1425424026.651,50.013916
1425424026.667,46.223328
1425424026.682,38.944214
1425424026.698,29.192749
1425424026.713,18.32837
1425424026.729,7.7478027
1425424026.745,-1.4588013
1425424026.76,-8.713013
1425424026.776,-13.996704
1425424026.792,-17.60083
1425424026.807,-19.937744
1425424026.823,-21.342651
1425424026.838,-22.005737
1425424026.854,-22.063354
1425424026.87,-21.66858
1425424026.885,-20.773315
1425424026.901,-19.457764
1425424026.917,-18.031921
1425424026.932,-16.76416
1425424026.948,-15.772827
1425424026.963,-14.95166
1425424026.979,-14.182373
1425424026.995,-13.437988
1425424027.01,-12.815308
1425424027.026,-12.14978
1425424027.042,-11.309998
1425424027.057,-10.286926
1425424027.073,-9.03064
1425424027.088,-7.386902
1425424027.104,-5.0856323
1425424027.12,-1.9598389
1425424027.135,1.9213257
1425424027.151,6.199463
1425424027.167,10.95813
1425424027.182,15.998779
1425424027.198,20.7417
1425424027.213,24.62793
1425424027.229,27.710205
1425424027.245,30.649475
1425424027.26,34.302856
1425424027.276,39.133057
1425424027.292,44.9115
1425424027.307,52.437622
1425424027.323,61.142883
1425424027.338,68.657715
1425424027.354,72.0639
1425424027.37,69.867615
1425424027.385,62.610535
1425424027.401,52.218628
1425424027.417,40.994446
1425424027.432,30.699524
1425424027.448,25.858032
1425424027.464,28.266113
1425424027.479,35.566895
1425424027.495,43.247375
1425424027.51,48.260315
1425424027.526,50.212097
1425424027.542,50.299255
1425424027.557,49.88098
1425424027.573,49.65442
1425424027.589,55.23755
1425424027.604,69.015076
1425424027.62,87.50061
1425424027.635,104.27173
1425424027.651,115.12384
1425424027.667,119.67743
1425424027.682,119.934814
1425424027.698,118.8064
1425424027.714,119.499756
1425424027.729,132.88861
1425424027.745,165.80695
1425424027.76,216.14218
1425424027.776,274.96265
1425424027.792,332.95663
1425424027.807,383.66663
1425424027.823,423.7878
1425424027.839,453.09668
1425424027.854,426.0576
1425424027.87,328.66534
1425424027.885,189.39108
1425424027.901,54.674744
1425424027.917,-48.82242
1425424027.932,-119.51117
1425424027.948,-166.46533
1425424027.964,-198.70276
1425424027.979,-221.97504
1425424027.995,-239.45108
1425424028.01,-245.60269
1425424028.026,-238.14893
1425424028.042,-222.05334
1425424028.057,-205.99023
1425424028.073,-195.72485
1425424028.089,-192.12538
1425424028.104,-193.06276
1425424028.12,-196.01518
1425424028.135,-199.26608
1425424028.151,-196.23697
1425424028.167,-183.79544
1425424028.182,-164.81093
1425424028.198,-145.51442
1425424028.214,-130.42899
1425424028.229,-120.759796
1425424028.245,-115.636826
1425424028.26,-113.73067
1425424028.276,-113.94066
1425424028.292,-111.657486
1425424028.307,-104.12215
1425424028.323,-92.34108
1425424028.339,-79.65757
1425424028.354,-68.75599
1425424028.37,-60.712746
1425424028.385,-55.36331
1425424028.401,-52.346725
1425424028.417,-51.4774
1425424028.432,-50.98813
1425424028.448,-49.81711
1425424028.464,-47.897987
1425424028.479,-45.110985
1425424028.495,-39.88829
1425424028.51,-29.868988
1425424028.526,-13.383003
1425424028.542,8.7388
1425424028.557,32.99123
1425424028.573,55.204678
1425424028.589,71.57327
1425424028.604,80.01802
1425424028.62,80.76834
1425424028.635,76.83357
1425424028.651,70.110275
1425424028.667,62.144352
1425424028.682,53.344208
1425424028.698,43.518517
1425424028.714,32.697144
1425424028.729,21.593163
1425424028.745,11.370155
1425424028.76,2.9801903
1425424028.776,-3.3488312
1425424028.792,-8.1832695
1425424028.807,-12.162792
1425424028.823,-15.793835
1425424028.839,-19.107653
1425424028.854,-21.604052
1425424028.87,-22.707018
1425424028.885,-22.001963
1425424028.901,-19.563969
1425424028.917,-15.921455
1425424028.932,-12.077454
1425424028.948,-8.959869
1425424028.964,-7.388027
1425424028.979,-7.812399
1425424028.995,-10.186857
1425424029.01,-13.96619
1425424029.026,-18.28965
1425424029.042,-22.20699
1425424029.057,-25.030779
1425424029.073,-26.469433
1425424029.089,-26.53518
1425424029.104,-25.493193
1425424029.12,-23.686668
1425424029.135,-21.35187
1425424029.151,-18.625721
1425424029.167,-15.468685
1425424029.182,-11.800749
1425424029.198,-7.587616
1425424029.214,-2.9813442
1425424029.229,1.702323
1425424029.245,6.014947
1425424029.26,9.507108
1425424029.276,11.913475
1425424029.292,13.284611
1425424029.307,13.908245
1425424029.323,14.288944
1425424029.339,14.866499
1425424029.354,15.913811
1425424029.37,17.505413
1425424029.385,19.473156
1425424029.401,21.46559
1425424029.417,23.062168
1425424029.432,23.690735
1425424029.448,22.7791
1425424029.464,19.942558
1425424029.479,15.147392
1425424029.495,8.771215
1425424029.51,1.604496
1425424029.526,-5.440628
1425424029.542,-11.532875
1425424029.557,-16.181313
1425424029.573,-19.237457
1425424029.589,-20.869705
1425424029.604,-21.345295
1425424029.62,-20.928486
1425424029.635,-19.77501
1425424029.651,-17.997055
1425424029.667,-15.728512
1425424029.682,-13.20853
1425424029.698,-10.774845
1425424029.714,-8.7714615
1425424029.729,-7.4176064
1425424029.745,-6.723259
1425424029.76,-6.4699936
1425424029.776,-6.394066
1425424029.792,-6.287689
1425424029.807,-6.1124306
1425424029.823,-5.9068184
1425424029.839,-5.705742
1425424029.854,-5.372875
1425424029.87,-4.6314507
1425424029.885,-3.166813
1425424029.901,-0.82993317
1425424029.917,2.2477722
1425424029.932,5.6714478
1425424029.948,8.935059
1425424029.964,11.645554
1425424029.979,13.719666
1425424029.995,15.340309
1425424030.01,16.920639
1425424030.026,18.881546
1425424030.042,21.508575
1425424030.057,24.846657
1425424030.073,28.709198
1425424030.089,32.624023
1425424030.104,35.960396
1425424030.12,37.95955
1425424030.136,37.93847
1425424030.151,35.454826
1425424030.167,30.518051
1425424030.182,23.58583
1425424030.198,15.486183
1425424030.214,7.1748657
1425424030.229,-0.48836517
1425424030.245,-6.942253
1425424030.26,-11.902412
1425424030.276,-15.32592
1425424030.292,-17.321465
1425424030.307,-18.069397
1425424030.323,-17.771408
1425424030.339,-16.709396
1425424030.354,-15.155693
1425424030.37,-13.379814
1425424030.386,-11.645744
1425424030.401,-10.186111
1425424030.417,-9.1599045
1425424030.432,-8.625671
1425424030.448,-8.53273
1425424030.464,-8.786346
1425424030.479,-9.230057
1425424030.495,-9.747711
1425424030.511,-10.240295
1425424030.526,-10.591721
1425424030.542,-10.629501
1425424030.557,-10.133743
1425424030.573,-8.895905
1425424030.589,-6.856888
1425424030.604,-4.1470795
1425424030.62,-1.0870056
1425424030.636,1.949646
1425424030.651,4.679123
1425424030.667,7.016571
1425424030.682,9.0911255
1425424030.698,11.243118
1425424030.714,13.880112
1425424030.729,17.403336
1425424030.745,21.983627
1425424030.761,27.438934
1425424030.776,33.086746
1425424030.792,37.852448
1425424030.807,40.470108
1425424030.823,39.964996
1425424030.839,35.949844
1425424030.854,28.885986
1425424030.87,19.941956
1425424030.886,10.641266
1425424030.901,2.3828735
1425424030.917,-3.980957
1425424030.932,-8.245987
1425424030.948,-10.770096
1425424030.964,-12.162064
1425424030.979,-12.954193
1425424030.995,-13.451004
1425424031.011,-13.683029
1425424031.026,-13.585358
1425424031.042,-13.11409
1425424031.057,-12.38884
1425424031.073,-11.658356
1425424031.089,-11.182632
1425424031.104,-11.122787
1425424031.12,-11.470551
1425424031.136,-12.086685
1425424031.151,-12.81398
1425424031.167,-13.510468
1425424031.182,-14.122894
1425424031.198,-14.59317
1425424031.214,-14.765839
1425424031.229,-14.40332
1425424031.245,-13.226227
1425424031.261,-11.02887
1425424031.276,-7.828949
1425424031.292,-3.9021301
1425424031.307,0.25274658
1425424031.323,4.1230164
1425424031.339,7.3138123
1425424031.354,9.787384
1425424031.37,11.875977
1425424031.386,14.214661
1425424031.401,17.460022
1425424031.417,22.027435
1425424031.432,27.762787
1425424031.448,33.929657
1425424031.464,39.27133
1425424031.479,42.42697
1425424031.495,42.35965
1425424031.511,38.689484
1425424031.526,31.809204
1425424031.542,22.723907
1425424031.557,12.761047
1425424031.573,3.1611633
1425424031.589,-5.1936646
1425424031.604,-11.815063
1425424031.62,-16.62326
1425424031.636,-19.695557
1425424031.651,-21.239624
1425424031.667,-21.452759
1425424031.682,-20.592834
1425424031.698,-18.981415
1425424031.714,-17.030243
1425424031.729,-15.142517
1425424031.745,-13.6528015
1425424031.761,-12.724976
1425424031.776,-12.37207
1425424031.792,-12.500732
1425424031.807,-12.993378
1425424031.823,-13.759857
1425424031.839,-14.650848
1425424031.854,-15.445343
1425424031.87,-15.800629
1425424031.886,-15.328888
1425424031.901,-13.775726
1425424031.917,-11.109619
1425424031.932,-7.6072693
1425424031.948,-3.682495
1425424031.964,0.23730469
1425424031.979,3.893158
1425424031.995,7.218048
1425424032.011,10.361481
1425424032.026,13.570068
1425424032.042,17.147705
1425424032.057,21.349365
1425424032.073,26.264862
1425424032.089,31.673279
1425424032.104,36.943695
1425424032.12,41.0755
1425424032.136,42.92105
1425424032.151,41.518402
1425424032.167,36.498993
1425424032.182,28.237305
1425424032.198,17.8443
1425424032.214,6.8407288
1425424032.229,-3.2573547
1425424032.245,-11.331757
1425424032.261,-16.848572
1425424032.276,-19.88034
1425424032.292,-20.887848
1425424032.307,-20.51474
1425424032.323,-19.315277
1425424032.339,-17.692474
1425424032.354,-15.895935
1425424032.37,-14.100159
1425424032.386,-12.477173
1425424032.401,-11.244507
1425424032.417,-10.60022
1425424032.432,-10.619934
1425424032.448,-11.235413
1425424032.464,-12.249268
1425424032.479,-13.357605
1425424032.495,-14.326172
1425424032.511,-14.963196
1425424032.526,-15.184631
1425424032.542,-14.937927
1425424032.557,-14.161987
1425424032.573,-12.81665
1425424032.589,-10.900085
1425424032.604,-8.455994
1425424032.62,-5.593567
1425424032.636,-2.43042
1425424032.651,1.0064087
1425424032.667,4.7927856
1425424032.682,9.1553955
1425424032.698,14.34845
1425424032.714,20.549622
1425424032.729,27.597534
1425424032.745,34.909973
1425424032.761,41.489258
1425424032.776,46.090454
1425424032.792,47.61676
1425424032.808,45.40442
1425424032.823,39.54889
1425424032.839,30.853638
1425424032.854,20.624207
1425424032.87,10.265808
1425424032.886,0.9265747
1425424032.901,-6.7417603
1425424032.917,-12.612427
1425424032.932,-16.900085
1425424032.948,-19.98175
1425424032.964,-22.2005
1425424032.979,-23.795776
1425424032.995,-24.898071
1425424033.011,-25.557373
1425424033.026,-25.797302
1425424033.042,-25.695068
1425424033.058,-25.328125
1425424033.073,-24.837402
1425424033.089,-24.355957
1425424033.104,-24.002014
1425424033.12,-23.88208
1425424033.136,-24.05426
1425424033.151,-24.510681
1425424033.167,-25.108948
1425424033.183,-25.609436
1425424033.198,-25.688232
1425424033.214,-25.00061
1425424033.229,-23.331116
1425424033.245,-20.617126
1425424033.261,-16.98523
1425424033.276,-12.706543
1425424033.292,-8.083252
1425424033.308,-3.3276367
1425424033.323,1.5480957
1425424033.339,6.7614746
1425424033.354,12.665283
1425424033.37,19.506104
1425424033.386,27.166687
1425424033.401,34.987488
1425424033.417,41.795166
1425424033.433,46.193604
1425424033.448,46.999084
1425424033.464,43.63678
1425424033.479,36.407776
1425424033.495,26.359436
1425424033.511,14.97644
1425424033.526,3.7385254
1425424033.542,-6.2247925
1425424033.558,-14.323914
1425424033.573,-20.444092
1425424033.589,-24.816895
1425424033.604,-27.780518
1425424033.62,-29.670898
1425424033.636,-30.723267
1425424033.651,-31.118652
1425424033.667,-30.963745
1425424033.683,-30.374756
1425424033.698,-29.47467
1425424033.714,-28.382324
1425424033.729,-27.26233
1425424033.745,-26.287476
1425424033.761,-25.646301
1425424033.776,-25.446716
1425424033.792,-25.70343
1425424033.808,-26.284546
1425424033.823,-26.900879
1425424033.839,-27.20221
1425424033.854,-26.817993
1425424033.87,-25.493774
1425424033.886,-23.129028
1425424033.901,-19.832336
1425424033.917,-15.898743
1425424033.933,-11.724976
1425424033.948,-7.671997
1425424033.964,-3.9675903
1425424033.979,-0.5512085
1425424033.995,2.921936
1425424034.011,6.9699707
1425424034.026,12.027161
1425424034.042,18.216492
1425424034.058,25.131775
1425424034.073,31.823303
1425424034.089,36.968933
1425424034.104,39.263245
1425424034.12,37.83673
1425424034.136,32.564148
1425424034.151,24.092651
1425424034.167,13.710815
1425424034.183,2.9121094
1425424034.198,-7.006592
1425424034.214,-15.202637
1425424034.229,-21.379028
1425424034.245,-25.686218
1425424034.261,-28.461792
1425424034.276,-30.056824
1425424034.292,-30.751465
1425424034.308,-30.766846
1425424034.323,-30.328064
1425424034.339,-29.714722
1425424034.354,-29.203247
1425424034.37,-28.95221
1425424034.386,-28.923706
1425424034.401,-28.852905
1425424034.417,-28.420288
1425424034.433,-27.40863
1425424034.448,-25.842041
1425424034.464,-24.032959
1425424034.479,-22.357544
1425424034.495,-21.057068
1425424034.511,-20.025146
1425424034.526,-18.850891
1425424034.542,-17.005127
1425424034.558,-14.143921
1425424034.573,-10.326416
1425424034.589,-5.9987793
1425424034.604,-1.810791
1425424034.62,1.7188721
1425424034.636,4.4730835
1425424034.651,6.7716064
1425424034.667,9.249512
1425424034.683,12.574341
1425424034.698,17.179077
1425424034.714,23.055237
1425424034.729,29.715454
1425424034.745,36.263
1425424034.761,41.568665
1425424034.776,44.490845
1425424034.792,44.097046
1425424034.808,39.934814
1425424034.823,32.213867
1425424034.839,21.788452
1425424034.854,10.034424
1425424034.87,-1.5494995
1425424034.886,-11.690308
1425424034.901,-19.648315
1425424034.917,-25.287598
1425424034.933,-28.886414
1425424034.948,-30.888367
1425424034.964,-31.6875
1425424034.979,-31.558167
1425424034.995,-30.712585
1425424035.011,-29.448853
1425424035.026,-28.156921
1425424035.042,-27.239014
1425424035.058,-26.93805
1425424035.073,-27.242981
1425424035.089,-27.876831
1425424035.104,-28.458069
1425424035.12,-28.728455
1425424035.136,-28.596558
1425424035.151,-28.188965
1425424035.167,-27.624573
1425424035.183,-26.967834
1425424035.198,-26.102905
1425424035.214,-24.852295
1425424035.229,-23.014648
1425424035.245,-20.498169
1425424035.261,-17.377563
1425424035.276,-13.825073
1425424035.292,-10.113525
1425424035.308,-6.5043335
1425424035.323,-3.1742554
1425424035.339,-0.1295166
1425424035.354,2.8394165
1425424035.37,6.138489
1425424035.386,10.267639
1425424035.401,15.564087
1425424035.417,22.03357
1425424035.433,29.095459
1425424035.448,35.671814
1425424035.464,40.399902
1425424035.479,42.048645
1425424035.495,39.928345
1425424035.511,34.171936
1425424035.526,25.712097
1425424035.542,15.974915
1425424035.558,6.404846
1425424035.573,-1.9408569
1425424035.589,-8.628967
1425424035.604,-13.763062
1425424035.62,-17.7016
1425424035.636,-20.729248
1425424035.651,-22.905823
1425424035.667,-24.13147
1425424035.683,-24.380737
1425424035.698,-23.837158
1425424035.714,-22.985779
1425424035.73,-22.38556
1425424035.745,-22.426514
1425424035.761,-23.109985
1425424035.776,-24.123657
1425424035.792,-24.998291
1425424035.808,-25.395325
1425424035.823,-25.233032
1425424035.839,-24.687439
1425424035.855,-23.985535
1425424035.87,-23.254883
1425424035.886,-22.417542
1425424035.901,-21.271667
1425424035.917,-19.581116
1425424035.933,-17.186646
1425424035.948,-14.139343
1425424035.964,-10.622131
1425424035.98,-6.9535522
1425424035.995,-3.4666748
1425424036.011,-0.4282837
1425424036.026,2.0599365
1425424036.042,4.132202
1425424036.058,6.13678
1425424036.073,8.559387
1425424036.089,11.863892
1425424036.105,16.295532
1425424036.12,21.730347
1425424036.136,27.634094
1425424036.151,33.099182
1425424036.167,37.063232
1425424036.183,38.52771
1425424036.198,36.862915
1425424036.214,31.986328
1425424036.23,24.447998
1425424036.245,15.300598
1425424036.261,5.8236084
1425424036.276,-2.8239136
1425424036.292,-9.882874
1425424036.308,-15.083801
1425424036.323,-18.549377
1425424036.339,-20.58136
1425424036.355,-21.440186
1425424036.37,-21.310852
1425424036.386,-20.344238
1425424036.401,-18.79065
1425424036.417,-17.062317
1425424036.433,-15.678284
1425424036.448,-15.079529
1425424036.464,-15.450073
1425424036.48,-16.664795
1425424036.495,-18.320068
1425424036.511,-19.935425
1425424036.526,-21.143799
1425424036.542,-21.804382
1425424036.558,-21.975891
1425424036.573,-21.769775
1425424036.589,-21.205444
1425424036.605,-20.116455
1425424036.62,-18.230957
1425424036.636,-15.301941
1425424036.651,-11.295959
1425424036.667,-6.435608
1425424036.683,-1.1802368
1425424036.698,3.9786377
1425424036.714,8.5979
1425424036.73,12.519836
1425424036.745,15.842712
1425424036.761,18.902771
1425424036.776,22.143494
1425424036.792,26.005005
1425424036.808,30.696106
1425424036.823,36.030212
1425424036.839,41.36328
1425424036.855,45.66156
1425424036.87,47.71277
1425424036.886,46.537598
1425424036.901,41.77722
1425424036.917,33.88623
1425424036.933,24.02356
1425424036.948,13.683899
1425424036.964,4.182251
1425424036.98,-3.6281738
1425424036.995,-9.535095
1425424037.011,-13.752319
1425424037.026,-16.654175
1425424037.042,-18.553589
1425424037.058,-19.628418
1425424037.073,-19.95935
1425424037.089,-19.709473
1425424037.105,-19.111938
1425424037.12,-18.499329
1425424037.136,-18.158752
1425424037.151,-18.223328
1425424037.167,-18.618042
1425424037.183,-19.093933
1425424037.198,-19.334656
1425424037.214,-19.127686
1425424037.23,-18.421875
1425424037.245,-17.359558
1425424037.261,-16.17035
1425424037.276,-15.0529785
1425424037.292,-14.012817
1425424037.308,-12.863525
1425424037.323,-11.336609
1425424037.339,-9.233276
1425424037.355,-6.4924927
1425424037.37,-3.2887573
1425424037.386,0.080200195
1425424037.401,3.3363037
1425424037.417,6.333008
1425424037.433,9.061523
1425424037.448,11.679932
1425424037.464,14.433716
1425424037.48,17.649902
1425424037.495,21.635376
1425424037.511,26.565125
1425424037.526,32.263367
1425424037.542,38.07959
1425424037.558,42.910156
1425424037.573,45.50586
1425424037.589,44.884094
1425424037.605,40.73584
1425424037.62,33.602295
1425424037.636,24.663086
1425424037.651,15.328552
1425424037.667,6.790222
1425424037.683,-0.29840088
1425424037.698,-5.8082275
1425424037.714,-10.011353
1425424037.73,-13.244202
1425424037.745,-15.77655
1425424037.761,-17.701355
1425424037.776,-19.012817
1425424037.792,-19.689148
1425424037.808,-19.815613
1425424037.823,-19.620117
1425424037.839,-19.424255
1425424037.855,-19.493652
1425424037.87,-19.925232
1425424037.886,-20.565918
1425424037.901,-21.098999
1425424037.917,-21.215149
1425424037.933,-20.77539
1425424037.948,-19.90155
1425424037.964,-18.868591
1425424037.98,-17.945496
1425424037.995,-17.174927
1425424038.011,-16.292664
1425424038.026,-14.903442
1425424038.042,-12.615662
1425424038.058,-9.335876
1425424038.073,-5.294922
1425424038.089,-0.9849243
1425424038.105,3.0631104
1425424038.12,6.473694
1425424038.136,9.190369
1425424038.151,11.426697
1425424038.167,13.647156
1425424038.183,16.370728
1425424038.198,20.068604
1425424038.214,24.934021
1425424038.23,30.808105
1425424038.245,37.074158
1425424038.261,42.730408
1425424038.276,46.590332
1425424038.292,47.61505
1425424038.308,45.245544
1425424038.323,39.629883
1425424038.339,31.590454
1425424038.355,22.38794
1425424038.37,13.319153
1425424038.386,5.3864746
1425424038.402,-0.9016113
1425424038.417,-5.4957886
1425424038.433,-8.666809
1425424038.448,-10.753479
1425424038.464,-12.048767
1425424038.48,-12.754517
1425424038.495,-13.042053
1425424038.511,-13.053772
1425424038.527,-12.971069
1425424038.542,-12.966248
1425424038.558,-13.181702
1425424038.573,-13.666931
1425424038.589,-14.401794
1425424038.605,-15.270996
1425424038.62,-16.142578
1425424038.636,-16.861511
1425424038.652,-17.316101
1425424038.667,-17.45874
1425424038.683,-17.330902
1425424038.698,-16.986176
1425424038.714,-16.43164
1425424038.73,-15.560242
1425424038.745,-14.124939
1425424038.761,-11.836609
1425424038.777,-8.529327
1425424038.792,-4.2969666
1425424038.808,0.48638916
1425424038.823,5.2309265
1425424038.839,9.4053955
1425424038.855,12.756714
1425424038.87,15.37558
1425424038.886,17.604431
1425424038.902,19.877441
1425424038.917,22.536987
1425424038.933,25.7594
1425424038.948,29.571747
1425424038.964,33.852264
1425424038.98,38.26233
1425424038.995,42.167816
1425424039.011,44.650726
1425424039.027,44.714966
1425424039.042,41.678894
1425424039.058,35.52646
1425424039.073,27.018738
1425424039.089,17.490112
1425424039.105,8.360626
1425424039.12,0.6752014
1425424039.136,-5.163971
1425424039.152,-9.302948
1425424039.167,-12.145142
1425424039.183,-14.055969
1425424039.198,-15.233917
1425424039.214,-15.76062
1425424039.23,-15.755981
1425424039.245,-15.45932
1425424039.261,-15.189697
1425424039.277,-15.218903
1425424039.292,-15.636108
1425424039.308,-16.304108
1425424039.323,-16.927979
1425424039.339,-17.253326
1425424039.355,-17.157257
1425424039.37,-16.677094
1425424039.386,-16.013824
1425424039.402,-15.375244
1425424039.417,-14.838867
1425424039.433,-14.311035
1425424039.448,-13.5243225
1425424039.464,-12.131989
1425424039.48,-9.884827
1425424039.495,-6.7625732
1425424039.511,-2.9941406
1425424039.527,0.9667969
1425424039.542,4.616791
1425424039.558,7.606537
1425424039.573,9.832428
1425424039.589,11.47818
1425424039.605,12.966309
1425424039.62,14.750244
1425424039.636,17.249786
1425424039.652,20.68457
1425424039.667,25.004059
1425424039.683,29.807648
1425424039.698,34.331116
1425424039.714,37.574036
1425424039.73,38.577393
1425424039.745,36.72873
1425424039.761,32.00766
1425424039.777,25.0531
1425424039.792,16.939423
1425424039.808,8.812286
1425424039.823,1.5593262
1425424039.839,-4.3502502
1425424039.855,-8.857391
1425424039.87,-12.129761
1425424039.886,-14.339813
1425424039.902,-15.590515
1425424039.917,-15.960297
1425424039.933,-15.572418
1425424039.948,-14.709778
1425424039.964,-13.761475
1425424039.98,-13.127991
1425424039.995,-13.05484
1425424040.011,-13.552429
1425424040.027,-14.372894
1425424040.042,-15.15332
1425424040.058,-15.525238
1425424040.073,-15.306
1425424040.089,-14.575409
1425424040.105,-13.56958
1425424040.12,-12.572479
1425424040.136,-11.69989
1425424040.152,-10.863464
1425424040.167,-9.720367
1425424040.183,-7.9141846
1425424040.198,-5.218994
1425424040.214,-1.7213135
1425424040.23,2.2097473
1425424040.245,6.0826416
1425424040.261,9.489624
1425424040.277,12.316498
1425424040.292,14.794952
1425424040.308,17.379059
1425424040.323,20.537354
1425424040.339,24.542908
1425424040.355,29.380768
1425424040.37,34.651947
1425424040.386,39.625
1425424040.402,43.358215
1425424040.417,44.90567
1425424040.433,43.586853
1425424040.448,39.227814
1425424040.464,32.266357
1425424040.48,23.67694
1425424040.495,14.665009
1425424040.511,6.3353577
1425424040.527,-0.61654663
1425424040.542,-5.9983215
1425424040.558,-9.969025
1425424040.573,-12.850922
1425424040.589,-14.860596
1425424040.605,-16.072937
1425424040.62,-16.462646
1425424040.636,-16.067413
1425424040.652,-15.096039
1425424040.667,-13.931274
1425424040.683,-13.054352
1425424040.698,-12.767395
1425424040.714,-13.152344
1425424040.73,-13.981415
1425424040.745,-14.880859
1425424040.761,-15.491486
1425424040.777,-15.699127
1425424040.792,-15.62265
1425424040.808,-15.526001
1425424040.823,-15.5979
1425424040.839,-15.77301
1425424040.855,-15.716736
1425424040.87,-14.936584
1425424040.886,-12.989716
1425424040.902,-9.764648
1425424040.917,-5.479889
1425424040.933,-0.7137146
1425424040.948,3.902893
1425424040.964,7.8811646
1425424040.98,11.066895
1425424040.995,13.687805
1425424041.011,16.228241
1425424041.027,19.228973
1425424041.042,23.089539
1425424041.058,27.91809
1425424041.074,33.4292
1425424041.089,38.95813
1425424041.105,43.543182
1425424041.12,46.1521
1425424041.136,45.925446
1425424041.152,42.48221
1425424041.167,36.088226
1425424041.183,27.594055
1425424041.198,18.231995
1425424041.214,9.206512
1425424041.23,1.3889465
1425424041.245,-4.8707886
1425424041.261,-9.651154
1425424041.277,-13.306091
1425424041.292,-16.17276
1425424041.308,-18.466095
1425424041.324,-20.231018
1425424041.339,-21.408722
1425424041.355,-21.978577
1425424041.37,-22.05957
1425424041.386,-21.894196
1425424041.402,-21.765839
1425424041.417,-21.85852
1425424041.433,-22.154846
1425424041.449,-22.420685
1425424041.464,-22.357422
1425424041.48,-21.795227
1425424041.495,-20.749268
1425424041.511,-19.49411
1425424041.527,-18.368683
1425424041.542,-17.540558
1425424041.558,-16.930298
1425424041.574,-16.160217
1425424041.589,-14.779114
1425424041.605,-12.476044
1425424041.62,-9.25293
1425424041.636,-5.437378
1425424041.652,-1.5153809
1425424041.667,2.0825806
1425424041.683,5.1571045
1425424041.699,7.750885
1425424041.714,10.092743
1425424041.73,12.462616
1425424041.745,15.109497
1425424041.761,18.263672
1425424041.777,22.079163
1425424041.792,26.641724
1425424041.808,31.79892
1425424041.824,37.037903
1425424041.839,41.44455
1425424041.855,43.900757
1425424041.87,43.384125
1425424041.886,39.404266
1425424041.902,32.23221
1425424041.917,22.880798
1425424041.933,12.822266
1425424041.949,3.5346375
1425424041.964,-3.9020996
1425424041.98,-9.060974
1425424041.995,-12.107544
1425424042.011,-13.601807
1425424042.027,-14.241882
1425424042.042,-14.561951
1425424042.058,-14.908844
1425424042.074,-15.410553
1425424042.089,-16.096252
1425424042.105,-16.959625
1425424042.12,-18.010406
1425424042.136,-19.219147
1425424042.152,-20.476929
1425424042.167,-21.577637
1425424042.183,-22.265198
1425424042.199,-22.355927
1425424042.214,-21.829163
1425424042.23,-20.842865
1425424042.245,-19.696716
1425424042.261,-18.64627
1425424042.277,-17.828339
1425424042.292,-17.174103
1425424042.308,-16.492188
1425424042.324,-15.502167
1425424042.339,-13.996643
1425424042.355,-11.862427
1425424042.37,-9.108002
1425424042.386,-5.8449097
1425424042.402,-2.2928772
1425424042.417,1.2788086
1425424042.433,4.592621
1425424042.449,7.4427795
1425424042.464,9.7621765
1425424042.48,11.686951
1425424042.495,13.54715
1425424042.511,15.795227
1425424042.527,18.855957
1425424042.542,22.995575
1425424042.558,28.159576
1425424042.574,33.869904
1425424042.589,39.220886
1425424042.605,43.10196
1425424042.62,44.43335
1425424042.636,42.57483
1425424042.652,37.51358
1425424042.667,29.979187
1425424042.683,21.144379
1425424042.699,12.316742
1425424042.714,4.500305
1425424042.73,-1.8048096
1425424042.745,-6.636078
1425424042.761,-10.357941
1425424042.777,-13.403412
1425424042.792,-16.03482
1425424042.808,-18.271881
1425424042.824,-19.955841
1425424042.839,-20.932678
1425424042.855,-21.178131
1425424042.87,-20.892761
1425424042.886,-20.432556
1425424042.902,-20.18451
1425424042.917,-20.395172
1425424042.933,-21.078293
1425424042.949,-22.017014
1425424042.964,-22.890503
1425424042.98,-23.39685
1425424042.995,-23.424057
1425424043.011,-22.997116
1425424043.027,-22.265839
1425424043.042,-21.355576
1425424043.058,-20.267166
1425424043.074,-18.869476
1425424043.089,-16.971695
1425424043.105,-14.437958
1425424043.12,-11.2827
1425424043.136,-7.68396
1425424043.152,-3.920517
1425424043.167,-0.27885437
1425424043.183,3.0592499
1425424043.199,6.0821075
1425424043.214,8.890884
1425424043.23,11.650665
1425424043.245,14.518372
1425424043.261,17.624893
1425424043.277,21.087189
1425424043.292,25.026688
1425424043.308,29.511536
1425424043.324,34.452835
1425424043.339,39.435287
1425424043.355,43.722992
1425424043.37,46.35292
1425424043.386,46.427795
1425424043.402,43.42891
1425424043.417,37.43318
1425424043.433,29.164413
1425424043.449,19.812714
1425424043.464,10.639313
1425424043.48,2.673935
1425424043.495,-3.5795593
1425424043.511,-8.125168
1425424043.527,-11.341629
1425424043.542,-13.67955
1425424043.558,-15.504684
1425424043.574,-16.953888
1425424043.589,-18.013458
1425424043.605,-18.61232
1425424043.62,-18.80275
1425424043.636,-18.783463
1425424043.652,-18.834091
1425424043.667,-19.192581
1425424043.683,-19.91977
1425424043.699,-20.835342
1425424043.714,-21.626389
1425424043.73,-21.98265
1425424043.746,-21.75145
1425424043.761,-20.968079
1425424043.777,-19.78923
1425424043.792,-18.404587
1425424043.808,-16.9189
1425424043.824,-15.32225
1425424043.839,-13.55954
1425424043.855,-11.556793
1425424043.87,-9.299744
1425424043.886,-6.7946167
1425424043.902,-4.0916443
1425424043.917,-1.2262268
1425424043.933,1.7113342
1425424043.949,4.5961456
1425424043.964,7.269394
1425424043.98,9.657379
1425424043.996,11.794327
1425424044.011,13.932343
1425424044.027,16.423767
1425424044.042,19.665756
1425424044.058,23.853989
1425424044.074,28.863205
1425424044.089,34.15477
1425424044.105,38.896988
1425424044.121,42.08638
1425424044.136,42.85515
1425424044.152,40.66838
1425424044.167,35.55699
1425424044.183,28.084274
1425424044.199,19.263275
1425424044.214,10.2621
1425424044.23,2.1232147
1425424044.246,-4.543396
1425424044.261,-9.56604
1425424044.277,-13.159546
1425424044.292,-15.669632
1425424044.308,-17.42189
1425424044.324,-18.514786
1425424044.339,-19.00322
1425424044.355,-18.925583
1425424044.371,-18.486313
1425424044.386,-18.021591
1425424044.402,-17.919083
1425424044.417,-18.375702
1425424044.433,-19.322067
1425424044.449,-20.4086
1425424044.464,-21.226639
1425424044.48,-21.461441
1425424044.496,-21.103241
1425424044.511,-20.350067
1425424044.527,-19.493073
1425424044.542,-18.68898
1425424044.558,-17.892197
1425424044.574,-16.8499
1425424044.589,-15.288696
1425424044.605,-12.9969635
1425424044.621,-9.984955
1425424044.636,-6.434601
1425424044.652,-2.654358
1425424044.667,1.0647278
1425424044.683,4.5061035
1425424044.699,7.636383
1425424044.714,10.525833
1425424044.73,13.328232
1425424044.746,16.19426
1425424044.761,19.280228
1425424044.777,22.70227
1425424044.792,26.61113
1425424044.808,31.05719
1425424044.824,35.930084
1425424044.839,40.73581
1425424044.855,44.6472
1425424044.871,46.622437
1425424044.886,45.78041
1425424044.902,41.770462
1425424044.917,34.977966
1425424044.933,26.40271
1425424044.949,17.35524
1425424044.964,8.975159
1425424044.98,2.0029755
1425424044.996,-3.3687286
1425424045.011,-7.3194275
1425424045.027,-10.208267
1425424045.042,-12.353119
1425424045.058,-13.99144
1425424045.074,-15.244064
1425424045.089,-16.199234
1425424045.105,-16.945572
1425424045.121,-17.652466
1425424045.136,-18.506226
1425424045.152,-19.65483
1425424045.167,-21.127365
1425424045.183,-22.806137
1425424045.199,-24.429962
1425424045.214,-25.672806
1425424045.23,-26.27069
1425424045.246,-26.111664
1425424045.261,-25.230194
1425424045.277,-23.805222
1425424045.292,-22.033508
1425424045.308,-20.084076
1425424045.324,-17.966187
1425424045.339,-15.592117
1425424045.355,-12.835785
1425424045.371,-9.604813
1425424045.386,-5.9362793
1425424045.402,-2.0210419
1425424045.417,1.8511047
1425424045.433,5.376892
1425424045.449,8.384872
1425424045.464,10.852631
1425424045.48,12.976013
1425424045.496,15.047501
1425424045.511,17.43126
1425424045.527,20.450623
1425424045.542,24.35022
1425424045.558,29.16922
1425424045.574,34.682602
1425424045.589,40.26329
1425424045.605,44.973785
1425424045.621,47.68109
1425424045.636,47.42122
1425424045.652,43.73549
1425424045.667,36.899063
1425424045.683,27.907745
1425424045.699,18.158478
1425424045.714,9.004379
1425424045.73,1.3645172
1425424045.746,-4.497116
1425424045.761,-8.841095
1425424045.777,-12.162613
1425424045.792,-14.862503
1425424045.808,-17.0663
1425424045.824,-18.654083
1425424045.839,-19.464935
1425424045.855,-19.48523
1425424045.871,-19.003708
1425424045.886,-18.453812
1425424045.902,-18.284882
1425424045.917,-18.702332
1425424045.933,-19.636612
1425424045.949,-20.797379
1425424045.964,-21.84613
1425424045.98,-22.560959
1425424045.996,-22.882309
1425424046.011,-22.846573
1425424046.027,-22.542343
1425424046.042,-21.969925
1425424046.058,-21.109787
1425424046.074,-19.885818
1425424046.089,-18.236649
1425424046.105,-16.115738
1425424046.121,-13.4982605
1425424046.136,-10.384766
1425424046.152,-6.881073
1425424046.167,-3.199646
1425424046.183,0.35313416
1425424046.199,3.5382843
1425424046.214,6.228485
1425424046.23,8.558884
1425424046.246,10.843765
1425424046.261,13.46347
1425424046.277,16.741318
1425424046.292,20.81961
1425424046.308,25.65303
1425424046.324,30.965729
1425424046.339,36.21553
1425424046.355,40.624924
1425424046.371,43.23851
1425424046.386,43.203247
1425424046.402,40.047943
1425424046.417,33.94789
1425424046.433,25.745728
1425424046.449,16.70311
1425424046.464,8.081604
1425424046.48,0.7535248
1425424046.496,-4.9809113
1425424046.511,-9.309097
1425424046.527,-12.586151
1425424046.542,-15.069885
1425424046.558,-16.811798
1425424046.574,-17.689972
1425424046.589,-17.678864
1425424046.605,-16.971115
1425424046.621,-16.021439
1425424046.636,-15.37796
1425424046.652,-15.463242
1425424046.668,-16.351242
1425424046.683,-17.79535
1425424046.699,-19.29036
1425424046.714,-20.348572
1425424046.73,-20.668503
1425424046.746,-20.271515
1425424046.761,-19.456863
1425424046.777,-18.590118
1425424046.793,-17.933273
1425424046.808,-17.48375
1425424046.824,-17.015884
1425424046.839,-16.170929
1425424046.855,-14.677826
1425424046.871,-12.487473
1425424046.886,-9.773712
1425424046.902,-6.8433685
1425424046.918,-3.934143
1425424046.933,-1.1703644
1425424046.949,1.5188904
1425424046.964,4.2625885
1425424046.98,7.2214966
1425424046.996,10.496994
1425424047.011,14.2269745
1425424047.027,18.533142
1425424047.043,23.536774
1425424047.058,29.141754
1425424047.074,34.951447
1425424047.089,40.148026
1425424047.105,43.65146
1425424047.121,44.457367
1425424047.136,42.01921
1425424047.152,36.443863
1425424047.168,28.535706
1425424047.183,19.497086
1425424047.199,10.572784
1425424047.214,2.685791
1425424047.23,-3.6882324
1425424047.246,-8.531418
1425424047.261,-12.043816
1425424047.277,-14.51683
1425424047.293,-16.156342
1425424047.308,-17.118614
1425424047.324,-17.540604
1425424047.339,-17.601868
1425424047.355,-17.51709
1425424047.371,-17.521675
1425424047.386,-17.7799
1425424047.402,-18.370842
1425424047.418,-19.206947
1425424047.433,-20.153961
1425424047.449,-20.970573
1425424047.464,-21.447044
1425424047.48,-21.412773
1425424047.496,-20.83422
1425424047.511,-19.751015
1425424047.527,-18.27385
1425424047.543,-16.46843
1425424047.558,-14.392136
1425424047.574,-11.991928
1425424047.589,-9.226662
1425424047.605,-6.075241
1425424047.621,-2.6512756
1425424047.636,0.8355179
1425424047.652,4.140938
1425424047.668,7.0710297
1425424047.683,9.568748
1425424047.699,11.735634
1425424047.714,13.793861
1425424047.73,16.011993
1425424047.746,18.649445
1425424047.761,21.922516
1425424047.777,25.902168
1425424047.793,30.476952
1425424047.808,35.22686
1425424047.824,39.424057
1425424047.839,42.107346
1425424047.855,42.338913
1425424047.871,39.521996
1425424047.886,33.683777
1425424047.902,25.49646
1425424047.918,16.18229
1425424047.933,7.06546
1425424047.949,-0.80033875
1425424047.964,-6.9342575
1425424047.98,-11.380257
1425424047.996,-14.536652
1425424048.011,-16.844788
1425424048.027,-18.58828
1425424048.043,-19.836395
1425424048.058,-20.558594
1425424048.074,-20.765205
1425424048.089,-20.607971
1425424048.105,-20.375069
1425424048.121,-20.36576
1425424048.136,-20.760338
1425424048.152,-21.557549
1425424048.168,-22.53157
1425424048.183,-23.421371
1425424048.199,-23.953865
1425424048.214,-24.013367
1425424048.23,-23.633018
1425424048.246,-22.960625
1425424048.261,-22.144562
1425424048.277,-21.265396
1425424048.293,-20.262932
1425424048.308,-18.950157
1425424048.324,-17.065147
1425424048.339,-14.431931
1425424048.355,-11.03199
1425424048.371,-7.0568085
1425424048.386,-2.8191986
1425424048.402,1.3031311
1425424048.418,5.0459366
1425424048.433,8.315773
1425424048.449,11.219666
1425424048.464,14.00428
1425424048.48,17.013191
1425424048.496,20.567863
1425424048.511,24.892075
1425424048.527,30.01957
1425424048.543,35.6882
1425424048.558,41.277817
1425424048.574,45.803078
1425424048.589,48.151802
1425424048.605,47.39473
1425424048.621,43.16269
1425424048.636,35.867775
1425424048.652,26.578613
1425424048.668,16.730171
1425424048.683,7.6275253
1425424048.699,0.11061859
1425424048.714,-5.6214523
1425424048.73,-9.861435
1425424048.746,-13.111771
1425424048.761,-15.780197
1425424048.777,-18.015923
1425424048.793,-19.727867
1425424048.808,-20.73555
1425424048.824,-20.993736
1425424048.839,-20.67205
1425424048.855,-20.146515
1425424048.871,-19.811302
1425424048.886,-19.873161
1425424048.902,-20.328117
1425424048.918,-20.954681
1425424048.933,-21.459991
1425424048.949,-21.676353
1425424048.964,-21.622025
1425424048.98,-21.449257
1425424048.996,-21.309761
1425424049.011,-21.162987
1425424049.027,-20.790642
1425424049.043,-19.872581
1425424049.058,-18.129333
1425424049.074,-15.476669
1425424049.089,-12.094963
1425424049.105,-8.329018
1425424049.121,-4.572281
1425424049.136,-1.1509857
1425424049.152,1.7874374
1425424049.168,4.302902
1425424049.183,6.5666695
1425424049.199,8.892853
1425424049.214,11.603153
1425424049.23,15.016335
1425424049.246,19.364548
1425424049.261,24.667149
1425424049.277,30.623898
1425424049.293,36.579636
1425424049.308,41.545597
1425424049.324,44.468777
1425424049.34,44.4978
1425424049.355,41.310997
1425424049.371,35.217598
1425424049.386,27.10442
1425424049.402,18.141697
1425424049.418,9.473698
1425424049.433,1.900528
1425424049.449,-4.2147026
1425424049.465,-8.9050865
1425424049.48,-12.422527
1425424049.496,-15.05183
1425424049.511,-17.000153
1425424049.527,-18.383366
1425424049.543,-19.2906
1425424049.558,-19.835445
1425424049.574,-20.177162
1425424049.59,-20.534996
1425424049.605,-21.081512
1425424049.621,-21.879246
1425424049.636,-22.844124
1425424049.652,-23.782288
1425424049.668,-24.44986
1425424049.683,-24.713627
1425424049.699,-24.537151
1425424049.715,-24.029892
1425424049.73,-23.345436
1425424049.746,-22.574673
1425424049.761,-21.662058
1425424049.777,-20.39115
1425424049.793,-18.437284
1425424049.808,-15.552607
1425424049.824,-11.70516
1425424049.84,-7.1749954
1425424049.855,-2.4605083
1425424049.871,1.8501339
1425424049.886,5.3940334
1425424049.902,8.124622
1425424049.918,10.372175
1425424049.933,12.693136
1425424049.949,15.683668
1425424049.965,19.715929
1425424049.98,24.85701
1425424049.996,30.793362
1425424050.011,36.892937
1425424050.027,42.29763
1425424050.043,46.072845
1425424050.058,47.386528
1425424050.074,45.74472
1425424050.09,41.143204
1425424050.105,34.122566
1425424050.121,25.628433
1425424050.136,16.80141
1425424050.152,8.640725
1425424050.168,1.826797
1425424050.183,-3.359241
1425424050.199,-6.9308496
1425424050.215,-9.102327
1425424050.23,-10.104134
1425424050.246,-10.161931
1425424050.261,-9.502903
1425424050.277,-8.424673
1425424050.293,-7.264724
1425424050.308,-6.388491
1425424050.324,-6.0685797
1425424050.34,-6.378721
1425424050.355,-7.172962
1425424050.371,-8.174891
1425424050.386,-9.103115
1425424050.402,-9.785257
1425424050.418,-10.219337
1425424050.433,-10.505556
1425424050.449,-10.698931
1425424050.465,-10.732279
1425424050.48,-10.361477
1425424050.496,-9.308125
1425424050.511,-7.377304
1425424050.527,-4.623576
1425424050.543,-1.3089957
1425424050.558,2.1275196
1425424050.574,5.278167
1425424050.59,7.88726
1425424050.605,9.966204
1425424050.621,11.742195
1425424050.636,13.636724
1425424050.652,16.100443
1425424050.668,19.49271
1425424050.683,23.887957
1425424050.699,28.952854
1425424050.715,33.90892
1425424050.73,37.663074
1425424050.746,39.113712
1425424050.761,37.53443
1425424050.777,32.86082
1425424050.793,25.752468
1425424050.808,17.348919
1425424050.824,8.883202
1425424050.84,1.3027062
1425424050.855,-4.9298325
1425424050.871,-9.76535
1425424050.886,-13.353798
1425424050.902,-15.847628
1425424050.918,-17.316921
1425424050.933,-17.819628
1425424050.949,-17.502857
1425424050.965,-16.72726
1425424050.98,-15.940232
1425424050.996,-15.580734
1425424051.011,-15.865213
1425424051.027,-16.745422
1425424051.043,-17.935476
1425424051.058,-19.059364
1425424051.074,-19.79834
1425424051.09,-20.014353
1425424051.105,-19.759327
1425424051.121,-19.203606
1425424051.136,-18.505081
1425424051.152,-17.709574
1425424051.168,-16.705029
1425424051.183,-15.285542
1425424051.199,-13.251355
1425424051.215,-10.583899
1425424051.23,-7.4434214
1425424051.246,-4.137493
1425424051.261,-0.963372
1425424051.277,1.9206007
1425424051.293,4.5990796
1425424051.308,7.351258
1425424051.324,10.567579
1425424051.34,14.563122
1425424051.355,19.447372
1425424051.371,25.026188
1425424051.386,30.760042
1425424051.402,35.852226
1425424051.418,39.3549
1425424051.433,40.429073
1425424051.449,38.564556
1425424051.465,33.790993
1425424051.48,26.740332
1425424051.496,18.443249
1425424051.511,10.064963
1425424051.527,2.5582938
1425424051.543,-3.5474725
1425424051.558,-8.193962
1425424051.574,-11.648264
1425424051.59,-14.311905
1425424051.605,-16.460001
1425424051.621,-18.173761
1425424051.636,-19.358032
1425424051.652,-19.887997
1425424051.668,-19.727482
1425424051.683,-19.041027
1425424051.699,-18.14482
1425424051.715,-17.35087
1425424051.73,-16.852322
1425424051.746,-16.61871
1425424051.761,-16.466711
1425424051.777,-16.197847
1425424051.793,-15.721064
1425424051.808,-15.10704
1425424051.824,-14.492162
1425424051.84,-13.927285
1425424051.855,-13.227026
1425424051.871,-12.064518
1425424051.886,-10.04223
1425424051.902,-7.011653
1425424051.918,-3.1313334
1425424051.933,1.1242619
1425424051.949,5.156904
1425424051.965,8.483096
1425424051.98,10.953703
1425424051.996,12.797538
1425424052.012,14.527996
1425424052.027,16.74715
1425424052.043,19.960663
1425424052.058,24.414007
1425424052.074,29.951752
1425424052.09,35.960537
1425424052.105,41.424416
1425424052.121,45.102745
1425424052.137,45.914387
1425424052.152,43.26925
1425424052.168,37.368122
1425424052.183,29.159885
1425424052.199,20.061752
1425424052.215,11.469177
1425424052.23,4.3574796
1425424052.246,-0.93700457
1425424052.262,-4.6181965
1425424052.277,-7.1709886
1425424052.293,-9.033756
1425424052.308,-10.464369
1425424052.324,-11.541497
1425424052.34,-12.279678
1425424052.355,-12.738017
1425424052.371,-13.1112585
1425424052.387,-13.611123
1425424052.402,-14.388849
1425424052.418,-15.41589
1425424052.433,-16.492207
1425424052.449,-17.311764
1425424052.465,-17.633465
1425424052.48,-17.417133
1425424052.496,-16.86973
1425424052.512,-16.29723
1425424052.527,-15.958679
1425424052.543,-15.857822
1425424052.558,-15.708522
1425424052.574,-15.037082
1425424052.59,-13.425342
1425424052.605,-10.734652
1425424052.621,-7.235572
1425424052.637,-3.4650583
1425424052.652,-0.03775215
1425424052.668,2.6731195
1425424052.683,4.6782265
1425424052.699,6.3494377
1425424052.715,8.260137
1425424052.73,10.928598
1425424052.746,14.64034
1425424052.762,19.374866
1425424052.777,24.762856
1425424052.793,30.171207
1425424052.808,34.75963
1425424052.824,37.62847
1425424052.84,37.961002
1425424052.855,35.3089
1425424052.871,29.75766
1425424052.887,22.01749
1425424052.902,13.211195
1425424052.918,4.5818863
1425424052.933,-2.9115086
1425424052.949,-8.806988
1425424052.965,-13.190184
1425424052.98,-16.45733
1425424052.996,-19.03426
1425424053.012,-21.16028
1425424053.027,-22.843569
1425424053.043,-23.948494
1425424053.058,-24.41674
1425424053.074,-24.383549
1425424053.09,-24.183426
1425424053.105,-24.166609
1425424053.121,-24.52426
1425424053.137,-25.118536
1425424053.152,-25.582527
1425424053.168,-25.481218
1425424053.183,-24.562475
1425424053.199,-22.938942
1425424053.215,-21.004082
1425424053.23,-19.223562
1425424053.246,-17.8393
1425424053.262,-16.729708
1425424053.277,-15.520073
1425424053.293,-13.766247
1425424053.308,-11.231922
1425424053.324,-8.030733
1425424053.34,-4.5500984
1425424053.355,-1.2320137
1425424053.371,1.6272373
1425424053.387,4.022253
1425424053.402,6.2462826
1425424053.418,8.700314
1425424053.433,11.743256
1425424053.449,15.56632
1425424053.465,20.107367
1425424053.48,25.083061
1425424053.496,29.96301
1425424053.512,34.043903
1425424053.527,36.46308
1425424053.543,36.454693
1425424053.558,33.52601
1425424053.574,27.744291
1425424053.59,19.773176
1425424053.605,10.738583
1425424053.621,1.8865681
1425424053.637,-5.746601
1425424053.652,-11.649912
1425424053.668,-15.7867775
1425424053.683,-18.433884
1425424053.699,-19.93166
1425424053.715,-20.501907
1425424053.73,-20.252386
1425424053.746,-19.297432
1425424053.762,-17.885733
1425424053.777,-16.402485
1425424053.793,-15.25756
1425424053.808,-14.726342
1425424053.824,-14.832039
1425424053.84,-15.390503
1425424053.855,-16.075603
1425424053.871,-16.632828
1425424053.887,-16.950813
1425424053.902,-17.040295
1425424053.918,-16.967323
1425424053.933,-16.73925
1425424053.949,-16.208666
1425424053.965,-15.124812
1425424053.98,-13.232087
1425424053.996,-10.457487
1425424054.012,-6.9540243
1425424054.027,-3.108418
1425424054.043,0.6270156
1425424054.058,3.9240813
1425424054.074,6.707342
1425424054.09,9.183397
1425424054.105,11.786797
1425424054.121,14.980484
1425424054.137,19.079971
1425424054.152,24.02493
1425424054.168,29.33337
1425424054.183,34.1329
1425424054.199,37.36657
1425424054.215,38.10321
1425424054.23,35.82292
1425424054.246,30.627434
1425424054.262,23.198294
1425424054.277,14.607657
1425424054.293,5.9923906
1425424054.308,-1.7037287
1425424054.324,-7.9588075
1425424054.34,-12.643839
1425424054.355,-15.901264
1425424054.371,-17.9791
1425424054.387,-19.135485
1425424054.402,-19.553394
1425424054.418,-19.344093
1425424054.433,-18.642202
1425424054.449,-17.602364
1425424054.465,-16.443129
1425424054.48,-15.367319
1425424054.496,-14.5405445
1425424054.512,-14.018961
1425424054.527,-13.743088
1425424054.543,-13.609178
1425424054.558,-13.500812
1425424054.574,-13.310285
1425424054.59,-12.972428
1425424054.605,-12.382959
1425424054.621,-11.408218
1425424054.637,-9.912619
1425424054.652,-7.79405
1425424054.668,-5.0481987
1425424054.684,-1.8062363
1425424054.699,1.7129612
1425424054.715,5.254837
1425424054.73,8.654249
1425424054.746,11.865831
1425424054.762,15.001209
1425424054.777,18.28951
1425424054.793,21.985687
1425424054.808,26.17767
1425424054.824,30.667198
1425424054.84,34.854023
1425424054.855,37.8266
1425424054.871,38.610462
1425424054.887,36.513733
1425424054.902,31.409132
1425424054.918,23.86464
1425424054.934,14.948013
1425424054.949,5.9182243
1425424054.965,-2.1915512
1425424054.98,-8.797289
1425424054.996,-13.773195
1425424055.012,-17.314034
1425424055.027,-19.692768
1425424055.043,-21.118908
1425424055.059,-21.741753
1425424055.074,-21.636887
1425424055.09,-20.973675
1425424055.105,-20.004288
1425424055.121,-18.999958
1425424055.137,-18.19889
1425424055.152,-17.72992
1425424055.168,-17.549442
1425424055.184,-17.539215
1425424055.199,-17.531406
1425424055.215,-17.4707
1425424055.23,-17.36293
1425424055.246,-17.232899
1425424055.262,-17.021828
1425424055.277,-16.56137
1425424055.293,-15.536442
1425424055.309,-13.67416
1425424055.324,-10.854034
1425424055.34,-7.2091103
1425424055.355,-3.109352
1425424055.371,1.0006027
1425424055.387,4.790344
1425424055.402,8.157551
1425424055.418,11.304077
1425424055.434,14.565365
1425424055.449,18.315895
1425424055.465,22.739937
1425424055.48,27.721634
1425424055.496,32.795246
1425424055.512,37.2129
1425424055.527,40.09733
1425424055.543,40.66027
1425424055.559,38.435642
1425424055.574,33.42927
1425424055.59,26.15374
1425424055.605,17.518665
1425424055.621,8.633007
1425424055.637,0.5086441
1425424055.652,-6.1456947
1425424055.668,-11.067749
1425424055.684,-14.440559
1425424055.699,-16.666328
1425424055.715,-18.190704
1425424055.73,-19.299377
1425424055.746,-20.085815
1425424055.762,-20.46392
1425424055.777,-20.418327
1425424055.793,-20.039307
1425424055.809,-19.565285
1425424055.824,-19.236412
1425424055.84,-19.172012
1425424055.855,-19.261436
1425424055.871,-19.272285
1425424055.887,-19.012848
1425424055.902,-18.49208
1425424055.918,-17.894485
1425424055.934,-17.43518
1425424055.949,-17.15792
1425424055.965,-16.828888
1425424055.98,-15.994904
1425424055.996,-14.25634
1425424056.012,-11.43029
1425424056.027,-7.713875
1425424056.043,-3.545639
1425424056.059,0.54138184
1425424056.074,4.183693
1425424056.09,7.2664795
1425424056.105,9.979019
1425424056.121,12.629555
1425424056.137,15.561058
1425424056.152,19.029175
1425424056.168,23.15213
1425424056.184,27.851646
1425424056.199,32.809105
1425424056.215,37.406853
1425424056.23,40.820824
1425424056.246,42.163292
1425424056.262,40.739235
1425424056.277,36.311905
1425424056.293,29.240677
1425424056.309,20.431038
1425424056.324,11.10228
1425424056.34,2.4100494
1425424056.355,-4.835861
1425424056.371,-10.353073
1425424056.387,-14.286736
1425424056.402,-17.03263
1425424056.418,-18.960373
1425424056.434,-20.305817
1425424056.449,-21.15023
1425424056.465,-21.550896
1425424056.48,-21.600952
1425424056.496,-21.46685
1425424056.512,-21.314201
1425424056.527,-21.255096
1425424056.543,-21.21798
1425424056.559,-21.035805
1425424056.574,-20.526642
1425424056.59,-19.63977
1425424056.605,-18.48204
1425424056.621,-17.31298
1425424056.637,-16.377625
1425424056.652,-15.810997
1425424056.668,-15.489494
1425424056.684,-15.101494
1425424056.699,-14.212753
1425424056.715,-12.472343
1425424056.73,-9.745445
1425424056.746,-6.19886
1425424056.762,-2.2086716
1425424056.777,1.7548676
1425424056.793,5.365555
1425424056.809,8.5142975
1425424056.824,11.371613
1425424056.84,14.205185
1425424056.855,17.348434
1425424056.871,21.023773
1425424056.887,25.337753
1425424056.902,30.135834
1425424056.918,34.99675
1425424056.934,39.210342
1425424056.949,41.871765
1425424056.965,42.12439
1425424056.98,39.418716
1425424056.996,33.782043
1425424057.012,25.843964
1425424057.027,16.657211
1425424057.043,7.41864
1425424057.059,-0.8721924
1425424057.074,-7.6181335
1425424057.09,-12.625275
1425424057.105,-15.986771
1425424057.121,-17.954544
1425424057.137,-18.801071
1425424057.152,-18.820068
1425424057.168,-18.297073
1425424057.184,-17.52655
1425424057.199,-16.770111
1425424057.215,-16.248062
1425424057.23,-16.060272
1425424057.246,-16.192215
1425424057.262,-16.49562
1425424057.277,-16.775787
1425424057.293,-16.826416
1425424057.309,-16.556564
1425424057.324,-15.960281
1425424057.34,-15.134033
1425424057.355,-14.188919
1425424057.371,-13.16983
1425424057.387,-11.980133
1425424057.402,-10.42424
1425424057.418,-8.244598
1425424057.434,-5.2922974
1425424057.449,-1.6643677
1425424057.465,2.2781677
1425424057.48,5.998169
1425424057.496,9.025055
1425424057.512,11.18457
1425424057.527,12.718704
1425424057.543,14.206451
1425424057.559,16.315872
1425424057.574,19.4879
1425424057.59,23.753891
1425424057.606,28.653656
1425424057.621,33.379105
1425424057.637,36.927124
1425424057.652,38.390854
1425424057.668,37.19426
1425424057.684,33.217743
1425424057.699,26.890366
1425424057.715,19.071
1425424057.731,10.785797
1425424057.746,2.9826508
1425424057.762,-3.6970367
1425424057.777,-8.962189
1425424057.793,-12.756378
1425424057.809,-15.134842
1425424057.824,-16.146729
1425424057.84,-15.905655
1425424057.856,-14.647522
1425424057.871,-12.793076
1425424057.887,-10.851822
1425424057.902,-9.292267
1425424057.918,-8.361511
1425424057.934,-8.067215
1425424057.949,-8.248413
1425424057.965,-8.702332
1425424057.981,-9.302277
1425424057.996,-10.027863
1425424058.012,-10.865936
1425424058.027,-11.759018
1425424058.043,-12.490189
1425424058.059,-12.758163
1425424058.074,-12.242523
1425424058.09,-10.726913
1425424058.106,-8.181137
1425424058.121,-4.7919006
1425424058.137,-0.89105225
1425424058.152,3.0884094
1425424058.168,6.818115
1425424058.184,10.10672
1425424058.199,12.974716
1425424058.215,15.587799
1425424058.231,18.187103
1425424058.246,21.02275
1425424058.262,24.234497
1425424058.277,27.801117
1425424058.293,31.50351
1425424058.309,34.836197
1425424058.324,37.049393
1425424058.34,37.288574
1425424058.356,34.882355
1425424058.371,29.612793
1425424058.387,21.937073
1425424058.402,12.872009
1425424058.418,3.7412415
1425424058.434,-4.2824097
1425424058.449,-10.509125
1425424058.465,-14.814346
1425424058.481,-17.485428
1425424058.496,-18.957458
1425424058.512,-19.565186
1425424058.527,-19.515488
1425424058.543,-18.930725
1425424058.559,-18.003906
1425424058.574,-16.989288
1425424058.59,-16.183151
1425424058.606,-15.752258
1425424058.621,-15.712921
1425424058.637,-15.856705
1425424058.652,-15.897903
1425424058.668,-15.549316
1425424058.684,-14.737732
1425424058.699,-13.549286
1425424058.715,-12.264343
1425424058.731,-11.156662
1425424058.746,-10.328659
1425424058.762,-9.616791
1425424058.777,-8.665985
1425424058.793,-7.0797424
1425424058.809,-4.633194
1425424058.824,-1.4102936
1425424058.84,2.2104187
1425424058.856,5.732193
1425424058.871,8.732315
1425424058.887,11.057312
1425424058.902,12.817215
1425424058.918,14.360107
1425424058.934,16.10147
1425424058.949,18.467102
1425424058.965,21.721588
1425424058.981,25.874527
1425424058.996,30.532516
1425424059.012,34.932312
1425424059.027,38.045395
1425424059.043,38.875565
1425424059.059,36.81491
1425424059.074,31.871399
1425424059.09,24.660187
1425424059.106,16.235367
1425424059.121,7.7304688
1425424059.137,0.06794739
1425424059.152,-6.232132
1425424059.168,-11.000778
1425424059.184,-14.329254
1425424059.199,-16.366058
1425424059.215,-17.276138
1425424059.231,-17.193832
1425424059.246,-16.302094
1425424059.262,-14.852386
1425424059.277,-13.197708
1425424059.293,-11.700607
1425424059.309,-10.69397
1425424059.324,-10.340042
1425424059.34,-10.574005
1425424059.356,-11.122009
1425424059.371,-11.629852
1425424059.387,-11.802582
1425424059.402,-11.564087
1425424059.418,-11.034454
1425424059.434,-10.471436
1425424059.449,-10.049545
1425424059.465,-9.749985
1425424059.481,-9.315414
1425424059.496,-8.425156
1425424059.512,-6.820633
1425424059.527,-4.498001
1425424059.543,-1.7092133
1425424059.559,1.0884094
1425424059.574,3.5218506
1425424059.59,5.415146
1425424059.606,6.9273376
1425424059.621,8.466156
1425424059.637,10.518707
1425424059.652,13.443161
1425424059.668,17.348389
1425424059.684,22.062363
1425424059.699,27.131104
1425424059.715,31.91951
1425424059.731,35.675568
1425424059.746,37.615906
1425424059.762,37.09308
1425424059.777,33.733673
1425424059.793,27.681534
1425424059.809,19.612808
1425424059.824,10.5924225
1425424059.84,1.7972412
1425424059.856,-5.8193817
1425424059.871,-11.75087
1425424059.887,-15.947189
1425424059.902,-18.64769
1425424059.918,-20.154861
1425424059.934,-20.71283
1425424059.949,-20.47754
1425424059.965,-19.61496
1425424059.981,-18.372116
1425424059.996,-17.092773
1425424060.012,-16.121231
1425424060.027,-15.709244
1425424060.043,-15.900772
1425424060.059,-16.552017
1425424060.074,-17.334686
1425424060.09,-17.868118
1425424060.106,-17.852066
1425424060.121,-17.157913
1425424060.137,-15.861786
1425424060.152,-14.201294
1425424060.168,-12.420105
1425424060.184,-10.649765
1425424060.199,-8.821472
1425424060.215,-6.783432
1425424060.231,-4.349945
1425424060.246,-1.5088806
1425424060.262,1.585846
1425424060.278,4.6195374
1425424060.293,7.322357
1425424060.309,9.505463
1425424060.324,11.204605
1425424060.34,12.638336
1425424060.356,14.1059265
1425424060.371,15.924973
1425424060.387,18.323853
1425424060.403,21.422043
1425424060.418,25.177399
1425424060.434,29.30397
1425424060.449,33.275482
1425424060.465,36.350357
1425424060.481,37.732132
1425424060.496,36.769913
1425424060.512,33.26042
1425424060.528,27.499054
1425424060.543,20.287537
1425424060.559,12.663879
1425424060.574,5.5872345
1425424060.59,-0.29859924
1425424060.606,-4.743454
1425424060.621,-7.799469
1425424060.637,-9.629242
1425424060.653,-10.414093
1425424060.668,-10.313721
1425424060.684,-9.579666
1425424060.699,-8.59346
1425424060.715,-7.8571014
1425424060.731,-7.824646
1425424060.746,-8.746613
1425424060.762,-10.5155945
1425424060.778,-12.748367
1425424060.793,-14.91098
1425424060.809,-16.56369
1425424060.824,-17.509705
1425424060.84,-17.868393
1425424060.856,-17.878815
1425424060.871,-17.778275
1425424060.887,-17.585037
1425424060.903,-17.083328
1425424060.918,-15.896866
1425424060.934,-13.707275
1425424060.949,-10.428925
1425424060.965,-6.29924
1425424060.981,-1.7822876
1425424060.996,2.5468903
1425424061.012,6.280533
1425424061.028,9.279404
1425424061.043,11.699234
1425424061.059,13.909561
1425424061.074,16.363785
1425424061.09,19.440903
1425424061.106,23.382187
1425424061.121,28.107132
1425424061.137,33.18741
1425424061.153,37.818832
1425424061.168,41.04402
1425424061.184,41.97461
1425424061.199,40.08528
1425424061.215,35.413193
1425424061.231,28.576706
1425424061.246,20.531708
1425424061.262,12.33844
1425424061.278,4.846527
1425424061.293,-1.4559937
1425424061.309,-6.4392395
1425424061.324,-10.185364
1425424061.34,-12.841476
1425424061.356,-14.526947
1425424061.371,-15.34021
1425424061.387,-15.380173
1425424061.403,-14.870163
1425424061.418,-14.127502
1425424061.434,-13.534958
1425424061.449,-13.439163
1425424061.465,-14.000305
1425424061.481,-15.1345825
1425424061.496,-16.561157
1425424061.512,-17.890045
1425424061.528,-18.823425
1425424061.543,-19.24379
1425424061.559,-19.225983
1425424061.574,-18.955032
1425424061.59,-18.550583
1425424061.606,-17.968567
1425424061.621,-16.98384
1425424061.637,-15.297806
1425424061.653,-12.710709
1425424061.668,-9.231964
1425424061.684,-5.1701813
1425424061.699,-1.0196228
1425424061.715,2.7112885
1425424061.731,5.7371674
1425424061.746,8.094208
1425424061.762,10.184448
1425424061.778,12.602768
1425424061.793,15.899628
1425424061.809,20.342499
1425424061.824,25.81865
1425424061.84,31.804626
1425424061.856,37.512527
1425424061.871,41.97249
1425424061.887,44.293945
1425424061.903,43.80304
1425424061.918,40.249954
1425424061.934,33.909286
1425424061.949,25.571014
1425424061.965,16.40384
1425424061.981,7.62294
1425424061.996,0.16505432
1425424062.012,-5.4896545
1425424062.028,-9.400269
1425424062.043,-11.952118
1425424062.059,-13.64389
1425424062.074,-14.875153
1425424062.09,-15.8676605
1425424062.106,-16.70047
1425424062.121,-17.421997
1425424062.137,-18.089798
1425424062.153,-18.763733
1425424062.168,-19.508469
1425424062.184,-20.304565
1425424062.199,-21.048538
1425424062.215,-21.605713
1425424062.231,-21.87851
1425424062.246,-21.8311
1425424062.262,-21.556885
1425424062.278,-21.198807
1425424062.293,-20.856857
1425424062.309,-20.524963
1425424062.324,-19.99675
1425424062.34,-18.980133
1425424062.356,-17.172012
1425424062.371,-14.441391
1425424062.387,-10.903534
1425424062.403,-6.9153137
1425424062.418,-2.9466934
1425424062.434,0.6178131
1425424062.449,3.582161
1425424062.465,6.010437
1425424062.481,8.194473
1425424062.496,10.519234
1425424062.512,13.3358
1425424062.528,16.873001
1425424062.543,21.174522
1425424062.559,26.013794
1425424062.574,30.898643
1425424062.59,35.050568
1425424062.606,37.648186
1425424062.621,37.890358
1425424062.637,35.298874
1425424062.653,29.891129
1425424062.668,22.260208
1425424062.684,13.43943
1425424062.699,4.650818
1425424062.715,-3.013977
1425424062.731,-8.897308
1425424062.746,-12.863998
1425424062.762,-15.214233
1425424062.778,-16.429749
1425424062.793,-16.94748
1425424062.809,-17.035881
1425424062.824,-16.7947
1425424062.84,-16.30001
1425424062.856,-15.704895
1425424062.871,-15.248276
1425424062.887,-15.192123
1425424062.903,-15.636879
1425424062.918,-16.498756
1425424062.934,-17.499031
1425424062.95,-18.294205
1425424062.965,-18.646332
1425424062.981,-18.453888
1425424062.996,-17.810814
1425424063.012,-16.91745
1425424063.028,-16.021538
1425424063.043,-15.253319
1425424063.059,-14.607529
1425424063.075,-13.851631
1425424063.09,-12.666016
1425424063.106,-10.725952
1425424063.121,-7.892708
1425424063.137,-4.2956085
1425424063.153,-0.35092926
1425424063.168,3.4491806
1425424063.184,6.689842
1425424063.2,9.200722
1425424063.215,11.108757
1425424063.231,12.763359
1425424063.246,14.574051
1425424063.262,16.893944
1425424063.278,19.919601
1425424063.293,23.612282
1425424063.309,27.677666
1425424063.325,31.560936
1425424063.34,34.492752
1425424063.356,35.641663
1425424063.371,34.412445
1425424063.387,30.606133
1425424063.403,24.530212
1425424063.418,16.941025
1425424063.434,8.817108
1425424063.45,1.1109467
1425424063.465,-5.460964
1425424063.481,-10.517288
1425424063.496,-13.99931
1425424063.512,-16.09306
1425424063.528,-17.150326
1425424063.543,-17.530308
1425424063.559,-17.571198
1425424063.575,-17.508625
1425424063.59,-17.470947
1425424063.606,-17.470905
1425424063.621,-17.50322
1425424063.637,-17.547707
1425424063.653,-17.640667
1425424063.668,-17.794376
1425424063.684,-18.003372
1425424063.7,-18.19027
1425424063.715,-18.269356
1425424063.731,-18.156853
1425424063.746,-17.852535
1425424063.762,-17.429413
1425424063.778,-16.946499
1425424063.793,-16.376137
1425424063.809,-15.569416
1425424063.825,-14.293804
1425424063.84,-12.34304
1425424063.856,-9.678341
1425424063.871,-6.488968
1425424063.887,-3.1228867
1425424063.903,0.05274582
1425424063.918,2.7962227
1425424063.934,5.073574
1425424063.95,7.0581284
1425424063.965,9.047932
1425424063.981,11.348541
1425424063.996,14.193634
1425424064.012,17.70539
1425424064.028,21.815903
1425424064.043,26.256985
1425424064.059,30.492058
1425424064.075,33.78086
1425424064.09,35.293175
1425424064.106,34.32975
1425424064.121,30.617786
1425424064.137,24.444485
1425424064.153,16.648693
1425424064.168,8.429028
1425424064.184,0.9483032
1425424064.2,-4.954241
1425424064.215,-8.978506
1425424064.231,-11.253664
1425424064.246,-12.186491
1425424064.262,-12.182608
1425424064.278,-11.545881
1425424064.293,-10.462503
1425424064.309,-9.16301
1425424064.325,-7.9457493
1425424064.34,-7.2049465
1425424064.356,-7.246361
1425424064.371,-8.161676
1425424064.387,-9.745007
1425424064.403,-11.590233
1425424064.418,-13.212622
1425424064.434,-14.294291
1425424064.45,-14.761364
1425424064.465,-14.817669
1425424064.481,-14.756319
1425424064.496,-14.832064
1425424064.512,-15.056019
1425424064.528,-15.217787
1425424064.543,-14.915327
1425424064.559,-13.802092
1425424064.575,-11.73945
1425424064.59,-8.875531
1425424064.606,-5.5525427
1425424064.621,-2.187271
1425424064.637,0.94550896
1425424064.653,3.8012705
1425424064.668,6.5685472
1425424064.684,9.516794
1425424064.7,12.892837
1425424064.715,16.81909
1425424064.731,21.285315
1425424064.746,26.119917
1425424064.762,31.010578
1425424064.778,35.40156
1425424064.793,38.59783
1425424064.809,39.83661
1425424064.825,38.547012
1425424064.84,34.56597
1425424064.856,28.287632
1425424064.871,20.571283
1425424064.887,12.525521
1425424064.903,5.1218185
1425424064.918,-1.0324712
1425424064.934,-5.7791204
1425424064.95,-9.299186
1425424064.965,-11.903219
1425424064.981,-13.803428
1425424064.996,-15.109697
1425424065.012,-15.819887
1425424065.028,-16.024292
1425424065.043,-15.934482
1425424065.059,-15.910992
1425424065.075,-16.336443
1425424065.09,-17.423695
1425424065.106,-19.080046
1425424065.121,-20.945938
1425424065.137,-22.470356
1425424065.153,-23.190914
1425424065.168,-22.883356
1425424065.184,-21.670021
1425424065.2,-19.94322
1425424065.215,-18.139858
1425424065.231,-16.512192
1425424065.246,-15.00931
1425424065.262,-13.292173
1425424065.278,-10.967039
1425424065.293,-7.7843685
1425424065.309,-3.8519993
1425424065.325,0.45373154
1425424065.34,4.6120186
1425424065.356,8.216677
1425424065.371,11.128204
1425424065.387,13.475765
1425424065.403,15.572332
1425424065.418,17.760412
1425424065.434,20.31446
1425424065.45,23.411427
1425424065.465,27.062359
1425424065.481,31.13033
1425424065.496,35.225605
1425424065.512,38.685642
1425424065.528,40.631924
1425424065.543,40.251835
1425424065.559,37.053894
1425424065.575,31.132233
1425424065.59,23.163662
1425424065.606,14.262875
1425424065.622,5.6063576
1425424065.637,-1.8945847
1425424065.653,-7.775093
1425424065.668,-12.040909
1425424065.684,-14.9972725
1425424065.7,-17.019745
1425424065.715,-18.43417
1425424065.731,-19.403973
1425424065.746,-19.993938
1425424065.762,-20.22295
1425424065.778,-20.167732
1425424065.793,-19.982037
1425424065.809,-19.88158
1425424065.825,-20.076797
1425424065.84,-20.697525
1425424065.856,-21.675114
1425424065.872,-22.805794
1425424065.887,-23.803905
1425424065.903,-24.42424
1425424065.918,-24.601856
1425424065.934,-24.42429
1425424065.95,-24.06792
1425424065.965,-23.624939
1425424065.981,-23.01715
1425424065.997,-22.019363
1425424066.012,-20.372124
1425424066.028,-17.97548
1425424066.043,-14.931633
1425424066.059,-11.500397
1425424066.075,-7.9774704
1425424066.09,-4.5635757
1425424066.106,-1.3451385
1425424066.122,1.6458588
1425424066.137,4.4039993
1425424066.153,6.9448166
1425424066.168,9.316292
1425424066.184,11.730896
1425424066.2,14.56218
1425424066.215,18.212662
1425424066.231,22.939476
1425424066.247,28.577065
1425424066.262,34.493248
1425424066.278,39.60488
1425424066.293,42.663574
1425424066.309,42.67948
1425424066.325,39.278664
1425424066.34,32.867058
1425424066.356,24.541237
1425424066.372,15.685471
1425424066.387,7.544342
1425424066.403,0.83771515
1425424066.418,-4.3248444
1425424066.434,-8.277306
1425424066.45,-11.482285
1425424066.465,-14.245781
1425424066.481,-16.612938
1425424066.497,-18.464714
1425424066.512,-19.69468
1425424066.528,-20.3768
1425424066.543,-20.715034
1425424066.559,-20.992935
1425424066.575,-21.415512
1425424066.59,-22.020592
1425424066.606,-22.680916
1425424066.622,-23.221947
1425424066.637,-23.540504
1425424066.653,-23.633217
1425424066.668,-23.604881
1425424066.684,-23.543625
1425424066.7,-23.407898
1425424066.715,-23.077293
1425424066.731,-22.323273
1425424066.747,-21.064445
1425424066.762,-19.350342
1425424066.778,-17.38047
1425424066.793,-15.391838
1425424066.809,-13.538475
1425424066.825,-11.7692795
1425424066.84,-9.905632
1425424066.856,-7.7112656
1425424066.872,-5.059349
1425424066.887,-1.9648972
1425424066.903,1.3827972
1425424066.918,4.7360153
1425424066.934,7.9157944
1425424066.95,10.888336
1425424066.965,13.841217
1425424066.981,17.095985
1425424066.997,21.004425
1425424067.012,25.738777
1425424067.028,31.053177
1425424067.043,36.28839
1425424067.059,40.432686
1425424067.075,42.46408
1425424067.09,41.662132
1425424067.106,37.893448
1425424067.122,31.591064
1425424067.137,23.619057
1425424067.153,14.993233
1425424067.168,6.6369324
1425424067.184,-0.7799301
1425424067.2,-6.854553
1425424067.215,-11.460754
1425424067.231,-14.677315
1425424067.247,-16.75019
1425424067.262,-18.015846
1425424067.278,-18.772942
1425424067.293,-19.260635
1425424067.309,-19.604881
1425424067.325,-19.85778
1425424067.34,-20.089706
1425424067.356,-20.388504
1425424067.372,-20.861267
1425424067.387,-21.554771
1425424067.403,-22.389595
1425424067.418,-23.159431
1425424067.434,-23.59732
1425424067.45,-23.449486
1425424067.465,-22.610733
1425424067.481,-21.090363
1425424067.497,-19.070068
1425424067.512,-16.791916
1425424067.528,-14.466629
1425424067.543,-12.217804
1425424067.559,-10.027847
1425424067.575,-7.7682343
1425424067.59,-5.2791367
1425424067.606,-2.4619598
1425424067.622,0.6181946
1425424067.637,3.7412949
1425424067.653,6.614395
1425424067.668,9.02404
1425424067.684,10.956985
1425424067.7,12.624077
1425424067.715,14.350342
1425424067.731,16.460716
1425424067.747,19.13337
1425424067.762,22.400475
1425424067.778,26.14116
1425424067.793,30.0448
1425424067.809,33.60697
1425424067.825,36.14823
1425424067.84,36.87841
1425424067.856,35.17434
1425424067.872,30.847305
1425424067.887,24.270828
1425424067.903,16.339874
1425424067.918,8.210617
1425424067.934,0.88835144
1425424067.95,-5.0442734
1425424067.965,-9.532631
1425424067.981,-12.828003
1425424067.997,-15.276722
1425424068.012,-17.062145
1425424068.028,-18.198952
1425424068.043,-18.58812
1425424068.059,-18.235455
1425424068.075,-17.351044
1425424068.09,-16.356888
1425424068.106,-15.719429
1425424068.122,-15.80978
1425424068.137,-16.672436
1425424068.153,-18.072598
1425424068.168,-19.55149
1425424068.184,-20.64835
1425424068.2,-21.028526
1425424068.215,-20.622543
1425424068.231,-19.531559
1425424068.247,-17.99228
1425424068.262,-16.197865
1425424068.278,-14.239235
1425424068.293,-12.128002
1425424068.309,-9.803226
1425424068.325,-7.2116394
1425424068.34,-4.372032
1425424068.356,-1.3409309
1425424068.372,1.7195206
1425424068.387,4.6302834
1425424068.403,7.1868477
1425424068.418,9.249065
1425424068.434,10.816429
1425424068.45,12.086056
1425424068.465,13.396877
1425424068.481,15.184441
1425424068.497,17.81646
1425424068.512,21.508701
1425424068.528,26.16711
1425424068.544,31.354725
1425424068.559,36.286907
1425424068.575,39.960323
1425424068.59,41.338562
1425424068.606,39.715206
1425424068.622,34.91193
1425424068.637,27.476624
1425424068.653,18.498802
1425424068.669,9.356697
1425424068.684,1.2390671
1425424068.7,-5.1087456
1425424068.715,-9.542248
1425424068.731,-12.3941
1425424068.747,-14.180992
1425424068.762,-15.376492
1425424068.778,-16.218773
1425424068.794,-16.758652
1425424068.809,-16.97583
1425424068.825,-16.878738
1425424068.84,-16.621696
1425424068.856,-16.457882
1425424068.872,-16.642628
1425424068.887,-17.284023
1425424068.903,-18.294342
1425424068.919,-19.40517
1425424068.934,-20.294147
1425424068.95,-20.713615
1425424068.965,-20.613102
1425424068.981,-20.06298
1425424068.997,-19.212269
1425424069.012,-18.166039
1425424069.028,-16.952408
1425424069.044,-15.548693
1425424069.059,-13.936043
1425424069.075,-12.097458
1425424069.09,-10.031569
1425424069.106,-7.71875
1425424069.122,-5.157242
1425424069.137,-2.3474827
1425424069.153,0.60927963
1425424069.169,3.5776653
1425424069.184,6.372694
1425424069.2,8.9025955
1425424069.215,11.210955
1425424069.231,13.485912
1425424069.247,15.946474
1425424069.262,18.848755
1425424069.278,22.332935
1425424069.294,26.45465
1425424069.309,31.061867
1425424069.325,35.767925
1425424069.34,39.89753
1425424069.356,42.56575
1425424069.372,42.874245
1425424069.387,40.279465
1425424069.403,34.83068
1425424069.419,27.255579
1425424069.434,18.706978
1425424069.45,10.417183
1425424069.465,3.2418995
1425424069.481,-2.4924545
1425424069.497,-6.9327602
1425424069.512,-10.411221
1425424069.528,-13.206827
1425424069.544,-15.407288
1425424069.559,-16.997864
1425424069.575,-17.989254
1425424069.59,-18.533146
1425424069.606,-18.880013
1425424069.622,-19.313278
1425424069.637,-19.971964
1425424069.653,-20.809238
1425424069.669,-21.637272
1425424069.684,-22.26558
1425424069.7,-22.549145
1425424069.715,-22.457638
1425424069.731,-22.012491
1425424069.747,-21.276138
1425424069.762,-20.252438
1425424069.778,-18.939297
1425424069.794,-17.29078
1425424069.809,-15.308229
1425424069.825,-12.993397
1425424069.84,-10.412063
1425424069.856,-7.6304636
1425424069.872,-4.736935
1425424069.887,-1.8264775
1425424069.903,0.96661663
1425424069.919,3.5265331
1425424069.934,5.756333
1425424069.95,7.664625
1425424069.965,9.340985
1425424069.981,10.990675
1425424069.997,12.859241
1425424070.012,15.187411
1425424070.028,18.15773
1425424070.044,21.865978
1425424070.059,26.244303
1425424070.075,30.987635
1425424070.09,35.4882
1425424070.106,38.91244
1425424070.122,40.33969
1425424070.137,39.076435
1425424070.153,34.8603
1425424070.169,28.111578
1425424070.184,19.775967
1425424070.2,11.074172
1425424070.215,3.1285157
1425424070.231,-3.3378434
1425424070.247,-8.152453
1425424070.262,-11.52786
1425424070.278,-13.859337
1425424070.294,-15.509918
1425424070.309,-16.66577
1425424070.325,-17.330038
1425424070.34,-17.466105
1425424070.356,-17.086302
1425424070.372,-16.355415
1425424070.387,-15.528296
1425424070.403,-14.9125595
1425424070.419,-14.696705
1425424070.434,-14.92363
1425424070.45,-15.43693
1425424070.465,-16.00134
1425424070.481,-16.359367
1425424070.497,-16.363209
1425424070.512,-15.977316
1425424070.528,-15.269642
1425424070.544,-14.307001
1425424070.559,-13.127595
1425424070.575,-11.687848
1425424070.59,-9.915968
1425424070.606,-7.7224703
1425424070.622,-5.1164417
1425424070.637,-2.1959429
1425424070.653,0.83487797
1425424070.669,3.7406826
1425424070.684,6.32141
1425424070.7,8.519069
1425424070.715,10.426932
1425424070.731,12.289878
1425424070.747,14.38529
1425424070.762,16.97252
1425424070.778,20.185913
1425424070.794,24.017372
1425424070.809,28.259144
1425424070.825,32.55857
1425424070.84,36.35029
1425424070.856,38.925377
1425424070.872,39.566895
1425424070.887,37.761696
1425424070.903,33.402744
1425424070.919,26.923643
1425424070.934,19.162806
1425424070.95,11.193452
1425424070.965,3.9220114
1425424070.981,-2.059289
1425424070.997,-6.5629625
1425424071.012,-9.693776
1425424071.028,-11.698031
1425424071.044,-12.809693
1425424071.059,-13.280163
1425424071.075,-13.326101
1425424071.09,-13.242129
1425424071.106,-13.324385
1425424071.122,-13.813489
1425424071.137,-14.82701
1425424071.153,-16.301785
1425424071.169,-17.974037
1425424071.184,-19.515678
1425424071.2,-20.56857
1425424071.216,-20.91674
1425424071.231,-20.528812
1425424071.247,-19.550608
1425424071.262,-18.237976
1425424071.278,-16.847525
1425424071.294,-15.492059
1425424071.309,-14.110425
1425424071.325,-12.47753
1425424071.341,-10.363092
1425424071.356,-7.625763
1425424071.372,-4.306473
1425424071.387,-0.632041
1425424071.403,3.1167278
1425424071.419,6.7060375
1425424071.434,10.001944
1425424071.45,12.990932
1425424071.466,15.754972
1425424071.481,18.458515
1425424071.497,21.30198
1425424071.512,24.508896
1425424071.528,28.213486
1425424071.544,32.351456
1425424071.559,36.53615
1425424071.575,40.025604
1425424071.591,41.942696
1425424071.606,41.488792
1425424071.622,38.27087
1425424071.637,32.468674
1425424071.653,24.79758
1425424071.669,16.299915
1425424071.684,8.009825
1425424071.7,0.7527404
1425424071.716,-5.0179715
1425424071.731,-9.2106905
1425424071.747,-12.036503
1425424071.762,-13.842715
1425424071.778,-15.055386
1425424071.794,-16.02467
1425424071.809,-16.988983
1425424071.825,-18.014473
1425424071.841,-19.079756
1425424071.856,-20.11036
1425424071.872,-21.030947
1425424071.887,-21.811445
1425424071.903,-22.413115
1425424071.919,-22.790064
1425424071.934,-22.879545
1425424071.95,-22.623625
1425424071.966,-22.056194
1425424071.981,-21.25022
1425424071.997,-20.346317
1425424072.012,-19.4149
1425424072.028,-18.417084
1425424072.044,-17.180197
1425424072.059,-15.45129
1425424072.075,-13.058145
1425424072.091,-9.992069
1425424072.106,-6.4192467
1425424072.122,-2.645699
1425424072.137,1.0234342
1425424072.153,4.3440804
1425424072.169,7.2235794
1425424072.184,9.695733
1425424072.2,11.914912
1425424072.216,14.125041
1425424072.231,16.590736
1425424072.247,19.571346
1425424072.262,23.275982
1425424072.278,27.743338
1425424072.294,32.76636
1425424072.309,37.823338
1425424072.325,42.1047
1425424072.341,44.660557
1425424072.356,44.68217
1425424072.372,41.74407
1425424072.387,36.03307
1425424072.403,28.29346
1425424072.419,19.664848
1425424072.434,11.279869
1425424072.45,3.9761934
1425424072.466,-1.9268818
1425424072.481,-6.5486183
1425424072.497,-10.301886
1425424072.512,-13.578931
1425424072.528,-16.5703
1425424072.544,-19.242592
1425424072.559,-21.409206
1425424072.575,-22.861084
1425424072.591,-23.544086
1425424072.606,-23.559486
1425424072.622,-23.180815
1425424072.637,-22.72166
1425424072.653,-22.4463
1425424072.669,-22.454357
1425424072.684,-22.67959
1425424072.7,-22.899311
1425424072.716,-22.874146
1425424072.731,-22.435272
1425424072.747,-21.593685
1425424072.762,-20.45562
1425424072.778,-19.170683
1425424072.794,-17.810106
1425424072.809,-16.29027
1425424072.825,-14.408976
1425424072.841,-11.986109
1425424072.856,-8.940094
1425424072.872,-5.4197254
1425424072.887,-1.6799908
1425424072.903,1.932684
1425424072.919,5.166813
1425424072.934,7.9210644
1425424072.95,10.256876
1425424072.966,12.324068
1425424072.981,14.371666
1425424072.997,16.618435
1425424073.012,19.302301
1425424073.028,22.588163
1425424073.044,26.557795
1425424073.059,31.057793
1425424073.075,35.667664
1425424073.091,39.664486
1425424073.106,42.142094
1425424073.122,42.234745
1425424073.137,39.4179
1425424073.153,33.716927
1425424073.169,25.77382
1425424073.184,16.689243
1425424073.2,7.6744766
1425424073.216,-0.29216194
1425424073.231,-6.6839676
1425424073.247,-11.495609
1425424073.262,-15.037107
1425424073.278,-17.75927
1425424073.294,-19.996288
1425424073.309,-21.938581
1425424073.325,-23.586447
1425424073.341,-24.897009
1425424073.356,-25.8034
1425424073.372,-26.310547
1425424073.387,-26.487606
1425424073.403,-26.452883
1425424073.419,-26.345795
1425424073.434,-26.254868
1425424073.45,-26.19215
1425424073.466,-26.081749
1425424073.481,-25.804405
1425424073.497,-25.24349
1425424073.512,-24.320562
1425424073.528,-23.016706
1425424073.544,-21.344242
1425424073.559,-19.34022
1425424073.575,-17.027834
1425424073.591,-14.427582
1425424073.606,-11.514496
1425424073.622,-8.283405
1425424073.637,-4.7447224
1425424073.653,-1.0082016
1425424073.669,2.7420483
1425424073.684,6.262808
1425424073.7,9.338995
1425424073.716,11.86187
1425424073.731,13.894234
1425424073.747,15.632942
1425424073.762,17.382193
1425424073.778,19.418095
1425424073.794,21.960238
1425424073.809,25.101692
1425424073.825,28.803568
1425424073.841,32.846085
1425424073.856,36.787895
1425424073.872,39.956497
1425424073.888,41.565716
1425424073.903,40.9002
1425424073.919,37.56767
1425424073.934,31.711668
1425424073.95,24.035824
1425424073.966,15.61754
1425424073.981,7.579199
1425424073.997,0.74736786
1425424074.013,-4.5526714
1425424074.028,-8.442196
1425424074.044,-11.296299
1425424074.059,-13.478973
1425424074.075,-15.162594
1425424074.091,-16.357033
1425424074.106,-16.97762
1425424074.122,-17.097937
1425424074.138,-16.946592
1425424074.153,-16.93097
1425424074.169,-17.39787
1425424074.184,-18.488855
1425424074.2,-20.016603
1425424074.216,-21.542274
1425424074.231,-22.527359
1425424074.247,-22.62522
1425424074.263,-21.75827
1425424074.278,-20.173466
1425424074.294,-18.25567
1425424074.309,-16.33791
1425424074.325,-14.557877
1425424074.341,-12.823032
1425424074.356,-10.899103
1425424074.372,-8.583092
1425424074.388,-5.8183002
1425424074.403,-2.7806053
1425424074.419,0.25665283
1425424074.434,2.9748917
1425424074.45,5.257992
1425424074.466,7.147438
1425424074.481,8.886112
1425424074.497,10.731369
1425424074.513,12.933659
1425424074.528,15.611393
1425424074.544,18.789272
1425424074.559,22.461304
1425424074.575,26.574055
1425424074.591,30.966934
1425424074.606,35.27065
1425424074.622,38.83222
1425424074.638,40.795376
1425424074.653,40.344967
1425424074.669,37.032745
1425424074.684,31.034912
1425424074.7,23.183857
1425424074.716,14.651184
1425424074.731,6.618099
1425424074.747,-0.16361618
1425424074.763,-5.483616
1425424074.778,-9.586674
1425424074.794,-12.887852
1425424074.809,-15.713806
1425424074.825,-18.143482
1425424074.841,-20.064129
1425424074.856,-21.354248
1425424074.872,-21.982773
1425424074.888,-22.082691
1425424074.903,-21.889858
1425424074.919,-21.609589
1425424074.934,-21.39302
1425424074.95,-21.276577
1425424074.966,-21.26192
1425424074.981,-21.302406
1425424074.997,-21.401058
1425424075.013,-21.503178
1425424075.028,-21.551819
1425424075.044,-21.396004
1425424075.059,-20.872658
1425424075.075,-19.81461
1425424075.091,-18.163853
1425424075.106,-15.950508
1425424075.122,-13.288887
1425424075.138,-10.312157
1425424075.153,-7.1482353
1425424075.169,-3.8920784
1425424075.184,-0.6476135
1425424075.2,2.495655
1425424075.216,5.4338226
1425424075.231,8.115074
1425424075.247,10.515442
1425424075.263,12.694462
1425424075.278,14.762688
1425424075.294,16.925602
1425424075.309,19.422203
1425424075.325,22.512665
1425424075.341,26.350254
1425424075.356,30.838306
1425424075.372,35.48711
1425424075.388,39.439003
1425424075.403,41.666416
1425424075.419,41.325317
1425424075.434,38.039948
1425424075.45,32.120125
1425424075.466,24.443653
1425424075.481,16.17213
1425424075.497,8.367161
1425424075.513,1.7086296
1425424075.528,-3.5772438
1425424075.544,-7.6495934
1425424075.559,-10.860451
1425424075.575,-13.519463
1425424075.591,-15.810326
1425424075.606,-17.772518
1425424075.622,-19.355549
1425424075.638,-20.495262
1425424075.653,-21.215717
1425424075.669,-21.629196
1425424075.684,-21.952133
1425424075.7,-22.395485
1425424075.716,-23.116703
1425424075.731,-24.12078
1425424075.747,-25.269604
1425424075.763,-26.304558
1425424075.778,-26.955498
1425424075.794,-27.005913
1425424075.809,-26.428364
1425424075.825,-25.321415
1425424075.841,-23.864986
1425424075.856,-22.17989
1425424075.872,-20.286331
1425424075.888,-18.066654
1425424075.903,-15.433311
1425424075.919,-12.363686
1425424075.934,-8.993347
1425424075.95,-5.5256996
1425424075.966,-2.139492
1425424075.981,1.0878906
1425424075.997,4.1913185
1425424076.013,7.2521553
1425424076.028,10.305592
1425424076.044,13.325169
1425424076.059,16.262806
1425424076.075,19.175728
1425424076.091,22.252575
1425424076.106,25.786018
1425424076.122,29.968006
1425424076.138,34.68143
1425424076.153,39.386215
1425424076.169,43.127144
1425424076.184,44.83393
1425424076.2,43.68863
1425424076.216,39.398964
1425424076.231,32.383953
1425424076.247,23.63839
1425424076.263,14.463299
1425424076.278,6.030796
1425424076.294,-0.8910141
1425424076.309,-6.081936
1425424076.325,-9.76556
1425424076.341,-12.431152
1425424076.356,-14.525398
1425424076.372,-16.309189
1425424076.388,-17.809208
1425424076.403,-18.920177
1425424076.419,-19.559544
1425424076.434,-19.775845
1425424076.45,-19.798485
1425424076.466,-19.937054
1425424076.481,-20.425007
1425424076.497,-21.313263
1425424076.513,-22.434021
1425424076.528,-23.482582
1425424076.544,-24.161396
1425424076.56,-24.305283
1425424076.575,-23.870316
1425424076.591,-22.918541
1425424076.606,-21.497036
1425424076.622,-19.675247
1425424076.638,-17.47945
1425424076.653,-14.982338
1425424076.669,-12.261475
1425424076.684,-9.424175
1425424076.7,-6.486721
1425424076.716,-3.4451332
1425424076.731,-0.2831192
1425424076.747,2.9292793
1425424076.763,6.0392914
1425424076.778,8.828938
1425424076.794,11.120071
1425424076.81,12.87159
1425424076.825,14.259319
1425424076.841,15.598766
1425424076.856,17.299793
1425424076.872,19.70607
1425424076.888,23.0308
1425424076.903,27.211536
1425424076.919,31.912346
1425424076.935,36.426422
1425424076.95,39.849308
1425424076.966,41.18767
1425424076.981,39.73996
1425424076.997,35.314606
1425424077.013,28.408731
1425424077.028,20.052916
1425424077.044,11.486748
1425424077.06,3.7689056
1425424077.075,-2.4976292
1425424077.091,-7.2474804
1425424077.106,-10.712793
1425424077.122,-13.221214
1425424077.138,-15.009493
1425424077.153,-16.151516
1425424077.169,-16.701681
1425424077.185,-16.790995
1425424077.2,-16.652739
1425424077.216,-16.580975
1425424077.231,-16.777348
1425424077.247,-17.309814
1425424077.263,-18.057549
1425424077.278,-18.814686
1425424077.294,-19.367916
1425424077.31,-19.563713
1425424077.325,-19.356924
1425424077.341,-18.77484
1425424077.356,-17.862965
1425424077.372,-16.711664
1425424077.388,-15.339001
1425424077.403,-13.742472
1425424077.419,-11.844553
1425424077.435,-9.569166
1425424077.45,-6.8438416
1425424077.466,-3.7266579
1425424077.481,-0.3611412
1425424077.497,2.991335
1425424077.513,6.1002483
1425424077.528,8.847654
1425424077.544,11.293755
1425424077.56,13.595852
1425424077.575,15.997007
1425424077.591,18.646667
1425424077.606,21.63349
1425424077.622,25.004541
1425424077.638,28.773907
1425424077.653,32.88327
1425424077.669,37.0738
1425424077.685,40.75466
1425424077.7,43.046604
1425424077.716,42.993385
1425424077.731,39.96432
1425424077.747,33.935432
1425424077.763,25.6179
1425424077.778,16.210915
1425424077.794,7.0453644
1425424077.81,-0.84895325
1425424077.825,-6.992634
1425424077.841,-11.4461975
1425424077.856,-14.538158
1425424077.872,-16.662096
1425424077.888,-18.04867
1425424077.903,-18.821348
1425424077.919,-19.022682
1425424077.935,-18.790909
1425424077.95,-18.39664
1425424077.966,-18.185432
1425424077.981,-18.46539
1425424077.997,-19.371624
1425424078.013,-20.794884
1425424078.028,-22.408974
1425424078.044,-23.782825
1425424078.06,-24.56372
1425424078.075,-24.531818
1425424078.091,-23.69183
1425424078.106,-22.190708
1425424078.122,-20.275646
1425424078.138,-18.177883
1425424078.153,-16.047691
1425424078.169,-13.885483
1425424078.185,-11.556389
1425424078.2,-8.854389
1425424078.216,-5.632099
1425424078.231,-1.8937187
1425424078.247,2.1468773
1425424078.263,6.138729
1425424078.278,9.697693
1425424078.294,12.551144
1425424078.31,14.655445
1425424078.325,16.19806
1425424078.341,17.52977
1425424078.356,19.120022
1425424078.372,21.4012
1425424078.388,24.708797
1425424078.403,29.096806
1425424078.419,34.244144
1425424078.435,39.382626
1425424078.45,43.381886
1425424078.466,45.06327
1425424078.481,43.589153
1425424078.497,38.787666
1425424078.513,31.272038
1425424078.528,22.227276
1425424078.544,13.048229
1425424078.56,4.8822556
1425424078.575,-1.6566811
1425424078.591,-6.5261726
1425424078.606,-10.070747
1425424078.622,-12.789852
1425424078.638,-15.047382
1425424078.653,-17.030052
1425424078.669,-18.734856
1425424078.685,-20.093952
1425424078.7,-21.083183
1425424078.716,-21.772339
1425424078.731,-22.300041
1425424078.747,-22.828728
1425424078.763,-23.454208
1425424078.778,-24.186073
1425424078.794,-24.957062
1425424078.81,-25.654556
1425424078.825,-26.145565
1425424078.841,-26.314579
1425424078.856,-26.053562
1425424078.872,-25.281914
1425424078.888,-23.935886
1425424078.903,-22.06097
1425424078.919,-19.769642
1425424078.935,-17.229477
1425424078.95,-14.5734215
1425424078.966,-11.858589
1425424078.981,-9.0478325
1425424078.997,-6.079891
1425424079.013,-2.885563
1425424079.028,0.49303818
1425424079.044,3.9361954
1425424079.06,7.305725
1425424079.075,10.477135
1425424079.091,13.388325
1425424079.106,16.114552
1425424079.122,18.80563
1425424079.138,21.705376
1425424079.153,25.057117
1425424079.169,29.042099
1425424079.185,33.61482
1425424079.2,38.43569
1425424079.216,42.76834
1425424079.232,45.652985
1425424079.247,46.124027
1425424079.263,43.54614
1425424079.278,37.876274
1425424079.294,29.725502
1425424079.31,20.18468
1425424079.325,10.552948
1425424079.341,1.9242134
1425424079.356,-5.008087
1425424079.372,-10.0814705
1425424079.388,-13.521603
1425424079.403,-15.78051
1425424079.419,-17.27264
1425424079.435,-18.315056
1425424079.45,-19.043518
1425424079.466,-19.501122
1425424079.482,-19.699776
1425424079.497,-19.714722
1425424079.513,-19.67944
1425424079.528,-19.7725
1425424079.544,-20.16727
1425424079.56,-20.92455
1425424079.575,-21.940845
1425424079.591,-22.991241
1425424079.607,-23.783695
1425424079.622,-24.083138
1425424079.638,-23.785126
1425424079.653,-22.935642
1425424079.669,-21.69722
1425424079.685,-20.216225
1425424079.7,-18.573093
1425424079.716,-16.778694
1425424079.732,-14.764748
1425424079.747,-12.4760895
1425424079.763,-9.899967
1425424079.778,-7.115082
1425424079.794,-4.204571
1425424079.81,-1.306076
1425424079.825,1.4833488
1425424079.841,4.0825424
1425424079.857,6.493538
1425424079.872,8.761356
1425424079.888,11.016468
1425424079.903,13.424332
1425424079.919,16.193272
1425424079.935,19.518028
1425424079.95,23.53516
1425424079.966,28.200623
1425424079.982,33.199715
1425424079.997,37.882957
1425424080.013,41.339905
1425424080.028,42.635086
1425424080.044,41.13507
1425424080.06,36.69787
1425424080.075,29.827557
1425424080.091,21.47306
1425424080.107,12.771858
1425424080.122,4.696556
1425424080.138,-2.1241417
1425424080.153,-7.458004
1425424080.169,-11.410461
1425424080.185,-14.2267685
1425424080.2,-16.17226
1425424080.216,-17.468689
1425424080.232,-18.270832
1425424080.247,-18.722294
1425424080.263,-18.919594
1425424080.278,-19.000336
1425424080.294,-19.089542
1425424080.31,-19.29702
1425424080.325,-19.653965
1425424080.341,-20.147541
1425424080.357,-20.684258
1425424080.372,-21.1688
1425424080.388,-21.511902
1425424080.403,-21.677948
1425424080.419,-21.635742
1425424080.435,-21.36993
1425424080.45,-20.823402
1425424080.466,-19.913181
1425424080.482,-18.548172
1425424080.497,-16.67234
1425424080.513,-14.297371
1425424080.528,-11.510796
1425424080.544,-8.431366
1425424080.56,-5.187908
1425424080.575,-1.916584
1425424080.591,1.2712212
1425424080.607,4.2877464
1425424080.622,7.0607224
1425424080.638,9.601807
1425424080.653,11.984489
1425424080.669,14.391094
1425424080.685,17.085194
1425424080.7,20.35981
1425424080.716,24.41653
1425424080.732,29.21923
1425424080.747,34.379635
1425424080.763,39.139153
1425424080.778,42.48929
1425424080.794,43.45173
1425424080.81,41.332085
1425424080.825,36.080143
1425424080.841,28.270157
1425424080.857,19.022503
1425424080.872,9.624123
1425424080.888,1.1710815
1425424080.903,-5.753193
1425424080.919,-11.058052
1425424080.935,-15.003784
1425424080.95,-17.898808
1425424080.966,-19.92614
1425424080.982,-21.11219
1425424080.997,-21.43922
1425424081.013,-21.014847
1425424081.028,-20.148605
1425424081.044,-19.284595
1425424081.06,-18.843056
1425424081.075,-19.014366
1425424081.091,-19.731174
1425424081.107,-20.692333
1425424081.122,-21.526966
1425424081.138,-21.930328
1425424081.153,-21.77029
1425424081.169,-21.065876
1425424081.185,-19.968575
1425424081.2,-18.646488
1425424081.216,-17.222652
1425424081.232,-15.696465
1425424081.247,-13.982025
1425424081.263,-11.909748
1425424081.278,-9.371468
1425424081.294,-6.339878
1425424081.31,-2.9593391
1425424081.325,0.5693474
1425424081.341,4.00016
1425424081.357,7.188011
1425424081.372,10.037926
1425424081.388,12.573517
1425424081.403,14.827583
1425424081.419,16.929985
1425424081.435,19.065887
1425424081.45,21.537354
1425424081.466,24.66504
1425424081.482,28.63277
1425424081.497,33.269745
1425424081.513,37.927696
1425424081.528,41.591854
1425424081.544,43.15553
1425424081.56,41.82494
1425424081.575,37.429943
1425424081.591,30.49213
1425424081.607,22.063046
1425424081.622,13.329945
1425424081.638,5.3133163
1425424081.653,-1.401329
1425424081.669,-6.6498184
1425424081.685,-10.602638
1425424081.7,-13.567497
1425424081.716,-15.824005
1425424081.732,-17.564991
1425424081.747,-18.91338
1425424081.763,-19.912464
1425424081.778,-20.635105
1425424081.794,-21.157074
1425424081.81,-21.615154
1425424081.825,-22.083176
1425424081.841,-22.609558
1425424081.857,-23.155228
1425424081.872,-23.62024
1425424081.888,-23.836258
1425424081.903,-23.704762
1425424081.919,-23.142353
1425424081.935,-22.140682
1425424081.95,-20.699646
1425424081.966,-18.85286
1425424081.982,-16.662975
1425424081.997,-14.26292
1425424082.013,-11.832283
1425424082.028,-9.568607
1425424082.044,-7.579685
1425424082.06,-5.865383
1425424082.075,-4.2712364
1425424082.091,-2.6051025
1425424082.107,-0.70648193
1425424082.122,1.4627495
1425424082.138,3.8212109
1425424082.154,6.221287
1425424082.169,8.542652
1425424082.185,10.768482
1425424082.2,13.0316925
1425424082.216,15.579407
1425424082.232,18.728827
1425424082.247,22.695477
1425424082.263,27.455889
1425424082.279,32.596054
1425424082.294,37.293903
1425424082.31,40.471363
1425424082.325,41.12402
1425424082.341,38.667
1425424082.357,33.187668
1425424082.372,25.455257
1425424082.388,16.722204
1425424082.404,8.27117
1425424082.419,1.0833225
1425424082.435,-4.407995
1425424082.45,-8.280489
1425424082.466,-10.953054
1425424082.482,-12.914597
1425424082.497,-14.548431
1425424082.513,-16.034204
1425424082.529,-17.429993
1425424082.544,-18.66463
1425424082.56,-19.69789
1425424082.575,-20.479477
1425424082.591,-20.997845
1425424082.607,-21.266443
1425424082.622,-21.311071
1425424082.638,-21.175142
1425424082.654,-20.917412
1425424082.669,-20.573906
1425424082.685,-20.163557
1425424082.7,-19.691057
1425424082.716,-19.14235
1425424082.732,-18.466755
1425424082.747,-17.622238
1425424082.763,-16.519714
1425424082.779,-15.1166115
1425424082.794,-13.36688
1425424082.81,-11.2997
1425424082.825,-8.978323
1425424082.841,-6.491825
1425424082.857,-3.9041414
1425424082.872,-1.2994604
1425424082.888,1.2729034
1425424082.904,3.7651844
1425424082.919,6.111804
1425424082.935,8.262254
1425424082.95,10.226723
1425424082.966,12.103785
1425424082.982,14.090505
1425424082.997,16.424187
1425424083.013,19.41484
1425424083.029,23.275732
1425424083.044,28.011082
1425424083.06,33.264355
1425424083.075,38.257755
1425424083.091,41.883957
1425424083.107,43.02417
1425424083.122,40.899895
1425424083.138,35.451775
1425424083.154,27.41117
1425424083.169,18.098942
1425424083.185,8.992257
1425424083.2,1.2603729
1425424083.216,-4.5570884
1425424083.232,-8.518851
1425424083.247,-11.108967
1425424083.263,-12.850658
1425424083.279,-14.178669
1425424083.294,-15.275401
1425424083.31,-16.181862
1425424083.325,-16.882336
1425424083.341,-17.414574
1425424083.357,-17.79144
1425424083.372,-18.07806
1425424083.388,-18.310396
1425424083.404,-18.525639
1425424083.419,-18.742882
1425424083.435,-18.986212
1425424083.45,-19.28036
1425424083.466,-19.581806
1425424083.482,-19.801716
1425424083.497,-19.807674
1425424083.513,-19.464802
1425424083.529,-18.706337
1425424083.544,-17.538788
1425424083.56,-16.080296
1425424083.575,-14.488724
1425424083.591,-12.912069
1425424083.607,-11.379137
1425424083.622,-9.840942
1425424083.638,-8.162657
1425424083.654,-6.234951
1425424083.669,-4.055498
1425424083.685,-1.7547665
1425424083.7,0.5023117
1425424083.716,2.5622559
1425424083.732,4.4104996
1425424083.747,6.1590652
1425424083.763,8.031588
1425424083.779,10.296356
1425424083.794,13.185841
1425424083.81,16.903902
1425424083.825,21.58389
1425424083.841,27.116135
1425424083.857,33.11747
1425424083.872,38.804787
1425424083.888,43.13445
1425424083.904,45.045395
1425424083.919,43.864635
1425424083.935,39.513226
1425424083.95,32.609898
1425424083.966,24.211697
1425424083.982,15.488003
1425424083.997,7.398712
1425424084.013,0.51520157
1425424084.029,-4.9894714
1425424084.044,-9.250809
1425424084.06,-12.53632
1425424084.075,-15.150635
1425424084.091,-17.324608
1425424084.107,-19.150406
1425424084.122,-20.627419
1425424084.138,-21.694809
1425424084.154,-22.317284
1425424084.169,-22.54227
1425424084.185,-22.498413
1425424084.2,-22.305515
1425424084.216,-22.06292
1425424084.232,-21.724163
1425424084.247,-21.201786
1425424084.263,-20.40438
1425424084.279,-19.334713
1425424084.294,-18.084793
1425424084.31,-16.781334
1425424084.325,-15.474987
1425424084.341,-14.120041
1425424084.357,-12.574989
1425424084.372,-10.69566
1425424084.388,-8.419071
1425424084.404,-5.8330727
1425424084.419,-3.1116562
1425424084.435,-0.45230865
1425424084.45,1.9873543
1425424084.466,4.1896553
1425424084.482,6.208561
1425424084.497,8.115009
1425424084.513,9.971191
1425424084.529,11.779179
1425424084.544,13.563129
1425424084.56,15.383583
1425424084.575,17.440998
1425424084.591,19.993458
1425424084.607,23.287926
1425424084.622,27.420227
1425424084.638,32.222683
1425424084.654,37.168896
1425424084.669,41.447533
1425424084.685,44.062843
1425424084.7,44.166252
1425424084.716,41.306778
1425424084.732,35.620537
1425424084.747,27.820915
1425424084.763,19.04322
1425424084.779,10.479637
1425424084.794,3.0625
1425424084.81,-2.763321
1425424084.826,-7.009552
1425424084.841,-10.03437
1425424084.857,-12.209503
1425424084.872,-13.818489
1425424084.888,-14.919968
1425424084.904,-15.524971
1425424084.919,-15.677727
1425424084.935,-15.570068
1425424084.951,-15.513298
1425424084.966,-15.818405
1425424084.982,-16.598335
1425424084.997,-17.761162
1425424085.013,-19.030548
1425424085.029,-20.077278
1425424085.044,-20.65593
1425424085.06,-20.693542
1425424085.076,-20.24282
1425424085.091,-19.42511
1425424085.107,-18.324188
1425424085.122,-16.966438
1425424085.138,-15.308434
1425424085.154,-13.338257
1425424085.169,-11.046005
1425424085.185,-8.497513
1425424085.201,-5.7820816
1425424085.216,-2.973343
1425424085.232,-0.1317215
1425424085.247,2.7183456
1425424085.263,5.574486
1425424085.279,8.416901
1425424085.294,11.24202
1425424085.31,14.044647
1425424085.326,16.859512
1425424085.341,19.783798
1425424085.357,22.98558
1425424085.372,26.620697
1425424085.388,30.79177
1425424085.404,35.384056
1425424085.419,39.979393
1425424085.435,43.879814
1425424085.451,46.239113
1425424085.466,46.249184
1425424085.482,43.44136
1425424085.497,37.85798
1425424085.513,30.108719
1425424085.529,21.198631
1425424085.544,12.283966
1425424085.56,4.282791
1425424085.576,-2.2859726
1425424085.591,-7.387932
1425424085.607,-11.330574
1425424085.622,-14.531555
1425424085.638,-17.273636
1425424085.654,-19.666138
1425424085.669,-21.607048
1425424085.685,-22.983635
1425424085.701,-23.77317
1425424085.716,-24.105492
1425424085.732,-24.221138
1425424085.747,-24.346046
1425424085.763,-24.5682
1425424085.779,-24.83715
1425424085.794,-25.004227
1425424085.81,-24.929642
1425424085.826,-24.577026
1425424085.841,-23.955894
1425424085.857,-23.112717
1425424085.872,-22.074959
1425424085.888,-20.799965
1425424085.904,-19.227074
1425424085.919,-17.313446
1425424085.935,-15.03495
1425424085.951,-12.429726
1425424085.966,-9.556778
1425424085.982,-6.487747
1425424085.997,-3.300331
1425424086.013,-0.03767395
1425424086.029,3.2715225
1425424086.044,6.5818634
1425424086.06,9.819435
1425424086.076,12.875961
1425424086.091,15.679985
1425424086.107,18.236397
1425424086.122,20.698463
1425424086.138,23.393639
1425424086.154,26.680717
1425424086.169,30.796402
1425424086.185,35.62377
1425424086.201,40.620422
1425424086.216,44.813927
1425424086.232,47.11667
1425424086.247,46.64762
1425424086.263,43.03534
1425424086.279,36.619377
1425424086.294,28.31569
1425424086.31,19.359108
1425424086.326,10.896507
1425424086.341,3.6968842
1425424086.357,-1.9769974
1425424086.372,-6.2849503
1425424086.388,-9.590355
1425424086.404,-12.231323
1425424086.419,-14.397873
1425424086.435,-16.14312
1425424086.451,-17.473824
1425424086.466,-18.438774
1425424086.482,-19.198997
1425424086.497,-19.917557
1425424086.513,-20.729134
1425424086.529,-21.643456
1425424086.544,-22.511696
1425424086.56,-23.13993
1425424086.576,-23.290146
1425424086.591,-22.871506
1425424086.607,-21.916908
1425424086.622,-20.58651
1425424086.638,-19.06451
1425424086.654,-17.482258
1425424086.669,-15.850105
1425424086.685,-14.087185
1425424086.701,-12.113838
1425424086.716,-9.903904
1425424086.732,-7.5292816
1425424086.747,-5.086197
1425424086.763,-2.6690865
1425424086.779,-0.2946205
1425424086.794,2.084175
1425424086.81,4.5238266
1425424086.826,7.050804
1425424086.841,9.61401
1425424086.857,12.09103
1425424086.872,14.359814
1425424086.888,16.389736
1425424086.904,18.249393
1425424086.919,20.204025
1425424086.935,22.59658
1425424086.951,25.731407
1425424086.966,29.628895
1425424086.982,33.8704
1425424086.997,37.604137
1425424087.013,39.74476
1425424087.029,39.345318
1425424087.044,35.998047
1425424087.06,29.961636
1425424087.076,22.109596
1425424087.091,13.592255
1425424087.107,5.501114
1425424087.122,-1.4401741
1425424087.138,-6.937687
1425424087.154,-11.05965
1425424087.169,-14.010834
1425424087.185,-16.072533
1425424087.201,-17.489605
1425424087.216,-18.477745
1425424087.232,-19.216324
1425424087.247,-19.870914
1425424087.263,-20.493118
1425424087.279,-21.083206
1425424087.294,-21.58601
1425424087.31,-21.916
1425424087.326,-22.019104
1425424087.341,-21.891384
1425424087.357,-21.547703
1425424087.372,-21.074203
1425424087.388,-20.49453
1425424087.404,-19.847733
1425424087.419,-19.09312
1425424087.435,-18.186573
1425424087.451,-17.022854
1425424087.466,-15.497818
1425424087.482,-13.525284
1425424087.498,-11.071091
1425424087.513,-8.190826
1425424087.529,-5.0379295
1425424087.544,-1.8036995
1425424087.56,1.3389091
1425424087.576,4.2659645
1425424087.591,6.917816
1425424087.607,9.283836
1425424087.622,11.331322
1425424087.638,13.0707245
1425424087.654,14.512894
1425424087.669,15.798412
1425424087.685,17.187714
1425424087.701,19.032066
1425424087.716,21.644978
1425424087.732,25.195274
1425424087.748,29.503834
1425424087.763,34.03714
1425424087.779,37.95295
1425424087.794,40.300087
1425424087.81,40.286964
1425424087.826,37.524467
1425424087.841,32.153934
1425424087.857,24.863396
1425424087.873,16.6018
1425424087.888,8.390104
1425424087.904,1.0130253
1425424087.919,-5.0710125
1425424087.935,-9.761324
1425424087.951,-13.179752
1425424087.966,-15.562567
1425424087.982,-17.132505
1425424087.998,-18.09375
1425424088.013,-18.582191
1425424088.029,-18.708458
1425424088.044,-18.589893
1425424088.06,-18.385351
1425424088.076,-18.301998
1425424088.091,-18.550716
1425424088.107,-19.264462
1425424088.123,-20.417444
1425424088.138,-21.76045
1425424088.154,-22.91077
1425424088.169,-23.453892
1425424088.185,-23.140305
1425424088.201,-21.972145
1425424088.216,-20.213371
1425424088.232,-18.244595
1425424088.248,-16.399433
1425424088.263,-14.780091
1425424088.279,-13.2409725
1425424088.294,-11.493279
1425424088.31,-9.285785
1425424088.326,-6.555958
1425424088.341,-3.5177221
1425424088.357,-0.5093055
1425424088.373,2.127386
1425424088.388,4.2645836
1425424088.404,6.0368614
1425424088.419,7.809677
1425424088.435,10.000353
1425424088.451,12.930338
1425424088.466,16.723488
1425424088.482,21.348646
1425424088.498,26.600428
1425424088.513,32.09027
1425424088.529,37.204323
1425424088.544,41.125015
1425424088.56,42.944363
1425424088.576,41.92861
1425424088.591,37.83415
1425424088.607,31.048733
1425424088.623,22.524122
1425424088.638,13.488873
1425424088.654,5.0419936
1425424088.669,-2.0783467
1425424088.685,-7.5699615
1425424088.701,-11.481882
1425424088.716,-14.036119
1425424088.732,-15.451595
1425424088.748,-15.997029
1425424088.763,-15.920832
1425424088.779,-15.48706
1425424088.794,-14.97443
1425424088.81,-14.640839
1425424088.826,-14.667013
1425424088.841,-15.153063
1425424088.857,-16.098228
1425424088.873,-17.37093
1425424088.888,-18.732536
1425424088.904,-19.868294
1425424088.919,-20.53595
1425424088.935,-20.626892
1425424088.951,-20.213043
1425424088.966,-19.494444
1425424088.982,-18.63464
1425424088.998,-17.645596
1425424089.013,-16.335255
1425424089.029,-14.429396
1425424089.044,-11.720236
1425424089.06,-8.206994
1425424089.076,-4.1263714
1425424089.091,0.111766815
1425424089.107,4.130625
1425424089.123,7.6805725
