1425923394.364,0.0
1425923394.379,0.0
1425923394.395,0.0
1425923394.411,0.0
1425923394.426,0.0
1425923394.442,0.0
1425923394.457,0.0
1425923394.473,0.0
1425923394.489,0.0
1425923394.504,0.0022315353
1425923394.52,-0.0045169927
1425923394.536,-0.011265522
1425923394.551,-0.011383951
1425923394.567,0.0011864507
1425923394.582,0.025910312
1425923394.598,0.050634187
1425923394.614,0.051362894
1425923394.629,-0.0014929791
1425923394.645,-0.1302426
1425923394.661,-0.35562757
1425923394.676,-0.6591247
1425923394.692,-1.0095103
1425923394.707,-1.3709826
1425923394.723,-1.7197359
1425923394.739,-2.0551105
1425923394.754,-2.39945
1425923394.77,-2.7866635
1425923394.786,-3.2399073
1425923394.801,-3.796012
1425923394.817,-4.418684
1425923394.832,-5.0592937
1425923394.848,-5.6644096
1425923394.864,-6.2021537
1425923394.879,-6.6808796
1425923394.895,-7.149598
1425923394.911,-7.6782336
1425923394.926,-8.310739
1425923394.942,-9.143657
1425923394.957,-10.089731
1425923394.973,-11.041313
1425923394.989,-11.8842125
1425923395.004,-12.564316
1425923395.02,-13.13563
1425923395.036,-13.760044
1425923395.051,-14.65232
1425923395.067,-15.962056
1425923395.082,-17.914442
1425923395.098,-20.317299
1425923395.114,-22.903854
1425923395.129,-25.37947
1425923395.145,-27.578028
1425923395.161,-29.57246
1425923395.176,-31.675173
1425923395.192,-34.3178
1425923395.207,-37.813618
1425923395.223,-42.541233
1425923395.239,-48.1463
1425923395.254,-54.104755
1425923395.27,-59.83309
1425923395.286,-64.972374
1425923395.301,-69.58293
1425923395.317,-74.14353
1425923395.332,-79.344986
1425923395.348,-85.70726
1425923395.364,-93.76193
1425923395.379,-102.99779
1425923395.395,-112.61757
1425923395.411,-121.73034
1425923395.426,-129.76602
1425923395.442,-136.75102
1425923395.457,-143.30344
1425923395.473,-150.74623
1425923395.489,-157.77356
1425923395.504,-166.64323
1425923395.52,-177.94798
1425923395.536,-191.79102
1425923395.551,-206.96808
1425923395.567,-220.56592
1425923395.582,-228.24644
1425923395.598,-225.36154
1425923395.614,-208.53198
1425923395.629,-176.87024
1425923395.645,-132.76222
1425923395.661,-80.04997
1425923395.676,-23.069275
1425923395.692,34.94339
1425923395.707,92.43695
1425923395.723,149.15695
1425923395.739,205.22772
1425923395.754,260.36963
1425923395.77,313.74133
1425923395.786,363.87396
1425923395.801,409.83353
1425923395.817,450.90775
1425923395.832,486.50244
1425923395.848,515.73865
1425923395.864,537.2274
1425923395.879,549.22
1425923395.895,549.9613
1425923395.911,538.367
1425923395.926,514.2055
1425923395.942,478.674
1425923395.957,433.87952
1425923395.973,382.45126
1425923395.989,327.02106
1425923396.004,269.84186
1425923396.02,212.63379
1425923396.036,156.6594
1425923396.051,102.95233
1425923396.067,52.373596
1425923396.082,5.9046936
1425923396.098,-35.580414
1425923396.114,-71.42584
1425923396.129,-101.35184
1425923396.145,-125.50113
1425923396.161,-144.3797
1425923396.176,-158.69403
1425923396.192,-169.15071
1425923396.207,-176.3711
1425923396.223,-180.75139
1425923396.239,-182.57419
1425923396.254,-182.06863
1425923396.27,-179.5066
1425923396.286,-175.23325
1425923396.301,-169.65286
1425923396.317,-163.17691
1425923396.332,-156.14568
1425923396.348,-148.80681
1425923396.364,-141.29686
1425923396.379,-133.68983
1425923396.395,-126.01962
1425923396.411,-118.33268
1425923396.426,-110.68864
1425923396.442,-103.15572
1425923396.457,-95.80455
1425923396.473,-88.684166
1425923396.489,-81.82744
1425923396.504,-75.24594
1425923396.52,-68.9526
1425923396.536,-62.949085
1425923396.551,-57.247486
1425923396.567,-51.857155
1425923396.582,-46.78282
1425923396.598,-42.02796
1425923396.614,-37.58581
1425923396.629,-33.452797
1425923396.645,-29.614935
1425923396.661,-26.07118
1425923396.676,-22.807236
1425923396.692,-19.821703
1425923396.707,-17.110481
1425923396.723,-14.667998
1425923396.739,-12.489219
1425923396.754,-10.557014
1425923396.77,-8.854091
1425923396.786,-7.35554
1425923396.801,-6.04366
1425923396.817,-4.901194
1425923396.832,-3.919289
1425923396.848,-3.0930295
1425923396.864,-2.4187498
1425923396.879,-1.8810525
1425923396.895,-1.4547734
1425923396.911,-1.1145676
1425923396.926,-0.8299254
1425923396.942,-0.58062994
1425923396.958,-0.35574478
1425923396.973,-0.16264147
1425923396.989,-0.012936294
1425923397.004,0.08639789
1425923397.02,0.13231896
1425923397.036,0.14957815
1425923397.051,0.16696332
1425923397.067,0.2166821
1425923397.083,0.31337646
1425923397.098,0.4483657
1425923397.114,0.594274
1425923397.129,0.70270544
1425923397.145,0.74110955
1425923397.161,0.7079204
1425923397.176,0.6447595
1425923397.192,0.62801963
1425923397.208,0.7266657
1425923397.223,0.9810429
1425923397.239,1.3506349
1425923397.254,1.753082
1425923397.27,2.060805
1425923397.286,2.1860943
1425923397.301,2.114008
1425923397.317,1.945149
1425923397.333,1.8405324
1425923397.348,1.9664017
1425923397.364,2.4026396
1425923397.379,3.0945246
1425923397.395,3.8603523
1425923397.411,4.4657264
1425923397.426,4.7319355
1425923397.442,4.640922
1425923397.458,4.3609867
1425923397.473,4.1813307
1425923397.489,4.384585
1425923397.504,5.0951467
1425923397.52,6.203493
1425923397.536,7.406156
1425923397.551,8.334539
1425923397.567,8.756291
1425923397.583,8.663981
1425923397.598,8.318604
1425923397.614,8.071026
1425923397.629,8.231676
1425923397.645,8.934646
1425923397.661,10.155638
1425923397.676,11.819588
1425923397.692,13.751245
1425923397.708,15.611516
1425923397.723,16.780272
1425923397.739,16.435905
1425923397.754,13.826891
1425923397.77,8.715571
1425923397.786,1.6716413
1425923397.801,-6.00301
1425923397.817,-12.76775
1425923397.833,-17.43708
1425923397.848,-19.653568
1425923397.864,-19.843807
1425923397.879,-18.80689
1425923397.895,-17.231596
1425923397.911,-15.413416
1425923397.926,-13.312883
1425923397.942,-10.917389
1425923397.958,-8.414499
1425923397.973,-6.3162003
1425923397.989,-5.1300507
1425923398.004,-5.081457
1425923398.02,-5.871359
1425923398.036,-6.7949142
1425923398.051,-6.9800224
1425923398.067,-5.8022747
1425923398.083,-3.2376919
1425923398.098,0.026691437
1425923398.114,2.7035503
1425923398.129,3.373684
1425923398.145,1.0450096
1425923398.161,-4.4039936
1425923398.176,-12.0207
1425923398.192,-20.12709
1425923398.208,-26.88552
1425923398.223,-31.009182
1425923398.239,-32.10196
1425923398.254,-30.715702
1425923398.27,-27.888586
1425923398.286,-24.70359
1425923398.301,-21.854929
1425923398.317,-19.593996
1425923398.333,-17.789768
1425923398.348,-16.233465
1425923398.364,-14.830559
1425923398.379,-13.586735
1425923398.395,-12.626949
1425923398.411,-11.996569
1425923398.426,-11.636072
1425923398.442,-11.374048
1425923398.458,-10.995765
1425923398.473,-10.341071
1425923398.489,-9.281644
1425923398.504,-7.831911
1425923398.52,-6.007536
1425923398.536,-3.8374825
1425923398.551,-1.317009
1425923398.567,1.5837059
1425923398.583,4.932925
1425923398.598,8.682499
1425923398.614,12.739336
1425923398.629,16.909698
1425923398.645,20.991314
1425923398.661,24.782478
1425923398.676,28.06998
1425923398.692,30.644741
1425923398.708,32.380234
1425923398.723,33.243183
1425923398.739,33.33234
1425923398.754,32.817333
1425923398.77,31.907354
1425923398.786,30.747675
1425923398.801,29.460226
1425923398.817,28.138264
1425923398.833,26.902779
1425923398.848,25.803589
1425923398.864,24.67543
1425923398.879,22.971634
1425923398.895,19.872131
1425923398.911,14.549019
1425923398.926,6.7098875
1425923398.942,-3.017167
1425923398.958,-13.152193
1425923398.973,-21.799065
1425923398.989,-27.416712
1425923399.004,-29.454395
1425923399.02,-28.44076
1425923399.036,-25.651348
1425923399.051,-22.446112
1425923399.067,-19.738941
1425923399.083,-17.785759
1425923399.098,-16.350565
1425923399.114,-15.021603
1425923399.129,-13.464521
1425923399.145,-11.497061
1425923399.161,-9.02463
1425923399.176,-6.0315037
1425923399.192,-2.688713
1425923399.208,0.70153904
1425923399.223,3.7028685
1425923399.239,5.8698463
1425923399.254,6.9327164
1425923399.27,6.8430543
1425923399.286,5.751734
1425923399.301,3.990759
1425923399.317,1.8601251
1425923399.333,-0.39451504
1425923399.348,-2.4490685
1425923399.364,-3.8989305
1425923399.379,-4.338402
1425923399.395,-3.438342
1425923399.411,-1.204586
1425923399.426,1.9638023
1425923399.442,5.4925113
1425923399.458,8.712406
1425923399.473,11.104209
1425923399.489,12.547346
1425923399.504,13.332691
1425923399.52,14.147331
1425923399.536,15.859881
1425923399.551,19.414066
1425923399.567,24.797434
1425923399.583,31.899973
1425923399.598,40.02624
1425923399.614,47.80718
1425923399.63,53.394344
1425923399.645,54.905045
1425923399.661,51.046207
1425923399.676,41.62361
1425923399.692,27.69033
1425923399.708,11.282739
1425923399.723,-5.1651306
1425923399.739,-19.636644
1425923399.755,-30.98249
1425923399.77,-38.98777
1425923399.786,-44.089863
1425923399.801,-46.962734
1425923399.817,-48.21697
1425923399.833,-48.275543
1425923399.848,-47.437866
1425923399.864,-45.849094
1425923399.88,-43.723618
1425923399.895,-41.30763
1425923399.911,-38.848114
1425923399.926,-36.544975
1425923399.942,-34.510857
1425923399.958,-32.76175
1425923399.973,-31.226238
1425923399.989,-29.7327
1425923400.005,-28.054966
1425923400.02,-26.02746
1425923400.036,-23.621778
1425923400.051,-20.963644
1425923400.067,-18.28436
1425923400.083,-15.736767
1425923400.098,-13.345877
1425923400.114,-10.892542
1425923400.13,-8.044298
1425923400.145,-4.4536324
1425923400.161,0.012875557
1425923400.176,5.237439
1425923400.192,10.864195
1425923400.208,16.489971
1425923400.223,21.851397
1425923400.239,26.889217
1425923400.255,31.735971
1425923400.27,36.629963
1425923400.286,41.83023
1425923400.301,47.60101
1425923400.317,54.206635
1425923400.333,61.794025
1425923400.348,70.17826
1425923400.364,78.607704
1425923400.38,85.64515
1425923400.395,89.43213
1425923400.411,88.18222
1425923400.426,80.863754
1425923400.442,67.674995
1425923400.458,50.086994
1425923400.473,30.404467
1425923400.489,11.056092
1425923400.505,-6.1117125
1425923400.52,-20.159872
1425923400.536,-31.067585
1425923400.551,-39.290577
1425923400.567,-45.444717
1425923400.583,-49.969376
1425923400.598,-53.09372
1425923400.614,-54.9023
1425923400.63,-55.505783
1425923400.645,-55.06098
1425923400.661,-53.82494
1425923400.676,-52.03298
1425923400.692,-49.869972
1425923400.708,-47.44196
1425923400.723,-44.859913
1425923400.739,-42.263603
1425923400.755,-39.88637
1425923400.77,-37.936684
1425923400.786,-36.507668
1425923400.801,-35.49768
1425923400.817,-34.565517
1425923400.833,-33.274273
1425923400.848,-31.264313
1425923400.864,-28.410275
1425923400.88,-24.871635
1425923400.895,-20.94485
1425923400.911,-16.916628
1425923400.926,-12.858396
1425923400.942,-8.64469
1425923400.958,-4.0161686
1425923400.973,1.2029419
1425923400.989,7.0192966
1425923401.005,13.190407
1425923401.02,19.389511
1425923401.036,25.248785
1425923401.051,30.57462
1425923401.067,35.370743
1425923401.083,39.849964
1425923401.098,44.38196
1425923401.114,49.458054
1425923401.13,55.533756
1425923401.145,62.785686
1425923401.161,70.838104
1425923401.176,78.55824
1425923401.192,84.17336
1425923401.208,85.71359
1425923401.223,81.68439
1425923401.239,71.68995
1425923401.255,56.665268
1425923401.27,38.61075
1425923401.286,19.92713
1425923401.301,2.6751041
1425923401.317,-11.917723
1425923401.333,-23.515343
1425923401.348,-32.39476
1425923401.364,-39.025196
1425923401.38,-43.81643
1425923401.395,-47.019875
1425923401.411,-48.860275
1425923401.426,-49.56769
1425923401.442,-49.436253
1425923401.458,-48.723907
1425923401.473,-47.578022
1425923401.489,-46.03055
1425923401.505,-44.0823
1425923401.52,-41.796177
1425923401.536,-39.373863
1425923401.551,-37.137646
1425923401.567,-35.42312
1425923401.583,-34.418884
1425923401.598,-34.081657
1425923401.614,-34.1017
1425923401.63,-34.014732
1425923401.645,-33.349457
1425923401.661,-31.772297
1425923401.676,-29.178474
1425923401.692,-25.760399
1425923401.708,-21.870823
1425923401.723,-17.940998
1425923401.739,-14.261047
1425923401.755,-10.907204
1425923401.77,-7.6368217
1425923401.786,-4.0460587
1425923401.801,0.24406052
1425923401.817,5.3967285
1425923401.833,11.227772
1425923401.848,17.30968
1425923401.864,23.165455
1425923401.88,28.51369
1425923401.895,33.4276
1425923401.911,38.26574
1425923401.926,43.614525
1425923401.942,49.99673
1425923401.958,57.653526
1425923401.973,66.2471
1425923401.989,74.76258
1425923402.005,81.545715
1425923402.02,84.68858
1425923402.036,82.59184
1425923402.051,74.552246
1425923402.067,61.08295
1425923402.083,43.820374
1425923402.098,25.02827
1425923402.114,6.9055443
1425923402.13,-8.95303
1425923402.145,-21.767551
1425923402.161,-31.496471
1425923402.176,-38.531166
1425923402.192,-43.395218
1425923402.208,-46.564884
1425923402.223,-48.41652
1425923402.239,-49.163784
1425923402.255,-48.960854
1425923402.27,-47.891724
1425923402.286,-46.045586
1425923402.302,-43.56576
1425923402.317,-40.649857
1425923402.333,-37.57509
1425923402.348,-34.640823
1425923402.364,-32.151222
1425923402.38,-30.37445
1425923402.395,-29.452538
1425923402.411,-29.343521
1425923402.426,-29.717064
1425923402.442,-30.017517
1425923402.458,-29.61657
1425923402.473,-28.069046
1425923402.489,-25.287155
1425923402.505,-21.553047
1425923402.52,-17.345871
1425923402.536,-13.070168
1425923402.552,-8.825462
1425923402.567,-4.408333
1425923402.583,0.49017334
1425923402.598,6.026848
1425923402.614,12.077904
1425923402.63,18.227272
1425923402.645,23.999008
1425923402.661,29.093285
1425923402.677,33.528976
1425923402.692,37.62671
1425923402.708,41.957832
1425923402.723,47.104347
1425923402.739,53.520836
1425923402.755,61.270332
1425923402.77,69.829506
1425923402.786,77.97565
1425923402.802,83.90971
1425923402.817,85.654076
1425923402.833,81.72187
1425923402.848,71.70611
1425923402.864,56.56038
1425923402.88,38.36525
1425923402.895,19.684273
1425923402.911,2.7321548
1425923402.927,-11.19059
1425923402.942,-21.815681
1425923402.958,-29.586647
1425923402.973,-35.16732
1425923402.989,-39.01696
1425923403.005,-41.329872
1425923403.02,-42.10569
1425923403.036,-41.431976
1425923403.052,-39.59259
1425923403.067,-37.031998
1425923403.083,-34.229652
1425923403.098,-31.554749
1425923403.114,-29.202797
1425923403.13,-27.22815
1425923403.145,-25.60109
1425923403.161,-24.293747
1425923403.177,-23.240677
1425923403.192,-22.374641
1425923403.208,-21.633263
1425923403.223,-20.993378
1425923403.239,-20.41066
1425923403.255,-19.76664
1425923403.27,-18.784279
1425923403.286,-17.06279
1425923403.302,-14.178146
1425923403.317,-9.97245
1425923403.333,-4.631706
1425923403.348,1.2810745
1425923403.364,7.0798874
1425923403.38,12.224426
1425923403.395,16.555206
1425923403.411,20.320473
1425923403.427,24.03373
1425923403.442,28.253044
1425923403.458,33.392876
1425923403.473,39.694405
1425923403.489,47.266487
1425923403.505,55.977753
1425923403.52,65.3387
1425923403.536,74.30203
1425923403.552,81.2658
1425923403.567,84.33645
1425923403.583,81.89804
1425923403.598,73.2532
1425923403.614,59.01584
1425923403.63,41.01854
1425923403.645,21.831497
1425923403.661,3.901245
1425923403.677,-11.1067505
1425923403.692,-22.622047
1425923403.708,-30.969666
1425923403.723,-36.88408
1425923403.739,-40.973824
1425923403.755,-43.508125
1425923403.77,-44.431824
1425923403.786,-43.688828
1425923403.802,-41.42128
1425923403.817,-38.114906
1425923403.833,-34.44055
1425923403.848,-31.012573
1425923403.864,-28.174438
1425923403.88,-25.908623
1425923403.895,-23.978897
1425923403.911,-22.130356
1425923403.927,-20.278297
1425923403.942,-18.582924
1425923403.958,-17.311981
1425923403.973,-16.68502
1425923403.989,-16.63218
1425923404.005,-16.773323
1425923404.02,-16.472717
1425923404.036,-15.072525
1425923404.052,-12.096771
1425923404.067,-7.4764023
1425923404.083,-1.5502472
1425923404.098,5.0288086
1425923404.114,11.554649
1425923404.13,17.464294
1425923404.145,22.568497
1425923404.161,27.052773
1425923404.177,31.439896
1425923404.192,36.3862
1425923404.208,42.48568
1425923404.223,50.088074
1425923404.239,59.04367
1425923404.255,68.58566
1425923404.27,77.34329
1425923404.286,83.45425
1425923404.302,85.080154
1425923404.317,80.914024
1425923404.333,70.72218
1425923404.348,55.498013
1425923404.364,37.268147
1425923404.38,18.452194
1425923404.395,1.2005768
1425923404.411,-13.147873
1425923404.427,-24.178917
1425923404.442,-32.231895
1425923404.458,-38.00567
1425923404.473,-42.12163
1425923404.489,-44.94521
1425923404.505,-46.57863
1425923404.52,-47.045914
1425923404.536,-46.471695
1425923404.552,-45.143944
1425923404.567,-43.52001
1425923404.583,-41.97326
1425923404.598,-40.690533
1425923404.614,-39.51619
1425923404.63,-38.155823
1425923404.645,-36.305073
1425923404.661,-33.91528
1425923404.677,-31.22234
1425923404.692,-28.69279
1425923404.708,-26.748795
1425923404.723,-25.522997
1425923404.739,-24.778002
1425923404.755,-23.960056
1425923404.77,-22.445265
1425923404.786,-19.755728
1425923404.802,-15.701857
1425923404.817,-10.442158
1425923404.833,-4.351345
1425923404.848,2.0901718
1425923404.864,8.5204
1425923404.88,14.761591
1425923404.895,20.87371
1425923404.911,27.035446
1425923404.927,33.512993
1425923404.942,40.573864
1425923404.958,48.479046
1425923404.973,57.40886
1425923404.989,67.34174
1425923405.005,77.828354
1425923405.02,87.7657
1425923405.036,95.45273
1425923405.052,98.91561
1425923405.067,96.505745
1425923405.083,87.565186
1425923405.098,72.76864
1425923405.114,54.01859
1425923405.13,33.809654
1425923405.145,14.49316
1425923405.161,-2.3774738
1425923405.177,-16.204977
1425923405.192,-27.18626
1425923405.208,-35.867756
1425923405.224,-42.78958
1425923405.239,-48.267044
1425923405.255,-52.3936
1425923405.27,-55.139847
1425923405.286,-56.480576
1425923405.302,-56.443108
1425923405.317,-55.18292
1425923405.333,-53.0055
1425923405.349,-50.342762
1425923405.364,-47.694427
1425923405.38,-45.49836
1425923405.395,-43.979763
1425923405.411,-43.10298
1425923405.427,-42.62372
1425923405.442,-42.194355
1425923405.458,-41.517906
1425923405.474,-40.426716
1425923405.489,-38.855885
1425923405.505,-36.776726
1425923405.52,-34.148754
1425923405.536,-30.89104
1425923405.552,-26.9356
1425923405.567,-22.318645
1425923405.583,-17.149387
1425923405.599,-11.618164
1425923405.614,-5.9111557
1425923405.63,-0.14456177
1425923405.645,5.6513824
1425923405.661,11.510765
1425923405.677,17.475647
1425923405.692,23.629044
1425923405.708,30.110481
1425923405.724,37.18219
1425923405.739,45.21615
1425923405.755,54.527153
1425923405.77,65.11467
1425923405.786,76.294846
1425923405.802,86.59567
1425923405.817,93.917435
1425923405.833,96.120636
1425923405.849,91.74853
1425923405.864,80.60222
1425923405.88,63.88717
1425923405.895,43.85682
1425923405.911,23.083832
1425923405.927,3.7638931
1425923405.942,-12.73877
1425923405.958,-25.961899
1425923405.974,-36.084747
1425923405.989,-43.59365
1425923406.005,-49.00579
1425923406.02,-52.74437
1425923406.036,-55.131027
1425923406.052,-56.383583
1425923406.067,-56.677856
1425923406.083,-56.14061
1425923406.099,-54.882072
1425923406.114,-53.067574
1425923406.13,-50.931778
1425923406.145,-48.796043
1425923406.161,-46.965935
1425923406.177,-45.66813
1425923406.192,-44.96904
1425923406.208,-44.753372
1425923406.224,-44.788765
1425923406.239,-44.802208
1425923406.255,-44.605675
1425923406.27,-44.13302
1425923406.286,-43.44715
1425923406.302,-42.669876
1425923406.317,-41.88318
1425923406.333,-41.04602
1425923406.349,-39.970177
1425923406.364,-38.34556
1425923406.38,-35.883995
1425923406.395,-32.386086
1425923406.411,-27.82956
1425923406.427,-22.414322
1425923406.442,-16.505173
1425923406.458,-10.472687
1425923406.474,-4.6151047
1425923406.489,1.0166016
1425923406.505,6.638916
1425923406.52,12.71476
1425923406.536,19.788986
1425923406.552,28.266151
1425923406.567,38.127617
1425923406.583,48.68418
1425923406.599,58.51879
1425923406.614,65.74615
1425923406.63,68.52033
1425923406.645,65.69334
1425923406.661,57.28425
1425923406.677,44.602654
1425923406.692,29.88559
1425923406.708,15.574013
1425923406.724,3.571373
1425923406.739,-5.1916046
1425923406.755,-10.82724
1425923406.77,-14.130196
1425923406.786,-16.10102
1425923406.802,-17.503654
1425923406.817,-18.722664
1425923406.833,-19.813637
1425923406.849,-20.675976
1425923406.864,-21.200245
1425923406.88,-21.339928
1425923406.895,-21.117771
1425923406.911,-20.583874
1425923406.927,-19.77113
1425923406.942,-18.718212
1425923406.958,-17.454018
1425923406.974,-16.00998
1425923406.989,-14.450508
1425923407.005,-12.869549
1425923407.02,-11.3619
1425923407.036,-10.005985
1425923407.052,-8.819527
1425923407.067,-7.710018
1425923407.083,-6.4404144
1425923407.099,-4.7169456
1425923407.114,-2.248806
1425923407.13,1.1101913
1425923407.145,5.3369064
1425923407.161,10.210926
1425923407.177,15.420925
1425923407.192,20.673183
1425923407.208,25.748676
1425923407.224,30.487797
1425923407.239,34.878914
1425923407.255,39.006577
1425923407.27,43.178272
1425923407.286,47.83338
1425923407.302,53.54976
1425923407.317,60.709827
1425923407.333,69.22746
1425923407.349,78.22917
1425923407.364,86.0639
1425923407.38,90.62099
1425923407.395,89.97577
1425923407.411,83.07213
1425923407.427,70.19871
1425923407.442,52.91881
1425923407.458,33.598373
1425923407.474,14.637348
1425923407.489,-2.1426315
1425923407.505,-15.852135
1425923407.52,-26.414146
1425923407.536,-34.22238
1425923407.552,-39.73356
1425923407.567,-43.323727
1425923407.583,-45.19527
1425923407.599,-45.564255
1425923407.614,-44.708904
1425923407.63,-43.02958
1425923407.645,-40.897964
1425923407.661,-38.598873
1425923407.677,-36.228764
1425923407.692,-33.739086
1425923407.708,-30.980103
1425923407.724,-27.932327
1425923407.739,-24.714638
1425923407.755,-21.689545
1425923407.77,-19.30037
1425923407.786,-17.90969
1425923407.802,-17.558483
1425923407.817,-17.897404
1425923407.833,-18.207214
1425923407.849,-17.706268
1425923407.864,-15.803329
1425923407.88,-12.389412
1425923407.896,-7.8119125
1425923407.911,-2.7549133
1425923407.927,2.1322708
1425923407.942,6.48053
1425923407.958,10.377213
1425923407.974,14.250267
1425923407.989,18.705475
1425923408.005,24.27752
1425923408.021,31.325676
1425923408.036,39.86763
1425923408.052,49.53315
1425923408.067,59.427277
1425923408.083,68.190384
1425923408.099,74.12436
1425923408.114,75.61244
1425923408.13,71.634285
1425923408.146,62.10517
1425923408.161,48.03116
1425923408.177,31.237846
1425923408.192,13.813576
1425923408.208,-2.3865738
1425923408.224,-16.152153
1425923408.239,-27.006882
1425923408.255,-35.016434
1425923408.271,-40.536636
1425923408.286,-43.96727
1425923408.302,-45.632294
1425923408.317,-45.814026
1425923408.333,-44.807617
1425923408.349,-42.990067
1425923408.364,-40.77195
1425923408.38,-38.550247
1425923408.396,-36.565666
1425923408.411,-34.830185
1425923408.427,-33.187042
1425923408.442,-31.431908
1425923408.458,-29.497322
1425923408.474,-27.536377
1425923408.489,-25.898232
1425923408.505,-24.90303
1425923408.521,-24.590355
1425923408.536,-24.608063
1425923408.552,-24.238533
1425923408.567,-22.721016
1425923408.583,-19.537659
1425923408.599,-14.68895
1425923408.614,-8.6951065
1425923408.63,-2.3089752
1425923408.646,3.7960968
1425923408.661,9.277626
1425923408.677,14.295532
1425923408.692,19.349411
1425923408.708,25.118164
1425923408.724,32.229637
1425923408.739,41.040596
1425923408.755,51.49341
1425923408.771,62.909843
1425923408.786,73.91966
1425923408.802,82.59398
1425923408.817,86.85181
1425923408.833,85.10181
1425923408.849,76.821884
1425923408.864,62.842834
1425923408.88,45.108704
1425923408.896,26.075897
1425923408.911,7.952736
1425923408.927,-7.835243
1425923408.942,-20.775162
1425923408.958,-30.988434
1425923408.974,-38.889175
1425923408.989,-44.846764
1425923409.005,-49.05922
1425923409.021,-51.625237
1425923409.036,-52.7054
1425923409.052,-52.53534
1425923409.067,-51.44262
1425923409.083,-49.744858
1425923409.099,-47.699966
1425923409.114,-45.463142
1425923409.13,-43.15863
1425923409.146,-40.863045
1425923409.161,-38.695656
1425923409.177,-36.746902
1425923409.192,-35.05397
1425923409.208,-33.584236
1425923409.224,-32.25782
1425923409.239,-30.98249
1425923409.255,-29.669662
1425923409.271,-28.201706
1425923409.286,-26.363167
1425923409.302,-23.83664
1425923409.317,-20.286743
1425923409.333,-15.520302
1425923409.349,-9.6425705
1425923409.364,-3.0612488
1425923409.38,3.6163025
1425923409.396,9.863007
1425923409.411,15.417816
1425923409.427,20.415894
1425923409.442,25.274681
1425923409.458,30.568665
1425923409.474,36.869957
1425923409.489,44.579384
1425923409.505,53.834328
1425923409.521,64.298645
1425923409.536,74.980515
1425923409.552,84.21062
1425923409.567,89.92195
1425923409.583,90.23645
1425923409.599,84.11621
1425923409.614,71.862885
1425923409.63,55.037666
1425923409.646,36.02617
1425923409.661,17.22554
1425923409.677,0.41973877
1425923409.692,-13.545364
1425923409.708,-24.632324
1425923409.724,-33.279922
1425923409.739,-40.031754
1425923409.755,-45.286858
1425923409.771,-49.272224
1425923409.786,-52.079514
1425923409.802,-53.769775
1425923409.817,-54.432343
1425923409.833,-54.2287
1425923409.849,-53.40732
1425923409.864,-52.249664
1425923409.88,-50.99459
1425923409.896,-49.77292
1425923409.911,-48.601067
1425923409.927,-47.395554
1425923409.942,-46.077354
1425923409.958,-44.58155
1425923409.974,-42.887794
1425923409.989,-40.95838
1425923410.005,-38.773666
1425923410.021,-36.24714
1425923410.036,-33.349632
1425923410.052,-30.030502
1425923410.067,-26.249107
1425923410.083,-21.934258
1425923410.099,-17.014893
1425923410.114,-11.48381
1425923410.13,-5.4673233
1425923410.146,0.77606964
1425923410.161,6.883522
1425923410.177,12.552437
1425923410.192,17.611
1425923410.208,22.135864
1425923410.224,26.412514
1425923410.239,30.896912
1425923410.255,36.061195
1425923410.271,42.241028
1425923410.286,49.35225
1425923410.302,56.71057
1425923410.317,62.925903
1425923410.333,66.1722
1425923410.349,64.68529
1425923410.364,57.40249
1425923410.38,44.419655
1425923410.396,27.010284
1425923410.411,7.2257156
1425923410.427,-12.7715
1425923410.442,-31.307114
1425923410.458,-47.48665
1425923410.474,-61.17533
1425923410.489,-72.690605
1425923410.505,-82.51593
1425923410.521,-91.04998
1425923410.536,-98.53421
1425923410.552,-105.030876
1425923410.568,-110.48075
1425923410.583,-114.74348
1425923410.599,-117.741425
1425923410.614,-119.56268
1425923410.63,-120.455025
1425923410.646,-120.70237
1425923410.661,-120.44518
1425923410.677,-119.48465
1425923410.693,-117.37682
1425923410.708,-113.65879
1425923410.724,-108.16356
1425923410.739,-101.16119
1425923410.755,-93.25473
1425923410.771,-85.05042
1425923410.786,-76.814575
1425923410.802,-68.31414
1425923410.818,-58.95815
1425923410.833,-48.143867
1425923410.849,-35.60762
1425923410.864,-21.581757
1425923410.88,-6.7491913
1425923410.896,8.037834
1425923410.911,22.04631
1425923410.927,34.86251
1425923410.943,46.429108
1425923410.958,56.988205
1425923410.974,66.9164
1425923410.989,76.61951
1425923411.005,86.445404
1425923411.021,96.716064
1425923411.036,107.69194
1425923411.052,119.471085
1425923411.068,131.7158
1425923411.083,143.39366
1425923411.099,152.7125
1425923411.114,157.39511
1425923411.13,155.43015
1425923411.146,145.85481
1425923411.161,129.33437
1425923411.177,108.16281
1425923411.193,85.53853
1425923411.208,64.53029
1425923411.224,47.121124
1425923411.239,33.8349
1425923411.255,24.017181
1425923411.271,16.529388
1425923411.286,10.486206
1425923411.302,5.6293945
1425923411.318,2.2019653
1425923411.333,0.52737427
1425923411.349,0.6236267
1425923411.364,2.0603027
1425923411.38,4.0696716
1425923411.396,5.907135
1425923411.411,7.098694
1425923411.427,7.6076355
1425923411.443,7.692322
1425923411.458,7.7112427
1425923411.474,7.901886
1425923411.489,8.296356
1425923411.505,8.704346
1425923411.521,8.89447
1425923411.536,8.696533
1425923411.552,8.146881
1425923411.568,7.466522
1425923411.583,7.0801697
1425923411.599,7.430725
1425923411.614,8.8594055
1425923411.63,11.490204
1425923411.646,15.15033
1425923411.661,19.408295
1425923411.677,23.732208
1425923411.693,27.70398
1425923411.708,31.153564
1425923411.724,34.213043
1425923411.739,37.300507
1425923411.755,40.93451
1425923411.771,45.58539
1425923411.786,51.532715
1425923411.802,58.739136
1425923411.818,66.67102
1425923411.833,74.24783
1425923411.849,79.82971
1425923411.864,81.586334
1425923411.88,77.98428
1425923411.896,68.42041
1425923411.911,53.57669
1425923411.927,35.344055
1425923411.943,16.247986
1425923411.958,-1.3651733
1425923411.974,-15.961487
1425923411.989,-27.05606
1425923412.005,-34.977875
1425923412.021,-40.34543
1425923412.036,-43.64151
1425923412.052,-45.07309
1425923412.068,-44.731873
1425923412.083,-42.86499
1425923412.099,-40.03546
1425923412.114,-37.0177
1425923412.13,-34.509674
1425923412.146,-32.823334
1425923412.161,-31.817108
1425923412.177,-30.965424
1425923412.193,-29.770447
1425923412.208,-27.97702
1425923412.224,-25.81723
1425923412.239,-23.849243
1425923412.255,-22.666473
1425923412.271,-22.54541
1425923412.286,-23.240814
1425923412.302,-23.994385
1425923412.318,-23.808014
1425923412.333,-21.885986
1425923412.349,-17.935486
1425923412.364,-12.293274
1425923412.38,-5.7407837
1425923412.396,0.81625366
1425923412.411,6.709656
1425923412.427,11.765533
1425923412.443,16.233704
1425923412.458,20.738403
1425923412.474,25.944641
1425923412.489,32.42563
1425923412.505,40.410522
1425923412.521,49.67215
1425923412.536,59.303284
1425923412.552,67.778595
1425923412.568,73.14041
1425923412.583,73.553375
1425923412.599,67.906494
1425923412.614,56.279907
1425923412.63,40.069763
1425923412.646,21.588501
1425923412.661,3.322937
1425923412.677,-12.728149
1425923412.693,-25.511566
1425923412.708,-34.859467
1425923412.724,-41.259277
1425923412.739,-45.32498
1425923412.755,-47.57837
1425923412.771,-48.32144
1425923412.786,-47.76776
1425923412.802,-46.144867
1425923412.818,-43.81067
1425923412.833,-41.17154
1425923412.849,-38.544495
1425923412.864,-36.09546
1425923412.88,-33.73169
1425923412.896,-31.261566
1425923412.911,-28.537537
1425923412.927,-25.581818
1425923412.943,-22.694794
1425923412.958,-20.304718
1425923412.974,-18.786774
1425923412.989,-18.191315
1425923413.005,-18.161957
1425923413.021,-17.968018
1425923413.036,-16.752502
1425923413.052,-13.863525
1425923413.068,-9.092133
1425923413.083,-2.8042603
1425923413.099,4.216156
1425923413.114,11.045013
1425923413.13,16.98825
1425923413.146,21.842438
1425923413.161,25.974487
1425923413.177,30.120178
1425923413.193,35.118835
1425923413.208,41.655304
1425923413.224,50.006165
1425923413.24,59.913666
1425923413.255,70.49597
1425923413.271,80.25748
1425923413.286,87.244415
1425923413.302,89.4682
1425923413.318,85.50394
1425923413.333,74.99402
1425923413.349,58.97238
1425923413.364,39.584534
1425923413.38,19.513733
1425923413.396,1.2185364
1425923413.411,-13.712006
1425923413.427,-24.774933
1425923413.443,-32.37018
1425923413.458,-37.437653
1425923413.474,-40.9617
1425923413.49,-43.67099
1425923413.505,-45.928284
1425923413.521,-47.73813
1425923413.536,-48.89717
1425923413.552,-49.185745
1425923413.568,-48.48401
1425923413.583,-46.888794
1425923413.599,-44.650497
1425923413.615,-42.10295
1425923413.63,-39.495544
1425923413.646,-37.00296
1425923413.661,-34.678375
1425923413.677,-32.554688
1425923413.693,-30.629883
1425923413.708,-28.879883
1425923413.724,-27.188797
1425923413.74,-25.345139
1425923413.755,-23.073425
1425923413.771,-20.106049
1425923413.786,-16.23265
1425923413.802,-11.378021
1425923413.818,-5.619522
1425923413.833,0.8097229
1425923413.849,7.5626526
1425923413.865,14.233017
1425923413.88,20.461914
1425923413.896,26.055756
1425923413.911,31.050812
1425923413.927,35.710785
1425923413.943,40.487717
1425923413.958,45.864777
1425923413.974,52.329453
1425923413.99,60.184204
1425923414.005,69.4435
1425923414.021,79.57602
1425923414.036,89.39041
1425923414.052,97.05841
1425923414.068,100.48941
1425923414.083,97.92566
1425923414.099,88.628235
1425923414.115,73.25072
1425923414.13,53.720947
1425923414.146,32.67949
1425923414.161,12.663147
1425923414.177,-4.602951
1425923414.193,-18.43039
1425923414.208,-29.062424
1425923414.224,-37.139984
1425923414.24,-43.32698
1425923414.255,-48.003464
1425923414.271,-51.31244
1425923414.286,-53.27231
1425923414.302,-53.960083
1425923414.318,-53.52368
1425923414.333,-52.212265
1425923414.349,-50.26439
1425923414.365,-47.87979
1425923414.38,-45.279877
1425923414.396,-42.686676
1425923414.411,-40.35501
1425923414.427,-38.50177
1425923414.443,-37.23668
1425923414.458,-36.46492
1425923414.474,-35.883484
1425923414.49,-35.086838
1425923414.505,-33.65735
1425923414.521,-31.407272
1425923414.536,-28.332077
1425923414.552,-24.664505
1425923414.568,-20.64087
1425923414.583,-16.426636
1425923414.599,-12.005035
1425923414.615,-7.207611
1425923414.63,-1.855011
1425923414.646,4.1401825
1425923414.661,10.668579
1425923414.677,17.446182
1425923414.693,24.118301
1425923414.708,30.38617
1425923414.724,36.18361
1425923414.74,41.682602
1425923414.755,47.326218
1425923414.771,53.654953
1425923414.786,61.120087
1425923414.802,69.73372
1425923414.818,78.85367
1425923414.833,87.042206
1425923414.849,92.29692
1425923414.865,92.57573
1425923414.88,86.493256
1425923414.896,73.92459
1425923414.911,56.136444
1425923414.927,35.44603
1425923414.943,14.513748
1425923414.958,-4.4421844
1425923414.974,-20.119247
1425923414.99,-32.245667
1425923415.005,-41.21994
1425923415.021,-47.754196
1425923415.036,-52.462708
1425923415.052,-55.7863
1425923415.068,-57.99034
1425923415.083,-59.259033
1425923415.099,-59.757217
1425923415.115,-59.596848
1425923415.13,-58.876816
1425923415.146,-57.646378
1425923415.161,-55.94564
1425923415.177,-53.86364
1425923415.193,-51.508812
1425923415.208,-49.03855
1425923415.224,-46.58571
1425923415.24,-44.249115
1425923415.255,-42.016457
1425923415.271,-39.807808
1425923415.286,-37.42861
1425923415.302,-34.711617
1425923415.318,-31.557884
1425923415.333,-28.007462
1425923415.349,-24.194847
1425923415.365,-20.285477
1425923415.38,-16.316124
1425923415.396,-12.130531
1425923415.411,-7.409279
1425923415.427,-1.8412552
1425923415.443,4.7055283
1425923415.458,12.033882
1425923415.474,19.655807
1425923415.49,26.971107
1425923415.505,33.505135
1425923415.521,39.117043
1425923415.536,44.11441
1425923415.552,49.116783
1425923415.568,54.901367
1425923415.583,62.07241
1425923415.599,70.735405
1425923415.615,80.22545
1425923415.63,88.991905
1425923415.646,94.85449
1425923415.661,95.59857
1425923415.677,89.694695
1425923415.693,76.95178
1425923415.708,58.67636
1425923415.724,37.358055
1425923415.74,15.83503
1425923415.755,-3.4778366
1425923415.771,-19.186035
1425923415.786,-30.975601
1425923415.802,-39.3265
1425923415.818,-45.014336
1425923415.833,-48.760773
1425923415.849,-50.99227
1425923415.865,-51.939957
1425923415.88,-51.708138
1425923415.896,-50.447845
1425923415.912,-48.37879
1425923415.927,-45.78257
1425923415.943,-42.953278
1425923415.958,-40.13289
1425923415.974,-37.497314
1425923415.99,-35.124382
1425923416.005,-33.04651
1425923416.021,-31.296288
1425923416.036,-29.884033
1425923416.052,-28.792557
1425923416.068,-27.94255
1425923416.083,-27.17833
1425923416.099,-26.225056
1425923416.115,-24.805706
1425923416.13,-22.61399
1425923416.146,-19.44833
1425923416.162,-15.223133
1425923416.177,-10.050995
1425923416.193,-4.204735
1425923416.208,1.9061432
1425923416.224,7.9003487
1425923416.24,13.5382805
1425923416.255,18.772263
1425923416.271,23.785797
1425923416.287,28.872349
1425923416.302,34.36416
1425923416.318,40.6163
1425923416.333,47.88144
1425923416.349,56.239952
1425923416.365,65.32912
1425923416.38,74.18776
1425923416.396,81.161354
1425923416.412,84.26071
1425923416.427,81.73346
1425923416.443,72.76256
1425923416.458,57.884106
1425923416.474,38.957085
1425923416.49,18.57074
1425923416.505,-0.74933624
1425923416.521,-17.2401
1425923416.537,-30.235283
1425923416.552,-39.946945
1425923416.568,-47.030094
1425923416.583,-52.11045
1425923416.599,-55.495777
1425923416.615,-57.256836
1425923416.63,-57.40539
1425923416.646,-56.121136
1425923416.662,-53.79486
1425923416.677,-50.976074
1425923416.693,-48.133064
1425923416.708,-45.518448
1425923416.724,-43.10688
1425923416.74,-40.709927
1425923416.755,-38.113663
1425923416.771,-35.273758
1425923416.787,-32.343327
1425923416.802,-29.624142
1425923416.818,-27.377829
1425923416.833,-25.646883
1425923416.849,-24.158108
1425923416.865,-22.363132
1425923416.88,-19.607471
1425923416.896,-15.426163
1425923416.912,-9.719301
1425923416.927,-2.8268547
1425923416.943,4.6192055
1425923416.958,11.911067
1425923416.974,18.583298
1425923416.99,24.511091
1425923417.005,29.959778
1425923417.021,35.432713
1425923417.037,41.56797
1425923417.052,48.920452
1425923417.068,57.819138
1425923417.083,68.13951
1425923417.099,79.09262
1425923417.115,89.144775
1425923417.13,96.16838
1425923417.146,97.99763
1425923417.162,93.07527
1425923417.177,81.107155
1425923417.193,63.2698
1425923417.208,41.931664
1425923417.224,19.906118
1425923417.24,-0.38041306
1425923417.255,-17.453075
1425923417.271,-30.91212
1425923417.287,-41.127544
1425923417.302,-48.76528
1425923417.318,-54.36466
1425923417.333,-58.197636
1425923417.349,-60.304623
1425923417.365,-60.706753
1425923417.38,-59.52844
1425923417.396,-57.05571
1425923417.412,-53.6963
1425923417.427,-49.88521
1425923417.443,-46.000977
1425923417.458,-42.32244
1425923417.474,-39.018475
1425923417.49,-36.16703
1425923417.505,-33.765434
1425923417.521,-31.786312
1425923417.537,-30.141663
1425923417.552,-28.745903
1425923417.568,-27.475956
1425923417.583,-26.169275
1425923417.599,-24.61407
1425923417.615,-22.604053
1425923417.63,-19.965221
1425923417.646,-16.546864
1425923417.662,-12.298393
1425923417.677,-7.260927
1425923417.693,-1.5679779
1425923417.708,4.565653
1425923417.724,10.903788
1425923417.74,17.268309
1425923417.755,23.577044
1425923417.771,29.904776
1425923417.787,36.488388
1425923417.802,43.670967
1425923417.818,51.871735
1425923417.833,61.353935
1425923417.849,72.01576
1425923417.865,83.03641
1425923417.88,92.82699
1425923417.896,99.205154
1425923417.912,99.98421
1425923417.927,93.74071
1425923417.943,80.40242
1425923417.958,61.434593
1425923417.974,39.40862
1425923417.99,17.178984
1425923418.005,-2.9181995
1425923418.021,-19.60758
1425923418.037,-32.64494
1425923418.052,-42.47623
1425923418.068,-49.74092
1425923418.083,-54.957214
1425923418.099,-58.43371
1425923418.115,-60.36618
1425923418.13,-60.958782
1425923418.146,-60.445507
1425923418.162,-59.069126
1425923418.177,-57.03963
1425923418.193,-54.509163
1425923418.208,-51.641785
1425923418.224,-48.585945
1425923418.24,-45.546036
1425923418.255,-42.712296
1425923418.271,-40.242413
1425923418.287,-38.171772
1425923418.302,-36.412605
1425923418.318,-34.78797
1425923418.333,-33.097496
1425923418.349,-31.176083
1425923418.365,-28.960701
1425923418.38,-26.460815
1425923418.396,-23.71091
1425923418.412,-20.677292
1425923418.427,-17.236744
1425923418.443,-13.215427
1425923418.458,-8.48111
1425923418.474,-3.0418396
1425923418.49,2.8990898
1425923418.505,9.067871
1425923418.521,15.181961
1425923418.537,21.115017
1425923418.552,26.90635
1425923418.568,32.794292
1425923418.583,39.13827
1425923418.599,46.368534
1425923418.615,54.801773
1425923418.63,64.38565
1425923418.646,74.36316
1425923418.662,83.135445
1425923418.677,88.42871
1425923418.693,87.93794
1425923418.708,80.14487
1425923418.724,65.02208
1425923418.74,44.188602
1425923418.755,20.407902
1425923418.771,-3.3389683
1425923418.787,-24.765774
1425923418.802,-42.752953
1425923418.818,-57.2789
1425923418.834,-68.94435
1425923418.849,-78.37321
1425923418.865,-85.92723
1425923418.88,-91.67223
1425923418.896,-95.59914
1425923418.912,-97.82759
1425923418.927,-98.735504
1425923418.943,-98.883286
1425923418.959,-98.91273
1425923418.974,-99.3179
1425923418.99,-100.375534
1425923419.005,-102.06206
1425923419.021,-104.08809
1425923419.037,-105.997314
1425923419.052,-107.29488
1425923419.068,-107.51812
1425923419.084,-106.20554
1425923419.099,-102.91475
1425923419.115,-97.25542
1425923419.13,-88.90315
1425923419.146,-77.760506
1425923419.162,-63.954132
1425923419.177,-47.886612
1425923419.193,-30.141052
1425923419.209,-11.533569
1425923419.224,6.9706345
1425923419.24,24.260666
1425923419.255,39.324043
1425923419.271,51.530807
1425923419.287,60.921494
1425923419.302,68.265785
1425923419.318,74.791885
1425923419.334,81.78493
1425923419.349,90.13265
1425923419.365,100.14882
1425923419.38,111.58493
1425923419.396,123.70602
1425923419.412,135.33011
1425923419.427,144.75124
1425923419.443,149.88028
1425923419.459,148.65524
1425923419.474,139.75995
1425923419.49,123.28989
1425923419.505,100.99028
1425923419.521,75.77023
1425923419.537,50.833252
1425923419.552,28.624725
1425923419.568,10.31221
1425923419.584,-4.163864
1425923419.599,-15.515274
1425923419.615,-24.512741
1425923419.63,-31.575134
1425923419.646,-36.75795
1425923419.662,-40.028503
1425923419.677,-41.506393
1425923419.693,-41.570053
1425923419.709,-40.751556
1425923419.724,-39.515564
1425923419.74,-38.05536
1425923419.755,-36.26767
1425923419.771,-33.917557
1425923419.787,-30.912811
1425923419.802,-27.519363
1425923419.818,-24.332626
1425923419.834,-22.059494
1425923419.849,-21.154526
1425923419.865,-21.557312
1425923419.88,-22.653381
1425923419.896,-23.48288
1425923419.912,-23.088974
1425923419.927,-20.93106
1425923419.943,-17.021423
1425923419.959,-11.918915
1425923419.974,-6.4486847
1425923419.99,-1.4007568
1425923420.005,2.8002625
1425923420.021,6.2090454
1425923420.037,9.345734
1425923420.052,13.004883
1425923420.068,18.049011
1425923420.084,25.187271
1425923420.099,34.759613
1425923420.115,46.580933
1425923420.13,59.709473
1425923420.146,72.41226
1425923420.162,82.363525
1425923420.177,87.15369
1425923420.193,85.06247
1425923420.209,75.746124
1425923420.224,60.466797
1425923420.24,41.743164
1425923420.255,22.50998
1425923420.271,5.1604614
1425923420.287,-8.990601
1425923420.302,-19.744965
1425923420.318,-27.58014
1425923420.334,-33.06015
1425923420.349,-36.52127
1425923420.365,-38.043518
1425923420.38,-37.69214
1425923420.396,-35.72876
1425923420.412,-32.66507
1425923420.427,-29.089355
1425923420.443,-25.438873
1425923420.459,-21.873047
1425923420.474,-18.339905
1425923420.49,-14.745728
1425923420.505,-11.153473
1425923420.521,-7.834259
1425923420.537,-5.1631775
1425923420.552,-3.3782654
1425923420.568,-2.4051514
1425923420.584,-1.7815857
1425923420.599,-0.8440552
1425923420.615,1.0747986
1425923420.63,4.328705
1425923420.646,8.79129
1425923420.662,13.879486
1425923420.677,18.790741
1425923420.693,22.775238
1425923420.709,25.40207
1425923420.724,26.732666
1425923420.74,27.307587
1425923420.755,28.067932
1425923420.771,30.087646
1425923420.787,34.260315
1425923420.802,40.85443
1425923420.818,49.17453
1425923420.834,57.513885
1425923420.849,63.509125
1425923420.865,64.7648
1425923420.88,59.667206
1425923420.896,47.939697
1425923420.912,30.704102
1425923420.927,10.166687
1425923420.943,-10.939117
1425923420.959,-29.955414
1425923420.974,-44.73111
1425923420.99,-53.909363
1425923421.005,-57.090424
1425923421.021,-54.901093
1425923421.037,-48.877777
1425923421.052,-41.14218
1425923421.068,-33.80063
1425923421.084,-28.338898
1425923421.099,-25.166138
1425923421.115,-23.519287
1425923421.13,-21.796448
1425923421.146,-18.131989
1425923421.162,-11.024048
1425923421.177,0.21932983
1425923421.193,15.37915
1425923421.209,33.399994
1425923421.224,52.780457
1425923421.24,71.95715
1425923421.255,89.68063
1425923421.271,105.191315
1425923421.287,118.26343
1425923421.302,129.07974
1425923421.318,138.02731
1425923421.334,145.50433
1425923421.349,151.80582
1425923421.365,157.03473
1425923421.38,161.16382
1425923421.396,164.12383
1425923421.412,165.99489
1425923421.427,167.13065
1425923421.443,168.21082
1425923421.459,170.06009
1425923421.474,173.25583
1425923421.49,177.66136
1425923421.506,182.12411
1425923421.521,184.57042
1425923421.537,182.52046
1425923421.552,173.91672
1425923421.568,157.91768
1425923421.584,135.24565
1425923421.599,107.961975
1425923421.615,78.76929
1425923421.631,50.19986
1425923421.646,24.025528
1425923421.662,1.1352539
1425923421.677,-18.301346
1425923421.693,-34.39099
1425923421.709,-47.310703
1425923421.724,-57.234734
1425923421.74,-64.38017
1425923421.756,-69.12958
1425923421.771,-72.001465
1425923421.787,-73.55971
1425923421.802,-74.2989
1425923421.818,-74.52782
1425923421.834,-74.40728
1425923421.849,-73.9444
1425923421.865,-73.11423
1425923421.881,-71.95067
1425923421.896,-70.59287
1425923421.912,-69.28821
1425923421.927,-68.31839
1425923421.943,-67.80374
1425923421.959,-67.56802
1425923421.974,-67.072754
1425923421.99,-65.56946
1425923422.006,-62.32608
1425923422.021,-56.9794
1425923422.037,-49.736145
1425923422.052,-41.333496
1425923422.068,-32.807938
1425923422.084,-25.023438
1425923422.099,-18.372314
1425923422.115,-12.569244
1425923422.131,-6.747284
1425923422.146,0.17990112
1425923422.162,9.132782
1425923422.177,20.399689
1425923422.193,33.38849
1425923422.209,46.48642
1425923422.224,57.319244
1425923422.24,63.24771
1425923422.256,62.06314
1425923422.271,52.67206
1425923422.287,35.48758
1425923422.302,12.37442
1425923422.318,-13.872681
1425923422.334,-40.351624
1425923422.349,-64.80246
1425923422.365,-86.078094
1425923422.381,-104.14969
1425923422.396,-119.70993
1425923422.412,-133.57819
1425923422.427,-146.27606
1425923422.443,-157.83676
1425923422.459,-168.01297
1425923422.474,-176.52261
1425923422.49,-183.33557
1425923422.506,-188.61801
1425923422.521,-192.59576
1425923422.537,-195.33862
1425923422.552,-196.76703
1425923422.568,-196.77228
1425923422.584,-195.50037
1425923422.599,-193.3764
1425923422.615,-191.02222
1425923422.631,-188.94818
1425923422.646,-187.3742
1425923422.662,-186.20148
1425923422.677,-185.24542
1425923422.693,-184.3714
1425923422.709,-183.51611
1425923422.724,-182.43393
1425923422.74,-180.47778
1425923422.756,-176.54037
1425923422.771,-169.37418
1425923422.787,-157.99194
1425923422.802,-141.96976
1425923422.818,-121.37872
1425923422.834,-96.53714
1425923422.849,-67.68558
1425923422.865,-34.934265
1425923422.881,1.5501099
1425923422.896,41.17572
1425923422.912,82.75159
1425923422.927,124.37387
1425923422.943,163.56381
1425923422.959,197.41412
1425923422.974,222.89218
1425923422.99,237.24133
1425923423.006,238.6229
1425923423.021,226.75806
1425923423.037,203.27554
1425923423.052,171.42703
1425923423.068,135.2933
1425923423.084,98.63489
1425923423.099,64.0116
1425923423.115,32.493103
1425923423.131,3.9767761
1425923423.146,-22.284271
1425923423.162,-47.138733
1425923423.177,-71.35211
1425923423.193,-95.554016
1425923423.209,-120.20984
1425923423.224,-145.40137
1425923423.24,-170.5419
1425923423.256,-194.25998
1425923423.271,-214.62549
1425923423.287,-229.6654
1425923423.302,-237.98434
1425923423.318,-239.15817
1425923423.334,-233.74126
1425923423.349,-222.97862
1425923423.365,-208.44328
1425923423.381,-191.77216
1425923423.396,-174.51701
1425923423.412,-158.00264
1425923423.427,-143.25006
1425923423.443,-130.81876
1425923423.459,-120.83525
1425923423.474,-113.129585
1425923423.49,-107.38796
1425923423.506,-103.300766
1425923423.521,-100.60834
1425923423.537,-98.94095
1425923423.552,-97.71769
1425923423.568,-96.09259
1425923423.584,-92.93863
1425923423.599,-87.026634
1425923423.615,-77.20404
1425923423.631,-62.536865
1425923423.646,-42.508873
1425923423.662,-17.028214
1425923423.677,13.546524
1425923423.693,48.676468
1425923423.709,87.873764
1425923423.724,130.73235
1425923423.74,176.54984
1425923423.756,223.64226
1425923423.771,268.86127
1425923423.787,307.8636
1425923423.802,336.1847
1425923423.818,350.8257
1425923423.834,351.405
1425923423.849,340.30774
1425923423.865,321.54446
1425923423.881,299.13684
1425923423.896,275.76602
1425923423.912,252.44446
1425923423.927,229.12231
1425923423.943,205.76651
1425923423.959,183.03699
1425923423.974,162.20264
1425923423.99,144.47498
1425923424.006,130.26605
1425923424.021,118.98123
1425923424.037,109.33276
1425923424.052,100.08829
1425923424.068,90.622284
1425923424.084,81.07852
1425923424.099,72.08099
1425923424.115,64.220825
1425923424.131,57.650757
1425923424.146,52.01419
1425923424.162,46.72455
1425923424.178,41.291534
1425923424.193,35.72336
1425923424.209,30.508087
1425923424.224,26.462372
1425923424.24,24.298767
1425923424.256,24.310211
1425923424.271,26.18277
1425923424.287,29.108948
1425923424.302,32.113983
1425923424.318,34.465485
1425923424.334,35.960297
1425923424.349,37.00653
1425923424.365,38.54416
1425923424.381,41.671356
1425923424.396,47.244293
1425923424.412,55.423706
1425923424.428,65.31253
1425923424.443,74.90195
1425923424.459,81.40469
1425923424.474,82.07962
1425923424.49,75.138855
1425923424.506,60.5278
1425923424.521,40.01233
1425923424.537,16.654694
1425923424.553,-6.2658386
1425923424.568,-26.205078
1425923424.584,-41.927032
1425923424.599,-53.392365
1425923424.615,-61.253723
1425923424.631,-66.24759
1425923424.646,-68.87457
1425923424.662,-69.38031
1425923424.678,-68.030304
1425923424.693,-65.2446
1425923424.709,-61.625244
1425923424.724,-57.79541
1425923424.74,-54.168945
1425923424.756,-50.837006
1425923424.771,-47.615906
1425923424.787,-44.23831
1425923424.803,-40.57007
1425923424.818,-36.787964
1425923424.834,-33.327515
1425923424.849,-30.675964
1425923424.865,-29.064514
1425923424.881,-28.25235
1425923424.896,-27.53543
1425923424.912,-25.966187
1425923424.928,-22.7753
1425923424.943,-17.684052
1425923424.959,-11.009613
1425923424.974,-3.463562
1425923424.99,4.1508484
1425923425.006,11.327057
1425923425.021,17.980896
1425923425.037,24.46997
1425923425.053,31.397766
1425923425.068,39.49881
1425923425.084,49.30774
1425923425.099,60.9205
1425923425.115,73.61948
1425923425.131,85.66666
1425923425.146,94.521454
1425923425.162,97.45297
1425923425.178,92.507385
1425923425.193,79.34271
1425923425.209,59.515472
1425923425.224,36.031464
1425923425.24,12.300751
1425923425.256,-8.937958
1425923425.271,-26.288177
1425923425.287,-39.679443
1425923425.303,-49.813232
1425923425.318,-57.47159
1425923425.334,-63.117188
1425923425.349,-66.86075
1425923425.365,-68.73813
1425923425.381,-68.95383
1425923425.396,-67.96799
1425923425.412,-66.30731
1425923425.428,-64.341034
1425923425.443,-62.11264
1425923425.459,-59.403137
1425923425.474,-55.885437
1425923425.49,-51.44583
1425923425.506,-46.315826
1425923425.521,-41.069397
1425923425.537,-36.4068
1425923425.553,-32.847336
1425923425.568,-30.440155
1425923425.584,-28.706497
1425923425.599,-26.777222
1425923425.615,-23.70308
1425923425.631,-18.867477
1425923425.646,-12.208984
1425923425.662,-4.2315216
1425923425.678,4.1545715
1425923425.693,12.062241
1425923425.709,18.898132
1425923425.724,24.654816
1425923425.74,29.861237
1425923425.756,35.418182
1425923425.771,42.26996
1425923425.787,51.096527
1425923425.803,62.005035
1425923425.818,74.28899
1425923425.834,86.351395
1425923425.849,95.90706
1425923425.865,100.449554
1425923425.881,98.0388
1425923425.896,88.00903
1425923425.912,71.32956
1425923425.928,50.422775
1425923425.943,28.438232
1425923425.959,8.202438
1425923425.974,-8.514252
1425923425.99,-21.334274
1425923426.006,-30.891891
1425923426.021,-38.19641
1425923426.037,-43.996277
1425923426.053,-48.54825
1425923426.068,-51.68878
1425923426.084,-53.2325
1425923426.099,-53.176956
1425923426.115,-51.841354
1425923426.131,-49.692825
1425923426.146,-47.156372
1425923426.162,-44.482742
1425923426.178,-41.724167
1425923426.193,-38.805862
1425923426.209,-35.659454
1425923426.224,-32.31372
1425923426.24,-28.964966
1425923426.256,-25.867966
1425923426.271,-23.286789
1425923426.287,-21.33525
1425923426.303,-19.891235
1425923426.318,-18.560501
1425923426.334,-16.789734
1425923426.349,-14.051941
1425923426.365,-10.047546
1425923426.381,-4.844864
1425923426.396,1.1306305
1425923426.412,7.289856
1425923426.428,13.070419
1425923426.443,18.196838
1425923426.459,22.651108
1425923426.474,26.6969
1425923426.49,30.703339
1425923426.506,35.085815
1425923426.521,40.32126
1425923426.537,46.907913
1425923426.553,55.146637
1425923426.568,64.86044
1425923426.584,74.99325
1425923426.599,83.57732
1425923426.615,88.066124
1425923426.631,86.19548
1425923426.646,76.859856
1425923426.662,60.687767
1425923426.678,39.886208
1425923426.693,17.506584
1425923426.709,-3.6156616
1425923426.724,-21.630768
1425923426.74,-35.9813
1425923426.756,-46.995094
1425923426.771,-55.392426
1425923426.787,-61.736694
1425923426.803,-66.31933
1425923426.818,-69.25173
1425923426.834,-70.66514
1425923426.85,-70.803734
1425923426.865,-70.00361
1425923426.881,-68.54959
1425923426.896,-66.63371
1425923426.912,-64.31074
1425923426.928,-61.591484
1425923426.943,-58.486282
1425923426.959,-55.10163
1425923426.974,-51.612434
1425923426.99,-48.236076
1425923427.006,-45.193253
1425923427.021,-42.613937
1425923427.037,-40.5166
1425923427.053,-38.759933
1425923427.068,-37.061825
1425923427.084,-35.06267
1425923427.1,-32.378616
1425923427.115,-28.735409
1425923427.131,-24.026794
1425923427.146,-18.388386
1425923427.162,-12.139748
1425923427.178,-5.7415543
1425923427.193,0.37734985
1425923427.209,5.9633827
1425923427.225,11.073414
1425923427.24,16.010029
1425923427.256,21.285648
1425923427.271,27.418415
1425923427.287,34.874874
1425923427.303,43.909473
1425923427.318,54.423344
1425923427.334,65.76633
1425923427.35,76.50664
1425923427.365,84.544174
1425923427.381,87.53383
1425923427.396,83.62004
1425923427.412,72.277504
1425923427.428,54.645996
1425923427.443,33.28714
1425923427.459,11.366264
1425923427.475,-8.386368
1425923427.49,-24.413212
1425923427.506,-36.47654
1425923427.521,-45.247528
1425923427.537,-51.669693
1425923427.553,-56.429924
1425923427.568,-59.81328
1425923427.584,-61.81665
1425923427.6,-62.406906
1425923427.615,-61.679863
1425923427.631,-59.913628
1425923427.646,-57.490654
1425923427.662,-54.82496
1425923427.678,-52.30957
1425923427.693,-50.22307
1425923427.709,-48.728592
1425923427.725,-47.805817
1425923427.74,-47.32534
1425923427.756,-47.07325
1425923427.771,-46.899292
1425923427.787,-46.765358
1425923427.803,-46.75644
1425923427.818,-47.01346
1425923427.834,-47.584244
1425923427.85,-48.33728
1425923427.865,-48.963264
1425923427.881,-49.06611
1425923427.896,-48.34301
1425923427.912,-46.782265
1425923427.928,-44.64998
1425923427.943,-42.454376
1425923427.959,-40.79326
1425923427.975,-40.17964
1425923427.99,-40.91992
1425923428.006,-43.05957
1425923428.021,-46.27188
1425923428.037,-49.795197
1425923428.053,-52.41803
1425923428.068,-52.73979
1425923428.084,-49.641403
1425923428.1,-42.9075
1425923428.115,-33.687805
1425923428.131,-24.39357
1425923428.146,-18.021042
1425923428.162,-16.944977
1425923428.178,-21.7677
1425923428.193,-30.647354
1425923428.209,-39.660492
1425923428.225,-43.916916
1425923428.24,-39.283707
1425923428.256,-23.770126
1425923428.271,1.8523865
1425923428.287,34.524796
1425923428.303,70.13577
1425923428.318,104.967545
1425923428.334,136.65329
1425923428.35,164.37332
1425923428.365,188.25226
1425923428.381,208.42181
1425923428.396,224.43164
1425923428.412,235.15497
1425923428.428,239.37665
1425923428.443,236.5058
1425923428.459,227.00699
1425923428.475,212.33499
1425923428.49,194.42831
1425923428.506,175.27414
1425923428.521,156.64642
1425923428.537,140.24716
1425923428.553,127.76938
1425923428.568,120.74341
1425923428.584,119.846405
1425923428.6,124.17212
1425923428.615,130.76523
1425923428.631,135.1181
1425923428.646,132.49028
1425923428.662,119.64252
1425923428.678,96.15744
1425923428.693,64.65231
1425923428.709,29.808014
1425923428.725,-3.2921753
1425923428.74,-30.604935
1425923428.756,-49.693558
1425923428.771,-59.52983
1425923428.787,-59.897537
1425923428.803,-51.24504
1425923428.818,-34.998886
1425923428.834,-14.083694
1425923428.85,7.126419
1425923428.865,23.807144
1425923428.881,32.25525
1425923428.896,31.37387
1425923428.912,22.976227
1425923428.928,10.834534
1425923428.943,-1.1537247
1425923428.959,-10.564438
1425923428.975,-17.124878
1425923428.99,-22.129036
1425923429.006,-27.246788
1425923429.021,-33.43358
1425923429.037,-40.626297
1425923429.053,-48.218872
1425923429.068,-55.839584
1425923429.084,-63.863472
1425923429.1,-73.38375
1425923429.115,-85.77619
1425923429.131,-102.069016
1425923429.146,-122.44482
1425923429.162,-146.03647
1425923429.178,-171.03441
1425923429.193,-195.0822
1425923429.209,-215.8489
1425923429.225,-231.71397
1425923429.24,-242.20407
1425923429.256,-248.0801
1425923429.271,-250.78958
1425923429.287,-251.59799
1425923429.303,-250.78796
1425923429.318,-247.45969
1425923429.334,-240.05742
1425923429.35,-227.4077
1425923429.365,-209.53773
1425923429.381,-187.86679
1425923429.396,-164.56316
1425923429.412,-141.59052
1425923429.428,-119.98964
1425923429.443,-99.87256
1425923429.459,-80.998344
1425923429.475,-63.45076
1425923429.49,-47.9143
1425923429.506,-35.46933
1425923429.521,-26.929886
1425923429.537,-22.36847
1425923429.553,-20.966324
1425923429.568,-21.338303
1425923429.584,-22.050644
1425923429.6,-22.10321
1425923429.615,-21.11206
1425923429.631,-19.297852
1425923429.646,-17.213348
1425923429.662,-15.472107
1425923429.678,-14.407288
1425923429.693,-14.023788
1425923429.709,-13.969559
1425923429.725,-13.724319
1425923429.74,-12.741364
1425923429.756,-10.443481
1425923429.772,-6.1322327
1425923429.787,1.0742798
1425923429.803,12.070435
1425923429.818,27.315796
1425923429.834,46.290894
1425923429.85,67.22574
1425923429.865,87.375885
1425923429.881,103.8522
1425923429.897,114.612854
1425923429.912,119.17099
1425923429.928,118.73862
1425923429.943,115.80594
1425923429.959,113.392
1425923429.975,114.28854
1425923429.99,120.50342
1425923430.006,132.77963
1425923430.022,150.31894
1425923430.037,170.71625
1425923430.053,190.46664
1425923430.068,205.99966
1425923430.084,214.8822
1425923430.1,216.61356
1425923430.115,212.60571
1425923430.131,205.3627
1425923430.147,197.43793
1425923430.162,190.65146
1425923430.178,185.92831
1425923430.193,183.3786
1425923430.209,182.37271
1425923430.225,181.36292
1425923430.24,177.811
1425923430.256,168.59802
1425923430.272,151.00552
1425923430.287,123.91217
1425923430.303,88.50244
1425923430.318,48.009216
1425923430.334,6.5316467
1425923430.35,-32.313232
1425923430.365,-66.2612
1425923430.381,-94.30612
1425923430.397,-116.13663
1425923430.412,-131.60236
1425923430.428,-140.69849
1425923430.443,-143.8642
1425923430.459,-142.32675
1425923430.475,-137.93854
1425923430.49,-132.62643
1425923430.506,-127.71701
1425923430.522,-123.640686
1425923430.537,-120.10739
1425923430.553,-116.58908
1425923430.568,-112.80734
1425923430.584,-108.90283
1425923430.6,-105.32495
1425923430.615,-102.59195
1425923430.631,-101.16962
1425923430.647,-101.402405
1425923430.662,-103.53766
1425923430.678,-107.661804
1425923430.693,-113.625824
1425923430.709,-120.96356
1425923430.725,-128.90396
1425923430.74,-136.52274
1425923430.756,-142.8212
1425923430.772,-146.76175
1425923430.787,-147.23187
1425923430.803,-143.11554
1425923430.818,-133.44116
1425923430.834,-117.73279
1425923430.85,-96.31781
1425923430.865,-70.39862
1425923430.881,-41.901672
1425923430.897,-13.0896
1425923430.912,13.829163
1425923430.928,37.018738
1425923430.943,55.24591
1425923430.959,68.044495
1425923430.975,75.766174
1425923430.99,79.48517
1425923431.006,80.625244
1425923431.022,80.512695
1425923431.037,79.93994
1425923431.053,79.00195
1425923431.068,77.342834
1425923431.084,74.51892
1425923431.1,70.42474
1425923431.115,65.38904
1425923431.131,59.980835
1425923431.147,54.7359
1425923431.162,49.90979
1425923431.178,45.535645
1425923431.193,41.54297
1425923431.209,37.95044
1425923431.225,34.948914
1425923431.24,32.82666
1425923431.256,31.796875
1425923431.272,31.875183
1425923431.287,32.849182
1425923431.303,34.325012
1425923431.318,35.87323
1425923431.334,37.181213
1425923431.35,38.177063
1425923431.365,39.022156
1425923431.381,40.020996
1425923431.397,41.457825
1425923431.412,43.41449
1425923431.428,45.74048
1425923431.443,48.088013
1425923431.459,50.142944
1425923431.475,51.784607
1425923431.49,53.230835
1425923431.506,54.97705
1425923431.522,57.54364
1425923431.537,61.229553
1425923431.553,65.832825
1425923431.568,70.678406
1425923431.584,74.7262
1425923431.6,76.91974
1425923431.615,76.54999
1425923431.631,73.49829
1425923431.647,68.231384
1425923431.662,61.581543
1425923431.678,54.394165
1425923431.693,47.272705
1425923431.709,40.397827
1425923431.725,33.65869
1425923431.74,26.869202
1425923431.756,19.968323
1425923431.772,13.090454
1425923431.787,6.5214844
1425923431.803,0.5704956
1425923431.818,-4.50885
1425923431.834,-8.584839
1425923431.85,-11.588135
1425923431.865,-13.528381
1425923431.881,-14.48938
1425923431.897,-14.599365
1425923431.912,-14.043274
1425923431.928,-12.909424
1425923431.943,-11.188721
1425923431.959,-8.706726
1425923431.975,-5.234436
1425923431.99,-0.6449585
1425923432.006,4.9364624
1425923432.022,11.082092
1425923432.037,17.195618
1425923432.053,22.629822
1425923432.068,26.95697
1425923432.084,30.02002
1425923432.1,31.975342
1425923432.115,33.21106
1425923432.131,34.28119
1425923432.147,35.817627
1425923432.162,38.436584
1425923432.178,42.53003
1425923432.193,48.089966
1425923432.209,54.580994
1425923432.225,60.842346
1425923432.24,65.35657
1425923432.256,66.5788
1425923432.272,63.373108
1425923432.287,55.407654
1425923432.303,43.25653
1425923432.318,28.261353
1425923432.334,12.14447
1425923432.35,-3.4907227
1425923432.365,-17.4917
1425923432.381,-29.38977
1425923432.397,-39.219788
1425923432.412,-47.258057
1425923432.428,-53.70764
1425923432.444,-58.52484
1425923432.459,-61.447266
1425923432.475,-62.255676
1425923432.49,-60.967346
1425923432.506,-57.977966
1425923432.522,-53.99231
1425923432.537,-49.793213
1425923432.553,-45.964233
1425923432.569,-42.73993
1425923432.584,-39.962097
1425923432.6,-37.267822
1425923432.615,-34.258545
1425923432.631,-30.70398
1425923432.647,-26.600891
1425923432.662,-22.10852
1425923432.678,-17.434082
1425923432.694,-12.714783
1425923432.709,-7.919922
1425923432.725,-2.9003296
1425923432.74,2.565796
1425923432.756,8.677124
1425923432.772,15.604309
1425923432.787,23.43451
1425923432.803,32.146973
1425923432.819,41.407654
1425923432.834,50.46222
1425923432.85,58.01184
1425923432.865,62.39966
1425923432.881,62.07788
1425923432.897,56.135498
1425923432.912,44.77594
1425923432.928,29.341675
1425923432.944,11.948608
1425923432.959,-5.1502075
1425923432.975,-20.23462
1425923432.99,-32.42578
1425923433.006,-41.693665
1425923433.022,-48.460876
1425923433.037,-53.26361
1425923433.053,-56.440002
1425923433.069,-58.092346
1425923433.084,-58.16913
1425923433.1,-56.672424
1425923433.115,-53.698853
1425923433.131,-49.502808
1425923433.147,-44.446594
1425923433.162,-38.893616
1425923433.178,-33.178406
1425923433.194,-27.53241
1425923433.209,-22.112183
1425923433.225,-16.987793
1425923433.24,-12.152771
1425923433.256,-7.544739
1425923433.272,-3.0722046
1425923433.287,1.3712769
1425923433.303,5.8980103
1425923433.319,10.548157
1425923433.334,15.306763
1425923433.35,20.122314
1425923433.365,24.95996
1425923433.381,29.857178
1425923433.397,35.0166
1425923433.412,40.782593
1425923433.428,47.57257
1425923433.444,55.67816
1425923433.459,64.987
1425923433.475,74.74066
1425923433.49,83.503265
1425923433.506,89.326965
1425923433.522,90.34079
1425923433.537,85.28787
1425923433.553,74.05936
1425923433.569,57.748352
1425923433.584,38.34256
1425923433.6,18.082703
1425923433.615,-1.1237793
1425923433.631,-18.070892
1425923433.647,-32.26407
1425923433.662,-43.706207
1425923433.678,-52.55429
1425923433.694,-58.989044
1425923433.709,-63.14093
1425923433.725,-65.191345
1425923433.74,-65.387665
1425923433.756,-64.0686
1425923433.772,-61.546173
1425923433.787,-58.061676
1425923433.803,-53.756287
1425923433.819,-48.736908
1425923433.834,-43.20459
1425923433.85,-37.538605
1425923433.865,-32.237305
1425923433.881,-27.838684
1425923433.897,-24.643738
1425923433.912,-22.623169
1425923433.928,-21.316406
1425923433.944,-20.012543
1425923433.959,-18.018982
1425923433.975,-14.972931
1425923433.99,-10.929077
1425923434.006,-6.3254395
1425923434.022,-1.7149048
1425923434.037,2.5012512
1425923434.053,6.2622375
1425923434.069,9.916534
1425923434.084,14.126282
1425923434.1,19.645508
1425923434.115,27.050446
1425923434.131,36.35382
1425923434.147,46.724792
1425923434.162,56.381134
1425923434.178,62.85022
1425923434.194,63.608063
1425923434.209,56.887085
1425923434.225,42.357056
1425923434.24,21.331848
1425923434.256,-3.632782
1425923434.272,-29.54181
1425923434.287,-53.882385
1425923434.303,-75.20285
1425923434.319,-93.203125
1425923434.334,-108.413025
1425923434.35,-121.65045
1425923434.365,-133.54498
1425923434.381,-144.25787
1425923434.397,-153.45697
1425923434.412,-160.40668
1425923434.428,-164.20877
1425923434.444,-164.022
1425923434.459,-159.32059
1425923434.475,-150.06546
1425923434.49,-136.76804
1425923434.506,-120.45154
1425923434.522,-102.4335
1425923434.537,-84.10605
1425923434.553,-66.68063
1425923434.569,-50.978333
1425923434.584,-37.26593
1425923434.6,-25.258942
1425923434.615,-14.252533
1425923434.631,-3.438568
1425923434.647,7.7949524
1425923434.662,19.616241
1425923434.678,31.680786
1425923434.694,43.358826
1425923434.709,53.965027
1425923434.725,63.072083
1425923434.74,70.6221
1425923434.756,76.91708
1425923434.772,82.46835
1425923434.787,87.81134
1425923434.803,93.42212
1425923434.819,99.62225
1425923434.834,106.58258
1425923434.85,114.25995
1425923434.865,122.41443
1425923434.881,130.55023
1425923434.897,137.92535
1425923434.912,143.57489
1425923434.928,146.44244
1425923434.944,145.57404
1425923434.959,140.33423
1425923434.975,130.6004
1425923434.99,116.854065
1425923435.006,100.07367
1425923435.022,81.46063
1425923435.037,62.141968
1425923435.053,42.93799
1425923435.069,24.310669
1425923435.084,6.4729004
1425923435.1,-10.381226
1425923435.116,-25.949097
1425923435.131,-39.858643
1425923435.147,-51.83197
1425923435.162,-61.80304
1425923435.178,-69.92767
1425923435.194,-76.46698
1425923435.209,-81.6095
1425923435.225,-85.41858
1425923435.24,-87.87933
1425923435.256,-88.996216
1425923435.272,-88.81964
1425923435.287,-87.341125
1425923435.303,-84.332275
1425923435.319,-79.291626
1425923435.334,-71.664185
1425923435.35,-61.171875
1425923435.366,-48.09961
1425923435.381,-33.25586
1425923435.397,-17.715149
1425923435.412,-2.350769
1425923435.428,12.390137
1425923435.444,26.464478
1425923435.459,39.975098
1425923435.475,52.900574
1425923435.491,65.02911
1425923435.506,76.120056
1425923435.522,86.06683
1425923435.537,94.88605
1425923435.553,102.55585
1425923435.569,108.66559
1425923435.584,112.286865
1425923435.6,112.164
1425923435.616,107.17804
1425923435.631,96.93884
1425923435.647,82.05524
1425923435.662,64.03998
1425923435.678,44.856995
1425923435.694,26.321655
1425923435.709,9.657898
1425923435.725,-4.5845947
1425923435.741,-16.402405
1425923435.756,-25.986938
1425923435.772,-33.46521
1425923435.787,-38.861816
1425923435.803,-42.151062
1425923435.819,-43.447388
1425923435.834,-43.05841
1425923435.85,-41.476013
1425923435.866,-39.2406
1425923435.881,-36.814087
1425923435.897,-34.517822
1425923435.912,-32.543884
1425923435.928,-30.938293
1425923435.944,-29.629639
1425923435.959,-28.442322
1425923435.975,-27.112732
1425923435.991,-25.407532
1425923436.006,-23.214966
1425923436.022,-20.570435
1425923436.037,-17.671204
1425923436.053,-14.691101
1425923436.069,-11.745544
1425923436.084,-8.80072
1425923436.1,-5.682617
1425923436.116,-2.1228027
1425923436.131,2.1902466
1425923436.147,7.604126
1425923436.162,14.415405
1425923436.178,22.680786
1425923436.194,31.997375
1425923436.209,41.286774
1425923436.225,48.866394
1425923436.241,52.799774
1425923436.256,51.526886
1425923436.272,44.40381
1425923436.287,32.01349
1425923436.303,16.027222
1425923436.319,-1.3682861
1425923436.334,-18.030304
1425923436.35,-32.429016
1425923436.366,-43.81775
1425923436.381,-52.156586
1425923436.397,-57.78409
1425923436.412,-61.14215
1425923436.428,-62.572083
1425923436.444,-62.24356
1425923436.459,-60.224823
1425923436.475,-56.569366
1425923436.491,-51.456696
1425923436.506,-45.238373
1425923436.522,-38.385895
1425923436.537,-31.459106
1425923436.553,-24.928467
1425923436.569,-19.1167
1425923436.584,-14.067108
1425923436.6,-9.616119
1425923436.616,-5.403961
1425923436.631,-1.0709839
1425923436.647,3.6617432
1425923436.662,8.93042
1425923436.678,14.669922
1425923436.694,20.720123
1425923436.709,26.88855
1425923436.725,32.98526
1425923436.741,38.90039
1425923436.756,44.57663
1425923436.772,50.05661
1425923436.787,55.51877
1425923436.803,61.31137
1425923436.819,67.83328
1425923436.834,75.233154
1425923436.85,83.0643
1425923436.866,90.16263
1425923436.881,94.726746
1425923436.897,94.90982
1425923436.912,89.44864
1425923436.928,78.2233
1425923436.944,62.34436
1425923436.959,43.762054
1425923436.975,24.620026
1425923436.991,6.6450195
1425923437.006,-9.180542
1425923437.022,-22.527466
1425923437.037,-33.470947
1425923437.053,-42.16095
1425923437.069,-48.670746
1425923437.084,-53.023468
1425923437.1,-55.305756
1425923437.116,-55.721405
1425923437.131,-54.695587
1425923437.147,-52.764374
1425923437.162,-50.521515
1425923437.178,-48.458282
1425923437.194,-46.916565
1425923437.209,-45.942963
1425923437.225,-45.338684
1425923437.241,-44.71216
1425923437.256,-43.631104
1425923437.272,-41.77356
1425923437.287,-39.06317
1425923437.303,-35.645203
1425923437.319,-31.827087
1425923437.334,-27.91043
1425923437.35,-24.087708
1425923437.366,-20.382416
1425923437.381,-16.666199
1425923437.397,-12.733948
1425923437.412,-8.3414
1425923437.428,-3.2417603
1425923437.444,2.7268677
1425923437.459,9.47464
1425923437.475,16.455353
1425923437.491,22.612549
1425923437.506,26.467194
1425923437.522,26.627441
1425923437.537,22.259827
1425923437.553,13.520142
1425923437.569,1.5935059
1425923437.584,-11.70993
1425923437.6,-24.607727
1425923437.616,-35.825226
1425923437.631,-44.89743
1425923437.647,-51.933075
1425923437.662,-57.22824
1425923437.678,-60.918365
1425923437.694,-62.861725
1425923437.709,-62.75699
1425923437.725,-60.446777
1425923437.741,-56.002655
1425923437.756,-49.71704
1425923437.772,-41.94287
1425923437.788,-33.01953
1425923437.803,-23.273285
1425923437.819,-13.080536
1425923437.834,-2.9065247
1425923437.85,6.780792
1425923437.866,15.612946
1425923437.881,23.456879
1425923437.897,30.521027
1425923437.912,37.246796
1425923437.928,44.235413
1425923437.944,52.017975
1425923437.959,60.84726
1425923437.975,70.53482
1425923437.991,80.48041
1425923438.006,89.76135
1425923438.022,97.43878
1425923438.038,102.88449
1425923438.053,106.02573
1425923438.069,107.40015
1425923438.084,107.99539
1425923438.1,108.90991
1425923438.116,111.030396
1425923438.131,114.75314
1425923438.147,119.851654
1425923438.163,125.432465
1425923438.178,130.00769
1425923438.194,131.73328
1425923438.209,128.88666
1425923438.225,120.364716
1425923438.241,106.13327
1425923438.256,87.274414
1425923438.272,65.71542
1425923438.288,43.60904
1425923438.303,22.69455
1425923438.319,4.000946
1425923438.334,-12.179352
1425923438.35,-25.93869
1425923438.366,-37.425385
1425923438.381,-46.61386
1425923438.397,-53.30374
1425923438.413,-57.399902
1425923438.428,-59.10968
1425923438.444,-59.042694
1425923438.459,-58.06128
1425923438.475,-57.038483
1425923438.491,-56.51361
1425923438.506,-56.574524
1425923438.522,-56.90973
1425923438.538,-57.01294
1425923438.553,-56.450653
1425923438.569,-55.067535
1425923438.584,-53.0
1425923438.6,-50.59134
1425923438.616,-48.14856
1425923438.631,-45.803253
1425923438.647,-43.364014
1425923438.663,-40.424255
1425923438.678,-36.491547
1425923438.694,-31.218689
1425923438.709,-24.575409
1425923438.725,-16.93332
1425923438.741,-8.832062
1425923438.756,-0.8707428
1425923438.772,6.56073
1425923438.788,13.376816
1425923438.803,19.763153
1425923438.819,26.113632
1425923438.834,32.935074
1425923438.85,40.761963
1425923438.866,50.032684
1425923438.881,60.836823
1425923438.897,72.668396
1425923438.913,84.20865
1425923438.928,93.400665
1425923438.944,97.871216
1425923438.959,95.71663
1425923438.975,86.07762
1425923438.991,69.582596
1425923439.006,48.081863
1425923439.022,24.128296
1425923439.038,0.1870575
1425923439.053,-21.939026
1425923439.069,-41.348312
1425923439.084,-57.876465
1425923439.1,-71.79739
1425923439.116,-83.41794
1425923439.131,-92.91214
1425923439.147,-100.244354
1425923439.163,-105.3136
1425923439.178,-108.138214
1425923439.194,-109.00686
1425923439.209,-108.477974
1425923439.225,-107.29948
1425923439.241,-106.14189
1425923439.256,-105.43607
1425923439.272,-105.267235
1425923439.288,-105.48593
1425923439.303,-105.88762
1425923439.319,-106.367516
1425923439.334,-106.96312
1425923439.35,-107.74209
1425923439.366,-108.71608
1425923439.381,-109.720215
1425923439.397,-110.468216
1425923439.413,-110.63287
1425923439.428,-109.86911
1425923439.444,-107.85074
1425923439.459,-104.204346
1425923439.475,-98.60014
1425923439.491,-90.86246
1425923439.506,-81.133835
1425923439.522,-69.9202
1425923439.538,-57.943893
1425923439.553,-45.8517
1425923439.569,-33.94043
1425923439.584,-22.033905
1425923439.6,-9.60614
1425923439.616,3.8479156
1425923439.631,18.457047
1425923439.647,33.731415
1425923439.663,48.556137
1425923439.678,61.462967
1425923439.694,71.00882
1425923439.709,76.25787
1425923439.725,77.013794
1425923439.741,73.90187
1425923439.756,68.2137
1425923439.772,61.555435
1425923439.788,55.384506
1425923439.803,50.73172
1425923439.819,48.04167
1425923439.834,47.225098
1425923439.85,47.90416
1425923439.866,49.589996
1425923439.881,51.83644
1425923439.897,54.279785
1425923439.913,56.57126
1425923439.928,58.400238
1425923439.944,59.478577
1425923439.959,59.64357
1425923439.975,58.870544
1425923439.991,57.276398
1425923440.006,55.086533
1425923440.022,52.55487
1425923440.038,49.904083
1425923440.053,47.336197
1425923440.069,44.97162
1425923440.084,42.83705
1425923440.1,40.877518
1425923440.116,38.92604
1425923440.131,36.824554
1425923440.147,34.518326
1425923440.163,32.17787
1425923440.178,30.142273
1425923440.194,28.824173
1425923440.209,28.546967
1425923440.225,29.39743
1425923440.241,31.215897
1425923440.256,33.698563
1425923440.272,36.58551
1425923440.288,39.725235
1425923440.303,43.132187
1425923440.319,46.906418
1425923440.334,51.263275
1425923440.35,56.460754
1425923440.366,62.821182
1425923440.381,70.58435
1425923440.397,79.66173
1425923440.413,89.3055
1425923440.428,97.991455
1425923440.444,103.54758
1425923440.459,103.76225
1425923440.475,97.041595
1425923440.491,83.05191
1425923440.506,62.863327
1425923440.522,38.682297
1425923440.538,13.155823
1425923440.553,-11.342987
1425923440.569,-33.213226
1425923440.584,-51.739502
1425923440.6,-66.85127
1425923440.616,-78.74574
1425923440.631,-87.605774
1425923440.647,-93.4935
1425923440.663,-96.45796
1425923440.678,-96.7354
1425923440.694,-94.83751
1425923440.71,-91.51592
1425923440.725,-87.568275
1425923440.741,-83.57819
1425923440.756,-79.79641
1425923440.772,-76.11853
1425923440.788,-72.28319
1425923440.803,-68.10726
1425923440.819,-63.64261
1425923440.835,-59.13064
1425923440.85,-54.90341
1425923440.866,-51.13318
1425923440.881,-47.727867
1425923440.897,-44.28099
1425923440.913,-40.27311
1425923440.928,-35.182205
1425923440.944,-28.698494
1425923440.96,-20.873047
1425923440.975,-12.1083145
1425923440.991,-3.0496292
1425923441.006,5.5873795
1425923441.022,13.291718
1425923441.038,19.916351
1425923441.053,25.767998
1425923441.069,31.485535
1425923441.085,37.84351
1425923441.1,45.53003
1425923441.116,54.94968
1425923441.131,66.013954
1425923441.147,78.02626
1425923441.163,89.595436
1425923441.178,98.74553
1425923441.194,103.25278
1425923441.21,101.21061
1425923441.225,91.65681
1425923441.241,75.03901
1425923441.256,53.177944
1425923441.272,28.814632
1425923441.288,4.802107
1425923441.303,-16.632965
1425923441.319,-34.344727
1425923441.335,-48.175034
1425923441.35,-58.589275
1425923441.366,-66.2089
1425923441.381,-71.49414
1425923441.397,-74.69337
1425923441.413,-76.05592
1425923441.428,-75.95088
1425923441.444,-74.92944
1425923441.46,-73.59017
1425923441.475,-72.38125
1425923441.491,-71.42545
1425923441.506,-70.60517
1425923441.522,-69.72099
1425923441.538,-68.737076
1425923441.553,-67.866135
1425923441.569,-67.47685
1425923441.585,-67.86276
1425923441.6,-69.00905
1425923441.616,-70.50531
1425923441.631,-71.68459
1425923441.647,-71.830475
1425923441.663,-70.5305
1425923441.678,-67.76291
1425923441.694,-63.928513
1425923441.71,-59.657482
1425923441.725,-55.633427
1425923441.741,-52.34903
1425923441.756,-49.99257
1425923441.772,-48.34555
1425923441.788,-46.770412
1425923441.803,-44.2952
1425923441.819,-39.9114
1425923441.835,-32.889297
1425923441.85,-23.148773
1425923441.866,-11.410942
1425923441.881,0.94150543
1425923441.897,12.280861
1425923441.913,21.226585
1425923441.928,27.042107
1425923441.944,29.697136
1425923441.96,29.731049
1425923441.975,27.931404
1425923441.991,25.131119
1425923442.006,22.154305
1425923442.022,19.86148
1425923442.038,19.123009
1425923442.053,20.666008
1425923442.069,24.832855
1425923442.085,31.343002
1425923442.1,39.310837
1425923442.116,47.469734
1425923442.131,54.557594
1425923442.147,59.720413
1425923442.163,62.689735
1425923442.178,63.771584
1425923442.194,63.570374
1425923442.21,62.680885
1425923442.225,61.481796
1425923442.241,60.062645
1425923442.256,58.305367
1425923442.272,56.08191
1425923442.288,53.406425
1425923442.303,50.52877
1425923442.319,47.893982
1425923442.335,46.010117
1425923442.35,45.291122
1425923442.366,45.887604
1425923442.381,47.671295
1425923442.397,50.301468
1425923442.413,53.379784
1425923442.428,56.62361
1425923442.444,59.99341
1425923442.46,63.709892
1425923442.475,68.17626
1425923442.491,73.89182
1425923442.506,81.30909
1425923442.522,90.63484
1425923442.538,101.57664
1425923442.553,113.03435
1425923442.569,123.01693
1425923442.585,128.86278
1425923442.6,127.90885
1425923442.616,118.41294
1425923442.631,100.2997
1425923442.647,75.35932
1425923442.663,46.69081
1425923442.678,17.74202
1425923442.694,-8.756187
1425923442.71,-31.371696
1425923442.725,-49.887695
1425923442.741,-64.75345
1425923442.756,-76.43457
1425923442.772,-85.08419
1425923442.788,-90.56215
1425923442.803,-92.782104
1425923442.819,-92.00441
1425923442.835,-88.960815
1425923442.85,-84.5844
1425923442.866,-79.76322
1425923442.881,-75.06987
1425923442.897,-70.65629
1425923442.913,-66.352036
1425923442.928,-61.88828
1425923442.944,-57.078857
1425923442.96,-51.92425
1425923442.975,-46.56116
1425923442.991,-41.210392
1425923443.006,-35.951958
1425923443.022,-30.694504
1425923443.038,-25.096764
1425923443.053,-18.686815
1425923443.069,-10.957769
1425923443.085,-1.546135
1425923443.1,9.592922
1425923443.116,22.08025
1425923443.131,35.199593
1425923443.147,48.10411
1425923443.163,60.1644
1425923443.178,71.21158
1425923443.194,81.64974
1425923443.21,92.252
1425923443.225,103.92819
1425923443.241,117.370636
1425923443.256,132.81763
1425923443.272,149.83386
1425923443.288,167.1294
1425923443.303,182.51001
1425923443.319,193.07935
1425923443.335,195.76483
1425923443.35,188.1732
1425923443.366,169.49596
1425923443.382,141.0331
1425923443.397,105.9774
1425923443.413,68.56322
1425923443.428,32.783905
1425923443.444,1.3847961
1425923443.46,-24.601028
1425923443.475,-45.500656
1425923443.491,-62.29117
1425923443.507,-75.824554
1425923443.522,-86.47873
1425923443.538,-94.2169
1425923443.553,-98.92241
1425923443.569,-100.77962
1425923443.585,-100.41135
1425923443.6,-98.71945
1425923443.616,-96.61362
1425923443.632,-94.663605
1425923443.647,-92.98859
1425923443.663,-91.313995
1425923443.678,-89.22986
1425923443.694,-86.48288
1425923443.71,-83.13043
1425923443.725,-79.54764
1425923443.741,-76.18756
1425923443.757,-73.31412
1425923443.772,-70.774445
1425923443.788,-67.976715
1425923443.803,-64.1254
1425923443.819,-58.48343
1425923443.835,-50.73822
1425923443.85,-41.10431
1425923443.866,-30.310394
1425923443.882,-19.288544
1425923443.897,-8.904266
1425923443.913,0.37295532
1425923443.928,8.527588
1425923443.944,15.995789
1425923443.96,23.484589
1425923443.975,31.793945
1425923443.991,41.650787
1425923444.007,53.541016
1425923444.022,67.4559
1425923444.038,82.5278
1425923444.053,96.790924
1425923444.069,107.31857
1425923444.085,110.79385
1425923444.1,104.56781
1425923444.116,87.68335
1425923444.132,61.408722
1425923444.147,28.95639
1425923444.163,-5.5000305
1425923444.178,-38.146057
1425923444.194,-66.52203
1425923444.21,-89.8884
1425923444.225,-108.793335
1425923444.241,-124.37155
1425923444.257,-137.58655
1425923444.272,-148.85687
1425923444.288,-158.14355
1425923444.303,-165.21771
1425923444.319,-169.88129
1425923444.335,-172.08014
1425923444.35,-171.82813
1425923444.366,-169.11072
1425923444.382,-163.89203
1425923444.397,-156.25726
1425923444.413,-146.5376
1425923444.428,-135.40198
1425923444.444,-123.66278
1425923444.46,-112.020935
1425923444.475,-100.75842
1425923444.491,-89.72839
1425923444.507,-78.511536
1425923444.522,-66.77423
1425923444.538,-54.472534
1425923444.553,-41.84857
1425923444.569,-29.13147
1425923444.585,-16.31903
1425923444.6,-3.0856628
1425923444.616,10.971893
1425923444.632,25.961243
1425923444.647,41.486572
1425923444.663,56.708374
1425923444.678,70.747314
1425923444.694,83.12964
1425923444.71,94.01996
1425923444.725,104.19614
1425923444.741,114.69153
1425923444.757,126.379395
1425923444.772,139.6495
1425923444.788,154.20984
1425923444.803,168.95645
1425923444.819,181.97046
1425923444.835,190.66318
1425923444.85,192.23657
1425923444.866,184.4137
1425923444.882,166.25217
1425923444.897,138.6658
1425923444.913,104.417175
1425923444.928,67.37485
1425923444.944,31.5484
1425923444.96,-0.0048828125
1425923444.975,-25.681793
1425923444.991,-45.258514
1425923445.007,-59.37555
1425923445.022,-68.87503
1425923445.038,-74.43915
1425923445.053,-76.54938
1425923445.069,-75.72412
1425923445.085,-72.81949
1425923445.1,-68.96442
1425923445.116,-65.322296
1425923445.132,-62.63376
1425923445.147,-61.00885
1425923445.163,-59.9281
1425923445.178,-58.70584
1425923445.194,-56.871613
1425923445.21,-54.498688
1425923445.225,-52.140503
1425923445.241,-50.38849
1425923445.257,-49.434143
1425923445.272,-48.828888
1425923445.288,-47.568817
1425923445.303,-44.53842
1425923445.319,-39.01654
1425923445.335,-31.01007
1425923445.35,-21.247559
1425923445.366,-10.86969
1425923445.382,-0.9088135
1425923445.397,8.099121
1425923445.413,16.325989
1425923445.428,24.4823
1425923445.444,33.556885
1425923445.46,44.424255
1425923445.475,57.555176
1425923445.491,72.74835
1425923445.507,88.97577
1425923445.522,104.29797
1425923445.538,116.05548
1425923445.553,121.324036
1425923445.569,117.77643
1425923445.585,104.49048
1425923445.6,82.482544
1425923445.616,54.539978
1425923445.632,24.484436
1425923445.647,-4.07843
1425923445.663,-28.595642
1425923445.678,-48.031555
1425923445.694,-62.503967
1425923445.71,-72.67828
1425923445.725,-79.14227
1425923445.741,-82.20746
1425923445.757,-82.07544
1425923445.772,-79.13501
1425923445.788,-74.15869
1425923445.803,-68.17731
1425923445.819,-62.12445
1425923445.835,-56.57025
1425923445.85,-51.534363
1425923445.866,-46.705933
1425923445.882,-41.743958
1425923445.897,-36.62561
1425923445.913,-31.714111
1425923445.928,-27.587463
1425923445.944,-24.632568
1425923445.96,-22.754028
1425923445.975,-21.241577
1425923445.991,-19.013123
1425923446.007,-15.074524
1425923446.022,-8.934509
1425923446.038,-0.8488159
1425923446.054,8.30481
1425923446.069,17.474792
1425923446.085,25.876953
1425923446.1,33.40332
1425923446.116,40.627563
1425923446.132,48.662598
1425923446.147,58.683716
1425923446.163,71.48596
1425923446.179,86.9776
1425923446.194,103.888
1425923446.21,119.677795
1425923446.225,130.98456
1425923446.241,134.42578
1425923446.257,127.69647
1425923446.272,110.464355
1425923446.288,84.619934
1425923446.304,53.741394
1425923446.319,21.989563
1425923446.335,-7.163513
1425923446.35,-31.633606
1425923446.366,-50.85266
1425923446.382,-65.220825
1425923446.397,-75.453125
1425923446.413,-82.092896
1425923446.429,-85.52985
1425923446.444,-86.10791
1425923446.46,-84.413025
1425923446.475,-81.22894
1425923446.491,-77.37427
1425923446.507,-73.41101
1425923446.522,-69.50812
1425923446.538,-65.48639
1425923446.554,-61.08618
1425923446.569,-56.20172
1425923446.585,-51.062805
1425923446.6,-46.203796
1425923446.616,-42.25476
1425923446.632,-39.594055
1425923446.647,-38.087402
1425923446.663,-36.9953
1425923446.679,-35.22284
1425923446.694,-31.659546
1425923446.71,-25.704956
1425923446.725,-17.498413
1425923446.741,-7.9126587
1425923446.757,1.8045654
1425923446.772,10.568115
1425923446.788,17.905579
1425923446.804,24.145386
1425923446.819,30.32666
1425923446.835,37.81018
1425923446.85,47.779236
1425923446.866,60.68933
1425923446.882,75.85083
1425923446.897,91.19141
1425923446.913,103.52185
1425923446.929,109.208496
1425923446.944,105.25842
1425923446.96,90.3595
1425923446.975,65.47064
1425923446.991,33.639343
1425923447.007,-0.97314453
1425923447.022,-34.34265
1425923447.038,-63.61731
1425923447.054,-87.53345
1425923447.069,-106.16107
1425923447.085,-120.211426
1425923447.1,-130.39551
1425923447.116,-137.18024
1425923447.132,-140.80212
1425923447.147,-141.56134
1425923447.163,-139.9931
1425923447.179,-136.87964
1425923447.194,-133.0376
1425923447.21,-129.06024
1425923447.225,-125.15317
1425923447.241,-121.12131
1425923447.257,-116.49396
1425923447.272,-110.79526
1425923447.288,-103.828094
1425923447.304,-95.759766
1425923447.319,-87.097046
1425923447.335,-78.460754
1425923447.35,-70.21655
1425923447.366,-62.282684
1425923447.382,-54.059967
1425923447.397,-44.681793
1425923447.413,-33.38965
1425923447.429,-19.922333
1425923447.444,-4.688843
1425923447.46,11.380829
1425923447.475,27.165375
1425923447.491,41.82602
1425923447.507,55.066772
1425923447.522,67.17316
1425923447.538,78.836365
1425923447.554,90.86371
1425923447.569,103.911316
1425923447.585,118.22064
1425923447.6,133.41824
1425923447.616,148.21771
1425923447.632,160.41211
1425923447.647,167.104
1425923447.663,165.38745
1425923447.679,153.30322
1425923447.694,130.69028
1425923447.71,99.47449
1425923447.725,63.303223
1425923447.741,26.486938
1425923447.757,-7.097809
1425923447.772,-34.911346
1425923447.788,-55.964294
1425923447.804,-70.51712
1425923447.819,-79.462555
1425923447.835,-83.755005
1425923447.85,-84.15851
1425923447.866,-81.30281
1425923447.882,-75.88017
1425923447.897,-68.81996
1425923447.913,-61.218643
1425923447.929,-54.142212
1425923447.944,-48.25992
1425923447.96,-43.649155
1425923447.975,-39.82135
1425923447.991,-36.046036
1425923448.007,-31.719177
1425923448.022,-26.735977
1425923448.038,-21.475037
1425923448.054,-16.572754
1425923448.069,-12.472214
1425923448.085,-9.127838
1425923448.1,-5.918915
1425923448.116,-1.8973694
1425923448.132,3.8258667
1425923448.147,11.734955
1425923448.163,21.743774
1425923448.179,33.264496
1425923448.194,45.463455
1425923448.21,57.560394
1425923448.225,69.10489
1425923448.241,80.04927
1425923448.257,90.772964
1425923448.272,101.93306
1425923448.288,114.29241
1425923448.304,128.50133
1425923448.319,144.85939
1425923448.335,163.08368
1425923448.35,182.06604
1425923448.366,199.75153
1425923448.382,213.33577
1425923448.397,219.74521
1425923448.413,216.4801
1425923448.429,202.44113
1425923448.444,178.40167
1425923448.46,146.96085
1425923448.475,111.77325
1425923448.491,76.47494
1425923448.507,43.78557
1425923448.522,15.074425
1425923448.538,-9.414505
1425923448.554,-29.947418
1425923448.569,-46.72428
1425923448.585,-59.63404
1425923448.6,-68.38418
1425923448.616,-72.963066
1425923448.632,-73.94002
1425923448.647,-72.50267
1425923448.663,-70.08974
1425923448.679,-67.95305
1425923448.694,-66.70184
1425923448.71,-66.250244
1425923448.726,-66.04137
1425923448.741,-65.46373
1425923448.757,-64.19279
1425923448.772,-62.33101
1425923448.788,-60.229477
1425923448.804,-58.252045
1425923448.819,-56.442444
1425923448.835,-54.482697
1425923448.85,-51.744812
1425923448.866,-47.558334
1425923448.882,-41.488403
1425923448.897,-33.567932
1425923448.913,-24.280884
1425923448.929,-14.452606
1425923448.944,-4.9151917
1425923448.96,3.7734375
1425923448.976,11.603058
1425923448.991,19.070282
1425923449.007,27.061844
1425923449.022,36.539413
1425923449.038,48.230072
1425923449.054,62.351624
1425923449.069,78.359024
1425923449.085,94.790924
1425923449.101,109.28787
1425923449.116,118.92914
1425923449.132,120.90311
1425923449.147,113.37579
1425923449.163,96.249146
1425923449.179,71.368835
1425923449.194,42.13144
1425923449.21,12.4422
1425923449.226,-14.339951
1425923449.241,-36.21936
1425923449.257,-52.630768
1425923449.272,-64.090546
1425923449.288,-71.44397
1425923449.304,-75.43703
1425923449.319,-76.49893
1425923449.335,-74.991104
1425923449.351,-71.42325
1425923449.366,-66.627975
1425923449.382,-61.569763
1425923449.397,-57.073853
1425923449.413,-53.47322
1425923449.429,-50.56668
1425923449.444,-47.80522
1425923449.46,-44.675003
1425923449.476,-41.026016
1425923449.491,-37.226868
1425923449.507,-33.90573
1425923449.522,-31.59021
1425923449.538,-30.288406
1425923449.554,-29.40483
1425923449.569,-27.890686
1425923449.585,-24.74739
1425923449.601,-19.377838
1425923449.616,-11.924896
1425923449.632,-3.117218
1425923449.647,5.996689
1425923449.663,14.51358
1425923449.679,21.951538
1425923449.694,28.432907
1425923449.71,34.548798
1425923449.726,41.197006
1425923449.741,49.294968
1425923449.757,59.53717
1425923449.772,72.03679
1425923449.788,86.09895
1425923449.804,99.99661
1425923449.819,111.11279
1425923449.835,116.44394
1425923449.851,113.475525
1425923449.866,101.05644
1425923449.882,79.94321
1425923449.897,52.666336
1425923449.913,22.834503
1425923449.929,-5.9579163
1425923449.944,-31.034958
1425923449.96,-51.0688
1425923449.976,-65.86507
1425923449.991,-75.8764
1425923450.007,-81.691376
1425923450.022,-83.78128
1425923450.038,-82.592026
1425923450.054,-78.78845
1425923450.069,-73.34471
1425923450.085,-67.43042
1425923450.101,-62.06256
1425923450.116,-57.790497
1425923450.132,-54.540375
1425923450.147,-51.784286
1425923450.163,-48.90828
1425923450.179,-45.623764
1425923450.194,-42.13394
1425923450.21,-38.99341
1425923450.226,-36.711304
1425923450.241,-35.338165
1425923450.257,-34.24121
1425923450.272,-32.293304
1425923450.288,-28.333557
1425923450.304,-21.72998
1425923450.319,-12.679535
1425923450.335,-2.1625671
1425923450.351,8.518219
1425923450.366,18.276764
1425923450.382,26.709717
1425923450.397,34.18112
1425923450.413,41.649628
1425923450.429,50.289825
1425923450.444,61.065826
1425923450.46,74.36734
1425923450.476,89.67462
1425923450.491,105.366974
1425923450.507,118.78848
1425923450.522,126.694336
1425923450.538,126.1608
1425923450.554,115.5715
1425923450.569,95.36777
1425923450.585,68.04562
1425923450.601,37.448364
1425923450.616,7.5507813
1425923450.632,-18.671783
1425923450.647,-39.763123
1425923450.663,-55.643463
1425923450.679,-67.001434
1425923450.694,-74.61008
1425923450.71,-78.99109
1425923450.726,-80.45923
1425923450.741,-79.377106
1425923450.757,-76.35751
1425923450.772,-72.27298
1425923450.788,-68.02219
1425923450.804,-64.28238
1425923450.819,-61.286682
1425923450.835,-58.821777
1425923450.851,-56.39798
1425923450.866,-53.585907
1425923450.882,-50.193207
1425923450.897,-46.445496
1425923450.913,-42.806854
1425923450.929,-39.727753
1425923450.944,-37.32608
1425923450.96,-35.201935
1425923450.976,-32.54251
1425923450.991,-28.417084
1425923451.007,-22.141968
1425923451.022,-13.66095
1425923451.038,-3.5440674
1425923451.054,7.1548767
1425923451.069,17.33844
1425923451.085,26.254822
1425923451.101,33.77533
1425923451.116,40.406372
1425923451.132,47.155823
1425923451.147,55.189972
1425923451.163,65.51065
1425923451.179,78.55795
1425923451.194,93.82028
1425923451.21,109.61606
1425923451.226,123.146576
1425923451.241,130.99948
1425923451.257,130.09274
1425923451.272,118.75006
1425923451.288,97.44229
1425923451.304,68.821686
1425923451.319,36.97592
1425923451.335,6.1315002
1425923451.351,-20.557556
1425923451.366,-41.623505
1425923451.382,-57.16034
1425923451.397,-68.13449
1425923451.413,-75.60788
1425923451.429,-80.284
1425923451.444,-82.52646
1425923451.46,-82.55945
1425923451.476,-80.740234
1425923451.491,-77.65021
1425923451.507,-73.936035
1425923451.522,-70.16391
1425923451.538,-66.6543
1425923451.554,-63.52118
1425923451.569,-60.73242
1425923451.585,-58.19275
1425923451.601,-55.810913
1425923451.616,-53.493835
1425923451.632,-51.154785
1425923451.648,-48.719666
1425923451.663,-46.112213
1425923451.679,-43.265198
1425923451.694,-40.056793
1425923451.71,-36.271698
1425923451.726,-31.569061
1425923451.741,-25.584991
1425923451.757,-18.065933
1425923451.773,-9.013275
1425923451.788,1.2212982
1425923451.804,12.024979
1425923451.819,22.678452
1425923451.835,32.58725
1425923451.851,41.43524
1425923451.866,49.27153
1425923451.882,56.452164
1425923451.898,63.613953
1425923451.913,71.53244
1425923451.929,81.003525
1425923451.944,92.54234
1425923451.96,106.04686
1425923451.976,120.39551
1425923451.991,133.35161
1425923452.007,141.83907
1425923452.023,142.71106
1425923452.038,133.82332
1425923452.054,114.885605
1425923452.069,87.77246
1425923452.085,56.08609
1425923452.101,24.041473
1425923452.116,-4.7502747
1425923452.132,-28.206604
1425923452.148,-45.912903
1425923452.163,-58.681717
1425923452.179,-67.764496
1425923452.194,-74.164734
1425923452.21,-78.385666
1425923452.226,-80.55888
1425923452.241,-80.766495
1425923452.257,-79.30287
1425923452.273,-76.65599
1425923452.288,-73.383286
1425923452.304,-69.917435
1425923452.319,-66.48892
1425923452.335,-63.196777
1425923452.351,-60.17421
1425923452.366,-57.613556
1425923452.382,-55.753723
1425923452.398,-54.68895
1425923452.413,-54.250687
1425923452.429,-53.943604
1425923452.444,-53.089096
1425923452.46,-51.01013
1425923452.476,-47.291306
1425923452.491,-41.916565
1425923452.507,-35.267258
1425923452.523,-27.931961
1425923452.538,-20.433838
1425923452.554,-13.021088
1425923452.569,-5.604355
1425923452.585,2.1418304
1425923452.601,10.523743
1425923452.616,19.634872
1425923452.632,29.220978
1425923452.648,38.783188
1425923452.663,47.792465
1425923452.679,55.95424
1425923452.694,63.40544
1425923452.71,70.77182
1425923452.726,79.00198
1425923452.741,89.01796
1425923452.757,101.20975
1425923452.773,114.90074
1425923452.788,128.07921
1425923452.804,137.63109
1425923452.819,140.08473
1425923452.835,132.80374
1425923452.851,114.99071
1425923452.866,88.19562
1425923452.882,55.92737
1425923452.898,22.566833
1425923452.913,-7.9740295
1425923452.929,-33.19406
1425923452.944,-52.29666
1425923452.96,-65.778915
1425923452.976,-74.748215
1425923452.991,-80.2605
1425923453.007,-83.06116
1425923453.023,-83.67059
1425923453.038,-82.57201
1425923453.054,-80.3358
1425923453.069,-77.57222
1425923453.085,-74.764496
1425923453.101,-72.139145
1425923453.116,-69.622055
1425923453.132,-67.06149
1425923453.148,-64.32951
1425923453.163,-61.499237
1425923453.179,-58.76628
1425923453.194,-56.340454
1425923453.21,-54.213593
1425923453.226,-52.14337
1425923453.241,-49.72815
1425923453.257,-46.609283
1425923453.273,-42.640152
1425923453.288,-37.925446
1425923453.304,-32.721237
1425923453.319,-27.243286
1425923453.335,-21.510757
1425923453.351,-15.390274
1425923453.366,-8.658752
1425923453.382,-1.2045441
1425923453.398,6.9072113
1425923453.413,15.430435
1425923453.429,24.00444
1425923453.444,32.25415
1425923453.46,40.009018
1425923453.476,47.31256
1425923453.491,54.52832
1425923453.507,62.327744
1425923453.523,71.49321
1425923453.538,82.59946
1425923453.554,95.57852
1425923453.569,109.32234
1425923453.585,121.60167
1425923453.601,129.3827
1425923453.616,129.66682
1425923453.632,120.43817
1425923453.648,101.52516
1425923453.663,74.82727
1425923453.679,43.853912
1425923453.694,12.728455
1425923453.71,-14.999084
1425923453.726,-37.195206
1425923453.741,-53.296387
1425923453.757,-64.01694
1425923453.773,-70.6151
1425923453.788,-74.25366
1425923453.804,-75.66539
1425923453.819,-75.22429
1425923453.835,-73.10103
1425923453.851,-69.54289
1425923453.866,-64.99536
1425923453.882,-60.033585
1425923453.898,-55.250076
1425923453.913,-51.083496
1425923453.929,-47.71618
1425923453.944,-45.094925
1425923453.96,-42.932175
1425923453.976,-40.909508
1425923453.991,-38.759514
1425923454.007,-36.403954
1425923454.023,-33.884506
1425923454.038,-31.294067
1425923454.054,-28.626694
1425923454.069,-25.726227
1425923454.085,-22.280243
1425923454.101,-18.031006
1425923454.116,-12.805138
1425923454.132,-6.651184
1425923454.148,0.25727844
1425923454.163,7.664345
1425923454.179,15.332596
1425923454.194,23.061562
1425923454.21,30.681183
1425923454.226,38.05307
1425923454.241,45.142944
1425923454.257,52.12143
1425923454.273,59.431465
1425923454.288,67.76119
1425923454.304,77.79724
1425923454.32,89.79353
1425923454.335,103.14832
1425923454.351,116.08472
1425923454.366,125.863495
1425923454.382,129.38203
1425923454.398,124.18403
1425923454.413,109.36175
1425923454.429,86.03955
1425923454.445,57.16301
1425923454.46,26.600273
1425923454.476,-1.9506683
1425923454.491,-25.89618
1425923454.507,-44.102768
1425923454.523,-56.672577
1425923454.538,-64.42708
1425923454.554,-68.307304
1425923454.57,-69.10367
1425923454.585,-67.43342
1425923454.601,-63.883644
1425923454.616,-59.130295
1425923454.632,-53.97426
1425923454.648,-49.166145
1425923454.663,-45.20559
1425923454.679,-42.178116
1425923454.695,-39.742313
1425923454.71,-37.341423
1425923454.726,-34.485737
1425923454.741,-31.054535
1425923454.757,-27.371346
1425923454.773,-24.061592
1425923454.788,-21.693512
1425923454.804,-20.410324
1425923454.82,-19.755405
1425923454.835,-18.7527
1425923454.851,-16.289513
1425923454.866,-11.591286
1425923454.882,-4.5277786
1425923454.898,4.341511
1425923454.913,13.952717
1425923454.929,23.183777
1425923454.945,31.27996
1425923454.96,38.091526
1425923454.976,44.127975
1425923454.991,50.32336
1425923455.007,57.754726
1425923455.023,67.286606
1425923455.038,79.21179
1425923455.054,93.008064
1425923455.07,107.12511
1425923455.085,119.11269
1425923455.101,126.007095
1425923455.116,125.105385
1425923455.132,114.86351
1425923455.148,95.57761
1425923455.163,69.50235
1425923455.179,40.241585
1425923455.195,11.695427
1425923455.21,-13.066086
1425923455.226,-32.463097
1425923455.241,-46.393204
1425923455.257,-55.692703
1425923455.273,-61.404755
1425923455.288,-64.30362
1425923455.304,-64.807434
1425923455.32,-63.23285
1425923455.335,-60.03247
1425923455.351,-55.894165
1425923455.366,-51.58667
1425923455.382,-47.66578
1425923455.398,-44.270515
1425923455.413,-41.16648
1425923455.429,-37.974525
1425923455.445,-34.47647
1425923455.46,-30.817543
1425923455.476,-27.424797
1425923455.491,-24.787575
1425923455.507,-23.093033
1425923455.523,-21.982658
1425923455.538,-20.571884
1425923455.554,-17.717941
1425923455.57,-12.519402
1425923455.585,-4.6897583
1425923455.601,5.2452927
1425923455.616,16.160568
1425923455.632,26.739204
1425923455.648,36.03427
1425923455.663,43.821335
1425923455.679,50.65625
1425923455.695,57.60337
1425923455.71,65.91623
1425923455.726,76.54145
1425923455.741,89.76201
1425923455.757,104.85323
1425923455.773,119.94921
1425923455.788,132.19632
1425923455.804,138.33055
1425923455.82,135.59866
1425923455.835,122.7363
1425923455.851,100.6131
1425923455.866,72.048004
1425923455.882,41.035126
1425923455.898,11.426193
1425923455.913,-14.07901
1425923455.929,-34.43541
1425923455.945,-50.001205
1425923455.96,-61.831543
1425923455.976,-70.93521
1425923455.991,-77.86218
1425923456.007,-82.71315
1425923456.023,-85.36455
1425923456.038,-85.7612
1425923456.054,-84.17178
1425923456.07,-81.14319
1425923456.085,-77.35666
1425923456.101,-73.38083
1425923456.116,-69.481964
1425923456.132,-65.59262
1425923456.148,-61.44719
1425923456.163,-56.831604
1425923456.179,-51.81584
1425923456.195,-46.8062
1425923456.21,-42.359863
1425923456.226,-38.84247
1425923456.241,-36.127243
1425923456.257,-33.517014
1425923456.273,-29.975006
1425923456.288,-24.575409
1425923456.304,-16.89505
1425923456.32,-7.2409363
1425923456.335,3.4641876
1425923456.351,14.114319
1425923456.366,23.752533
1425923456.382,32.032364
1425923456.398,39.19673
1425923456.413,46.033066
1425923456.429,53.579666
1425923456.445,62.86371
1425923456.46,74.5981
1425923456.476,88.88304
1425923456.491,104.859314
1425923456.507,120.537445
1425923456.523,132.88997
1425923456.538,138.5461
1425923456.554,134.77937
1425923456.57,120.54587
1425923456.585,97.090576
1425923456.601,67.6651
1425923456.616,36.509064
1425923456.632,7.489197
1425923456.648,-16.956604
1425923456.663,-36.12268
1425923456.679,-50.660553
1425923456.695,-61.67633
1425923456.71,-70.10364
1425923456.726,-76.3183
1425923456.741,-80.325806
1425923456.757,-82.09015
1425923456.773,-81.78705
1425923456.788,-79.846924
1425923456.804,-76.86191
1425923456.82,-73.39285
1425923456.835,-69.87604
1425923456.851,-66.56268
1425923456.866,-63.603577
1425923456.882,-60.98697
1425923456.898,-58.674866
1425923456.913,-56.536316
1425923456.929,-54.46228
1425923456.945,-52.31186
1425923456.96,-49.946533
1425923456.976,-47.18045
1425923456.992,-43.794342
1425923457.007,-39.542755
1425923457.023,-34.241516
1425923457.038,-27.76706
1425923457.054,-20.161316
1425923457.07,-11.590424
1425923457.085,-2.367157
1425923457.101,7.1206055
1425923457.117,16.483124
1425923457.132,25.434235
1425923457.148,33.877716
1425923457.163,41.96704
1425923457.179,50.043243
1425923457.195,58.615784
1425923457.21,68.21759
1425923457.226,79.33533
1425923457.242,92.16278
1425923457.257,106.32794
1425923457.273,120.51575
1425923457.288,132.3837
1425923457.304,138.88174
1425923457.32,137.10385
1425923457.335,125.34137
1425923457.351,103.96542
1425923457.367,75.48758
1425923457.382,43.87793
1425923457.398,13.2464905
1425923457.413,-13.356567
1425923457.429,-34.613556
1425923457.445,-50.744873
1425923457.46,-62.818207
1425923457.476,-71.94287
1425923457.492,-78.80127
1425923457.507,-83.62677
1425923457.523,-86.48715
1425923457.538,-87.5282
1425923457.554,-87.10635
1425923457.57,-85.627716
1425923457.585,-83.43692
1425923457.601,-80.73224
1425923457.617,-77.611786
1425923457.632,-74.232605
1425923457.648,-70.90408
1425923457.663,-68.06424
1425923457.679,-66.06006
1425923457.695,-64.9762
1425923457.71,-64.45285
1425923457.726,-63.792633
1425923457.742,-62.198944
1425923457.757,-59.09668
1425923457.773,-54.3757
1425923457.788,-48.41913
1425923457.804,-41.884766
1425923457.82,-35.393066
1425923457.835,-29.227356
1425923457.851,-23.242126
1425923457.867,-16.936432
1425923457.882,-9.760925
1425923457.898,-1.4030151
1425923457.913,8.006165
1425923457.929,17.89682
1425923457.945,27.519073
1425923457.96,36.26126
1425923457.976,43.935394
1425923457.992,50.956207
1425923458.007,58.203247
1425923458.023,66.769684
1425923458.038,77.533264
1425923458.054,90.6998
1425923458.07,105.37918
1425923458.085,119.50122
1425923458.101,130.02512
1425923458.117,133.67819
1425923458.132,127.942505
1425923458.148,112.01041
1425923458.163,87.23602
1425923458.179,56.853912
1425923458.195,24.999176
1425923458.21,-4.4994507
1425923458.226,-29.119263
1425923458.242,-48.03949
1425923458.257,-61.80191
1425923458.273,-71.60281
1425923458.288,-78.58392
1425923458.304,-83.452515
1425923458.32,-86.495514
1425923458.335,-87.85312
1425923458.351,-87.72565
1425923458.367,-86.48889
1425923458.382,-84.588104
1425923458.398,-82.40787
1425923458.413,-80.1434
1425923458.429,-77.83002
1425923458.445,-75.40146
1425923458.46,-72.76178
1425923458.476,-69.83377
1425923458.492,-66.59094
1425923458.507,-63.026123
1425923458.523,-59.17868
1425923458.538,-55.12265
1425923458.554,-50.919952
1425923458.57,-46.546722
1425923458.585,-41.856384
1425923458.601,-36.546265
1425923458.617,-30.23108
1425923458.632,-22.62854
1425923458.648,-13.702393
1425923458.663,-3.7202148
1425923458.679,6.730652
1425923458.695,16.967163
1425923458.71,26.367401
1425923458.726,34.59665
1425923458.742,41.701324
1425923458.757,48.117615
1425923458.773,54.58365
1425923458.788,61.98355
1425923458.804,71.14212
1425923458.82,82.47562
1425923458.835,95.60718
1425923458.851,109.04706
1425923458.867,120.22952
1425923458.882,125.97839
1425923458.898,123.46875
1425923458.913,111.28458
1425923458.929,90.129944
1425923458.945,62.782166
1425923458.96,33.232483
1425923458.976,5.42688
1425923458.992,-17.896912
1425923459.007,-35.694305
1425923459.023,-48.35495
1425923459.038,-56.93686
1425923459.054,-62.46463
1425923459.07,-65.47397
1425923459.085,-66.152405
1425923459.101,-64.668884
1425923459.117,-61.51883
1425923459.132,-57.535675
1425923459.148,-53.648315
1425923459.163,-50.485657
1425923459.179,-48.118896
1425923459.195,-46.0625
1425923459.21,-43.619934
1425923459.226,-40.350647
1425923459.242,-36.335632
1425923459.257,-32.19104
1425923459.273,-28.750702
1425923459.288,-26.534027
1425923459.304,-25.441956
1425923459.32,-24.619904
1425923459.335,-22.821869
1425923459.351,-18.905182
1425923459.367,-12.340546
1425923459.382,-3.4550476
1425923459.398,6.7068176
1425923459.413,16.770111
1425923459.429,25.594543
1425923459.445,32.685455
1425923459.46,38.367523
1425923459.476,43.650482
1425923459.492,49.868958
1425923459.507,58.256104
1425923459.523,69.511536
1425923459.538,83.443634
1425923459.554,98.73016
1425923459.57,113.01041
1425923459.585,123.173615
1425923459.601,126.20044
1425923459.617,120.01941
1425923459.632,104.37161
1425923459.648,81.03497
1425923459.664,53.35919
1425923459.679,25.251068
1425923459.695,-0.06536865
1425923459.71,-20.807037
1425923459.726,-36.77835
1425923459.742,-48.849487
1425923459.757,-58.125946
1425923459.773,-65.35669
1425923459.788,-70.708954
1425923459.804,-74.04404
1425923459.82,-75.25223
1425923459.835,-74.57269
1425923459.851,-72.57294
1425923459.867,-70.006195
1425923459.882,-67.44391
1425923459.898,-65.1857
1425923459.914,-63.16812
1425923459.929,-61.126617
1425923459.945,-58.763336
1425923459.96,-55.879974
1425923459.976,-52.483
1425923459.992,-48.734497
1425923460.007,-44.887146
1425923460.023,-41.150177
1425923460.039,-37.5513
1425923460.054,-33.88202
1425923460.07,-29.695282
1425923460.085,-24.484283
1425923460.101,-17.861267
1425923460.117,-9.836853
1425923460.132,-0.78637695
1425923460.148,8.573944
1425923460.164,17.508942
1425923460.179,25.525146
1425923460.195,32.580566
1425923460.21,39.052643
1425923460.226,45.63336
1425923460.242,53.075287
1425923460.257,62.045685
1425923460.273,72.93341
1425923460.289,85.679535
1425923460.304,99.532074
1425923460.32,112.8468
1425923460.335,123.175354
1425923460.351,127.69925
1425923460.367,124.022095
1425923460.382,111.11737
1425923460.398,89.78778
1425923460.414,62.66916
1425923460.429,33.39682
1425923460.445,5.573242
1425923460.46,-18.25296
1425923460.476,-37.024475
1425923460.492,-51.00943
1425923460.507,-61.20926
1425923460.523,-68.7045
1425923460.539,-74.24667
1425923460.554,-78.17096
1425923460.57,-80.56314
1425923460.585,-81.48288
1425923460.601,-81.07352
1425923460.617,-79.604004
1425923460.632,-77.38031
1425923460.648,-74.669556
1425923460.664,-71.661804
1425923460.679,-68.50397
1425923460.695,-65.32437
1425923460.71,-62.259735
1425923460.726,-59.430725
1425923460.742,-56.891235
1425923460.757,-54.534912
1425923460.773,-52.072906
1425923460.789,-49.10103
1425923460.804,-45.23456
1425923460.82,-40.297897
1425923460.835,-34.404663
1425923460.851,-27.865784
1425923460.867,-20.988663
1425923460.882,-13.870636
1425923460.898,-6.345459
1425923460.914,1.8918457
1425923460.929,10.982712
1425923460.945,20.746277
1425923460.96,30.669968
1425923460.976,40.11252
1425923460.992,48.642166
1425923461.007,56.24559
1425923461.023,63.357178
1425923461.039,70.732346
1425923461.054,79.19614
1425923461.07,89.40025
1425923461.085,101.52475
1425923461.101,114.96489
1425923461.117,128.0842
1425923461.132,138.28838
1425923461.148,142.50719
1425923461.164,138.13138
1425923461.179,124.025055
1425923461.195,101.17204
1425923461.21,72.548996
1425923461.226,42.18062
1425923461.242,13.893402
1425923461.257,-9.801559
1425923461.273,-28.121765
1425923461.289,-41.68541
1425923461.304,-51.77202
1425923461.32,-59.506134
1425923461.335,-65.50224
1425923461.351,-69.87221
1425923461.367,-72.52936
1425923461.382,-73.46948
1425923461.398,-72.95659
1425923461.414,-71.412445
1425923461.429,-69.32593
1425923461.445,-67.09299
1425923461.46,-64.94684
1425923461.476,-63.016586
1425923461.492,-61.358856
1425923461.507,-60.003723
1425923461.523,-58.918167
1425923461.539,-57.983932
1425923461.554,-56.935165
1425923461.57,-55.406998
1425923461.585,-53.009293
1425923461.601,-49.50055
1425923461.617,-44.836243
1425923461.632,-39.19464
1425923461.648,-32.8459
1425923461.664,-25.984787
1425923461.679,-18.675003
1425923461.695,-10.868362
1425923461.71,-2.5029602
1425923461.726,6.3452454
1425923461.742,15.411484
1425923461.757,24.303741
1425923461.773,32.638428
1425923461.789,40.22734
1425923461.804,47.169205
1425923461.82,53.89633
1425923461.835,61.106033
1425923461.851,69.56827
1425923461.867,79.77985
1425923461.882,91.55192
1425923461.898,103.68088
1425923461.914,113.91823
1425923461.929,119.419464
1425923461.945,117.57218
1425923461.96,106.970345
1425923461.976,88.067566
1425923461.992,63.163795
1425923462.007,35.71086
1425923462.023,9.263359
1425923462.039,-13.556519
1425923462.054,-31.537666
1425923462.07,-44.762924
1425923462.085,-54.045036
1425923462.101,-60.311546
1425923462.117,-64.180336
1425923462.132,-65.94919
1425923462.148,-65.78576
1425923462.164,-63.975815
1425923462.179,-61.02446
1425923462.195,-57.589462
1425923462.21,-54.255035
1425923462.226,-51.370552
1425923462.242,-48.99353
1425923462.257,-46.96334
1425923462.273,-45.029823
1425923462.289,-43.015762
1425923462.304,-40.855064
1425923462.32,-38.582565
1425923462.336,-36.248985
1425923462.351,-33.887085
1425923462.367,-31.422653
1425923462.382,-28.709003
1425923462.398,-25.477795
1425923462.414,-21.41991
1425923462.429,-16.219944
1425923462.445,-9.714966
1425923462.46,-2.003727
1425923462.476,6.49905
1425923462.492,15.1816025
1425923462.507,23.373234
1425923462.523,30.649628
1425923462.539,36.95803
1425923462.554,42.64057
1425923462.57,48.286125
1425923462.586,54.57212
1425923462.601,62.101364
1425923462.617,71.32643
1425923462.632,82.35205
1425923462.648,94.730286
1425923462.664,107.17714
1425923462.679,117.524734
1425923462.695,123.01722
1425923462.711,121.116714
1425923462.726,110.4358
1425923462.742,91.47576
1425923462.757,66.605064
1425923462.773,39.410866
1425923462.789,13.506794
1425923462.804,-8.535925
1425923462.82,-25.703695
1425923462.836,-38.304638
1425923462.851,-47.301987
1425923462.867,-53.561462
1425923462.882,-57.548122
1425923462.898,-59.317528
1425923462.914,-58.95503
1425923462.929,-56.84144
1425923462.945,-53.68535
1425923462.961,-50.320854
1425923462.976,-47.37182
1425923462.992,-45.01479
1425923463.007,-43.038517
1425923463.023,-41.02827
1425923463.039,-38.707394
1425923463.054,-36.105972
1425923463.07,-33.592876
1425923463.086,-31.646717
1425923463.101,-30.587383
1425923463.117,-30.24308
1425923463.132,-29.960638
1425923463.148,-28.729979
1425923463.164,-25.594915
1425923463.179,-20.047102
1425923463.195,-12.272277
1425923463.211,-3.0960631
1425923463.226,6.313357
1425923463.242,14.930775
1425923463.257,22.251013
1425923463.273,28.453016
1425923463.289,34.29104
1425923463.304,40.81802
1425923463.32,48.982338
1425923463.336,59.364353
1425923463.351,71.87546
1425923463.367,85.6765
1425923463.382,99.05977
1425923463.398,109.67304
1425923463.414,114.925575
1425923463.429,112.720955
1425923463.445,102.150986
1425923463.461,83.96002
1425923463.476,60.42308
1425923463.492,34.731728
1425923463.507,10.016563
1425923463.523,-11.388585
1425923463.539,-28.389887
1425923463.554,-40.98407
1425923463.57,-49.754677
1425923463.586,-55.412792
1425923463.601,-58.532097
1425923463.617,-59.52656
1425923463.632,-58.848785
1425923463.648,-57.06251
1425923463.664,-54.80535
1425923463.679,-52.566544
1425923463.695,-50.517254
1425923463.711,-48.473045
1425923463.726,-46.066357
1425923463.742,-42.973644
1425923463.757,-39.18318
1425923463.773,-35.04841
1425923463.789,-31.153236
1425923463.804,-28.041248
1425923463.82,-25.916199
1425923463.836,-24.443714
1425923463.851,-22.881966
1425923463.867,-20.288536
1425923463.882,-15.931267
1425923463.898,-9.582571
1425923463.914,-1.6508598
1425923463.929,7.0006113
1425923463.945,15.364737
1425923463.961,22.719091
1425923463.976,28.902021
1425923463.992,34.38361
1425923464.007,40.09702
1425923464.023,47.122334
1425923464.039,56.301647
1425923464.054,67.85274
1425923464.07,81.0703
1425923464.086,94.22377
1425923464.101,104.72782
1425923464.117,109.68962
1425923464.132,106.679535
1425923464.148,94.62012
1425923464.164,74.2048
1425923464.179,47.850998
1425923464.195,18.949436
1425923464.211,-9.101843
1425923464.226,-33.88542
1425923464.242,-54.356133
1425923464.257,-70.71492
1425923464.273,-83.87175
1425923464.289,-94.77414
1425923464.304,-104.09183
1425923464.32,-112.123886
1425923464.336,-118.984985
1425923464.351,-124.81881
1425923464.367,-129.85872
1425923464.382,-134.40439
1425923464.398,-138.71281
1425923464.414,-143.00156
1425923464.429,-147.4263
1425923464.445,-152.2167
1425923464.461,-157.67657
1425923464.476,-164.24109
1425923464.492,-172.39645
1425923464.507,-182.4622
1425923464.523,-194.39401
1425923464.539,-207.58167
1425923464.554,-220.81944
1425923464.57,-232.50554
1425923464.586,-241.11476
1425923464.601,-245.58301
1425923464.617,-245.56906
1425923464.632,-241.40648
1425923464.648,-233.73228
1425923464.664,-223.07892
1425923464.679,-209.58945
1425923464.695,-193.04204
1425923464.711,-173.06927
1425923464.726,-149.53793
1425923464.742,-122.74509
1425923464.757,-93.4913
1425923464.773,-62.951263
1425923464.789,-32.41559
1425923464.804,-3.0099487
1425923464.82,24.521332
1425923464.836,49.991943
1425923464.851,73.65683
1425923464.867,96.010864
1425923464.882,117.42084
1425923464.898,137.90012
1425923464.914,156.99252
1425923464.929,173.96875
1425923464.945,188.05984
1425923464.961,198.6753
1425923464.976,205.46985
1425923464.992,208.2738
1425923465.007,207.04663
1425923465.023,201.92908
1425923465.039,193.336
1425923465.054,182.05316
1425923465.07,169.19043
1425923465.086,155.98352
1425923465.101,143.48413
1425923465.117,132.35065
1425923465.132,122.7348
1425923465.148,114.37128
1425923465.164,106.74689
1425923465.179,99.35144
1425923465.195,91.858215
1425923465.211,84.22638
1425923465.226,76.6723
1425923465.242,69.546875
1425923465.258,63.187866
1425923465.273,57.72827
1425923465.289,53.076294
1425923465.304,48.998596
1425923465.32,45.288025
1425923465.336,41.921265
1425923465.351,39.116333
1425923465.367,37.247986
1425923465.383,36.586853
1425923465.398,37.1734
1425923465.414,38.75995
1425923465.429,40.924133
1425923465.445,43.270203
1425923465.461,45.6369
1425923465.476,48.134888
1425923465.492,51.072998
1425923465.508,54.800354
1425923465.523,59.5437
1425923465.539,65.2865
1425923465.554,71.73291
1425923465.57,78.335205
1425923465.586,84.33032
1425923465.601,88.79889
1425923465.617,90.805664
1425923465.633,89.58777
1425923465.648,84.86725
1425923465.664,76.99426
1425923465.679,66.93927
1425923465.695,56.00232
1425923465.711,45.420532
1425923465.726,35.990173
1425923465.742,27.926697
1425923465.758,21.077698
1425923465.773,15.192749
1425923465.789,10.215149
1425923465.804,6.3220825
1425923465.82,3.7647705
1425923465.836,2.5997314
1425923465.851,2.5529785
1425923465.867,3.0557861
1425923465.883,3.4458008
1425923465.898,3.2410889
1425923465.914,2.2827759
1425923465.929,0.7663574
1425923465.945,-0.9343872
1425923465.961,-2.4030762
1425923465.976,-3.3292847
1425923465.992,-3.560791
1425923466.008,-3.1012573
1425923466.023,-2.020752
1425923466.039,-0.4179077
1425923466.054,1.6524048
1425923466.07,4.176758
1425923466.086,7.2176514
1425923466.101,10.809814
1425923466.117,14.929626
1425923466.133,19.455383
1425923466.148,24.196411
1425923466.164,28.937378
1425923466.179,33.526
1425923466.195,37.88739
1425923466.211,42.10553
1425923466.226,46.40686
1425923466.242,51.15857
1425923466.258,56.779236
1425923466.273,63.599792
1425923466.289,71.693115
1425923466.304,80.68579
1425923466.32,89.68286
1425923466.336,97.27588
1425923466.351,101.81244
1425923466.367,101.750854
1425923466.383,96.02881
1425923466.398,84.439026
1425923466.414,67.69287
1425923466.429,47.303528
1425923466.445,25.158447
1425923466.461,3.12323
1425923466.476,-17.371826
1425923466.492,-35.42694
1425923466.508,-50.655945
1425923466.523,-62.93799
1425923466.539,-72.296875
1425923466.554,-78.79663
1425923466.57,-82.663574
1425923466.586,-84.34546
1425923466.601,-84.47412
1425923466.617,-83.75519
1425923466.633,-82.71991
1425923466.648,-81.59888
1425923466.664,-80.319214
1425923466.679,-78.64624
1425923466.695,-76.38025
1425923466.711,-73.50018
1425923466.726,-70.20203
1425923466.742,-66.75806
1425923466.758,-63.357056
1425923466.773,-59.92987
1425923466.789,-56.13434
1425923466.804,-51.427307
1425923466.82,-45.354492
1425923466.836,-37.748657
1425923466.851,-28.891968
1425923466.867,-19.418823
1425923466.883,-10.083435
1425923466.898,-1.4796143
1425923466.914,6.197876
1425923466.929,13.161255
1425923466.945,19.892212
1425923466.961,27.013184
1425923466.976,35.012817
1425923466.992,44.100464
1425923467.008,53.99225
1425923467.023,63.772766
1425923467.039,71.922424
1425923467.054,76.53937
1425923467.07,75.85858
1425923467.086,68.828674
1425923467.101,55.534973
1425923467.117,37.256897
1425923467.133,16.090576
1425923467.148,-5.6309204
1425923467.164,-25.940613
1425923467.179,-43.53296
1425923467.195,-57.8407
1425923467.211,-68.83496
1425923467.226,-76.82324
1425923467.242,-82.24548
1425923467.258,-85.5802
1425923467.273,-87.26221
1425923467.289,-87.62305
1425923467.304,-86.915344
1425923467.32,-85.29083
1425923467.336,-82.86395
1425923467.351,-79.76666
1425923467.367,-76.17078
1425923467.383,-72.31
1425923467.398,-68.43945
1425923467.414,-64.81006
1425923467.429,-61.585022
1425923467.445,-58.844116
1425923467.461,-56.445496
1425923467.476,-54.11255
1425923467.492,-51.488403
1425923467.508,-48.234497
1425923467.523,-44.19861
1425923467.539,-39.428284
1425923467.554,-34.15863
1425923467.57,-28.697327
1425923467.586,-23.310852
1425923467.601,-18.096252
1425923467.617,-12.953674
1425923467.633,-7.521179
1425923467.648,-1.27594
1425923467.664,6.222107
1425923467.679,15.11853
1425923467.695,24.938293
1425923467.711,34.56653
1425923467.726,42.45984
1425923467.742,47.101868
1425923467.758,47.53601
1425923467.773,43.71991
1425923467.789,36.572205
1425923467.804,27.5531
1425923467.82,18.208069
1425923467.836,9.649292
1425923467.851,2.4189453
1425923467.867,-3.4435425
1425923467.883,-8.11377
1425923467.898,-11.74054
1425923467.914,-14.370605
1425923467.93,-15.998596
1425923467.945,-16.71167
1425923467.961,-16.737305
1425923467.976,-16.390198
1425923467.992,-15.886597
1425923468.008,-15.203735
1425923468.023,-14.056152
1425923468.039,-12.082336
1425923468.055,-9.072815
1425923468.07,-5.198181
1425923468.086,-0.9899292
1425923468.101,2.8374634
1425923468.117,5.6950073
1425923468.133,7.3773804
1425923468.148,8.123352
1425923468.164,8.506409
1425923468.18,9.155701
1425923468.195,10.559692
1425923468.211,12.88678
1425923468.226,16.077942
1425923468.242,19.908142
1425923468.258,24.13855
1425923468.273,28.509705
1425923468.289,32.807922
1425923468.305,36.85956
1425923468.32,40.63263
1425923468.336,44.268555
1425923468.351,48.071167
1425923468.367,52.36621
1425923468.383,57.232117
1425923468.398,62.2688
1425923468.414,66.48822
1425923468.43,68.49982
1425923468.445,66.93512
1425923468.461,60.942993
1425923468.476,50.62036
1425923468.492,36.986023
1425923468.508,21.724243
1425923468.523,6.597046
1425923468.539,-7.0603027
1425923468.555,-18.623169
1425923468.57,-28.086365
1425923468.586,-35.84961
1425923468.601,-42.33905
1425923468.617,-47.806274
1425923468.633,-52.315002
1425923468.648,-55.82776
1425923468.664,-58.368103
1425923468.68,-60.09076
1425923468.695,-61.26526
1425923468.711,-62.177124
1425923468.726,-62.990295
1425923468.742,-63.71234
1425923468.758,-64.14819
1425923468.773,-63.997314
1425923468.789,-63.013
1425923468.805,-61.147705
1425923468.82,-58.573547
1425923468.836,-55.541077
1425923468.851,-52.168762
1425923468.867,-48.23419
1425923468.883,-43.182068
1425923468.898,-36.348267
1425923468.914,-27.291382
1425923468.93,-16.087097
1425923468.945,-3.296875
1425923468.961,10.176025
1425923468.976,23.467651
1425923468.992,35.948242
1425923469.008,47.34857
1425923469.023,57.66217
1425923469.039,67.045166
1425923469.055,75.68414
1425923469.07,83.793335
1425923469.086,91.51953
1425923469.101,98.900085
1425923469.117,105.73944
1425923469.133,111.57391
1425923469.148,115.630615
