1425924784.74,0.0
1425924784.756,0.0
1425924784.771,0.0
1425924784.787,0.0
1425924784.802,0.0
1425924784.818,0.0
1425924784.834,0.0
1425924784.849,0.0
1425924784.865,0.0
1425924784.881,0.0022315353
1425924784.896,-0.0045169927
1425924784.912,-0.011265522
1425924784.927,-0.011383951
1425924784.943,0.0011864507
1425924784.959,0.025910312
1425924784.974,0.050634187
1425924784.99,0.051362894
1425924785.006,-0.0014929791
1425924785.021,-0.1302426
1425924785.037,-0.35562757
1425924785.052,-0.6591247
1425924785.068,-1.0095103
1425924785.084,-1.3709826
1425924785.099,-1.7197359
1425924785.115,-2.0551105
1425924785.131,-2.39945
1425924785.146,-2.7866635
1425924785.162,-3.2399073
1425924785.177,-3.796012
1425924785.193,-4.418684
1425924785.209,-5.0592937
1425924785.224,-5.6644096
1425924785.24,-6.2021537
1425924785.256,-6.6808796
1425924785.271,-7.149598
1425924785.287,-7.6782336
1425924785.302,-8.310739
1425924785.318,-9.143657
1425924785.334,-10.089731
1425924785.349,-11.041313
1425924785.365,-11.8842125
1425924785.381,-12.564316
1425924785.396,-13.13563
1425924785.412,-13.760044
1425924785.427,-14.65232
1425924785.443,-15.962056
1425924785.459,-17.914442
1425924785.474,-20.317299
1425924785.49,-22.903854
1425924785.506,-25.37947
1425924785.521,-27.578028
1425924785.537,-29.57246
1425924785.552,-31.675173
1425924785.568,-34.3178
1425924785.584,-37.813618
1425924785.599,-42.541233
1425924785.615,-48.1463
1425924785.631,-54.104755
1425924785.646,-59.83309
1425924785.662,-64.972374
1425924785.677,-69.58293
1425924785.693,-74.14353
1425924785.709,-79.344986
1425924785.724,-85.70726
1425924785.74,-93.76193
1425924785.756,-102.99779
1425924785.771,-112.61757
1425924785.787,-121.73034
1425924785.802,-129.76602
1425924785.818,-136.75102
1425924785.834,-143.30344
1425924785.849,-150.74623
1425924785.865,-157.77356
1425924785.881,-166.64323
1425924785.896,-177.94798
1425924785.912,-191.79102
1425924785.927,-206.96808
1425924785.943,-220.56592
1425924785.959,-228.24644
1425924785.974,-225.36154
1425924785.99,-208.53198
1425924786.006,-176.87024
1425924786.021,-132.76222
1425924786.037,-80.04997
1425924786.052,-23.069275
1425924786.068,34.94339
1425924786.084,92.43695
1425924786.099,149.15695
1425924786.115,205.22772
1425924786.131,260.36963
1425924786.146,313.74133
1425924786.162,363.87396
1425924786.177,409.83353
1425924786.193,450.90775
1425924786.209,486.50244
1425924786.224,515.73865
1425924786.24,537.2274
1425924786.256,549.22
1425924786.271,549.9613
1425924786.287,538.367
1425924786.302,514.2055
1425924786.318,478.674
1425924786.334,433.87952
1425924786.349,382.45126
1425924786.365,327.02106
1425924786.381,269.84186
1425924786.396,212.63379
1425924786.412,156.65942
1425924786.427,102.95233
1425924786.443,52.373383
1425924786.459,5.9040527
1425924786.474,-35.58142
1425924786.49,-71.42685
1425924786.506,-101.35199
1425924786.521,-125.49963
1425924786.537,-144.37668
1425924786.552,-158.69156
1425924786.568,-169.15263
1425924786.584,-176.38106
1425924786.599,-180.76953
1425924786.615,-182.59387
1425924786.631,-182.07565
1425924786.646,-179.4822
1425924786.662,-175.16061
1425924786.678,-169.52438
1425924786.693,-162.99901
1425924786.709,-155.93782
1425924786.724,-148.59401
1425924786.74,-141.0985
1425924786.756,-133.50877
1425924786.771,-125.83777
1425924786.787,-118.115295
1425924786.803,-110.39713
1425924786.818,-102.76411
1425924786.834,-95.31234
1425924786.849,-88.11923
1425924786.865,-81.23504
1425924786.881,-74.66804
1425924786.896,-68.40493
1425924786.912,-62.409134
1425924786.928,-56.65938
1425924786.943,-51.15507
1425924786.959,-45.923737
1425924786.974,-41.017853
1425924786.99,-36.48449
1425924787.006,-32.348114
1425924787.021,-28.576807
1425924787.037,-25.101826
1425924787.053,-21.818613
1425924787.068,-18.65297
1425924787.084,-15.587177
1425924787.099,-12.680987
1425924787.115,-10.056847
1425924787.131,-7.835099
1425924787.146,-6.0751257
1425924787.162,-4.7193336
1425924787.178,-3.5998611
1425924787.193,-2.4898183
1425924787.209,-1.2033852
1425924787.224,0.31541237
1425924787.24,1.9502251
1425924787.256,3.4583416
1425924787.271,4.575324
1425924787.287,5.1483383
1425924787.303,5.2401247
1425924787.318,5.1306424
1425924787.334,5.2146215
1425924787.349,5.8214774
1425924787.365,7.0623097
1425924787.381,8.752038
1425924787.396,10.479302
1425924787.412,11.78797
1425924787.428,12.383109
1425924787.443,12.248831
1425924787.459,11.697886
1425924787.474,11.218639
1425924787.49,11.334666
1425924787.506,12.427875
1425924787.521,14.630388
1425924787.537,17.68013
1425924787.553,20.849905
1425924787.568,23.035902
1425924787.584,23.009274
1425924787.599,19.907276
1425924787.615,13.711294
1425924787.631,5.4520397
1425924787.646,-3.049347
1425924787.662,-9.799778
1425924787.678,-13.419573
1425924787.693,-13.690428
1425924787.709,-11.63056
1425924787.724,-9.072968
1425924787.74,-7.9407024
1425924787.756,-9.538099
1425924787.771,-14.121912
1425924787.787,-20.900757
1425924787.803,-28.386961
1425924787.818,-34.90206
1425924787.834,-39.121964
1425924787.849,-40.39605
1425924787.865,-38.816418
1425924787.881,-35.06606
1425924787.896,-30.060108
1425924787.912,-24.651993
1425924787.928,-19.408045
1425924787.943,-14.667583
1425924787.959,-10.6008835
1425924787.974,-7.3570213
1425924787.99,-5.037094
1425924788.006,-3.6821556
1425924788.021,-3.1618805
1425924788.037,-3.184803
1425924788.053,-3.3691387
1425924788.068,-3.376423
1425924788.084,-3.0227299
1425924788.099,-2.3612404
1425924788.115,-1.6065674
1425924788.131,-1.0050316
1425924788.146,-0.6963997
1425924788.162,-0.64679337
1425924788.178,-0.6456337
1425924788.193,-0.45483208
1425924788.209,0.09629059
1425924788.224,0.9537277
1425924788.24,1.9106865
1425924788.256,2.6595058
1425924788.271,2.9603767
1425924788.287,2.7391243
1425924788.303,2.1485405
1425924788.318,1.5320911
1425924788.334,1.2758656
1425924788.349,1.6267776
1425924788.365,2.531479
1425924788.381,3.6739063
1425924788.396,4.5582027
1425924788.412,4.7553425
1425924788.428,4.11924
1425924788.443,2.8246937
1425924788.459,1.3131332
1425924788.474,0.037008286
1425924788.49,-0.65618134
1425924788.506,-0.6368637
1425924788.521,0.02611351
1425924788.537,1.1271973
1425924788.553,2.289631
1425924788.568,2.864563
1425924788.584,1.9646988
1425924788.599,-1.2723236
1425924788.615,-7.3046
1425924788.631,-15.741667
1425924788.646,-25.24052
1425924788.662,-33.90061
1425924788.678,-39.812996
1425924788.693,-41.86078
1425924788.709,-39.93834
1425924788.724,-34.962326
1425924788.74,-28.260859
1425924788.756,-21.117489
1425924788.771,-14.364249
1425924788.787,-8.216558
1425924788.803,-2.6065197
1425924788.818,2.5409222
1425924788.834,7.2952127
1425924788.849,11.638527
1425924788.865,15.523477
1425924788.881,18.891266
1425924788.896,21.683004
1425924788.912,23.772717
1425924788.928,25.04764
1425924788.943,25.38079
1425924788.959,24.8212
1425924788.974,23.585775
1425924788.99,22.083033
1425924789.006,20.757904
1425924789.021,20.027851
1425924789.037,20.039448
1425924789.053,20.71917
1425924789.068,21.750168
1425924789.084,22.713566
1425924789.099,23.249826
1425924789.115,23.178219
1425924789.131,22.531239
1425924789.146,21.570019
1425924789.162,20.477554
1425924789.178,19.413853
1425924789.193,18.283434
1425924789.209,16.907986
1425924789.224,15.131835
1425924789.24,12.975282
1425924789.256,10.66671
1425924789.271,8.5737705
1425924789.287,7.0640907
1425924789.303,6.3795357
1425924789.318,6.5411205
1425924789.334,7.281492
1425924789.35,8.002326
1425924789.365,7.8408766
1425924789.381,5.7522078
1425924789.396,0.94336605
1425924789.412,-6.8190193
1425924789.428,-16.848806
1425924789.443,-27.657581
1425924789.459,-37.315998
1425924789.475,-44.126385
1425924789.49,-47.15941
1425924789.506,-46.51014
1425924789.521,-43.084118
1425924789.537,-38.12858
1425924789.553,-32.75787
1425924789.568,-27.715654
1425924789.584,-23.329428
1425924789.6,-19.715103
1425924789.615,-16.91753
1425924789.631,-15.01549
1425924789.646,-13.972233
1425924789.662,-13.711504
1425924789.678,-14.005379
1425924789.693,-14.594463
1425924789.709,-15.212627
1425924789.725,-15.757704
1425924789.74,-16.216238
1425924789.756,-16.607443
1425924789.771,-17.047115
1425924789.787,-17.414621
1425924789.803,-17.49147
1425924789.818,-17.038143
1425924789.834,-15.940496
1425924789.85,-14.232664
1425924789.865,-12.0422535
1425924789.881,-9.518669
1425924789.896,-6.7006226
1425924789.912,-3.5145264
1425924789.928,0.23352051
1425924789.943,4.6872025
1425924789.959,9.82988
1425924789.975,15.435364
1425924789.99,21.171638
1425924790.006,26.629929
1425924790.021,31.483093
1425924790.037,35.59357
1425924790.053,39.102196
1425924790.068,42.405666
1425924790.084,46.112537
1425924790.1,50.861904
1425924790.115,57.078922
1425924790.131,64.60774
1425924790.146,72.494965
1425924790.162,78.936554
1425924790.178,81.69416
1425924790.193,78.75225
1425924790.209,69.14299
1425924790.225,53.39358
1425924790.24,33.494854
1425924790.256,12.296558
1425924790.271,-7.3577347
1425924790.287,-23.477665
1425924790.303,-35.264458
1425924790.318,-43.009007
1425924790.334,-47.61104
1425924790.35,-50.085377
1425924790.365,-51.172173
1425924790.381,-51.30926
1425924790.396,-50.71218
1425924790.412,-49.56909
1425924790.428,-48.12852
1425924790.443,-46.658817
1425924790.459,-45.351788
1425924790.475,-44.263905
1425924790.49,-43.26212
1425924790.506,-42.158375
1425924790.521,-40.832287
1425924790.537,-39.36293
1425924790.553,-37.963547
1425924790.568,-36.87709
1425924790.584,-36.16314
1425924790.6,-35.5739
1425924790.615,-34.631165
1425924790.631,-32.82144
1425924790.646,-29.83841
1425924790.662,-25.791
1425924790.678,-21.104126
1425924790.693,-16.311714
1425924790.709,-11.751152
1425924790.725,-7.4098206
1425924790.74,-2.9405136
1425924790.756,2.0851288
1425924790.771,7.906563
1425924790.787,14.375252
1425924790.803,20.989357
1425924790.818,27.136398
1425924790.834,32.38801
1425924790.85,36.73156
1425924790.865,40.55327
1425924790.881,44.52289
1425924790.896,49.33851
1425924790.912,55.509705
1425924790.928,63.15149
1425924790.943,71.87672
1425924790.959,80.62578
1425924790.975,87.70953
1425924790.99,91.08787
1425924791.006,88.93908
1425924791.021,80.29352
1425924791.037,65.56694
1425924791.053,46.554115
1425924791.068,25.932213
1425924791.084,6.452133
1425924791.1,-9.90258
1425924791.115,-22.281738
1425924791.131,-30.894508
1425924791.146,-36.52849
1425924791.162,-40.0325
1425924791.178,-42.041985
1425924791.193,-42.89576
1425924791.209,-42.864296
1425924791.225,-42.217422
1425924791.24,-41.31143
1425924791.256,-40.437485
1425924791.271,-39.71939
1425924791.287,-39.051537
1425924791.303,-38.2162
1425924791.318,-37.017372
1425924791.334,-35.476906
1425924791.35,-33.83792
1425924791.365,-32.46196
1425924791.381,-31.60228
1425924791.396,-31.232094
1425924791.412,-31.007347
1425924791.428,-30.41201
1425924791.443,-28.964996
1425924791.459,-26.469124
1425924791.475,-23.00187
1425924791.49,-18.915268
1425924791.506,-14.573029
1425924791.521,-10.246399
1425924791.537,-5.9661255
1425924791.553,-1.6400604
1425924791.568,2.9168549
1425924791.584,7.8251953
1425924791.6,13.062881
1425924791.615,18.438675
1425924791.631,23.68283
1425924791.646,28.542114
1425924791.662,32.902084
1425924791.678,36.855255
1425924791.693,40.744644
1425924791.709,45.09401
1425924791.725,50.503326
1425924791.74,57.340714
1425924791.756,65.46597
1425924791.771,73.95354
1425924791.787,81.105865
1425924791.803,84.78665
1425924791.818,83.10307
1425924791.834,75.1149
1425924791.85,61.289444
1425924791.865,43.43669
1425924791.881,24.123138
1425924791.896,5.839798
1425924791.912,-9.663147
1425924791.928,-21.692734
1425924791.943,-30.405151
1425924791.959,-36.417923
1425924791.975,-40.342438
1425924791.99,-42.647858
1425924792.006,-43.641724
1425924792.022,-43.606247
1425924792.037,-42.86064
1425924792.053,-41.728333
1425924792.068,-40.4693
1425924792.084,-39.19925
1425924792.1,-37.908752
1425924792.115,-36.560883
1425924792.131,-35.12874
1425924792.147,-33.69449
1425924792.162,-32.370773
1425924792.178,-31.255661
1425924792.193,-30.312866
1425924792.209,-29.38356
1425924792.225,-28.194916
1425924792.24,-26.50122
1425924792.256,-24.177902
1425924792.272,-21.294159
1425924792.287,-18.073044
1425924792.303,-14.753479
1425924792.318,-11.460144
1425924792.334,-8.149185
1425924792.35,-4.59198
1425924792.365,-0.5338135
1425924792.381,4.1466675
1425924792.397,9.329193
1425924792.412,14.689026
1425924792.428,19.778748
1425924792.443,24.288544
1425924792.459,28.149338
1425924792.475,31.610138
1425924792.49,35.167908
1425924792.506,39.451294
1425924792.522,45.031815
1425924792.537,52.16725
1425924792.553,60.550537
1425924792.568,69.116714
1425924792.584,76.09657
1425924792.6,79.44168
1425924792.615,77.41939
1425924792.631,69.29085
1425924792.647,55.680923
1425924792.662,38.46495
1425924792.678,20.166428
1425924792.693,3.2004547
1425924792.709,-10.789108
1425924792.725,-21.178574
1425924792.74,-28.170929
1425924792.756,-32.377075
1425924792.772,-34.41707
1425924792.787,-34.707214
1425924792.803,-33.46199
1425924792.818,-30.867249
1425924792.834,-27.21196
1425924792.85,-22.970612
1425924792.865,-18.78154
1425924792.881,-15.264679
1425924792.897,-12.805374
1425924792.912,-11.420517
1425924792.928,-10.750565
1425924792.943,-10.285004
1425924792.959,-9.586258
1425924792.975,-8.556549
1425924792.99,-7.43573
1425924793.006,-6.6298676
1425924793.022,-6.4094086
1425924793.037,-6.6907806
1425924793.053,-7.0138855
1425924793.068,-6.659851
1425924793.084,-4.9848175
1425924793.1,-1.6915741
1425924793.115,3.0757446
1425924793.131,8.758316
1425924793.147,14.640045
1425924793.162,20.059921
1425924793.178,24.671066
1425924793.193,28.493958
1425924793.209,31.907349
1425924793.225,35.47647
1425924793.24,39.83937
1425924793.256,45.53714
1425924793.272,52.868958
1425924793.287,61.65561
1425924793.303,71.06024
1425924793.318,79.50813
1425924793.334,84.92941
1425924793.35,85.2814
1425924793.365,79.3049
1425924793.381,67.01987
1425924793.397,49.872833
1425924793.412,30.285065
1425924793.428,10.860786
1425924793.443,-6.3631134
1425924793.459,-20.333488
1425924793.475,-30.915749
1425924793.49,-38.54328
1425924793.506,-43.798523
1425924793.522,-47.121178
1425924793.537,-48.79261
1425924793.553,-49.026047
1425924793.568,-48.08397
1425924793.584,-46.3143
1425924793.6,-44.142418
1425924793.615,-41.961388
1425924793.631,-40.035027
1425924793.647,-38.41275
1425924793.662,-36.952248
1425924793.678,-35.382545
1425924793.693,-33.45883
1425924793.709,-31.097534
1425924793.725,-28.43332
1425924793.74,-25.745842
1425924793.756,-23.332802
1425924793.772,-21.313644
1425924793.787,-19.52974
1425924793.803,-17.564621
1425924793.818,-14.896599
1425924793.834,-11.048286
1425924793.85,-5.8216553
1425924793.865,0.64656067
1425924793.881,7.871029
1425924793.897,15.2095375
1425924793.912,22.052345
1425924793.928,28.089283
1425924793.943,33.38572
1425924793.959,38.361126
1425924793.975,43.66985
1425924793.99,49.998646
1425924794.006,57.845287
1425924794.022,67.344864
1425924794.037,77.948975
1425924794.053,88.35022
1425924794.068,96.52684
1425924794.084,100.14637
1425924794.1,97.24925
1425924794.115,87.043236
1425924794.131,70.24705
1425924794.147,49.063995
1425924794.162,26.436064
1425924794.178,5.185747
1425924794.193,-12.802868
1425924794.209,-26.851305
1425924794.225,-37.302544
1425924794.24,-44.97157
1425924794.256,-50.66285
1425924794.272,-54.87797
1425924794.287,-57.84102
1425924794.303,-59.65941
1425924794.318,-60.455307
1425924794.334,-60.43648
1425924794.35,-59.835342
1425924794.365,-58.850967
1425924794.381,-57.639687
1425924794.397,-56.261166
1425924794.412,-54.811737
1425924794.428,-53.399384
1425924794.443,-52.144184
1425924794.459,-51.077682
1425924794.475,-50.133266
1425924794.49,-49.082973
1425924794.506,-47.62481
1425924794.522,-45.507427
1425924794.537,-42.603504
1425924794.553,-38.971813
1425924794.568,-34.77337
1425924794.584,-30.161701
1425924794.6,-25.205753
1425924794.615,-19.834595
1425924794.631,-13.948753
1425924794.647,-7.4709663
1425924794.662,-0.4680519
1425924794.678,6.8378944
1425924794.694,14.148724
1425924794.709,21.184498
1425924794.725,27.78836
1425924794.74,33.98822
1425924794.756,40.002975
1425924794.772,46.27094
1425924794.787,53.37613
1425924794.803,61.848328
1425924794.818,71.85157
1425924794.834,82.74726
1425924794.85,92.92066
1425924794.865,99.954056
1425924794.881,101.24702
1425924794.897,94.94718
1425924794.912,80.69368
1425924794.928,59.903778
1425924794.944,35.356087
1425924794.959,10.341064
1425924794.975,-12.32724
1425924794.99,-30.925613
1425924795.006,-44.918297
1425924795.022,-54.639015
1425924795.037,-60.807793
1425924795.053,-64.19004
1425924795.069,-65.469635
1425924795.084,-65.276634
1425924795.1,-64.24778
1425924795.115,-62.958412
1425924795.131,-61.810364
1425924795.147,-60.94539
1425924795.162,-60.22785
1425924795.178,-59.33172
1425924795.194,-57.93801
1425924795.209,-55.881447
1425924795.225,-53.30008
1425924795.24,-50.548973
1425924795.256,-48.0878
1425924795.272,-46.24321
1425924795.287,-45.061424
1425924795.303,-44.23581
1425924795.319,-43.21982
1425924795.334,-41.455185
1425924795.35,-38.597282
1425924795.365,-34.672752
1425924795.381,-30.015312
1425924795.397,-25.097923
1425924795.412,-20.289055
1425924795.428,-15.641159
1425924795.444,-10.934624
1425924795.459,-5.7738876
1425924795.475,0.115982056
1425924795.49,6.7305603
1425924795.506,13.716232
1425924795.522,20.54496
1425924795.537,26.700737
1425924795.553,31.93943
1425924795.569,36.42331
1425924795.584,40.66841
1425924795.6,45.396057
1425924795.615,51.310143
1425924795.631,58.89202
1425924795.647,68.134766
1425924795.662,78.27881
1425924795.678,87.702705
1425924795.694,94.08231
1425924795.709,94.950325
1425924795.725,88.4816
1425924795.74,74.28717
1425924795.756,53.67672
1425924795.772,29.364876
1425924795.787,4.581978
1425924795.803,-17.913979
1425924795.819,-36.50798
1425924795.834,-50.843155
1425924795.85,-61.409203
1425924795.865,-68.96396
1425924795.881,-74.18093
1425924795.897,-77.499214
1425924795.912,-79.31811
1425924795.928,-80.11935
1425924795.944,-80.49538
1425924795.959,-80.99504
1425924795.975,-81.99388
1425924795.99,-83.5932
1425924796.006,-85.72798
1425924796.022,-88.25029
1425924796.037,-91.108116
1425924796.053,-94.336044
1425924796.069,-97.941055
1425924796.084,-101.75546
1425924796.1,-105.29892
1425924796.115,-107.81438
1425924796.131,-108.48346
1425924796.147,-106.69433
1425924796.162,-102.302185
1425924796.178,-95.70219
1425924796.194,-87.6624
1425924796.209,-78.96953
1425924796.225,-70.141624
1425924796.24,-61.226357
1425924796.256,-51.95122
1425924796.272,-41.992912
1425924796.287,-31.282963
1425924796.303,-20.140854
1425924796.319,-9.209843
1425924796.334,0.7977791
1425924796.35,9.324833
1425924796.365,16.198132
1425924796.381,21.63787
1425924796.397,26.231827
1425924796.412,30.783554
1425924796.428,36.15792
1425924796.444,42.95655
1425924796.459,51.160683
1425924796.475,59.760902
1425924796.49,66.77233
1425924796.506,69.62834
1425924796.522,66.09032
1425924796.537,55.1532
1425924796.553,37.6904
1425924796.569,16.330765
1425924796.584,-5.294159
1425924796.6,-23.67978
1425924796.615,-36.44667
1425924796.631,-42.722473
1425924796.647,-42.96605
1425924796.662,-38.35727
1425924796.678,-30.18367
1425924796.694,-19.590195
1425924796.709,-7.5983124
1425924796.725,4.7457275
1425924796.74,16.398209
1425924796.756,26.45575
1425924796.772,34.486786
1425924796.787,40.621582
1425924796.803,45.46646
1425924796.819,49.751495
1425924796.834,53.936493
1425924796.85,58.007233
1425924796.865,61.564606
1425924796.881,64.079346
1425924796.897,65.23941
1425924796.912,65.14816
1425924796.928,64.24802
1425924796.944,63.1792
1425924796.959,62.514984
1425924796.975,62.64261
1425924796.99,63.72531
1425924797.006,65.716
1425924797.022,68.4155
1425924797.037,71.54056
1425924797.053,74.72989
1425924797.069,77.64993
1425924797.084,80.05249
1425924797.1,81.91806
1425924797.115,83.43213
1425924797.131,85.061035
1425924797.147,87.38376
1425924797.162,90.9917
1425924797.178,96.38577
1425924797.194,103.83185
1425924797.209,113.13635
1425924797.225,123.41086
1425924797.24,132.89328
1425924797.256,139.1048
1425924797.272,139.35449
1425924797.287,131.64093
1425924797.303,115.46802
1425924797.319,92.29617
1425924797.334,65.19403
1425924797.35,37.93051
1425924797.365,13.780182
1425924797.381,-5.2767334
1425924797.397,-18.732422
1425924797.412,-27.128418
1425924797.428,-31.318176
1425924797.444,-31.959381
1425924797.459,-29.40741
1425924797.475,-23.94696
1425924797.49,-16.132263
1425924797.506,-6.934387
1425924797.522,2.40802
1425924797.537,10.7526245
1425924797.553,17.358643
1425924797.569,22.031525
1425924797.584,24.931091
1425924797.6,26.289612
1425924797.616,26.054688
1425924797.631,23.929901
1425924797.647,19.495117
1425924797.662,12.591766
1425924797.678,3.556305
1425924797.694,-6.7535095
1425924797.709,-17.206268
1425924797.725,-26.768707
1425924797.741,-34.812195
1425924797.756,-41.100693
1425924797.772,-45.588943
1425924797.787,-48.11165
1425924797.803,-48.269638
1425924797.819,-45.538055
1425924797.834,-39.61557
1425924797.85,-30.693695
1425924797.866,-19.591599
1425924797.881,-7.539978
1425924797.897,4.192642
1425924797.912,14.726425
1425924797.928,23.748596
1425924797.944,31.55719
1425924797.959,38.80385
1425924797.975,46.21219
1425924797.991,54.214096
1425924798.006,62.671158
1425924798.022,70.65016
1425924798.037,76.43689
1425924798.053,77.87985
1425924798.069,72.992874
1425924798.084,60.72928
1425924798.1,41.557114
1425924798.116,17.505203
1425924798.131,-8.32653
1425924798.147,-32.654213
1425924798.162,-52.92807
1425924798.178,-67.86588
1425924798.194,-77.48833
1425924798.209,-82.7228
1425924798.225,-84.79424
1425924798.241,-84.77139
1425924798.256,-83.35356
1425924798.272,-80.91477
1425924798.287,-77.60231
1425924798.303,-73.52241
1425924798.319,-68.777435
1425924798.334,-63.566692
1425924798.35,-58.100643
1425924798.366,-52.63485
1425924798.381,-47.421963
1425924798.397,-42.688793
1425924798.412,-38.59803
1425924798.428,-35.27336
1425924798.444,-32.760048
1425924798.459,-31.05593
1425924798.475,-30.069052
1425924798.491,-29.638037
1425924798.506,-29.49024
1425924798.522,-29.270521
1425924798.537,-28.599018
1425924798.553,-27.135542
1425924798.569,-24.640787
1425924798.584,-21.047909
1425924798.6,-16.414198
1425924798.616,-10.953415
1425924798.631,-4.947836
1425924798.647,1.3010597
1425924798.662,7.565216
1425924798.678,13.727703
1425924798.694,19.8664
1425924798.709,26.219757
1425924798.725,33.170387
1425924798.741,41.14897
1425924798.756,50.521084
1425924798.772,61.27861
1425924798.787,72.813095
1425924798.803,83.71538
1425924798.819,91.932846
1425924798.834,95.19751
1425924798.85,91.7746
1425924798.866,81.11389
1425924798.881,64.198425
1425924798.897,43.296104
1425924798.912,21.281162
1425924798.928,0.7499199
1425924798.944,-16.633263
1425924798.959,-30.302643
1425924798.975,-40.55813
1425924798.991,-48.03624
1425924799.006,-53.308388
1425924799.022,-56.70848
1425924799.037,-58.42247
1425924799.053,-58.686058
1425924799.069,-57.884895
1425924799.084,-56.55693
1425924799.1,-55.21997
1425924799.116,-54.189095
1425924799.131,-53.45009
1425924799.147,-52.704445
1425924799.162,-51.51831
1425924799.178,-49.56949
1425924799.194,-46.803856
1425924799.209,-43.507362
1425924799.225,-40.132706
1425924799.241,-37.10222
1425924799.256,-34.550636
1425924799.272,-32.2426
1425924799.287,-29.612617
1425924799.303,-26.012047
1425924799.319,-20.954681
1425924799.334,-14.326073
1425924799.35,-6.4378967
1425924799.366,2.0273743
1425924799.381,10.304413
1425924799.397,17.773415
1425924799.412,24.179
1425924799.428,29.688034
1425924799.444,34.828033
1425924799.459,40.3033
1425924799.475,46.80432
1425924799.491,54.781906
1425924799.506,64.29379
1425924799.522,74.750854
1425924799.537,84.87129
1425924799.553,92.70247
1425924799.569,96.0565
1425924799.584,93.10036
1425924799.6,83.046036
1425924799.616,66.51915
1425924799.631,45.522873
1425924799.647,22.839096
1425924799.662,1.240036
1425924799.678,-17.294662
1425924799.694,-31.875443
1425924799.709,-42.65172
1425924799.725,-50.3264
1425924799.741,-55.69789
1425924799.756,-59.332443
1425924799.772,-61.53145
1425924799.787,-62.428604
1425924799.803,-62.190414
1425924799.819,-61.1091
1425924799.834,-59.619705
1425924799.85,-58.11171
1425924799.866,-56.839462
1425924799.881,-55.783905
1425924799.897,-54.717743
1425924799.912,-53.285507
1425924799.928,-51.26172
1425924799.944,-48.63855
1425924799.959,-45.645172
1425924799.975,-42.61194
1425924799.991,-39.831757
1425924800.006,-37.325623
1425924800.022,-34.82701
1425924800.037,-31.829605
1425924800.053,-27.828705
1425924800.069,-22.48056
1425924800.084,-15.79953
1425924800.1,-8.1489105
1425924800.116,-0.099731445
1425924800.131,7.7698364
1425924800.147,15.076279
1425924800.162,21.721893
1425924800.178,27.84758
1425924800.194,33.812897
1425924800.209,40.05162
1425924800.225,47.036285
1425924800.241,55.204605
1425924800.256,64.8011
1425924800.272,75.56035
1425924800.288,86.47499
1425924800.303,95.73227
1425924800.319,101.03192
1425924800.334,100.23831
1425924800.35,92.15518
1425924800.366,77.09677
1425924800.381,56.875473
1425924800.397,34.30258
1425924800.413,12.266663
1425924800.428,-7.063858
1425924800.444,-22.663956
1425924800.459,-34.58058
1425924800.475,-43.490753
1425924800.491,-50.177246
1425924800.506,-55.173553
1425924800.522,-58.733093
1425924800.538,-60.912033
1425924800.553,-61.810654
1425924800.569,-61.627274
1425924800.584,-60.697113
1425924800.6,-59.384567
1425924800.616,-57.97296
1425924800.631,-56.62982
1425924800.647,-55.406525
1425924800.663,-54.313843
1425924800.678,-53.34401
1425924800.694,-52.461487
1425924800.709,-51.58354
1425924800.725,-50.52658
1425924800.741,-49.05371
1425924800.756,-46.933243
1425924800.772,-44.100067
1425924800.788,-40.649902
1425924800.803,-36.854248
1425924800.819,-32.998383
1425924800.834,-29.223907
1425924800.85,-25.422684
1425924800.866,-21.286179
1425924800.881,-16.422562
1425924800.897,-10.552902
1425924800.913,-3.6338654
1425924800.928,4.0772552
1425924800.944,12.136993
1425924800.959,20.058304
1425924800.975,27.491287
1425924800.991,34.36342
1425924801.006,40.974564
1425924801.022,47.910065
1425924801.038,55.92195
1425924801.053,65.50116
1425924801.069,76.49495
1425924801.084,87.76373
1425924801.1,97.22775
1425924801.116,102.328
1425924801.131,100.8188
1425924801.147,91.66164
1425924801.163,75.43727
1425924801.178,54.264557
1425924801.194,31.126007
1425924801.209,8.941162
1425924801.225,-10.18811
1425924801.241,-25.318436
1425924801.256,-36.51219
1425924801.272,-44.438477
1425924801.288,-49.893707
1425924801.303,-53.539246
1425924801.319,-55.830933
1425924801.334,-57.07704
1425924801.35,-57.5242
1425924801.366,-57.429672
1425924801.381,-56.987198
1425924801.397,-56.33429
1425924801.413,-55.4834
1425924801.428,-54.369934
1425924801.444,-52.936417
1425924801.459,-51.224625
1425924801.475,-49.449066
1425924801.491,-47.947266
1425924801.506,-47.007538
1425924801.522,-46.70073
1425924801.538,-46.69922
1425924801.553,-46.378464
1425924801.569,-44.996384
1425924801.584,-42.063354
1425924801.6,-37.55336
1425924801.616,-31.905334
1425924801.631,-25.856964
1425924801.647,-20.097473
1425924801.663,-14.938004
1425924801.678,-10.265564
1425924801.694,-5.636444
1425924801.709,-0.5946655
1425924801.725,5.1088257
1425924801.741,11.372345
1425924801.756,17.8853
1425924801.772,24.249573
1425924801.788,30.235184
1425924801.803,35.825745
1425924801.819,41.240326
1425924801.834,46.858704
1425924801.85,53.187317
1425924801.866,60.677734
1425924801.881,69.54741
1425924801.897,79.440895
1425924801.913,89.19856
1425924801.928,96.86608
1425924801.944,100.110504
1425924801.959,96.94423
1425924801.975,86.532005
1425924801.991,69.60847
1425924802.006,48.387962
1425924802.022,25.813316
1425924802.038,4.6531296
1425924802.053,-13.210678
1425924802.069,-27.05706
1425924802.084,-37.082596
1425924802.1,-43.929497
1425924802.116,-48.26896
1425924802.131,-50.620216
1425924802.147,-51.45054
1425924802.163,-51.19783
1425924802.178,-50.34321
1425924802.194,-49.2716
1425924802.209,-48.19632
1425924802.225,-47.122368
1425924802.241,-45.927757
1425924802.256,-44.486504
1425924802.272,-42.828773
1425924802.288,-41.090744
1425924802.303,-39.51581
1425924802.319,-38.29734
1425924802.334,-37.506104
1425924802.35,-37.032036
1425924802.366,-36.59578
1425924802.381,-35.8012
1425924802.397,-34.27926
1425924802.413,-31.777481
1425924802.428,-28.29272
1425924802.444,-24.069206
1425924802.459,-19.460178
1425924802.475,-14.764507
1425924802.491,-10.065781
1425924802.506,-5.180649
1425924802.522,0.17479324
1425924802.538,6.137661
1425924802.553,12.581364
1425924802.569,19.079239
1425924802.584,25.105108
1425924802.6,30.298656
1425924802.616,34.620567
1425924802.631,38.434696
1425924802.647,42.398308
1425924802.663,47.29283
1425924802.678,53.723396
1425924802.694,61.899185
1425924802.709,71.28422
1425924802.725,80.48751
1425924802.741,87.40548
1425924802.756,89.752945
1425924802.772,85.77823
1425924802.788,74.990555
1425924802.803,58.421463
1425924802.819,38.37624
1425924802.834,17.688538
1425924802.85,-1.1384993
1425924802.866,-16.554989
1425924802.881,-28.022635
1425924802.897,-35.85221
1425924802.913,-40.700558
1425924802.928,-43.23523
1425924802.944,-43.916286
1425924802.96,-43.078506
1425924802.975,-41.032284
1425924802.991,-38.21752
1425924803.006,-35.18476
1425924803.022,-32.484886
1425924803.038,-30.507572
1425924803.053,-29.33413
1425924803.069,-28.716286
1425924803.085,-28.21408
1425924803.1,-27.38395
1425924803.116,-26.00018
1425924803.131,-24.094837
1425924803.147,-21.932507
1425924803.163,-19.791271
1425924803.178,-17.8195
1425924803.194,-15.905365
1425924803.21,-13.736614
1425924803.225,-10.915123
1425924803.241,-7.1632004
1425924803.256,-2.4339447
1425924803.272,3.0307846
1425924803.288,8.787262
1425924803.303,14.361816
1425924803.319,19.414902
1425924803.335,23.878036
1425924803.35,27.979103
1425924803.366,32.101295
1425924803.381,36.731895
1425924803.397,42.3246
1425924803.413,49.24681
1425924803.428,57.582466
1425924803.444,66.96091
1425924803.46,76.330956
1425924803.475,83.96743
1425924803.491,87.79509
1425924803.506,86.008835
1425924803.522,77.73562
1425924803.538,63.449814
1425924803.553,44.889603
1425924803.569,24.547157
1425924803.585,4.923294
1425924803.6,-12.089455
1425924803.616,-25.52832
1425924803.631,-35.26465
1425924803.647,-41.754898
1425924803.663,-45.651
1425924803.678,-47.62941
1425924803.694,-48.222923
1425924803.71,-47.815758
1425924803.725,-46.6882
1425924803.741,-45.064796
1425924803.756,-43.1558
1425924803.772,-41.16069
1425924803.788,-39.221428
1425924803.803,-37.403618
1425924803.819,-35.66954
1425924803.835,-33.98358
1425924803.85,-32.335655
1425924803.866,-30.795135
1425924803.881,-29.463562
1425924803.897,-28.384392
1425924803.913,-27.472939
1425924803.928,-26.512291
1425924803.944,-25.226692
1425924803.96,-23.31289
1425924803.975,-20.55339
1425924803.991,-16.802399
1425924804.006,-11.99704
1425924804.022,-6.192276
1425924804.038,0.4063568
1425924804.053,7.447647
1425924804.069,14.49588
1425924804.085,21.144989
1425924804.1,27.215683
1425924804.116,32.75389
1425924804.131,38.06343
1425924804.147,43.525406
1425924804.163,49.602158
1425924804.178,56.69203
1425924804.194,65.03281
1425924804.21,74.45969
1425924804.225,84.15558
1425924804.241,92.53816
1425924804.256,97.50841
1425924804.272,97.03598
1425924804.288,89.90668
1425924804.303,76.280396
1425924804.319,57.7433
1425924804.335,36.78949
1425924804.35,16.050034
1425924804.366,-2.4778748
1425924804.381,-17.749985
1425924804.397,-29.572006
1425924804.413,-38.24025
1425924804.428,-44.181778
1425924804.444,-47.793198
1425924804.46,-49.451538
1425924804.475,-49.630722
1425924804.491,-48.889175
1425924804.506,-47.75609
1425924804.522,-46.61418
1425924804.538,-45.572556
1425924804.553,-44.526154
1425924804.569,-43.254288
1425924804.585,-41.636383
1425924804.6,-39.690872
1425924804.616,-37.645706
1425924804.631,-35.805145
1425924804.647,-34.444443
1425924804.663,-33.650055
1425924804.678,-33.261246
1425924804.694,-32.862946
1425924804.71,-31.94246
1425924804.725,-30.007858
1425924804.741,-26.828857
1425924804.756,-22.527878
1425924804.772,-17.540848
1425924804.788,-12.416031
1425924804.803,-7.5788727
1425924804.819,-3.123764
1425924804.835,1.2079163
1425924804.85,5.914459
1425924804.866,11.376129
1425924804.881,17.649841
1425924804.897,24.37947
1425924804.913,30.937225
1425924804.928,36.73123
1425924804.944,41.439056
1425924804.96,45.189636
1425924804.975,48.518005
1425924804.991,52.20195
1425924805.006,57.07605
1425924805.022,63.73558
1425924805.038,72.264725
1425924805.053,81.96121
1425924805.069,91.2408
1425924805.085,97.87686
1425924805.1,99.58865
1425924805.116,94.75629
1425924805.131,83.09235
1425924805.147,65.78877
1425924805.163,45.173203
1425924805.178,23.968643
1425924805.194,4.4939117
1425924805.21,-11.834488
1425924805.225,-24.522156
1425924805.241,-33.77101
1425924805.256,-40.063522
1425924805.272,-43.94333
1425924805.288,-45.91945
1425924805.303,-46.534286
1425924805.319,-46.315903
1425924805.335,-45.80983
1425924805.35,-45.39203
1425924805.366,-45.264954
1425924805.381,-45.346542
1425924805.397,-45.41574
1425924805.413,-45.20204
1425924805.428,-44.517563
1425924805.444,-43.37404
1425924805.46,-41.98271
1425924805.475,-40.696243
1425924805.491,-39.86151
1425924805.506,-39.672424
1425924805.522,-40.01967
1425924805.538,-40.43512
1425924805.553,-40.23979
1425924805.569,-38.72969
1425924805.585,-35.491074
1425924805.6,-30.582153
1425924805.616,-24.569519
1425924805.632,-18.310684
1425924805.647,-12.59314
1425924805.663,-7.816635
1425924805.678,-3.8413239
1425924805.694,-0.0947876
1425924805.71,4.100296
1425924805.725,9.194443
1425924805.741,15.177551
1425924805.756,21.61728
1425924805.772,27.887161
1425924805.788,33.493423
1425924805.803,38.263367
1425924805.819,42.40419
1425924805.835,46.3994
1425924805.85,50.847763
1425924805.866,56.316772
1425924805.882,63.23915
1425924805.897,71.741486
1425924805.913,81.43013
1425924805.928,91.166214
1425924805.944,99.07904
1425924805.96,102.89192
1425924805.975,100.591995
1425924805.991,91.20079
1425924806.007,75.27527
1425924806.022,54.83458
1425924806.038,32.77768
1425924806.053,11.9457855
1425924806.069,-5.6720276
1425924806.085,-19.267761
1425924806.1,-29.096039
1425924806.116,-35.920654
1425924806.132,-40.54065
1425924806.147,-43.48625
1425924806.163,-45.03572
1425924806.178,-45.42032
1425924806.194,-44.997086
1425924806.21,-44.241913
1425924806.225,-43.603134
1425924806.241,-43.349945
1425924806.257,-43.40187
1425924806.272,-43.442078
1425924806.288,-43.11734
1425924806.303,-42.28282
1425924806.319,-41.09079
1425924806.335,-39.9451
1425924806.35,-39.221146
1425924806.366,-39.05298
1425924806.382,-39.20323
1425924806.397,-39.142654
1425924806.413,-38.281174
1425924806.428,-36.202698
1425924806.444,-32.839645
1425924806.46,-28.448715
1425924806.475,-23.524704
1425924806.491,-18.603104
1425924806.507,-14.064667
1425924806.522,-10.019562
1425924806.538,-6.2706146
1425924806.553,-2.3619232
1425924806.569,2.1600647
1425924806.585,7.565033
1425924806.6,13.803909
1425924806.616,20.458328
1425924806.632,26.940903
1425924806.647,32.739212
1425924806.663,37.617447
1425924806.678,41.741394
1425924806.694,45.61711
1425924806.71,49.91121
1425924806.725,55.326675
1425924806.741,62.349564
1425924806.757,71.05986
1425924806.772,80.90489
1425924806.788,90.59552
1425924806.803,98.16
1425924806.819,101.37459
1425924806.835,98.408264
1425924806.85,88.47986
1425924806.866,72.249405
1425924806.882,51.70723
1425924806.897,29.578293
1425924806.913,8.535324
1425924806.928,-9.475098
1425924806.944,-23.569809
1425924806.96,-33.80478
1425924806.975,-40.78238
1425924806.991,-45.26204
1425924807.007,-47.896408
1425924807.022,-49.155518
1425924807.038,-49.426376
1425924807.053,-49.0968
1425924807.069,-48.522903
1425924807.085,-47.9814
1425924807.1,-47.556717
1425924807.116,-47.133698
1425924807.132,-46.43921
1425924807.147,-45.259735
1425924807.163,-43.56343
1425924807.178,-41.644318
1425924807.194,-39.97058
1425924807.21,-38.997696
1425924807.225,-38.908966
1425924807.241,-39.437073
1425924807.257,-39.903336
1425924807.272,-39.474854
1425924807.288,-37.493515
1425924807.303,-33.75386
1425924807.319,-28.592606
1425924807.335,-22.734253
1425924807.35,-16.95575
1425924807.366,-11.798111
1425924807.382,-7.3175964
1425924807.397,-3.1932983
1425924807.413,1.1199646
1425924807.428,6.040268
1425924807.444,11.683182
1425924807.46,17.759766
1425924807.475,23.794846
1425924807.491,29.329086
1425924807.507,34.151764
1425924807.522,38.39911
1425924807.538,42.517487
1425924807.553,47.084656
1425924807.569,52.69934
1425924807.585,59.830948
1425924807.6,68.665146
1425924807.616,78.85576
1425924807.632,89.32446
1425924807.647,98.25366
1425924807.663,103.411316
1425924807.678,102.70654
1425924807.694,94.950226
1425924807.71,80.351135
1425924807.725,60.54567
1425924807.741,38.11107
1425924807.757,15.831711
1425924807.772,-4.0456696
1425924807.788,-20.199463
1425924807.803,-32.26088
1425924807.819,-40.559998
1425924807.835,-45.77372
1425924807.85,-48.63012
1425924807.866,-49.826645
1425924807.882,-49.94896
1425924807.897,-49.478172
1425924807.913,-48.785156
1425924807.928,-48.11061
1425924807.944,-47.52501
1425924807.96,-47.01027
1425924807.975,-46.48085
1425924807.991,-45.88002
1425924808.007,-45.2256
1425924808.022,-44.610397
1425924808.038,-44.096687
1425924808.053,-43.699203
1425924808.069,-43.265144
1425924808.085,-42.527992
1425924808.1,-41.162666
1425924808.116,-38.89624
1425924808.132,-35.612442
1425924808.147,-31.399475
1425924808.163,-26.523468
1425924808.178,-21.327553
1425924808.194,-16.12474
1425924808.21,-11.079414
1425924808.225,-6.1268845
1425924808.241,-1.0328445
1425924808.257,4.503319
1425924808.272,10.645973
1425924808.288,17.33651
1425924808.303,24.256416
1425924808.319,30.992432
1425924808.335,37.17943
1425924808.35,42.73719
1425924808.366,47.90261
1425924808.382,53.234016
1425924808.397,59.475533
1425924808.413,67.323425
1425924808.428,77.00993
1425924808.444,87.98493
1425924808.46,98.70359
1425924808.475,106.81645
1425924808.491,109.76454
1425924808.507,105.65879
1425924808.522,93.996414
1425924808.538,75.94681
1425924808.554,53.972748
1425924808.569,31.014095
1425924808.585,9.586174
1425924808.6,-8.738853
1425924808.616,-23.432526
1425924808.632,-34.679806
1425924808.647,-42.952095
1425924808.663,-48.710403
1425924808.679,-52.376305
1425924808.694,-54.33862
1425924808.71,-55.08393
1425924808.725,-55.126106
1425924808.741,-54.9002
1425924808.757,-54.669296
1425924808.772,-54.45614
1425924808.788,-54.067516
1425924808.804,-53.278008
1425924808.819,-51.964073
1425924808.835,-50.249146
1425924808.85,-48.46389
1425924808.866,-47.06722
1425924808.882,-46.351116
1425924808.897,-46.28014
1425924808.913,-46.414112
1425924808.929,-46.065445
1425924808.944,-44.56688
1425924808.96,-41.54333
1425924808.975,-37.056744
1425924808.991,-31.547207
1425924809.007,-25.650143
1425924809.022,-19.91771
1425924809.038,-14.650438
1425924809.054,-9.789384
1425924809.069,-4.975544
1425924809.085,0.26478767
1425924809.1,6.2834225
1425924809.116,13.135721
1425924809.132,20.545961
1425924809.147,28.00499
1425924809.163,35.058914
1425924809.179,41.45495
1425924809.194,47.330536
1425924809.21,53.096214
1425924809.225,59.375
1425924809.241,66.7991
1425924809.257,75.77077
1425924809.272,86.17729
1425924809.288,97.12455
1425924809.304,106.8383
1425924809.319,112.94313
1425924809.335,113.077576
1425924809.35,105.7926
1425924809.366,91.12288
1425924809.382,70.74396
1425924809.397,47.39315
1425924809.413,23.981522
1425924809.429,2.7226105
1425924809.444,-15.237686
1425924809.46,-29.735558
1425924809.475,-41.121384
1425924809.491,-49.8524
1425924809.507,-56.28704
1425924809.522,-60.709343
1425924809.538,-63.440254
1425924809.554,-64.87927
1425924809.569,-65.4528
1425924809.585,-65.50511
1425924809.6,-65.2382
1425924809.616,-64.70613
1425924809.632,-63.841125
1425924809.647,-62.589348
1425924809.663,-60.92376
1425924809.679,-58.953514
1425924809.694,-56.887367
1425924809.71,-55.03666
1425924809.725,-53.638138
1425924809.741,-52.773354
1425924809.757,-52.209785
1425924809.772,-51.46501
1425924809.788,-49.907967
1425924809.804,-47.071114
1425924809.819,-42.81462
1425924809.835,-37.42031
1425924809.85,-31.484245
1425924809.866,-25.670708
1425924809.882,-20.405968
1425924809.897,-15.702248
1425924809.913,-11.188255
1425924809.929,-6.3209076
1425924809.944,-0.65517426
1425924809.96,5.898346
1425924809.975,13.016853
1425924809.991,20.08255
1425924810.007,26.520065
1425924810.022,31.989395
1425924810.038,36.567513
1425924810.054,40.70047
1425924810.069,45.111923
1425924810.085,50.58914
1425924810.1,57.81904
1425924810.116,67.13446
1425924810.132,78.24635
1425924810.147,89.94154
1425924810.163,100.12726
1425924810.179,106.185394
1425924810.194,105.73584
1425924810.21,97.478195
1425924810.225,81.75226
1425924810.241,60.52858
1425924810.257,36.781067
1425924810.272,13.499603
1425924810.288,-7.0417023
1425924810.304,-23.783127
1425924810.319,-36.655396
1425924810.335,-46.158493
1425924810.35,-52.898544
1425924810.366,-57.320633
1425924810.382,-59.759354
1425924810.397,-60.56404
1425924810.413,-60.19275
1425924810.429,-59.215088
1425924810.444,-58.166763
1425924810.46,-57.395355
1425924810.475,-56.96399
1425924810.491,-56.7424
1425924810.507,-56.476776
1425924810.522,-55.986343
1425924810.538,-55.204895
1425924810.554,-54.26805
1425924810.569,-53.387222
1425924810.585,-52.773315
1425924810.6,-52.466965
1425924810.616,-52.274994
1425924810.632,-51.757324
1425924810.647,-50.39084
1425924810.663,-47.755783
1425924810.679,-43.731094
1425924810.694,-38.560577
1425924810.71,-32.777084
1425924810.725,-26.990936
1425924810.741,-21.619308
1425924810.757,-16.716003
1425924810.772,-12.004288
1425924810.788,-7.0106506
1425924810.804,-1.3197174
1425924810.819,5.229019
1425924810.835,12.444229
1425924810.85,19.893768
1425924810.866,27.072128
1425924810.882,33.601746
1425924810.897,39.374176
1425924810.913,44.59146
1425924810.929,49.71277
1425924810.944,55.349518
1425924810.96,62.121613
1425924810.975,70.47569
1425924810.991,80.39328
1425924811.007,91.178314
1425924811.022,101.30646
1425924811.038,108.64125
1425924811.054,110.918045
1425924811.069,106.47203
1425924811.085,94.81348
1425924811.1,76.98331
1425924811.116,55.269775
1425924811.132,32.575638
1425924811.147,11.585571
1425924811.163,-5.843689
1425924811.179,-18.951141
1425924811.194,-27.869766
1425924811.21,-33.225143
1425924811.226,-35.72966
1425924811.241,-35.966232
1425924811.257,-34.381195
1425924811.272,-31.452866
1425924811.288,-27.734299
1425924811.304,-23.829025
1425924811.319,-20.243378
1425924811.335,-17.227951
1425924811.351,-14.669678
1425924811.366,-12.211334
1425924811.382,-9.453674
1425924811.397,-6.1838837
1425924811.413,-2.4312286
1425924811.429,1.5450897
1425924811.444,5.430832
1425924811.46,9.001114
1425924811.476,12.177536
1425924811.491,14.910828
1425924811.507,17.048706
1425924811.522,18.23674
1425924811.538,17.978134
1425924811.554,15.808258
1425924811.569,11.546051
1425924811.585,5.2734985
1425924811.601,-2.6550903
1425924811.616,-11.908936
1425924811.632,-22.232681
1425924811.647,-33.374252
1425924811.663,-44.865204
1425924811.679,-55.867188
1425924811.694,-65.194305
1425924811.71,-71.551254
1425924811.726,-73.86401
1425924811.741,-71.515686
1425924811.757,-64.35405
1425924811.772,-52.79802
1425924811.788,-37.879013
1425924811.804,-21.503906
1425924811.819,-6.5053406
1425924811.835,3.722046
1425924811.851,6.1226807
1425924811.866,-0.9825592
1425924811.882,-17.06459
1425924811.897,-39.48816
1425924811.913,-64.36357
1425924811.929,-87.88733
1425924811.944,-107.44534
1425924811.96,-122.03905
1425924811.976,-131.9829
1425924811.991,-138.13533
1425924812.007,-141.31151
1425924812.022,-141.90314
1425924812.038,-140.00697
1425924812.054,-135.67282
1425924812.069,-129.05663
1425924812.085,-120.466225
1425924812.101,-110.23187
1425924812.116,-98.66635
1425924812.132,-86.01801
1425924812.147,-72.6128
1425924812.163,-58.882996
1425924812.179,-45.457535
1425924812.194,-33.01628
1425924812.21,-22.141262
1425924812.226,-13.10759
1425924812.241,-5.764889
1425924812.257,0.40049744
1425924812.272,6.062832
1425924812.288,11.738817
1425924812.304,17.578827
1425924812.319,23.219217
1425924812.335,27.98957
1425924812.351,31.221554
1425924812.366,32.56753
1425924812.382,32.158634
1425924812.397,30.43932
1425924812.413,27.946182
1425924812.429,24.946606
1425924812.444,21.459755
1425924812.46,17.390556
1425924812.476,12.887909
1425924812.491,8.56218
1425924812.507,5.4507446
1425924812.522,4.797577
1425924812.538,7.7314987
1425924812.554,15.012932
1425924812.569,26.86702
1425924812.585,42.88495
1425924812.601,61.894608
1425924812.616,81.886154
1425924812.632,100.19696
1425924812.647,114.01474
1425924812.663,121.23065
1425924812.679,121.20903
1425924812.694,115.144714
1425924812.71,105.67348
1425924812.726,95.95833
1425924812.741,88.52055
1425924812.757,84.565216
1425924812.772,83.84709
1425924812.788,85.21823
1425924812.804,87.342285
1425924812.819,89.31235
1425924812.835,90.90338
1425924812.851,92.44055
1425924812.866,94.512924
1425924812.882,97.60837
1425924812.897,101.86038
1425924812.913,106.910904
1425924812.929,111.94534
1425924812.944,115.79451
1425924812.96,117.23964
1425924812.976,115.32175
1425924812.991,109.51703
1425924813.007,99.87622
1425924813.022,86.99144
1425924813.038,71.970856
1425924813.054,56.31462
1425924813.069,41.73146
1425924813.085,29.751862
1425924813.101,21.265472
1425924813.116,16.137924
1425924813.132,13.20079
1425924813.147,10.656372
1425924813.163,6.887741
1425924813.179,1.0927124
1425924813.194,-6.4643555
1425924813.21,-14.8368225
1425924813.226,-23.035248
1425924813.241,-30.572784
1425924813.257,-37.480804
1425924813.272,-43.974045
1425924813.288,-49.904068
1425924813.304,-54.571075
1425924813.319,-56.9084
1425924813.335,-55.986664
1425924813.351,-51.364975
1425924813.366,-43.30533
1425924813.382,-32.61949
1425924813.397,-20.608826
1425924813.413,-8.98674
1425924813.429,0.1446991
1425924813.444,4.548584
1425924813.46,2.3663635
1425924813.476,-7.1170197
1425924813.491,-23.034164
1425924813.507,-42.944565
1425924813.522,-63.474625
1425924813.538,-81.20555
1425924813.554,-93.59564
1425924813.569,-99.408035
1425924813.585,-98.73331
1425924813.601,-92.64308
1425924813.616,-82.65987
1425924813.632,-70.20004
1425924813.647,-56.315598
1425924813.663,-41.552032
1425924813.679,-26.156921
1425924813.694,-10.426498
1425924813.71,4.877701
1425924813.726,18.48175
1425924813.741,28.722122
1425924813.757,34.02652
1425924813.772,33.376648
1425924813.788,26.731857
1425924813.804,15.195435
1425924813.819,1.0162354
1425924813.835,-12.806442
1425924813.851,-23.10997
1425924813.866,-27.4561
1425924813.882,-24.918396
1425924813.898,-16.487686
1425924813.913,-4.78154
1425924813.929,6.883957
1425924813.944,15.67041
1425924813.96,20.113632
1425924813.976,20.32045
1425924813.991,17.494736
1425924814.007,13.219162
1425924814.023,8.7464905
1425924814.038,4.8544006
1425924814.054,1.930954
1425924814.069,0.21287537
1425924814.085,-0.13349915
1425924814.101,0.93518066
1425924814.116,3.238678
1425924814.132,6.4349213
1425924814.148,10.270691
1425924814.163,14.824295
1425924814.179,20.63411
1425924814.194,28.4897
1425924814.21,38.885834
1425924814.226,51.492905
1425924814.241,64.83716
1425924814.257,76.569214
1425924814.273,84.12129
1425924814.288,85.65372
1425924814.304,80.65025
1425924814.319,70.120605
1425924814.335,56.057526
1425924814.351,40.724
1425924814.366,25.926743
1425924814.382,12.673065
1425924814.398,1.2502899
1425924814.413,-8.463196
1425924814.429,-16.66243
1425924814.444,-23.45607
1425924814.46,-28.860535
1425924814.476,-32.912178
1425924814.491,-35.732018
1425924814.507,-37.515327
1425924814.523,-38.510612
1425924814.538,-38.9283
1425924814.554,-38.921486
1425924814.569,-38.543396
1425924814.585,-37.820374
1425924814.601,-36.751587
1425924814.616,-35.378098
1425924814.632,-33.78144
1425924814.648,-32.12362
1425924814.663,-30.566376
1425924814.679,-29.255447
1425924814.694,-28.221634
1425924814.71,-27.369057
1425924814.726,-26.415176
1425924814.741,-25.004211
1425924814.757,-22.75624
1425924814.773,-19.402237
1425924814.788,-14.887337
1425924814.804,-9.46035
1425924814.819,-3.533348
1425924814.835,2.4178162
1425924814.851,8.050926
1425924814.866,13.317345
1425924814.882,18.478142
1425924814.898,23.988853
1425924814.913,30.359222
1425924814.929,37.988213
1425924814.944,46.994446
1425924814.96,57.033348
1425924814.976,67.22298
1425924814.991,76.11033
1425924815.007,81.93328
1425924815.023,83.005714
1425924815.038,78.283325
1425924815.054,67.699715
1425924815.069,52.303963
1425924815.085,33.9384
1425924815.101,14.77314
1425924815.116,-3.2731705
1425924815.132,-18.868896
1425924815.148,-31.37262
1425924815.163,-40.724396
1425924815.179,-47.2369
1425924815.194,-51.401466
1425924815.21,-53.76883
1425924815.226,-54.81819
1425924815.241,-55.003662
1425924815.257,-54.64736
1425924815.273,-54.00029
1425924815.288,-53.201782
1425924815.304,-52.34765
1425924815.319,-51.466125
1425924815.335,-50.542427
1425924815.351,-49.519585
1425924815.366,-48.343132
1425924815.382,-46.969482
1425924815.398,-45.40975
1425924815.413,-43.68524
1425924815.429,-41.83742
1425924815.444,-39.846096
1425924815.46,-37.657597
1425924815.476,-35.15954
1425924815.491,-32.233177
1425924815.507,-28.75058
1425924815.523,-24.61699
1425924815.538,-19.727089
1425924815.554,-14.065445
1425924815.569,-7.6986237
1425924815.585,-0.8633423
1425924815.601,6.0882797
1425924815.616,12.77446
1425924815.632,18.931374
1425924815.648,24.515343
1425924815.663,29.783005
1425924815.679,35.203285
1425924815.694,41.357697
1425924815.71,48.691734
1425924815.726,57.332977
1425924815.741,66.807755
1425924815.757,75.96687
1425924815.773,83.0826
1425924815.788,86.23279
1425924815.804,83.88423
1425924815.819,75.46018
1425924815.835,61.635826
1425924815.851,44.154305
1425924815.866,25.313332
1425924815.882,7.2715836
1425924815.898,-8.510803
1425924815.913,-21.38704
1425924815.929,-31.427017
1425924815.944,-39.0494
1425924815.96,-44.75908
1425924815.976,-48.950478
1425924815.991,-51.894325
1425924816.007,-53.78485
1425924816.023,-54.782127
1425924816.038,-55.042305
1425924816.054,-54.722824
1425924816.069,-53.966797
1425924816.085,-52.90732
1425924816.101,-51.585663
1425924816.116,-50.011078
1425924816.132,-48.185158
1425924816.148,-46.208435
1425924816.163,-44.279785
1425924816.179,-42.725403
1425924816.194,-41.752525
1425924816.21,-41.354324
1425924816.226,-41.16725
1425924816.241,-40.6166
1425924816.257,-39.114075
1425924816.273,-36.34931
1425924816.288,-32.367607
1425924816.304,-27.553925
1425924816.319,-22.415405
1425924816.335,-17.333809
1425924816.351,-12.435219
1425924816.366,-7.5632324
1425924816.382,-2.4222717
1425924816.398,3.2394104
1425924816.413,9.451881
1425924816.429,15.981606
1425924816.444,22.412895
1425924816.46,28.26294
1425924816.476,33.205254
1425924816.491,37.195335
1425924816.507,40.541153
1425924816.523,43.85991
1425924816.538,47.96057
1425924816.554,53.564484
1425924816.57,61.053864
1425924816.585,70.074646
1425924816.601,79.38832
1425924816.616,86.98366
1425924816.632,90.55704
1425924816.648,88.226105
1425924816.663,79.26842
1425924816.679,64.44566
1425924816.694,45.83661
1425924816.71,26.119751
1425924816.726,7.766449
1425924816.741,-7.6460876
1425924816.757,-19.599182
1425924816.773,-28.42694
1425924816.788,-34.824326
1425924816.804,-39.45047
1425924816.82,-42.698715
1425924816.835,-44.755356
1425924816.851,-45.742477
1425924816.866,-45.841446
1425924816.882,-45.336258
1425924816.898,-44.519592
1425924816.913,-43.61174
1425924816.929,-42.733673
1425924816.945,-41.873886
1425924816.96,-40.993988
1425924816.976,-40.058655
1425924816.991,-39.0737
1425924817.007,-38.08249
1425924817.023,-37.186874
1425924817.038,-36.429764
1425924817.054,-35.802948
1425924817.07,-35.16118
1425924817.085,-34.238174
1425924817.101,-32.672043
1425924817.116,-30.146378
1425924817.132,-26.513596
1425924817.148,-21.910309
1425924817.163,-16.756485
1425924817.179,-11.617264
1425924817.195,-6.9688263
1425924817.21,-2.9776764
1425924817.226,0.581604
1425924817.241,4.1943207
1425924817.257,8.356873
1425924817.273,13.310745
1425924817.288,18.936096
1425924817.304,24.749893
1425924817.32,30.180222
1425924817.335,34.74716
1425924817.351,38.28784
1425924817.366,41.016586
1425924817.382,43.442673
1425924817.398,46.230392
1425924817.413,50.086365
1425924817.429,55.585526
1425924817.445,62.946213
1425924817.46,71.83203
1425924817.476,81.15637
1425924817.491,89.11522
1425924817.507,93.53519
1425924817.523,92.485794
1425924817.538,84.965805
1425924817.554,71.33388
1425924817.57,53.313354
1425924817.585,33.41371
1425924817.601,14.244293
1425924817.616,-2.2893982
1425924817.632,-15.324493
1425924817.648,-24.968338
1425924817.663,-31.884216
1425924817.679,-36.827545
1425924817.695,-40.352386
1425924817.71,-42.707306
1425924817.726,-44.01886
1425924817.741,-44.44272
1425924817.757,-44.26471
1425924817.773,-43.85898
1425924817.788,-43.537903
1425924817.804,-43.423706
1425924817.82,-43.38156
1425924817.835,-43.138947
1425924817.851,-42.464813
1425924817.866,-41.316742
1425924817.882,-39.856903
1425924817.898,-38.43985
1425924817.913,-37.34381
1425924817.929,-36.651184
1425924817.945,-36.144196
1425924817.96,-35.404266
1425924817.976,-33.928436
1425924817.991,-31.372192
1425924818.007,-27.70288
1425924818.023,-23.213593
1425924818.038,-18.412476
1425924818.054,-13.856354
1425924818.07,-9.859375
1425924818.085,-6.4332886
1425924818.101,-3.2442017
1425924818.116,0.17773438
1425924818.132,4.271698
1425924818.148,9.236633
1425924818.163,14.98349
1425924818.179,21.170502
1425924818.195,27.336426
1425924818.21,33.04593
1425924818.226,38.005432
1425924818.241,42.177856
1425924818.257,45.807007
1425924818.273,49.43564
1425924818.288,53.818726
1425924818.304,59.69232
1425924818.32,67.421295
1425924818.335,76.59885
1425924818.351,85.87506
1425924818.366,93.10712
1425924818.382,95.98001
1425924818.398,92.74902
1425924818.413,82.95511
1425924818.429,67.61362
1425924818.445,48.909454
1425924818.46,29.45288
1425924818.476,11.498444
1425924818.491,-3.5899353
1425924818.507,-15.385437
1425924818.523,-24.122864
1425924818.538,-30.26767
1425924818.554,-34.25528
1425924818.57,-36.436523
1425924818.585,-37.16974
1425924818.601,-36.91336
1425924818.616,-36.19983
1425924818.632,-35.522766
1425924818.648,-35.15628
1425924818.663,-35.11728
1425924818.679,-35.17981
1425924818.695,-35.036926
1425924818.71,-34.454742
1425924818.726,-33.412537
1425924818.741,-32.10382
1425924818.757,-30.856598
1425924818.773,-29.963348
1425924818.788,-29.5224
1425924818.804,-29.366608
1425924818.82,-29.096313
1425924818.835,-28.225952
1425924818.851,-26.396606
1425924818.866,-23.530151
1425924818.882,-19.835571
1425924818.898,-15.707733
1425924818.913,-11.520782
1425924818.929,-7.4444275
1425924818.945,-3.4209595
1425924818.96,0.78689575
1425924818.976,5.444763
1425924818.991,10.664642
1425924819.007,16.353943
1425924819.023,22.221436
1425924819.038,27.894653
1425924819.054,33.01239
1425924819.07,37.4234
1425924819.085,41.24536
1425924819.101,44.877625
1425924819.116,48.93036
1425924819.132,54.063507
1425924819.148,60.793396
1425924819.163,69.21896
1425924819.179,78.79172
1425924819.195,88.22864
1425924819.21,95.647736
1425924819.226,98.939575
1425924819.242,96.41586
1425924819.257,87.346924
1425924819.273,72.35428
1425924819.288,53.33429
1425924819.304,32.93338
1425924819.32,13.745056
1425924819.335,-2.4002075
1425924819.351,-14.742584
1425924819.366,-23.543854
1425924819.382,-29.610077
1425924819.398,-33.750763
1425924819.413,-36.536224
1425924819.429,-38.19455
1425924819.445,-38.81479
1425924819.46,-38.538605
1425924819.476,-37.632507
1425924819.492,-36.41809
1425924819.507,-35.223877
1425924819.523,-34.236176
1425924819.538,-33.501007
1425924819.554,-33.02954
1425924819.57,-32.83966
1425924819.585,-32.973724
1425924819.601,-33.48227
1425924819.617,-34.29428
1425924819.632,-35.164856
1425924819.648,-35.65924
1425924819.663,-35.228943
1425924819.679,-33.42447
1425924819.695,-30.126434
1425924819.71,-25.58081
1425924819.726,-20.374176
1425924819.742,-15.147095
1425924819.757,-10.325745
1425924819.773,-5.9133606
1425924819.788,-1.5721436
1425924819.804,3.2252808
1425924819.82,8.858185
1425924819.835,15.285248
1425924819.851,22.126099
1425924819.867,28.792816
1425924819.882,34.79431
1425924819.898,40.025604
1425924819.913,44.79666
1425924819.929,49.780792
1425924819.945,55.786346
1425924819.96,63.48134
1425924819.976,73.0681
1425924819.992,84.02838
1425924820.007,94.97516
1425924820.023,103.82533
1425924820.038,108.2764
1425924820.054,106.49031
1425924820.07,97.70688
1425924820.085,82.569305
1425924820.101,62.977646
1425924820.117,41.487747
1425924820.132,20.640839
1425924820.148,2.3145752
1425924820.163,-12.533463
1425924820.179,-23.750244
1425924820.195,-31.757233
1425924820.21,-37.19626
1425924820.226,-40.73082
1425924820.242,-42.931152
1425924820.257,-44.290558
1425924820.273,-45.15999
1425924820.288,-45.803406
1425924820.304,-46.32611
1425924820.32,-46.718033
1425924820.335,-46.860092
1425924820.351,-46.620895
1425924820.367,-45.95912
1425924820.382,-45.00212
1425924820.398,-44.06154
1425924820.413,-43.505005
1425924820.429,-43.561096
1425924820.445,-44.178513
1425924820.46,-44.96225
1425924820.476,-45.28334
1425924820.492,-44.516846
1425924820.507,-42.239624
1425924820.523,-38.393234
1425924820.538,-33.315674
1425924820.554,-27.61911
1425924820.57,-21.940369
1425924820.585,-16.717133
1425924820.601,-11.999344
1425924820.617,-7.4287567
1425924820.632,-2.4507065
1425924820.648,3.4062042
1425924820.663,10.224289
1425924820.679,17.66314
1425924820.695,25.103386
1425924820.71,31.953217
1425924820.726,37.9153
1425924820.742,43.15081
1425924820.757,48.15136
1425924820.773,53.61004
1425924820.788,60.201317
1425924820.804,68.42771
1425924820.82,78.383316
1425924820.835,89.49309
1425924820.851,100.35301
1425924820.867,108.77054
1425924820.882,112.23281
1425924820.898,108.72564
1425924820.913,97.492294
1425924820.929,79.476616
1425924820.945,57.035748
1425924820.96,33.21971
1425924820.976,10.79007
1425924820.992,-8.454754
1425924821.007,-23.862797
1425924821.023,-35.63035
1425924821.038,-44.323803
1425924821.054,-50.481125
1425924821.07,-54.51266
1425924821.085,-56.767838
1425924821.101,-57.70429
1425924821.117,-57.863686
1425924821.132,-57.77965
1425924821.148,-57.797474
1425924821.163,-57.95757
1425924821.179,-58.038277
1425924821.195,-57.73618
1425924821.21,-56.85493
1425924821.226,-55.475334
1425924821.242,-53.88778
1425924821.257,-52.489418
1425924821.273,-51.575428
1425924821.288,-51.175896
1425924821.304,-51.003445
1425924821.32,-50.547707
1425924821.335,-49.271973
1425924821.351,-46.806423
1425924821.367,-43.075436
1425924821.382,-38.330025
1425924821.398,-33.079754
1425924821.413,-27.800377
1425924821.429,-22.777126
1425924821.445,-17.934013
1425924821.46,-12.891514
1425924821.476,-7.207363
1425924821.492,-0.63088226
1425924821.507,6.6786575
1425924821.523,14.256325
1425924821.538,21.551018
1425924821.554,28.239784
1425924821.57,34.396706
1425924821.585,40.481865
1425924821.601,47.104706
1425924821.617,54.84823
1425924821.632,64.04266
1425924821.648,74.62675
1425924821.663,85.96317
1425924821.679,96.74045
1425924821.695,105.0039
1425924821.71,108.511505
1425924821.726,105.37512
1425924821.742,94.709915
1425924821.757,77.123436
1425924821.773,54.630234
1425924821.788,30.087517
1425924821.804,6.3774185
1425924821.82,-14.315826
1425924821.835,-30.843689
1425924821.851,-43.065933
1425924821.867,-51.503098
1425924821.882,-56.944427
1425924821.898,-60.13994
1425924821.913,-61.633743
1425924821.929,-61.835175
1425924821.945,-61.07419
1425924821.96,-59.70491
1425924821.976,-58.107635
1425924821.992,-56.636475
1425924822.007,-55.48625
1425924822.023,-54.656967
1425924822.038,-53.98845
1425924822.054,-53.30562
1425924822.07,-52.522385
1425924822.085,-51.697556
1425924822.101,-50.903244
1425924822.117,-50.08911
1425924822.132,-48.999634
1425924822.148,-47.223343
1425924822.164,-44.43721
1425924822.179,-40.53955
1425924822.195,-35.74031
1425924822.21,-30.411102
1425924822.226,-24.927414
1425924822.242,-19.450043
1425924822.257,-13.920959
1425924822.273,-8.141693
1425924822.289,-1.8944244
1425924822.304,4.856201
1425924822.32,11.9319
1425924822.335,18.994034
1425924822.351,25.653473
1425924822.367,31.70523
1425924822.382,37.236755
1425924822.398,42.685013
1425924822.414,48.771973
1425924822.429,56.28636
1425924822.445,65.7283
1425924822.46,76.919235
1425924822.476,88.73555
1425924822.492,99.11543
1425924822.507,105.48978
1425924822.523,105.51364
1425924822.539,97.89064
1425924822.554,82.88284
1425924822.57,62.275955
1425924822.585,38.86612
1425924822.601,15.554245
1425924822.617,-5.3798676
1425924822.632,-22.730133
1425924822.648,-36.23047
1425924822.664,-46.22461
1425924822.679,-53.21457
1425924822.695,-57.678467
1425924822.71,-59.984802
1425924822.726,-60.539795
1425924822.742,-59.810303
1425924822.757,-58.32492
1425924822.773,-56.560547
1425924822.789,-54.852325
1425924822.804,-53.369507
1425924822.82,-52.105255
1425924822.835,-50.935455
1425924822.851,-49.7052
1425924822.867,-48.27838
1425924822.882,-46.579224
1425924822.898,-44.60675
1425924822.914,-42.424377
1425924822.929,-40.09787
1425924822.945,-37.64322
1425924822.96,-34.927734
1425924822.976,-31.73648
1425924822.992,-27.763794
1425924823.007,-22.751862
1425924823.023,-16.628876
1425924823.039,-9.5383
1425924823.054,-1.8739624
1425924823.07,5.8504333
1425924823.085,13.160248
1425924823.101,19.761963
1425924823.117,25.667114
1425924823.132,31.14566
1425924823.148,36.65335
1425924823.164,42.68686
1425924823.179,49.736755
1425924823.195,58.14966
1425924823.21,67.98361
1425924823.226,78.75891
1425924823.242,89.2247
1425924823.257,97.369354
1425924823.273,100.81369
1425924823.289,97.56009
1425924823.304,86.75281
1425924823.32,69.14389
1425924823.335,46.960083
1425924823.351,23.178436
1425924823.367,0.63360596
1425924823.382,-18.732635
1425924823.398,-34.086853
1425924823.414,-45.50357
1425924823.429,-53.50882
1425924823.445,-58.74518
1425924823.46,-61.78888
1425924823.476,-63.18573
1425924823.492,-63.529236
1425924823.507,-63.39789
1425924823.523,-63.26068
1425924823.539,-63.328003
1425924823.554,-63.560547
1425924823.57,-63.696136
1425924823.585,-63.40576
1425924823.601,-62.455902
1425924823.617,-60.825714
1425924823.632,-58.762238
1425924823.648,-56.680817
1425924823.664,-54.999603
1425924823.679,-53.92752
1425924823.695,-53.30539
1425924823.71,-52.597626
1425924823.726,-51.095
1425924823.742,-48.187866
1425924823.757,-43.671265
1425924823.773,-37.83795
1425924823.789,-31.324951
1425924823.804,-24.842041
1425924823.82,-18.818512
1425924823.835,-13.232727
1425924823.851,-7.70224
1425924823.867,-1.6946716
1425924823.882,5.087738
1425924823.898,12.585907
1425924823.914,20.361786
1425924823.929,27.83554
1425924823.945,34.542877
1425924823.96,40.362152
1425924823.976,45.595062
1425924823.992,50.91565
1425924824.007,57.126373
1425924824.023,64.99695
1425924824.039,74.93625
1425924824.054,86.6962
1425924824.07,99.09717
1425924824.085,109.99185
1425924824.101,116.66147
1425924824.117,116.56125
1425924824.132,108.17145
1425924824.148,91.6951
1425924824.164,69.098114
1425924824.179,43.53949
1425924824.195,18.366547
1425924824.21,-3.8555603
1425924824.226,-21.9151
1425924824.242,-35.859436
1425924824.257,-46.503174
1425924824.273,-54.772003
1425924824.289,-61.258698
1425924824.304,-66.12433
1425924824.32,-69.30942
1425924824.335,-70.80246
1425924824.351,-70.85962
1425924824.367,-69.93091
1425924824.382,-68.55194
1425924824.398,-67.11893
1425924824.414,-65.79294
1425924824.429,-64.507385
1425924824.445,-63.128357
1425924824.46,-61.618866
1425924824.476,-60.138092
1425924824.492,-58.94745
1425924824.507,-58.27411
1425924824.523,-58.072906
1425924824.539,-57.992218
1425924824.554,-57.427917
1425924824.57,-55.755737
1425924824.585,-52.56906
1425924824.601,-47.846405
1425924824.617,-41.936707
1425924824.632,-35.40924
1425924824.648,-28.872711
1425924824.664,-22.74118
1425924824.679,-17.15567
1425924824.695,-11.988251
1425924824.71,-6.9039917
1425924824.726,-1.5332336
1425924824.742,4.4457703
1425924824.757,11.161163
1425924824.773,18.48111
1425924824.789,26.055084
1425924824.804,33.38806
1425924824.82,39.992706
1425924824.836,45.62967
1425924824.851,50.36612
1425924824.867,54.660767
1425924824.882,59.269623
1425924824.898,65.08023
1425924824.914,72.81506
1425924824.929,82.6496
1425924824.945,93.89923
1425924824.961,104.84195
1425924824.976,112.96277
1425924824.992,115.597626
1425924825.007,110.72653
1425924825.023,97.78427
1425924825.039,77.88193
1425924825.054,53.58249
1425924825.07,28.09082
1425924825.086,4.3428345
1425924825.101,-15.679413
1425924825.117,-31.186493
1425924825.132,-42.377747
1425924825.148,-49.961365
1425924825.164,-54.761536
1425924825.179,-57.4541
1425924825.195,-58.54706
1425924825.211,-58.48706
1425924825.226,-57.74466
1425924825.242,-56.787384
1425924825.257,-56.010345
1425924825.273,-55.578705
1425924825.289,-55.39331
1425924825.304,-55.147247
1425924825.32,-54.52481
1425924825.336,-53.403564
1425924825.351,-51.941956
1425924825.367,-50.529724
1425924825.382,-49.579865
1425924825.398,-49.29254
1425924825.414,-49.518616
1425924825.429,-49.76825
1425924825.445,-49.373566
1425924825.461,-47.703888
1425924825.476,-44.414276
1425924825.492,-39.55591
1425924825.507,-33.595
1425924825.523,-27.248566
1425924825.539,-21.2034
1425924825.554,-15.871811
1425924825.57,-11.213242
1425924825.586,-6.7873535
1425924825.601,-2.0101318
1425924825.617,3.5785675
1425924825.632,10.016251
1425924825.648,16.934143
1425924825.664,23.732529
1425924825.679,29.860458
1425924825.695,35.042953
1425924825.711,39.37239
1425924825.726,43.268204
1425924825.742,47.326218
1425924825.757,52.210648
1425924825.773,58.553604
1425924825.789,66.73854
1425924825.804,76.622055
1425924825.82,87.240295
1425924825.836,96.75217
1425924825.851,102.74223
1425924825.867,102.87335
1425924825.882,95.71724
1425924825.898,81.349594
1425924825.914,61.438828
1425924825.929,38.78653
1425924825.945,16.401764
1425924825.961,-3.2789612
1425924825.976,-18.981934
1425924825.992,-30.523071
1425924826.007,-38.47603
1425924826.023,-43.65541
1425924826.039,-46.73987
1425924826.054,-48.178116
1425924826.07,-48.330826
1425924826.086,-47.564316
1425924826.101,-46.34291
1425924826.117,-45.139175
1425924826.132,-44.283966
1425924826.148,-43.8313
1425924826.164,-43.61165
1425924826.179,-43.306793
1425924826.195,-42.712723
1425924826.211,-41.836395
1425924826.226,-40.872406
1425924826.242,-40.08722
1425924826.257,-39.635666
1425924826.273,-39.44806
1425924826.289,-39.1828
1425924826.304,-38.322678
1425924826.32,-36.37259
1425924826.336,-33.010468
1425924826.351,-28.285019
1425924826.367,-22.570236
1425924826.382,-16.50383
1425924826.398,-10.687485
1425924826.414,-5.4693146
1425924826.429,-0.7939224
1425924826.445,3.7313461
1425924826.461,8.5728
1425924826.476,14.028595
1425924826.492,19.992172
1425924826.507,26.022072
1425924826.523,31.55214
1425924826.539,36.161232
1425924826.554,39.798935
1425924826.57,42.797302
1425924826.586,45.775757
1425924826.601,49.47248
1425924826.617,54.56327
1425924826.632,61.485046
1425924826.648,70.18832
1425924826.664,79.870964
1425924826.679,88.92998
1425924826.695,95.12622
1425924826.711,96.187675
1425924826.726,90.507
1425924826.742,77.84861
1425924826.757,59.505905
1425924826.773,37.939278
1425924826.789,16.021881
1425924826.804,-3.785675
1425924826.82,-20.007378
1425924826.836,-32.17016
1425924826.851,-40.566284
1425924826.867,-45.77501
1425924826.882,-48.4181
1425924826.898,-49.027824
1425924826.914,-48.12806
1425924826.929,-46.297676
1425924826.945,-44.14135
1425924826.961,-42.1567
1425924826.976,-40.629616
1425924826.992,-39.559654
1425924827.007,-38.747963
1425924827.023,-37.917995
1425924827.039,-36.909916
1425924827.054,-35.762726
1425924827.07,-34.66674
1425924827.086,-33.807713
1425924827.101,-33.21289
1425924827.117,-32.649967
1425924827.132,-31.70086
1425924827.148,-29.917347
1425924827.164,-27.071087
1425924827.179,-23.247215
1425924827.195,-18.771046
1425924827.211,-14.023079
1425924827.226,-9.224777
1425924827.242,-4.3336143
1425924827.257,0.8387413
1425924827.273,6.5037613
1425924827.289,12.654638
1425924827.304,19.09102
1425924827.32,25.448595
1425924827.336,31.433836
1425924827.351,36.90973
1425924827.367,41.987
1425924827.382,46.945435
1425924827.398,52.196148
1425924827.414,58.232285
1425924827.429,65.50274
1425924827.445,74.17541
1425924827.461,83.81781
1425924827.476,93.14746
1425924827.492,100.09722
1425924827.508,102.27957
1425924827.523,97.8401
1425924827.539,86.186874
1425924827.554,68.38976
1425924827.57,46.886093
1425924827.586,24.664055
1425924827.601,4.345233
1425924827.617,-12.473957
1425924827.632,-25.370682
1425924827.648,-34.713432
1425924827.664,-41.229347
1425924827.679,-45.55253
1425924827.695,-48.160442
1425924827.711,-49.420506
1425924827.726,-49.724304
1425924827.742,-49.46954
1425924827.758,-49.00669
1425924827.773,-48.546703
1425924827.789,-48.144802
1425924827.804,-47.686745
1425924827.82,-47.02136
1425924827.836,-46.006516
1425924827.851,-44.66763
1425924827.867,-43.162304
1425924827.883,-41.756557
1425924827.898,-40.71507
1425924827.914,-40.109074
1425924827.929,-39.710743
1425924827.945,-39.040337
1425924827.961,-37.520287
1425924827.976,-34.73652
1425924827.992,-30.634192
1425924828.008,-25.575312
1425924828.023,-20.195316
1425924828.039,-15.156197
1425924828.054,-10.84882
1425924828.07,-7.2339077
1425924828.086,-3.8681526
1425924828.101,-0.10285759
1425924828.117,4.660015
1425924828.133,10.653086
1425924828.148,17.668264
1425924828.164,25.080013
1425924828.179,32.154144
1425924828.195,38.338676
1425924828.211,43.528866
1425924828.226,48.099316
1425924828.242,52.77163
1425924828.258,58.356636
1425924828.273,65.54568
1425924828.289,74.5798
1425924828.304,85.07196
1425924828.32,95.79411
1425924828.336,104.750244
1425924828.351,109.498886
1425924828.367,107.85576
1425924828.383,98.66133
1425924828.398,82.31182
1425924828.414,60.745132
1425924828.429,36.903027
1425924828.445,13.837006
1425924828.461,-6.130974
1425924828.476,-21.8223
1425924828.492,-33.10393
1425924828.508,-40.546444
1425924828.523,-44.96972
1425924828.539,-47.165318
1425924828.554,-47.808197
1425924828.57,-47.501156
1425924828.586,-46.77955
1425924828.601,-46.09421
1425924828.617,-45.70488
1425924828.633,-45.66197
1425924828.648,-45.77404
1425924828.664,-45.74628
1425924828.679,-45.32906
1425924828.695,-44.451744
1425924828.711,-43.32631
1425924828.726,-42.33659
1425924828.742,-41.864117
1425924828.758,-42.071335
1425924828.773,-42.69925
1425924828.789,-43.155872
1425924828.804,-42.718716
1425924828.82,-40.84274
1425924828.836,-37.382477
1425924828.851,-32.64305
1425924828.867,-27.208351
1425924828.883,-21.678112
1425924828.898,-16.426678
1425924828.914,-11.485184
1425924828.929,-6.5692635
1425924828.945,-1.2885857
1425924828.961,4.6511
1425924828.976,11.2621155
1425924828.992,18.287163
1425924829.008,25.241947
1425924829.023,31.666267
1425924829.039,37.312153
1425924829.054,42.27423
1425924829.07,47.016533
1425924829.086,52.206413
1425924829.101,58.544216
1425924829.117,66.4885
1425924829.133,75.96037
1425924829.148,86.124405
1425924829.164,95.33229
1425924829.179,101.372925
1425924829.195,102.0338
1425924829.211,95.84431
1425924829.226,82.64413
1425924829.242,63.81143
1425924829.258,41.86763
1425924829.273,19.72049
1425924829.289,-0.16611862
1425924829.304,-16.325039
1425924829.32,-28.388367
1425924829.336,-36.764935
1425924829.351,-42.200897
1425924829.367,-45.40042
1425924829.383,-46.883904
1425924829.398,-46.971985
1425924829.414,-45.953323
1425924829.429,-44.088745
1425924829.445,-41.68208
1425924829.461,-39.072956
1425924829.476,-36.56694
1425924829.492,-34.4206
1425924829.508,-32.780746
1425924829.523,-31.649048
1425924829.539,-30.914692
1425924829.554,-30.36559
1425924829.57,-29.800552
1425924829.586,-29.034359
1425924829.601,-27.968662
1425924829.617,-26.535484
1425924829.633,-24.704342
1425924829.648,-22.43724
1425924829.664,-19.652702
1425924829.679,-16.284134
1425924829.695,-12.258503
1425924829.711,-7.5470085
1425924829.726,-2.1905136
1425924829.742,3.6664505
1425924829.758,9.783436
1425924829.773,15.902664
1425924829.789,21.785854
1425924829.804,27.350853
1425924829.82,32.645695
1425924829.836,37.8463
1425924829.851,43.20285
1425924829.867,49.018883
1425924829.883,55.61452
1425924829.898,63.221523
1425924829.914,71.73747
1425924829.929,80.446014
1425924829.945,87.87704
1425924829.961,91.991455
1425924829.976,90.77764
1425924829.992,83.02707
1425924830.008,68.880264
1425924830.023,49.951946
1425924830.039,28.857185
1425924830.054,8.358414
1425924830.07,-9.436409
1425924830.086,-23.450485
1425924830.101,-33.620026
1425924830.117,-40.49489
1425924830.133,-44.78989
1425924830.148,-47.1321
1425924830.164,-47.92643
1425924830.18,-47.48298
1425924830.195,-46.118053
1425924830.211,-44.19702
1425924830.226,-42.144585
1425924830.242,-40.370667
1425924830.258,-39.14629
1425924830.273,-38.47776
1425924830.289,-38.136932
1425924830.304,-37.718468
1425924830.32,-36.867245
1425924830.336,-35.431652
1425924830.351,-33.511917
1425924830.367,-31.386784
1425924830.383,-29.286224
1425924830.398,-27.236847
1425924830.414,-24.980427
1425924830.43,-22.101952
1425924830.445,-18.197742
1425924830.461,-13.091818
1425924830.476,-6.9328394
1425924830.492,-0.10342121
1425924830.508,6.8948584
1425924830.523,13.632992
1425924830.539,19.894955
1425924830.555,25.679523
1425924830.57,31.160498
1425924830.586,36.61126
1425924830.601,42.378456
1425924830.617,48.832466
1425924830.633,56.338097
1425924830.648,65.106606
1425924830.664,74.9193
1425924830.68,84.86936
1425924830.695,93.27679
1425924830.711,97.95758
1425924830.726,96.8669
1425924830.742,88.8128
1425924830.758,73.97899
1425924830.773,54.01255
1425924830.789,31.540068
1425924830.805,9.377632
1425924830.82,-10.220741
1425924830.836,-26.014574
1425924830.851,-37.81059
1425924830.867,-46.1367
1425924830.883,-51.83575
1425924830.898,-55.666985
1425924830.914,-58.154076
1425924830.93,-59.622467
1425924830.945,-60.254345
1425924830.961,-60.20334
1425924830.976,-59.66235
1425924830.992,-58.813755
1425924831.008,-57.780266
1425924831.023,-56.58784
1425924831.039,-55.195763
1425924831.055,-53.578026
1425924831.07,-51.805676
1425924831.086,-50.037548
1425924831.101,-48.45526
1425924831.117,-47.088543
1425924831.133,-45.719994
1425924831.148,-43.926563
1425924831.164,-41.237263
1425924831.18,-37.35497
1425924831.195,-32.313404
1425924831.211,-26.47934
1425924831.226,-20.361885
1425924831.242,-14.357433
1425924831.258,-8.603611
1425924831.273,-2.95195
1425924831.289,2.8990402
1425924831.305,9.189491
1425924831.32,15.953125
1425924831.336,22.974724
1425924831.351,29.913895
1425924831.367,36.45382
1425924831.383,42.46225
1425924831.398,48.070747
1425924831.414,53.64628
1425924831.43,59.722755
1425924831.445,66.888084
1425924831.461,75.548676
1425924831.476,85.60807
1425924831.492,96.18263
1425924831.508,105.45299
1425924831.523,110.9688
1425924831.539,110.33304
1425924831.555,102.04662
1425924831.57,86.16061
1425924831.586,64.445305
1425924831.601,39.802704
1425924831.617,15.393013
1425924831.633,-6.283371
1425924831.648,-23.860016
1425924831.664,-37.127914
1425924831.68,-46.565674
1425924831.695,-52.920876
1425924831.711,-56.855507
1425924831.726,-58.930107
1425924831.742,-59.6428
1425924831.758,-59.514206
1425924831.773,-59.023987
1425924831.789,-58.522003
1425924831.805,-58.104744
1425924831.82,-57.67063
1425924831.836,-56.98121
1425924831.851,-55.857162
1425924831.867,-54.281
1425924831.883,-52.49598
1425924831.898,-50.894722
1425924831.914,-49.846344
1425924831.93,-49.518646
1425924831.945,-49.711113
1425924831.961,-49.82155
1425924831.976,-49.07345
1425924831.992,-46.784813
1425924832.008,-42.652588
1425924832.023,-36.89981
1425924832.039,-30.145012
1425924832.055,-23.173897
1425924832.07,-16.611351
1425924832.086,-10.6755905
1425924832.101,-5.217827
1425924832.117,0.17582703
1425924832.133,5.8528748
1425924832.148,11.932213
1425924832.164,18.206726
1425924832.18,24.250038
1425924832.195,29.62658
1425924832.211,34.116142
1425924832.226,37.80497
1425924832.242,41.14747
1425924832.258,44.846443
1425924832.273,49.69458
1425924832.289,56.35575
1425924832.305,65.04308
1425924832.32,75.24814
1425924832.336,85.52863
1425924832.351,93.652306
1425924832.367,97.11335
1425924832.383,93.88622
1425924832.398,83.2139
1425924832.414,65.95054
1425924832.43,44.392685
1425924832.445,21.522072
1425924832.461,0.14173126
1425924832.476,-17.882858
1425924832.492,-31.820473
1425924832.508,-41.88736
1425924832.523,-48.774223
1425924832.539,-53.235703
1425924832.555,-55.853867
1425924832.57,-57.0559
1425924832.586,-57.197556
1425924832.601,-56.657906
1425924832.617,-55.806923
1425924832.633,-54.961235
1425924832.648,-54.260307
1425924832.664,-53.63244
1425924832.68,-52.87323
1425924832.695,-51.775917
1425924832.711,-50.26033
1425924832.726,-48.5393
1425924832.742,-46.955368
1425924832.758,-45.887306
1425924832.773,-45.43418
1425924832.789,-45.29158
1425924832.805,-44.794113
1425924832.82,-43.19229
1425924832.836,-40.003365
1425924832.851,-35.28038
1425924832.867,-29.578865
1425924832.883,-23.737114
1425924832.898,-18.427551
1425924832.914,-13.850418
1425924832.93,-9.645004
1425924832.945,-5.1557846
1425924832.961,0.22871399
1425924832.976,6.688896
1425924832.992,13.911156
1425924833.008,21.213257
1425924833.023,27.925179
1425924833.039,33.654488
1425924833.055,38.486664
1425924833.07,42.901184
1425924833.086,47.62475
1425924833.102,53.382484
1425924833.117,60.703896
1425924833.133,69.626114
1425924833.148,79.51585
1425924833.164,88.91865
1425924833.18,95.74837
1425924833.195,97.73958
1425924833.211,93.16496
1425924833.227,81.4898
1425924833.242,63.72957
1425924833.258,42.193687
1425924833.273,19.82978
1425924833.289,-0.66038513
1425924833.305,-17.473724
1425924833.32,-29.968613
1425924833.336,-38.457428
1425924833.352,-43.780922
1425924833.367,-46.84703
1425924833.383,-48.394264
1425924833.398,-48.92328
1425924833.414,-48.78681
1425924833.43,-48.23819
1425924833.445,-47.504364
1425924833.461,-46.76023
1425924833.477,-46.118393
1425924833.492,-45.632706
1425924833.508,-45.28157
1425924833.523,-45.007645
1425924833.539,-44.73545
1425924833.555,-44.361763
1425924833.57,-43.79158
1425924833.586,-42.945
1425924833.602,-41.718224
1425924833.617,-39.98282
1425924833.633,-37.603516
1425924833.648,-34.43666
1425924833.664,-30.486237
1425924833.68,-25.895744
1425924833.695,-20.980377
1425924833.711,-16.06739
1425924833.727,-11.306068
1425924833.742,-6.579193
1425924833.758,-1.5657806
1425924833.773,4.076149
1425924833.789,10.421341
1425924833.805,17.17437
1425924833.82,23.765709
1425924833.836,29.644844
1425924833.852,34.564476
1425924833.867,38.6996
1425924833.883,42.624832
1425924833.898,47.131554
1425924833.914,52.993683
1425924833.93,60.776253
1425924833.945,70.499695
1425924833.961,81.42009
1425924833.977,91.86244
1425924833.992,99.431725
1425924834.008,101.565834
1425924834.023,96.44939
1425924834.039,83.67111
1425924834.055,64.55068
1425924834.07,41.750652
1425924834.086,18.434456
1425924834.102,-2.657898
1425924834.117,-19.826485
1425924834.133,-32.57173
1425924834.148,-41.27612
1425924834.164,-46.757538
1425924834.18,-49.888294
1425924834.195,-51.400715
1425924834.211,-51.879387
1425924834.227,-51.801033
1425924834.242,-51.528072
1425924834.258,-51.340675
1425924834.273,-51.305897
1425924834.289,-51.292706
1425924834.305,-51.007393
1425924834.32,-50.196095
1425924834.336,-48.776108
1425924834.352,-46.9595
1425924834.367,-45.19022
1425924834.383,-43.908077
1425924834.398,-43.298748
1425924834.414,-43.137436
1425924834.43,-42.83573
1425924834.445,-41.706898
1425924834.461,-39.270893
1425924834.477,-35.434433
1425924834.492,-30.51704
1425924834.508,-25.054771
1425924834.523,-19.496742
1425924834.539,-14.046333
1425924834.555,-8.567417
1425924834.57,-2.7848377
1425924834.586,3.5751705
1425924834.602,10.520256
1425924834.617,17.790497
1425924834.633,24.905806
1425924834.648,31.383688
1425924834.664,36.976677
1425924834.68,41.790047
1425924834.695,46.27764
1425924834.711,51.15037
1425924834.727,57.15895
1425924834.742,64.849396
1425924834.758,74.26406
1425924834.773,84.62792
1425924834.789,94.292145
1425924834.805,100.96232
1425924834.82,102.263306
1425924834.836,96.57733
1425924834.852,83.66551
1425924834.867,64.90409
1425924834.883,42.8798
1425924834.898,20.599787
1425924834.914,0.61368847
1425924834.93,-15.605308
1425924834.945,-27.706749
1425924834.961,-36.142036
1425924834.977,-41.757122
1425924834.992,-45.3361
1425924835.008,-47.490517
1425924835.023,-48.672077
1425924835.039,-49.212193
1425924835.055,-49.39184
1425924835.07,-49.40956
1425924835.086,-49.346848
1425924835.102,-49.167603
1425924835.117,-48.768063
1425924835.133,-48.02859
1425924835.148,-46.91334
1425924835.164,-45.55594
1425924835.18,-44.20262
1425924835.195,-43.167866
1425924835.211,-42.64435
1425924835.227,-42.60171
1425924835.242,-42.665413
1425924835.258,-42.23726
1425924835.273,-40.694008
1425924835.289,-37.633625
1425924835.305,-33.07524
1425924835.32,-27.490475
1425924835.336,-21.599806
1425924835.352,-16.088818
1425924835.367,-11.343676
1425924835.383,-7.2929325
1425924835.398,-3.451023
1425924835.414,0.86694527
1425924835.43,6.22929
1425924835.445,12.761749
1425924835.461,20.106358
1425924835.477,27.494678
1425924835.492,34.093277
1425924835.508,39.366642
1425924835.523,43.31525
1425924835.539,46.520374
1425924835.555,49.966896
1425924835.57,54.722248
1425924835.586,61.6305
1425924835.602,70.96304
1425924835.617,82.1272
1425924835.633,93.51924
1425924835.648,102.67128
1425924835.664,106.795975
1425924835.68,103.639496
1425924835.695,92.31247
1425924835.711,73.78342
1425924835.727,50.63727
1425924835.742,26.27314
1425924835.758,3.835453
1425924835.774,-14.62738
1425924835.789,-28.402054
1425924835.805,-37.826687
1425924835.82,-43.744606
1425924835.836,-47.032806
1425924835.852,-48.391773
1425924835.867,-48.420837
1425924835.883,-47.73982
1425924835.899,-46.95484
1425924835.914,-46.5953
1425924835.93,-46.91252
1425924835.945,-47.79266
1425924835.961,-48.812202
1425924835.977,-49.382088
1425924835.992,-49.01677
1425924836.008,-47.572342
1425924836.024,-45.339676
1425924836.039,-42.924507
1425924836.055,-41.021156
1425924836.07,-40.055008
1425924836.086,-39.984093
1425924836.102,-40.25187
1425924836.117,-40.019424
1425924836.133,-38.525536
1425924836.149,-35.353348
1425924836.164,-30.592743
1425924836.18,-24.742393
1425924836.195,-18.519882
1425924836.211,-12.615028
1425924836.227,-7.473854
1425924836.242,-3.2010803
1425924836.258,0.453331
1425924836.274,4.0063477
1425924836.289,8.014946
1425924836.305,12.876602
1425924836.32,18.62133
1425924836.336,24.88424
1425924836.352,31.066757
1425924836.367,36.61019
1425924836.383,41.250015
1425924836.399,45.192757
1425924836.414,49.009888
1425924836.43,53.482086
1425924836.445,59.34478
1425924836.461,67.003624
1425924836.477,76.22417
1425924836.492,85.987305
1425924836.508,94.45978
1425924836.524,99.32769
1425924836.539,98.44299
1425924836.555,90.55392
1425924836.57,75.78864
1425924836.586,55.78327
1425924836.602,33.13925
1425924836.617,10.691895
1425924836.633,-9.292938
1425924836.649,-25.45781
1425924836.664,-37.42952
1425924836.68,-45.490685
1425924836.695,-50.24475
1425924836.711,-52.39348
1425924836.727,-52.6417
1425924836.742,-51.670425
1425924836.758,-50.106148
1425924836.774,-48.415985
1425924836.789,-46.853638
1425924836.805,-45.44291
1425924836.82,-44.055542
1425924836.836,-42.53882
1425924836.852,-40.87181
1425924836.867,-39.15706
1425924836.883,-37.631805
1425924836.899,-36.51329
1425924836.914,-35.926468
1425924836.93,-35.829025
1425924836.945,-36.043915
1425924836.961,-36.257584
1425924836.977,-36.098587
1425924836.992,-35.210052
1425924837.008,-33.295288
1425924837.024,-30.262878
1425924837.039,-26.273453
1425924837.055,-21.741714
1425924837.07,-17.18872
1425924837.086,-12.979507
1425924837.102,-9.150589
1425924837.117,-5.3290253
1425924837.133,-0.9813385
1425924837.149,4.309677
1425924837.164,10.52092
1425924837.18,17.193008
1425924837.195,23.615982
1425924837.211,29.187164
1425924837.227,33.696243
1425924837.242,37.39711
1425924837.258,40.86606
1425924837.274,44.78453
1425924837.289,49.772766
1425924837.305,56.253067
1425924837.32,64.312164
1425924837.336,73.501144
1425924837.352,82.66684
1425924837.367,89.943924
1425924837.383,93.14537
1425924837.399,90.4108
1425924837.414,80.9158
1425924837.43,65.3275
1425924837.445,45.62941
1425924837.461,24.601166
1425924837.477,4.933029
1425924837.492,-11.48381
1425924837.508,-23.85373
1425924837.524,-32.383118
1425924837.539,-37.77098
1425924837.555,-40.80002
1425924837.57,-42.00894
1425924837.586,-41.69397
1425924837.602,-40.08644
1425924837.617,-37.498627
1425924837.633,-34.4039
1425924837.649,-31.312073
1425924837.664,-28.642426
1425924837.68,-26.541779
1425924837.695,-24.950043
1425924837.711,-23.673325
1425924837.727,-22.599075
1425924837.742,-21.714111
1425924837.758,-21.132599
1425924837.774,-20.89737
1425924837.789,-20.930435
1425924837.805,-20.974792
1425924837.82,-20.673004
1425924837.836,-19.723068
1425924837.852,-17.87822
1425924837.867,-15.005981
1425924837.883,-11.052551
1425924837.899,-6.0695496
1425924837.914,-0.23190308
1425924837.93,6.14505
1425924837.945,12.60994
1425924837.961,18.724197
1425924837.977,24.15364
1425924837.992,28.81186
1425924838.008,32.8743
1425924838.024,36.74771
1425924838.039,40.995712
1425924838.055,46.21132
1425924838.07,52.856873
1425924838.086,61.09529
1425924838.102,70.57716
1425924838.117,80.24306
1425924838.133,88.37987
1425924838.149,92.897095
1425924838.164,91.91818
1425924838.18,84.414825
1425924838.195,70.6557
1425924838.211,52.30182
1425924838.227,31.905777
1425924838.242,12.216003
1425924838.258,-4.68956
1425924838.274,-17.772995
1425924838.289,-27.118881
1425924838.305,-33.461014
1425924838.32,-37.706116
1425924838.336,-40.4924
1425924838.352,-42.12834
1425924838.367,-42.66919
1425924838.383,-42.23636
1425924838.399,-41.12642
1425924838.414,-39.750824
1425924838.43,-38.53766
1425924838.446,-37.69902
1425924838.461,-37.148026
1425924838.477,-36.614807
1425924838.492,-35.79019
1425924838.508,-34.52516
1425924838.524,-32.88736
1425924838.539,-31.128555
1425924838.555,-29.447327
1425924838.571,-27.87413
1425924838.586,-26.188858
1425924838.602,-23.974792
1425924838.617,-20.789566
1425924838.633,-16.354858
1425924838.649,-10.685959
1425924838.664,-4.1047363
1425924838.68,2.8850403
1425924838.696,9.727158
1425924838.711,16.026276
1425924838.727,21.650314
1425924838.742,26.74559
1425924838.758,31.672852
1425924838.774,36.940247
1425924838.789,43.093628
1425924838.805,50.601547
1425924838.821,59.680634
1425924838.836,70.05299
1425924838.852,80.75098
1425924838.867,90.13287
1425924838.883,96.128265
1425924838.899,96.786896
1425924838.914,90.90744
1425924838.93,78.52161
1425924838.946,60.969055
1425924838.961,40.535652
1425924838.977,19.797745
1425924838.992,0.93401337
1425924839.008,-14.713112
1425924839.024,-26.742973
1425924839.039,-35.436928
1425924839.055,-41.4218
1425924839.071,-45.330505
1425924839.086,-47.650276
1425924839.102,-48.72973
1425924839.117,-48.829987
1425924839.133,-48.22361
1425924839.149,-47.1528
1425924839.164,-45.839394
1425924839.18,-44.40795
1425924839.196,-42.919044
1425924839.211,-41.411804
1425924839.227,-39.976067
1425924839.242,-38.773384
1425924839.258,-37.968002
1425924839.274,-37.610657
1425924839.289,-37.551094
1425924839.305,-37.44654
1425924839.321,-36.86844
1425924839.336,-35.456604
1425924839.352,-33.06385
1425924839.367,-29.752342
1425924839.383,-25.713875
1425924839.399,-21.108925
1425924839.414,-15.987671
1425924839.43,-10.288254
1425924839.446,-3.9777374
1425924839.461,2.8700562
1425924839.477,10.002014
1425924839.492,17.089535
1425924839.508,23.820076
1425924839.524,30.072407
1425924839.539,35.968437
1425924839.555,41.851765
1425924839.571,48.187424
1425924839.586,55.447407
1425924839.602,63.943954
1425924839.617,73.640915
1425924839.633,83.89514
1425924839.649,93.41312
1425924839.664,100.276726
1425924839.68,102.44133
1425924839.696,98.33873
1425924839.711,87.52451
1425924839.727,70.94626
1425924839.742,50.7487
1425924839.758,29.583122
1425924839.774,9.892408
1425924839.789,-6.740349
1425924839.805,-19.764114
1425924839.821,-29.473782
1425924839.836,-36.576843
1425924839.852,-41.8409
1425924839.867,-45.844444
1425924839.883,-48.9123
1425924839.899,-51.208187
1425924839.914,-52.802902
1425924839.93,-53.711487
1425924839.946,-53.96684
1425924839.961,-53.636787
1425924839.977,-52.831894
1425924839.992,-51.69673
1425924840.008,-50.416245
1425924840.024,-49.18441
1425924840.039,-48.203064
1425924840.055,-47.61175
1425924840.071,-47.406902
1425924840.086,-47.32638
1425924840.102,-46.87921
1425924840.117,-45.440018
1425924840.133,-42.56891
1425924840.149,-38.22675
1425924840.164,-32.86064
1425924840.18,-27.254526
1425924840.196,-22.143858
1425924840.211,-17.890396
1425924840.227,-14.326225
1425924840.242,-10.829033
1425924840.258,-6.6903152
1425924840.274,-1.4147453
1425924840.289,5.083664
1425924840.305,12.487766
1425924840.321,20.218956
1425924840.336,27.656593
1425924840.352,34.301285
1425924840.367,39.937088
1425924840.383,44.706467
1425924840.399,49.17293
1425924840.414,54.18933
1425924840.43,60.61388
1425924840.446,68.870834
1425924840.461,78.474335
1425924840.477,87.91432
1425924840.492,94.880516
1425924840.508,96.91185
1425924840.524,92.263596
1425924840.539,80.52763
1425924840.555,62.86241
1425924840.571,41.604553
1425924840.586,19.573639
1425924840.602,-0.76470184
1425924840.617,-17.798058
1425924840.633,-30.954536
1425924840.649,-40.44069
1425924840.664,-46.863007
1425924840.68,-50.924065
1425924840.696,-53.25081
1425924840.711,-54.375244
1425924840.727,-54.79059
1425924840.742,-54.888756
1425924840.758,-54.92987
1425924840.774,-54.94758
1425924840.789,-54.81404
1425924840.805,-54.29763
1425924840.821,-53.25419
1425924840.836,-51.734665
1425924840.852,-50.036934
1425924840.867,-48.556892
1425924840.883,-47.638573
1425924840.899,-47.37404
1425924840.914,-47.5197
1425924840.93,-47.55758
1425924840.946,-46.884117
1425924840.961,-45.009468
1425924840.977,-41.765747
1425924840.992,-37.364548
1425924841.008,-32.279785
1425924841.024,-27.057884
1425924841.039,-22.040749
1425924841.055,-17.253235
1425924841.071,-12.451332
1425924841.086,-7.2578125
1425924841.102,-1.4092712
1425924841.118,5.061241
1425924841.133,11.830742
1425924841.149,18.43721
1425924841.164,24.485397
1425924841.18,29.858322
1425924841.196,34.760475
1425924841.211,39.66794
1425924841.227,45.194946
1425924841.242,51.93554
1425924841.258,60.21746
1425924841.274,69.902176
1425924841.289,80.118744
1425924841.305,89.23726
1425924841.321,95.09592
1425924841.336,95.58064
1425924841.352,89.29662
1425924841.368,76.17411
1425924841.383,57.600723
1425924841.399,36.08345
1425924841.414,14.483093
1425924841.43,-4.7869415
1425924841.446,-20.34288
1425924841.461,-31.913956
1425924841.477,-40.034256
1425924841.493,-45.579422
1425924841.508,-49.31839
1425924841.524,-51.707138
1425924841.539,-52.94153
1425924841.555,-53.045425
1425924841.571,-52.10527
1425924841.586,-50.316986
1425924841.602,-48.03183
1425924841.618,-45.619873
1425924841.633,-43.415695
1425924841.649,-41.64258
1425924841.664,-40.35356
1425924841.68,-39.500107
1425924841.696,-39.001343
1425924841.711,-38.733826
1425924841.727,-38.593903
1425924841.743,-38.40956
1425924841.758,-37.940735
1425924841.774,-36.871155
1425924841.789,-34.872986
1425924841.805,-31.736176
1425924841.821,-27.509811
1425924841.836,-22.498688
1425924841.852,-17.140747
1425924841.868,-11.830124
1425924841.883,-6.7062073
1425924841.899,-1.5912018
1425924841.914,3.8153992
1425924841.93,9.755585
1425924841.946,16.188614
1425924841.961,22.820969
1425924841.977,29.279587
1425924841.993,35.36644
1425924842.008,41.186584
1425924842.024,47.141937
1425924842.039,53.807846
1425924842.055,61.62007
1425924842.071,70.63437
1425924842.086,80.252975
1425924842.102,89.0939
1425924842.118,95.17276
1425924842.133,96.357315
1425924842.149,91.0757
1425924842.164,79.001144
1425924842.18,61.33435
1425924842.196,40.419403
1425924842.211,19.038788
1425924842.227,-0.47779846
1425924842.243,-16.836823
1425924842.258,-29.77562
1425924842.274,-39.689484
1425924842.289,-47.126465
1425924842.305,-52.48851
1425924842.321,-56.027054
1425924842.336,-57.946167
1425924842.352,-58.49263
1425924842.368,-57.97107
1425924842.383,-56.681076
1425924842.399,-54.87599
1425924842.414,-52.788696
1425924842.43,-50.673508
1425924842.446,-48.77124
1425924842.461,-47.263885
1425924842.477,-46.23976
1425924842.493,-45.62329
1425924842.508,-45.257736
1425924842.524,-44.89653
1425924842.539,-44.243942
1425924842.555,-42.9485
1425924842.571,-40.68959
1425924842.586,-37.291473
1425924842.602,-32.823288
1425924842.618,-27.595932
1425924842.633,-22.072388
1425924842.649,-16.637238
1425924842.664,-11.462753
1425924842.68,-6.395279
1425924842.696,-1.1459198
1425924842.711,4.5145416
1425924842.727,10.635788
1425924842.743,17.00766
1425924842.758,23.279892
1425924842.774,29.142258
1425924842.789,34.458282
1425924842.805,39.36444
1425924842.821,44.20912
1425924842.836,49.564835
1425924842.852,56.03537
1425924842.868,64.04985
1425924842.883,73.53177
1425924842.899,83.61682
1425924842.914,92.56477
1425924842.93,98.0791
1425924842.946,97.93228
1425924842.961,90.74878
1425924842.977,76.59837
1425924842.993,57.076767
1425924843.008,34.835327
1425924843.024,12.768936
1425924843.039,-6.8652496
1425924843.055,-22.87033
1425924843.071,-35.12697
1425924843.086,-44.190506
1425924843.102,-50.752213
1425924843.118,-55.345062
1425924843.133,-58.25746
1425924843.149,-59.70488
1425924843.164,-60.00476
1425924843.18,-59.586716
1425924843.196,-58.924484
1425924843.211,-58.33568
1425924843.227,-57.886063
1425924843.243,-57.39598
1425924843.258,-56.606674
1425924843.274,-55.368713
1425924843.289,-53.75731
1425924843.305,-52.01468
1425924843.321,-50.420486
1425924843.336,-49.11667
1425924843.352,-47.990234
1425924843.368,-46.673325
1425924843.383,-44.663284
1425924843.399,-41.49739
1425924843.414,-36.98668
1425924843.43,-31.270454
1425924843.446,-24.864502
1425924843.461,-18.460693
1425924843.477,-12.66095
1425924843.493,-7.730728
1425924843.508,-3.5126266
1425924843.524,0.50637054
1425924843.539,4.911751
1425924843.555,10.096725
1425924843.571,16.005707
1425924843.586,22.207428
1425924843.602,28.053795
1425924843.618,33.001236
1425924843.633,36.87966
1425924843.649,39.96691
1425924843.664,42.908722
1425924843.68,46.560097
1425924843.696,51.725784
1425924843.711,58.89277
1425924843.727,68.01331
1425924843.743,78.20683
1425924843.758,87.73689
1425924843.774,94.29583
1425924843.789,95.54055
1425924843.805,89.85402
1425924843.821,76.97914
1425924843.836,58.282234
1425924843.852,36.39125
1425924843.868,14.440918
1425924843.883,-4.9262543
1425924843.899,-20.208221
1425924843.914,-31.223091
1425924843.93,-38.75049
1425924843.946,-43.912003
1425924843.961,-47.63978
1425924843.977,-50.394585
1425924843.993,-52.248436
1425924844.008,-53.123207
1425924844.024,-53.01821
1425924844.04,-52.09005
1425924844.055,-50.56633
1425924844.071,-48.705803
1425924844.086,-46.66738
1425924844.102,-44.561592
1425924844.118,-42.53853
1425924844.133,-40.818096
1425924844.149,-39.61994
1425924844.165,-39.10556
1425924844.18,-39.18759
1425924844.196,-39.532852
1425924844.211,-39.59258
1425924844.227,-38.719524
1425924844.243,-36.41991
1425924844.258,-32.550922
1425924844.274,-27.426838
1425924844.29,-21.706429
1425924844.305,-16.128784
1425924844.321,-11.183662
1425924844.336,-6.8913
1425924844.352,-2.826294
1425924844.368,1.6184921
1425924844.383,6.869686
1425924844.399,12.934311
1425924844.415,19.418207
1425924844.43,25.748472
1425924844.446,31.497597
1425924844.461,36.569664
1425924844.477,41.216545
1425924844.493,45.933563
1425924844.508,51.292015
1425924844.524,57.767006
1425924844.54,65.50317
1425924844.555,74.13488
1425924844.571,82.535774
1425924844.586,88.920044
1425924844.602,91.21666
1425924844.618,87.707214
1425924844.633,77.70835
1425924844.649,61.951744
1425924844.665,42.42124
1425924844.68,21.77242
1425924844.696,2.5323346
1425924844.711,-13.577238
1425924844.727,-25.893517
1425924844.743,-34.629906
1425924844.758,-40.445526
1425924844.774,-44.039383
1425924844.79,-45.876244
1425924844.805,-46.19332
1425924844.821,-45.187344
1425924844.836,-43.11445
1425924844.852,-40.4331
1425924844.868,-37.619118
1425924844.883,-35.10502
1425924844.899,-33.098812
1425924844.915,-31.614443
1425924844.93,-30.507757
1425924844.946,-29.620956
1425924844.961,-28.793833
1425924844.977,-27.956388
1425924844.993,-27.030148
1425924845.008,-25.929508
1425924845.024,-24.541227
1425924845.04,-22.76017
1425924845.055,-20.464642
1425924845.071,-17.54871
1425924845.086,-13.88649
1425924845.102,-9.417328
1425924845.118,-4.157879
1425924845.133,1.6772537
1425924845.149,7.7465553
1425924845.165,13.6576
1425924845.18,19.129566
1425924845.196,24.092777
1425924845.211,28.678028
1425924845.227,33.148087
1425924845.243,37.809917
1425924845.258,42.97558
1425924845.274,48.947556
1425924845.29,55.924732
1425924845.305,63.86503
1425924845.321,72.18141
1425924845.336,79.62129
1425924845.352,84.36554
1425924845.368,84.497345
1425924845.383,78.66824
1425924845.399,66.70953
1425924845.415,49.796173
1425924845.43,30.155552
1425924845.446,10.363773
1425924845.461,-7.3689423
1425924845.477,-21.789806
1425924845.493,-32.627014
1425924845.508,-40.348495
1425924845.524,-45.68506
1425924845.54,-49.250717
1425924845.555,-51.349724
1425924845.571,-52.069313
1425924845.586,-51.450195
1425924845.602,-49.669655
1425924845.618,-47.143875
1425924845.633,-44.406837
1425924845.649,-41.927147
1425924845.665,-39.96383
1425924845.68,-38.511307
1425924845.696,-37.349724
1425924845.711,-36.253708
1425924845.727,-35.069862
1425924845.743,-33.755943
1425924845.758,-32.316727
1425924845.774,-30.709923
1425924845.79,-28.774261
1425924845.805,-26.302437
1425924845.821,-23.112473
1425924845.836,-19.12996
1425924845.852,-14.452057
1425924845.868,-9.2400055
1425924845.883,-3.7159653
1425924845.899,1.9726791
1425924845.915,7.7779236
1425924845.93,13.745125
1425924845.946,19.874878
1425924845.961,26.051933
1425924845.977,32.054283
1425924845.993,37.59857
1425924846.008,42.574455
1425924846.024,47.201492
1425924846.04,52.017433
1425924846.055,57.739334
1425924846.071,64.84518
1425924846.086,73.20054
1425924846.102,81.83502
1425924846.118,89.024086
1425924846.133,92.66342
1425924846.149,90.9325
1425924846.165,82.899666
1425924846.18,68.85055
1425924846.196,50.314674
1425924846.211,29.630356
1425924846.227,9.29763
1425924846.243,-8.662979
1425924846.258,-23.048897
1425924846.274,-33.57306
1425924846.29,-40.534042
1425924846.305,-44.513573
1425924846.321,-46.159233
1425924846.336,-46.130447
1425924846.352,-45.108
1425924846.368,-43.76449
1425924846.383,-42.686325
1425924846.399,-42.12487
1425924846.415,-42.0365
1425924846.43,-42.102707
1425924846.446,-41.984726
1425924846.461,-41.520096
1425924846.477,-40.73905
1425924846.493,-39.84733
1425924846.508,-39.071083
1425924846.524,-38.5206
1425924846.54,-38.139664
1425924846.555,-37.66382
1425924846.571,-36.720764
1425924846.586,-34.891846
1425924846.602,-31.931885
1425924846.618,-27.821075
1425924846.633,-22.85321
1425924846.649,-17.515945
1425924846.665,-12.253693
1425924846.68,-7.251938
1425924846.696,-2.3299713
1425924846.712,2.8845673
1425924846.727,8.732056
1425924846.743,15.225906
1425924846.758,22.027557
1425924846.774,28.57724
1425924846.79,34.393295
1425924846.805,39.289795
1425924846.821,43.48439
1425924846.837,47.51625
1425924846.852,52.16391
1425924846.868,58.23488
1425924846.883,66.20036
1425924846.899,75.969315
1425924846.915,86.50523
1425924846.93,95.887726
1425924846.946,101.67381
1425924846.962,101.610886
1425924846.977,94.47633
1425924846.993,80.535614
1425924847.008,61.543884
1425924847.024,40.145187
1425924847.04,19.05574
1425924847.055,0.34239197
1425924847.071,-14.923538
1425924847.087,-26.535568
1425924847.102,-34.884003
1425924847.118,-40.562256
1425924847.133,-44.18434
1425924847.149,-46.256516
1425924847.165,-47.24202
1425924847.18,-47.512558
1425924847.196,-47.376617
1425924847.212,-47.03865
1425924847.227,-46.571426
1425924847.243,-45.96089
1425924847.258,-45.130493
1425924847.274,-44.00496
1425924847.29,-42.650665
1425924847.305,-41.25757
1425924847.321,-40.138855
1425924847.337,-39.55902
1425924847.352,-39.629166
1425924847.368,-40.09384
1425924847.383,-40.417664
1425924847.399,-39.894577
1425924847.415,-37.962036
1425924847.43,-34.375183
1425924847.446,-29.352905
1425924847.462,-23.460068
1425924847.477,-17.422028
1425924847.493,-11.833176
1425924847.508,-6.9812775
1425924847.524,-2.7244873
1425924847.54,1.3750153
1425924847.555,5.8520966
1425924847.571,11.077148
1425924847.587,17.054306
1425924847.602,23.432526
1425924847.618,29.663742
1425924847.633,35.20822
1425924847.649,39.780685
1425924847.665,43.485886
1425924847.68,46.751633
1425924847.696,50.239304
1425924847.712,54.71173
1425924847.727,60.797745
1425924847.743,68.78581
1425924847.758,78.3398
1425924847.774,88.35054
1425924847.79,96.94693
1425924847.805,101.88695
1425924847.821,101.15883
1425924847.837,93.64447
1425924847.852,79.607635
1425924847.868,60.62819
1425924847.883,39.16736
1425924847.899,17.83519
1425924847.915,-1.3347626
1425924847.93,-17.162506
1425924847.946,-29.38765
1425924847.962,-38.258713
1425924847.977,-44.21646
1425924847.993,-47.61992
1425924848.008,-48.832
1425924848.024,-48.299545
1425924848.04,-46.688004
1425924848.055,-44.794785
1425924848.071,-43.339798
1425924848.087,-42.707153
1425924848.102,-42.841858
1425924848.118,-43.331665
1425924848.133,-43.71396
1425924848.149,-43.70845
1425924848.165,-43.308197
1425924848.18,-42.735687
1425924848.196,-42.27324
1425924848.212,-42.0381
1425924848.227,-41.908188
1425924848.243,-41.56334
1425924848.258,-40.57733
1425924848.274,-38.562653
1425924848.29,-35.371445
1425924848.305,-31.10234
1425924848.321,-26.114594
1425924848.337,-20.878738
1425924848.352,-15.72789
1425924848.368,-10.771683
1425924848.383,-5.803528
1425924848.399,-0.47224426
1425924848.415,5.477951
1425924848.43,12.013107
1425924848.446,18.783783
1425924848.462,25.269958
1425924848.477,30.976639
1425924848.493,35.696564
1425924848.508,39.572586
1425924848.524,43.09379
1425924848.54,47.008827
1425924848.555,52.148277
1425924848.571,59.18907
1425924848.587,68.39008
1425924848.602,79.23876
1425924848.618,90.338844
1425924848.633,99.54374
1425924848.649,104.42685
1425924848.665,103.00187
1425924848.68,94.39065
1425924848.696,79.14455
1425924848.712,59.13375
1425924848.727,37.0198
1425924848.743,15.481186
1425924848.758,-3.4326553
1425924848.774,-18.61213
1425924848.79,-29.893219
1425924848.805,-37.754738
1425924848.821,-42.929672
1425924848.837,-46.059082
1425924848.852,-47.61714
1425924848.868,-47.874565
1425924848.883,-47.047264
1425924848.899,-45.415703
1425924848.915,-43.33068
1425924848.93,-41.205795
1425924848.946,-39.377335
1425924848.962,-38.039574
1425924848.977,-37.21701
1425924848.993,-36.79815
1425924849.008,-36.631424
1425924849.024,-36.57174
1425924849.04,-36.491318
1425924849.055,-36.261
1425924849.071,-35.73671
1425924849.087,-34.732094
1425924849.102,-33.058167
1425924849.118,-30.578537
1425924849.133,-27.194801
1425924849.149,-22.892738
1425924849.165,-17.714157
1425924849.18,-11.740936
1425924849.196,-5.1293488
1425924849.212,1.9126129
1425924849.227,9.111641
1425924849.243,16.176292
1425924849.258,22.861294
1425924849.274,29.058578
1425924849.29,34.846107
1425924849.305,40.505325
1425924849.321,46.457542
1425924849.337,53.226017
1425924849.352,61.24116
1425924849.368,70.63132
1425924849.384,80.88332
1425924849.399,90.70302
1425924849.415,98.04195
1425924849.43,100.59008
1425924849.446,96.49512
1425924849.462,85.117805
1425924849.477,67.38341
1425924849.493,45.56904
1425924849.509,22.614763
1425924849.524,1.2421474
1425924849.54,-16.732182
1425924849.555,-30.570913
1425924849.571,-40.45028
1425924849.587,-47.00508
1425924849.602,-50.956112
1425924849.618,-52.92114
1425924849.634,-53.401276
1425924849.649,-52.80671
1425924849.665,-51.524162
1425924849.68,-49.916885
1425924849.696,-48.320522
1425924849.712,-47.004158
1425924849.727,-46.113567
1425924849.743,-45.638855
1425924849.759,-45.387638
1425924849.774,-45.08153
1425924849.79,-44.469208
1425924849.805,-43.437286
1425924849.821,-42.035477
1425924849.837,-40.397434
1425924849.852,-38.606606
1425924849.868,-36.57379
1425924849.884,-34.04226
1425924849.899,-30.620285
1425924849.915,-25.980919
1425924849.93,-19.936934
1425924849.946,-12.572027
1425924849.962,-4.2523994
1425924849.977,4.4779587
1425924849.993,13.036144
1425924850.009,20.980888
1425924850.024,28.14693
1425924850.04,34.67426
1425924850.055,40.97712
1425924850.071,47.572983
1425924850.087,54.992706
1425924850.102,63.658737
1425924850.118,73.699326
1425924850.134,84.72983
1425924850.149,95.610245
1425924850.165,104.42645
1425924850.18,108.822365
1425924850.196,106.65292
1425924850.212,96.817635
1425924850.227,79.79294
1425924850.243,57.638474
1425924850.259,33.402687
1425924850.274,10.155952
1425924850.29,-9.859917
1425924850.305,-25.629082
1425924850.321,-37.271576
1425924850.337,-45.539047
1425924850.352,-51.32659
1425924850.368,-55.348557
1425924850.384,-58.08097
1425924850.399,-59.802025
1425924850.415,-60.721794
1425924850.43,-60.96319
1425924850.446,-60.620453
1425924850.462,-59.76793
1425924850.477,-58.49788
1425924850.493,-56.984978
1425924850.509,-55.4591
1425924850.524,-54.11589
1425924850.54,-53.077812
1425924850.555,-52.267006
1425924850.571,-51.453514
1425924850.587,-50.305527
1425924850.602,-48.485077
1425924850.618,-45.71531
1425924850.634,-41.891296
1425924850.649,-37.08094
1425924850.665,-31.522339
1425924850.68,-25.538223
1425924850.696,-19.418343
1425924850.712,-13.290237
1425924850.727,-7.098633
1425924850.743,-0.6592407
1425924850.759,6.194351
1425924850.774,13.451813
1425924850.79,20.902252
1425924850.805,28.222717
1425924850.821,35.08531
1425924850.837,41.396255
1425924850.852,47.364365
1425924850.868,53.494278
1425924850.884,60.503204
1425924850.899,69.03926
1425924850.915,79.27779
1425924850.93,90.556305
1425924850.946,101.16771
1425924850.962,108.61853
1425924850.977,110.30037
1425924850.993,104.36575
1425924851.009,90.49393
1425924851.024,70.127075
1425924851.04,46.0036
1425924851.055,21.277649
1425924851.071,-1.377182
1425924851.087,-20.385117
1425924851.102,-35.296936
1425924851.118,-46.410812
1425924851.134,-54.355453
1425924851.149,-59.70372
1425924851.165,-62.9626
1425924851.18,-64.56871
1425924851.196,-65.03801
1425924851.212,-64.90045
1425924851.227,-64.60388
1425924851.243,-64.35104
1425924851.259,-64.11507
1425924851.274,-63.67804
1425924851.29,-62.83203
1425924851.305,-61.512787
1425924851.321,-59.911865
1425924851.337,-58.371124
1425924851.352,-57.215607
1425924851.368,-56.56128
1425924851.384,-56.19127
1425924851.399,-55.567123
1425924851.415,-54.063126
1425924851.43,-51.187958
1425924851.446,-46.86624
1425924851.462,-41.426468
1425924851.477,-35.51866
1425924851.493,-29.768936
1425924851.509,-24.565475
1425924851.524,-19.845322
1425924851.54,-15.185898
1425924851.555,-10.009232
1425924851.571,-3.8988037
1425924851.587,3.19104
1425924851.602,10.897156
1425924851.618,18.615875
1425924851.634,25.770416
1425924851.649,32.071945
1425924851.665,37.61116
1425924851.68,42.837402
1425924851.696,48.404404
1425924851.712,55.062103
1425924851.727,63.39601
1425924851.743,73.58177
1425924851.759,85.0553
1425924851.774,96.298065
1425924851.79,104.99658
1425924851.805,108.525116
1425924851.821,104.79797
1425924851.837,93.06929
1425924851.852,74.33884
1425924851.868,51.11586
1425924851.884,26.66681
1425924851.899,4.0246887
1425924851.915,-14.767395
1425924851.93,-28.942795
1425924851.946,-38.854202
1425924851.962,-45.448624
1425924851.977,-49.797455
1425924851.993,-52.71637
1425924852.009,-54.683334
1425924852.024,-55.861786
1425924852.04,-56.292313
1425924852.056,-55.98236
1425924852.071,-55.038605
1425924852.087,-53.642868
1425924852.102,-51.995636
1425924852.118,-50.263443
1425924852.134,-48.5692
1425924852.149,-47.002106
1425924852.165,-45.644302
1425924852.18,-44.54326
1425924852.196,-43.704773
1425924852.212,-42.96759
1425924852.227,-42.070755
1425924852.243,-40.66751
1425924852.259,-38.464294
1425924852.274,-35.314713
1425924852.29,-31.189178
1425924852.306,-26.167206
1425924852.321,-20.38913
1425924852.337,-13.998154
1425924852.352,-7.1829987
1425924852.368,-0.20181274
1425924852.384,6.6748657
1425924852.399,13.22699
1425924852.415,19.33574
1425924852.431,25.02243
1425924852.446,30.409332
1425924852.462,35.697617
1425924852.477,41.181137
1425924852.493,47.282715
1425924852.509,54.44777
1425924852.524,62.989166
1425924852.54,72.69313
1425924852.556,82.57127
1425924852.571,90.76906
1425924852.587,94.97618
1425924852.602,93.096985
1425924852.618,84.073456
1425924852.634,68.36879
1425924852.649,47.90599
1425924852.665,25.524445
1425924852.681,4.0887604
1425924852.696,-14.290527
1425924852.712,-28.63736
1425924852.727,-39.067062
1425924852.743,-46.32393
1425924852.759,-51.310303
1425924852.774,-54.69374
1425924852.79,-56.81044
1425924852.806,-57.742203
1425924852.821,-57.53969
1425924852.837,-56.36241
1425924852.852,-54.521667
1425924852.868,-52.410233
1425924852.884,-50.387833
1425924852.899,-48.652786
1425924852.915,-47.241318
1425924852.931,-46.042862
1425924852.946,-44.927948
1425924852.962,-43.745712
1425924852.977,-42.41768
1425924852.993,-40.86415
1425924853.009,-39.011124
1425924853.024,-36.76561
1425924853.04,-33.9879
1425924853.056,-30.554947
1425924853.071,-26.387634
1425924853.087,-21.467407
1425924853.102,-15.85817
1425924853.118,-9.694077
1425924853.134,-3.1534271
1425924853.149,3.558136
1425924853.165,10.244492
1425924853.181,16.714264
1425924853.196,22.811127
1425924853.212,28.469131
1425924853.227,33.727463
1425924853.243,38.823624
1425924853.259,44.165802
1425924853.274,50.332397
1425924853.29,57.852295
1425924853.306,66.88338
1425924853.321,76.91318
1425924853.337,86.55446
1425924853.352,93.71715
1425924853.368,96.103745
1425924853.384,91.97502
1425924853.399,80.818085
1425924853.415,63.630646
1425924853.431,42.682724
1425924853.446,20.786774
1425924853.462,0.4998474
1425924853.477,-16.555984
1425924853.493,-29.83194
1425924853.509,-39.644928
1425924853.524,-46.695404
1425924853.54,-51.700256
1425924853.556,-55.12944
1425924853.571,-57.237595
1425924853.587,-58.21248
1425924853.602,-58.24147
1425924853.618,-57.589783
1425924853.634,-56.55664
1425924853.649,-55.397217
1425924853.665,-54.23137
1425924853.681,-53.02173
1425924853.696,-51.65027
1425924853.712,-49.98871
1425924853.727,-48.036972
1425924853.743,-45.937637
1425924853.759,-43.969894
1425924853.774,-42.344467
1425924853.79,-41.071945
1425924853.806,-39.851143
1425924853.821,-38.161743
1425924853.837,-35.47783
1425924853.852,-31.504433
1425924853.868,-26.383255
1425924853.884,-20.626236
1425924853.899,-14.899315
1425924853.915,-9.697159
1425924853.931,-5.170372
1425924853.946,-1.0469666
1425924853.962,3.1793823
1425924853.977,8.008163
1425924853.993,13.736588
1425924854.009,20.244438
1425924854.024,27.079521
1425924854.04,33.576607
1425924854.056,39.117287
1425924854.071,43.370018
1425924854.087,46.48198
1425924854.102,49.062904
1425924854.118,52.072777
1425924854.134,56.52974
1425924854.149,63.195847
1425924854.165,72.17144
1425924854.181,82.67438
1425924854.196,92.92801
1425924854.212,100.51951
1425924854.227,102.95604
1425924854.243,98.480316
1425924854.259,86.68689
1425924854.274,68.79887
1425924854.29,47.315277
1425924854.306,25.258713
1425924854.321,5.250843
1425924854.337,-11.070557
1425924854.352,-23.2253
1425924854.368,-31.606773
1425924854.384,-37.059406
1425924854.399,-40.4538
1425924854.415,-42.500565
1425924854.431,-43.744934
1425924854.446,-44.584366
1425924854.462,-45.248695
1425924854.477,-45.907295
1425924854.493,-46.53766
1425924854.509,-47.049572
1425924854.524,-47.265217
1425924854.54,-46.977074
1425924854.556,-46.060726
1425924854.571,-44.573547
1425924854.587,-42.817253
1425924854.602,-41.267723
1425924854.618,-40.418236
1425924854.634,-40.46683
1425924854.649,-41.12953
1425924854.665,-41.68037
1425924854.681,-41.19718
1425924854.696,-39.018578
1425924854.712,-35.031937
1425924854.727,-29.69914
1425924854.743,-23.830948
1425924854.759,-18.214039
1425924854.774,-13.231023
1425924854.79,-8.814691
1425924854.806,-4.5308046
1425924854.821,0.09535098
1425924854.837,5.3676395
1425924854.852,11.246023
1425924854.868,17.445736
1425924854.884,23.524837
1425924854.899,29.091324
1425924854.915,33.98037
1425924854.931,38.296997
1425924854.946,42.405354
1425924854.962,46.883804
1425924854.978,52.38281
1425924854.993,59.427868
1425924855.009,68.18293
1425924855.024,78.130226
1425924855.04,87.89421
1425924855.056,95.40404
1425924855.071,98.3195
1425924855.087,94.80003
1425924855.103,84.22207
1425924855.118,67.50376
1425924855.134,46.899002
1425924855.149,25.305834
1425924855.165,5.364916
1425924855.181,-11.194799
1425924855.196,-23.809132
1425924855.212,-32.804394
1425924855.228,-38.933475
1425924855.243,-42.88578
1425924855.259,-45.11676
1425924855.274,-45.865955
1425924855.29,-45.387062
1425924855.306,-44.045963
1425924855.321,-42.36303
1425924855.337,-40.82566
1425924855.353,-39.72682
1425924855.368,-39.050655
1425924855.384,-38.526474
1425924855.399,-37.84913
1425924855.415,-36.910324
1425924855.431,-35.876938
1425924855.446,-35.13513
1425924855.462,-34.987953
1425924855.478,-35.38522
1425924855.493,-35.871037
1425924855.509,-35.72753
1425924855.524,-34.265205
1425924855.54,-31.195091
1425924855.556,-26.75291
1425924855.571,-21.57006
1425924855.587,-16.347221
1425924855.603,-11.568306
1425924855.618,-7.289261
1425924855.634,-3.1678543
1425924855.649,1.2981186
1425924855.665,6.4665527
1425924855.681,12.357758
1425924855.696,18.602715
1425924855.712,24.605873
1425924855.728,29.812218
1425924855.743,33.97126
1425924855.759,37.280327
1425924855.774,40.338524
1425924855.79,43.960785
1425924855.806,48.961
1425924855.821,55.814545
1425924855.837,64.37779
1425924855.853,73.7333
1425924855.868,82.18787
1425924855.884,87.576904
1425924855.899,87.86308
1425924855.915,81.779884
1425924855.931,69.37906
1425924855.946,52.116783
1425924855.962,32.440353
1425924855.978,13.048775
1425924855.993,-3.8595276
1425924856.009,-17.114769
1425924856.024,-26.5877
1425924856.04,-32.86152
1425924856.056,-36.755295
1425924856.071,-38.94931
1425924856.087,-39.788734
1425924856.103,-39.406998
1425924856.118,-37.893013
1425924856.134,-35.486015
1425924856.149,-32.607033
1425924856.165,-29.78357
1425924856.181,-27.46531
1425924856.196,-25.885101
1425924856.212,-24.97506
1425924856.228,-24.471039
1425924856.243,-24.06974
1425924856.259,-23.543198
1425924856.274,-22.846779
1425924856.29,-22.027885
1425924856.306,-21.152603
1425924856.321,-20.175491
1425924856.337,-18.911255
1425924856.353,-17.102264
1425924856.368,-14.447052
1425924856.384,-10.747292
1425924856.399,-5.9345856
1425924856.415,-0.17951202
1425924856.431,6.150421
1425924856.446,12.563789
1425924856.462,18.581993
1425924856.478,23.901695
1425924856.493,28.48088
1425924856.509,32.564285
1425924856.524,36.55831
1425924856.54,40.930855
1425924856.556,46.149986
1425924856.571,52.52761
1425924856.587,60.182556
1425924856.603,68.76024
1425924856.618,77.251076
1425924856.634,83.9371
1425924856.649,86.72921
1425924856.665,83.744934
1425924856.681,74.09907
1425924856.696,58.335632
1425924856.712,38.45053
1425924856.728,17.266655
1425924856.743,-2.4451294
1425924856.759,-18.741371
1425924856.774,-30.88453
1425924856.79,-39.153442
1425924856.806,-44.36299
1425924856.821,-47.350845
1425924856.837,-48.725388
1425924856.853,-48.854126
1425924856.868,-47.990944
1425924856.884,-46.438034
1425924856.899,-44.50477
1425924856.915,-42.49479
1425924856.931,-40.575768
1425924856.946,-38.845802
1425924856.962,-37.336792
1425924856.978,-36.069252
1425924856.993,-35.040657
1425924857.009,-34.188965
1425924857.024,-33.35987
1425924857.04,-32.3648
1425924857.056,-31.004112
1425924857.071,-29.210243
1425924857.087,-26.976501
1425924857.103,-24.341309
1425924857.118,-21.283653
1425924857.134,-17.738434
1425924857.149,-13.588348
1425924857.165,-8.747719
1425924857.181,-3.2259903
1425924857.196,2.8124313
1425924857.212,9.14164
1425924857.228,15.492302
1425924857.243,21.626236
1425924857.259,27.395142
1425924857.274,32.771103
1425924857.29,37.86567
1425924857.306,42.95117
1425924857.321,48.47091
1425924857.337,54.943085
1425924857.353,62.800377
1425924857.368,72.08924
1425924857.384,82.19119
1425924857.399,91.68586
1425924857.415,98.47965
1425924857.431,100.379776
1425924857.446,95.74687
1425924857.462,84.19215
1425924857.478,66.77329
1425924857.493,45.759872
1425924857.509,23.913101
1425924857.524,3.7218933
1425924857.54,-13.154892
1425924857.556,-26.045937
1425924857.571,-35.122772
1425924857.587,-41.04139
1425924857.603,-44.675766
1425924857.618,-46.866234
1425924857.634,-48.303345
1425924857.65,-49.463516
1425924857.665,-50.554543
1425924857.681,-51.504364
1425924857.696,-52.07985
1425924857.712,-51.993958
1425924857.728,-51.11786
1425924857.743,-49.53878
1425924857.759,-47.582687
1425924857.775,-45.665215
1425924857.79,-44.15023
1425924857.806,-43.159348
1425924857.821,-42.519104
1425924857.837,-41.800583
1425924857.853,-40.44587
1425924857.868,-37.995728
1425924857.884,-34.251305
1425924857.9,-29.35389
1425924857.915,-23.71521
1425924857.931,-17.854797
1425924857.946,-12.181213
1425924857.962,-6.880966
1425924857.978,-1.8868484
1425924857.993,3.0418854
1425924858.009,8.135742
1425924858.025,13.517624
1425924858.04,19.103058
1425924858.056,24.681137
1425924858.071,30.018295
1425924858.087,35.035416
1425924858.103,39.86915
1425924858.118,44.926178
1425924858.134,50.776505
1425924858.15,58.018845
1425924858.165,66.994934
1425924858.181,77.4919
1425924858.196,88.475204
1425924858.212,98.098114
1425924858.228,103.99668
1425924858.243,103.95827
1425924858.259,96.679184
1425924858.275,82.337555
1425924858.29,62.598804
1425924858.306,40.188835
1425924858.321,18.012241
1425924858.337,-1.617981
1425924858.353,-17.429169
1425924858.368,-29.22134
1425924858.384,-37.51828
1425924858.4,-43.137146
1425924858.415,-46.856846
1425924858.431,-49.256912
1425924858.446,-50.7489
1425924858.462,-51.58926
1425924858.478,-51.950497
1425924858.493,-51.91354
1425924858.509,-51.526073
1425924858.525,-50.803974
1425924858.54,-49.77653
1425924858.556,-48.49443
1425924858.571,-47.071053
1425924858.587,-45.661663
1425924858.603,-44.47424
1425924858.618,-43.68994
1425924858.634,-43.38735
1425924858.65,-43.415367
1425924858.665,-43.360092
1425924858.681,-42.61888
1425924858.696,-40.63826
1425924858.712,-37.145966
1425924858.728,-32.3348
1425924858.743,-26.808893
1425924858.759,-21.328901
1425924858.775,-16.459023
1425924858.79,-12.328625
1425924858.806,-8.562365
1425924858.821,-4.5159607
1425924858.837,0.4105301
1425924858.853,6.452902
1425924858.868,13.378294
1425924858.884,20.630917
1425924858.9,27.52264
1425924858.915,33.558083
1425924858.931,38.614525
1425924858.946,42.95231
1425924858.962,47.159275
1425924858.978,52.002174
1425924858.993,58.23924
1425924859.009,66.321594
1425924859.025,76.09235
1425924859.04,86.52966
1425924859.056,95.72271
1425924859.071,101.231964
1425924859.087,100.83544
1425924859.103,93.25625
1425924859.118,78.78991
1425924859.134,59.25335
1425924859.15,37.453827
1425924859.165,16.245764
1425924859.181,-2.2471185
1425924859.196,-17.039358
1425924859.212,-28.138947
1425924859.228,-36.13433
1425924859.243,-41.715874
1425924859.259,-45.424747
1425924859.275,-47.64986
1425924859.29,-48.735214
1425924859.306,-49.01757
1425924859.321,-48.83067
1425924859.337,-48.413445
1425924859.353,-47.85208
1425924859.368,-47.11969
1425924859.384,-46.156208
1425924859.4,-44.994442
1425924859.415,-43.81877
1425924859.431,-42.886475
1425924859.446,-42.459824
1425924859.462,-42.626427
1425924859.478,-43.180687
1425924859.493,-43.649002
1425924859.509,-43.400566
1425924859.525,-41.907215
1425924859.54,-38.958134
