1425411809.846,0.0
1425411809.861,0.0
1425411809.877,0.0
1425411809.892,0.0
1425411809.908,0.0
1425411809.924,0.0
1425411809.939,0.0
1425411809.955,0.0
1425411809.971,0.0
1425411809.986,0.0022315353
1425411810.002,-0.0045169927
1425411810.017,-0.011265522
1425411810.033,-0.011383951
1425411810.049,0.0011864507
1425411810.064,0.025910312
1425411810.08,0.050634187
1425411810.096,0.051362894
1425411810.111,-0.0014929791
1425411810.127,-0.1302426
1425411810.142,-0.35562757
1425411810.158,-0.6591247
1425411810.174,-1.0095103
1425411810.189,-1.3709826
1425411810.205,-1.7197359
1425411810.221,-2.0551105
1425411810.236,-2.39945
1425411810.252,-2.7866635
1425411810.267,-3.2399073
1425411810.283,-3.796012
1425411810.299,-4.418684
1425411810.314,-5.0592937
1425411810.33,-5.6644096
1425411810.346,-6.2021537
1425411810.361,-6.6808796
1425411810.377,-7.149598
1425411810.392,-7.6782336
1425411810.408,-8.310739
1425411810.424,-9.143657
1425411810.439,-10.089731
1425411810.455,-11.041313
1425411810.471,-11.8842125
1425411810.486,-12.564316
1425411810.502,-13.13563
1425411810.517,-13.760044
1425411810.533,-14.65232
1425411810.549,-15.962056
1425411810.564,-17.914442
1425411810.58,-20.317299
1425411810.596,-22.903854
1425411810.611,-25.37947
1425411810.627,-27.578028
1425411810.642,-29.57246
1425411810.658,-31.675173
1425411810.674,-34.3178
1425411810.689,-37.813618
1425411810.705,-42.541233
1425411810.721,-48.1463
1425411810.736,-54.104755
1425411810.752,-59.83309
1425411810.767,-64.972374
1425411810.783,-69.58293
1425411810.799,-74.14353
1425411810.814,-79.344986
1425411810.83,-85.70726
1425411810.846,-93.76193
1425411810.861,-102.99779
1425411810.877,-112.61757
1425411810.892,-121.73034
1425411810.908,-129.76602
1425411810.924,-136.75102
1425411810.939,-143.30344
1425411810.955,-150.74623
1425411810.971,-157.77356
1425411810.986,-166.64323
1425411811.002,-177.94798
1425411811.017,-191.79102
1425411811.033,-206.96808
1425411811.049,-220.56592
1425411811.064,-228.24644
1425411811.08,-225.36154
1425411811.096,-208.53198
1425411811.111,-176.87024
1425411811.127,-132.76222
1425411811.142,-80.04997
1425411811.158,-23.069275
1425411811.174,34.94339
1425411811.189,92.43695
1425411811.205,149.15695
1425411811.221,205.22772
1425411811.236,260.36963
1425411811.252,313.74133
1425411811.267,363.87396
1425411811.283,409.83353
1425411811.299,450.90775
1425411811.314,486.50244
1425411811.33,515.73865
1425411811.346,537.2274
1425411811.361,549.22
1425411811.377,549.9613
1425411811.392,538.367
1425411811.408,514.2055
1425411811.424,478.674
1425411811.439,433.87952
1425411811.455,382.45126
1425411811.471,327.02106
1425411811.486,269.84186
1425411811.502,212.63379
1425411811.518,156.6594
1425411811.533,102.95233
1425411811.549,52.373596
1425411811.564,5.9046936
1425411811.58,-35.580414
1425411811.596,-71.42584
1425411811.611,-101.35184
1425411811.627,-125.50113
1425411811.643,-144.3797
1425411811.658,-158.69403
1425411811.674,-169.15071
1425411811.689,-176.3711
1425411811.705,-180.75139
1425411811.721,-182.57419
1425411811.736,-182.06863
1425411811.752,-179.5066
1425411811.768,-175.23325
1425411811.783,-169.65286
1425411811.799,-163.17691
1425411811.814,-156.14568
1425411811.83,-148.80681
1425411811.846,-141.29686
1425411811.861,-133.68983
1425411811.877,-126.01962
1425411811.893,-118.33268
1425411811.908,-110.68864
1425411811.924,-103.15572
1425411811.939,-95.80455
1425411811.955,-88.684166
1425411811.971,-81.82744
1425411811.986,-75.24594
1425411812.002,-68.9526
1425411812.018,-62.949085
1425411812.033,-57.247494
1425411812.049,-51.857185
1425411812.064,-46.78282
1425411812.08,-42.02776
1425411812.096,-37.58521
1425411812.111,-33.451748
1425411812.127,-29.613855
1425411812.143,-26.070963
1425411812.158,-22.808779
1425411812.174,-19.824995
1425411812.189,-17.113392
1425411812.205,-14.666497
1425411812.221,-12.47932
1425411812.236,-10.538469
1425411812.252,-8.833674
1425411812.268,-7.3478527
1425411812.283,-6.067689
1425411812.299,-4.9734235
1425411812.314,-4.046258
1425411812.33,-3.2673752
1425411812.346,-2.6211367
1425411812.361,-2.088365
1425411812.377,-1.6507506
1425411812.393,-1.2976913
1425411812.408,-1.0147024
1425411812.424,-0.79105926
1425411812.439,-0.6133206
1425411812.455,-0.47516227
1425411812.471,-0.3684653
1425411812.486,-0.28461677
1425411812.502,-0.22397345
1425411812.518,-0.17647654
1425411812.533,-0.14055526
1425411812.549,-0.11251485
1425411812.564,-0.0926249
1425411812.58,-0.07977182
1425411812.596,-0.06783539
1425411812.611,-0.05929327
1425411812.627,-0.052183747
1425411812.643,-0.046860814
1425411812.658,-0.044131815
1425411812.674,-0.040358156
1425411812.689,-0.039164305
1425411812.705,-0.034330726
1425411812.721,-0.03515649
1425411812.736,-0.03181714
1425411812.752,-0.030750751
1425411812.768,-0.02810505
1425411812.783,-0.029290557
1425411812.799,-0.027453512
1425411812.814,-0.026081413
1425411812.83,-0.023851603
1425411812.846,-0.022989094
1425411812.861,-0.022172749
1425411812.877,-0.022157341
1425411812.893,-0.020828396
1425411812.908,-0.020277172
1425411812.924,-0.01940465
1425411812.939,-0.018795371
1425411812.955,-0.019169807
1425411812.971,-0.017195046
1425411812.986,-0.016264498
1425411813.002,-0.01676847
1425411813.018,-0.016039208
1425411813.033,-0.016356274
1425411813.049,-0.012255222
1425411813.064,-0.014531761
1425411813.08,-0.013970271
1425411813.096,-0.0151048
1425411813.111,-0.011057541
1425411813.127,-0.0131264925
1425411813.143,-0.011830375
1425411813.158,-0.011561602
1425411813.174,-0.011305705
1425411813.189,-0.011727303
1425411813.205,-0.011188552
1425411813.221,-0.00897336
1425411813.236,-0.0100701
1425411813.252,-0.010106817
1425411813.268,-0.00829272
1425411813.283,-0.012381226
1425411813.299,-0.009308472
1425411813.314,-0.009468168
1425411813.33,-0.0076998025
1425411813.346,-0.008273825
1425411813.361,-0.006166175
1425411813.377,-0.011123031
1425411813.393,-0.0061910003
1425411813.408,-0.0064854324
1425411813.424,-0.0073835254
1425411813.439,-0.0068089813
1425411813.455,-0.0063589513
1425411813.471,-0.00594984
1425411813.486,-0.009730399
1425411813.502,-0.003196448
1425411813.518,-0.00675644
1425411813.533,-0.0022937208
1425411813.549,-0.0056083202
1425411813.564,-0.0072454214
1425411813.58,-0.0044709593
1425411813.596,-0.0054934174
1425411813.611,-0.012334272
1425411813.627,-0.015387192
1425411813.643,-0.026213989
1425411813.658,-0.039622962
1425411813.674,-0.05597739
1425411813.689,-0.072443545
1425411813.705,-0.09912476
1425411813.721,-0.12771201
1425411813.736,-0.15653759
1425411813.752,-0.19221127
1425411813.768,-0.23137265
1425411813.783,-0.2689707
1425411813.799,-0.30973017
1425411813.814,-0.3503416
1425411813.83,-0.39210248
1425411813.846,-0.43771034
1425411813.861,-0.47735244
1425411813.877,-0.51847184
1425411813.893,-0.5698338
1425411813.908,-0.6214189
1425411813.924,-0.6922161
1425411813.939,-0.7718901
1425411813.955,-0.84502226
1425411813.971,-0.9031415
1425411813.986,-0.93918896
1425411814.002,-0.9518125
1425411814.018,-0.9452777
1425411814.033,-0.9639486
1425411814.049,-1.0168695
1425411814.064,-1.1246178
1425411814.08,-1.2876385
1425411814.096,-1.4732848
1425411814.111,-1.663315
1425411814.127,-1.8371904
1425411814.143,-1.9874113
1425411814.158,-2.147532
1425411814.174,-2.3451724
1425411814.19,-2.6154723
1425411814.205,-2.9758854
1425411814.221,-3.4050448
1425411814.236,-3.8491535
1425411814.252,-4.2581844
1425411814.268,-4.5853233
1425411814.283,-4.8530507
1425411814.299,-5.0924263
1425411814.314,-5.4079127
1425411814.33,-5.866617
1425411814.346,-6.5134377
1425411814.361,-7.308917
1425411814.377,-8.123025
1425411814.393,-8.828517
1425411814.408,-9.318521
1425411814.424,-9.592649
1425411814.44,-9.7671795
1425411814.455,-10.063335
1425411814.471,-10.670606
1425411814.486,-11.6765175
1425411814.502,-12.975499
1425411814.518,-14.28807
1425411814.533,-15.246862
1425411814.549,-15.567661
1425411814.565,-15.169698
1425411814.58,-14.180289
1425411814.596,-12.913458
1425411814.611,-11.646322
1425411814.627,-10.452379
1425411814.643,-9.100809
1425411814.658,-7.095747
1425411814.674,-3.9334927
1425411814.69,0.6865158
1425411814.705,6.6011868
1425411814.721,13.1978245
1425411814.736,19.593153
1425411814.752,25.041035
1425411814.768,29.122854
1425411814.783,31.971872
1425411814.799,34.074554
1425411814.815,36.030914
1425411814.83,38.30104
1425411814.846,41.077835
1425411814.861,44.417458
1425411814.877,48.160755
1425411814.893,51.813835
1425411814.908,54.353333
1425411814.924,54.30424
1425411814.94,50.226997
1425411814.955,41.38543
1425411814.971,28.409414
1425411814.986,13.34631
1425411815.002,-0.9524555
1425411815.018,-12.015726
1425411815.033,-18.666494
1425411815.049,-21.38699
1425411815.065,-21.757854
1425411815.08,-21.345356
1425411815.096,-20.783882
1425411815.111,-19.602098
1425411815.127,-16.750164
1425411815.143,-11.646725
1425411815.158,-4.820669
1425411815.174,2.031662
1425411815.19,6.865041
1425411815.205,8.239526
1425411815.221,5.993004
1425411815.236,1.136528
1425411815.252,-4.6303883
1425411815.268,-9.797309
1425411815.283,-13.592261
1425411815.299,-16.085793
1425411815.315,-17.740122
1425411815.33,-18.938072
1425411815.346,-19.70766
1425411815.361,-19.794853
1425411815.377,-18.932804
1425411815.393,-17.132162
1425411815.408,-14.73654
1425411815.424,-12.300511
1425411815.44,-10.298967
1425411815.455,-8.96022
1425411815.471,-8.218642
1425411815.486,-7.8985724
1425411815.502,-7.739936
1425411815.518,-7.5769205
1425411815.533,-7.3084335
1425411815.549,-6.9219065
1425411815.565,-6.436674
1425411815.58,-5.8922405
1425411815.596,-5.3191137
1425411815.611,-4.76381
1425411815.627,-4.221624
1425411815.643,-3.6855493
1425411815.658,-3.0820088
1425411815.674,-2.3716497
1425411815.69,-1.6423116
1425411815.705,-1.1336164
1425411815.721,-1.0729322
1425411815.736,-1.5913653
1425411815.752,-2.5226727
1425411815.768,-3.4523048
1425411815.783,-3.8618531
1425411815.799,-3.4038253
1425411815.815,-2.109838
1425411815.83,-0.40953302
1425411815.846,1.1379309
1425411815.861,2.1064491
1425411815.877,2.426198
1425411815.893,2.391199
1425411815.908,2.3484178
1425411815.924,2.4807067
1425411815.94,2.6731172
1425411815.955,2.5724893
1425411815.971,1.9223871
1425411815.986,0.7664833
1425411816.002,-0.36268425
1425411816.018,-0.72234344
1425411816.033,0.40134525
1425411816.049,3.2837486
1425411816.065,7.640767
1425411816.08,12.653116
1425411816.096,17.246433
1425411816.111,20.375381
1425411816.127,21.355846
1425411816.143,20.00763
1425411816.158,16.742407
1425411816.174,12.373872
1425411816.19,7.915539
1425411816.205,4.181842
1425411816.221,1.6204567
1425411816.236,0.19673443
1425411816.252,-0.37424564
1425411816.268,-0.45194435
1425411816.283,-0.17942333
1425411816.299,0.48158836
1425411816.315,1.5565605
1425411816.33,2.8589325
1425411816.346,3.8539104
1425411816.361,3.8775482
1425411816.377,2.5108547
1425411816.393,-0.12117767
1425411816.408,-3.348012
1425411816.424,-6.2601166
1425411816.44,-8.113274
1425411816.455,-8.674039
1425411816.471,-8.203926
1425411816.486,-7.3427954
1425411816.502,-6.714834
1425411816.518,-6.7615433
1425411816.533,-7.5411835
1425411816.549,-8.842236
1425411816.565,-10.263716
1425411816.58,-11.45864
1425411816.596,-12.22405
1425411816.611,-12.560169
1425411816.627,-12.552095
1425411816.643,-12.28887
1425411816.658,-11.740175
1425411816.674,-10.833273
1425411816.69,-9.519836
1425411816.705,-7.9537945
1425411816.721,-6.493948
1425411816.736,-5.5740986
1425411816.752,-5.4081755
1425411816.768,-5.9200096
1425411816.783,-6.703519
1425411816.799,-7.3485994
1425411816.815,-7.6040335
1425411816.83,-7.5037956
1425411816.846,-7.212798
1425411816.862,-6.8661327
1425411816.877,-6.3615007
1425411816.893,-5.354106
1425411816.908,-3.427309
1425411816.924,-0.28337288
1425411816.94,4.0869865
1425411816.955,9.341042
1425411816.971,14.849857
1425411816.986,19.779312
1425411817.002,23.246943
1425411817.018,24.450224
1425411817.033,22.911463
1425411817.049,18.61757
1425411817.065,12.248154
1425411817.08,5.0721893
1425411817.096,-1.2102184
1425411817.112,-5.024172
1425411817.127,-5.406824
1425411817.143,-2.4418488
1425411817.158,2.7721481
1425411817.174,8.526043
1425411817.19,13.169996
1425411817.205,15.737995
1425411817.221,16.137829
1425411817.237,14.923626
1425411817.252,12.83333
1425411817.268,10.335377
1425411817.283,7.5435333
1425411817.299,4.317423
1425411817.315,0.5784588
1425411817.33,-3.5352554
1425411817.346,-7.6284485
1425411817.362,-11.236666
1425411817.377,-13.969965
1425411817.393,-15.642632
1425411817.408,-16.196686
1425411817.424,-15.6969185
1425411817.44,-14.2671795
1425411817.455,-12.121981
1425411817.471,-9.54435
1425411817.487,-6.8898315
1425411817.502,-4.4819202
1425411817.518,-2.6068535
1425411817.533,-1.4516029
1425411817.549,-1.0958157
1425411817.565,-1.5094299
1425411817.58,-2.5650463
1425411817.596,-4.084793
1425411817.612,-5.9240456
1425411817.627,-7.9945602
1425411817.643,-10.314257
1425411817.658,-12.8356285
1425411817.674,-15.385017
1425411817.69,-17.523033
1425411817.705,-18.638226
1425411817.721,-18.140743
1425411817.737,-15.732979
1425411817.752,-11.607517
1425411817.768,-6.4444046
1425411817.783,-1.1406937
1425411817.799,3.4893074
1425411817.815,6.9968796
1425411817.83,9.368237
1425411817.846,10.907959
1425411817.862,12.038853
1425411817.877,13.069855
1425411817.893,14.091656
1425411817.908,15.026802
1425411817.924,15.74884
1425411817.94,16.232018
1425411817.955,16.55249
1425411817.971,16.803905
1425411817.987,16.886467
1425411818.002,16.570435
1425411818.018,15.5260315
1425411818.033,13.649937
1425411818.049,11.098644
1425411818.065,8.366985
1425411818.08,5.9569054
1425411818.096,4.1860695
1425411818.112,3.0139618
1425411818.127,2.1863174
1425411818.143,1.4584846
1425411818.158,0.85951996
1425411818.174,0.6392441
1425411818.19,1.1185913
1425411818.205,2.3423119
1425411818.221,3.9863777
1425411818.237,5.4615974
1425411818.252,6.2310333
1425411818.268,6.0193825
1425411818.283,4.9503746
1425411818.299,3.3790512
1425411818.315,1.6728477
1425411818.33,0.01965332
1425411818.346,-1.5582123
1425411818.362,-3.1629105
1425411818.377,-4.836586
1425411818.393,-6.489689
1425411818.408,-7.86174
1425411818.424,-8.653492
1425411818.44,-8.653412
1425411818.455,-7.9004936
1425411818.471,-6.617031
1425411818.487,-5.1807632
1425411818.502,-3.9094543
1425411818.518,-2.9514084
1425411818.533,-2.214199
1425411818.549,-1.5109406
1425411818.565,-0.6460762
1425411818.58,0.4343109
1425411818.596,1.7121239
1425411818.612,3.193615
1425411818.627,4.9981346
1425411818.643,7.341694
1425411818.658,10.410084
1425411818.674,14.105717
1425411818.69,17.990448
1425411818.705,21.311169
1425411818.721,23.278595
1425411818.737,23.346806
1425411818.752,21.439041
1425411818.768,18.000244
1425411818.783,13.885456
1425411818.799,10.012188
1425411818.815,7.007221
1425411818.83,5.0446663
1425411818.846,3.804512
1425411818.862,2.7719955
1425411818.877,1.560463
1425411818.893,0.14543915
1425411818.908,-1.1423683
1425411818.924,-1.9119034
1425411818.94,-2.0402584
1425411818.955,-1.926836
1425411818.971,-2.2626858
1425411818.987,-3.7150593
1425411819.002,-6.389633
1425411819.018,-9.702955
1425411819.033,-12.511452
1425411819.049,-13.706009
1425411819.065,-12.75782
1425411819.08,-10.062
1425411819.096,-6.7821655
1425411819.112,-4.2751656
1425411819.127,-3.4842548
1425411819.143,-4.4949207
1425411819.158,-6.52466
1425411819.174,-8.391043
1425411819.19,-9.075359
1425411819.205,-8.24143
1425411819.221,-6.2794647
1425411819.237,-4.0708084
1425411819.252,-2.4871635
1425411819.268,-2.0831738
1425411819.283,-2.8453865
1425411819.299,-4.4107075
1425411819.315,-6.2820053
1425411819.33,-8.03319
1425411819.346,-9.384018
1425411819.362,-10.149342
1425411819.377,-10.044697
1425411819.393,-8.818062
1425411819.408,-6.4793396
1425411819.424,-3.6459599
1425411819.44,-1.5147953
1425411819.455,-1.3680935
1425411819.471,-3.7102604
1425411819.487,-7.7008724
1425411819.502,-11.258816
1425411819.518,-12.153482
1425411819.533,-9.200346
1425411819.549,-3.093526
1425411819.565,3.9503117
1425411819.58,9.43182
1425411819.596,12.025778
1425411819.612,12.308462
1425411819.627,12.226002
1425411819.643,13.794906
1425411819.658,17.853104
1425411819.674,23.642197
1425411819.69,29.490742
1425411819.705,33.909706
1425411819.721,36.42623
1425411819.737,37.542053
1425411819.752,38.055435
1425411819.768,38.167496
1425411819.784,37.323326
1425411819.799,34.428272
1425411819.815,28.64976
1425411819.83,19.99427
1425411819.846,9.480902
1425411819.862,-1.3159084
1425411819.877,-10.803555
1425411819.893,-17.951605
1425411819.909,-22.399353
1425411819.924,-24.338705
1425411819.94,-24.188137
1425411819.955,-22.419876
1425411819.971,-19.523228
1425411819.987,-16.033285
1425411820.002,-12.460251
1425411820.018,-9.249228
1425411820.034,-6.601723
1425411820.049,-4.5116467
1425411820.065,-2.83469
1425411820.08,-1.5143528
1425411820.096,-0.581028
1425411820.112,-0.15943432
1425411820.127,-0.28656387
1425411820.143,-0.92013645
1425411820.159,-1.9047546
1425411820.174,-3.1570444
1425411820.19,-4.6907177
1425411820.205,-6.53706
1425411820.221,-8.618828
1425411820.237,-10.629688
1425411820.252,-12.0469
1425411820.268,-12.354235
1425411820.284,-11.247875
1425411820.299,-8.762562
1425411820.315,-5.2633038
1425411820.33,-1.2524128
1425411820.346,2.7872086
1425411820.362,6.4164314
1425411820.377,9.22142
1425411820.393,10.804457
1425411820.409,10.876154
1425411820.424,9.380009
1425411820.44,6.666752
1425411820.455,3.411312
1425411820.471,0.41454315
1425411820.487,-1.7511139
1425411820.502,-2.955532
1425411820.518,-3.4815483
1425411820.534,-3.786499
1425411820.549,-4.175495
1425411820.565,-4.641342
1425411820.58,-4.8969765
1425411820.596,-4.6689796
1425411820.612,-3.9838219
1425411820.627,-3.1859741
1425411820.643,-2.8133736
1425411820.659,-3.2281342
1425411820.674,-4.449154
1425411820.69,-6.0923805
1425411820.705,-7.6965065
1425411820.721,-8.980267
1425411820.737,-10.004963
1425411820.752,-11.02441
1425411820.768,-12.240303
1425411820.784,-13.546768
1425411820.799,-14.515812
1425411820.815,-14.612614
1425411820.83,-13.488663
1425411820.846,-11.16893
1425411820.862,-8.023262
1425411820.877,-4.6149673
1425411820.893,-1.4918709
1425411820.909,0.96154785
1425411820.924,2.5507736
1425411820.94,3.2678108
1425411820.955,3.3132935
1425411820.971,3.1097488
1425411820.987,3.092369
1425411821.002,3.5883713
1425411821.018,4.5750275
1425411821.034,5.699089
1425411821.049,6.4224205
1425411821.065,6.416683
1425411821.08,5.8351707
1425411821.096,5.344715
1425411821.112,5.845642
1425411821.127,8.019413
1425411821.143,11.99622
1425411821.159,17.255108
1425411821.174,22.885498
1425411821.19,27.959015
1425411821.205,31.791592
1425411821.221,34.04418
1425411821.237,34.59741
1425411821.252,33.44464
1425411821.268,30.619434
1425411821.284,26.33358
1425411821.299,21.074944
1425411821.315,15.619255
1425411821.33,10.799683
1425411821.346,7.1886444
1425411821.362,4.867775
1425411821.377,3.4626389
1425411821.393,2.3931732
1425411821.409,1.2979965
1425411821.424,0.1500473
1425411821.44,-0.8253784
1425411821.455,-1.4656982
1425411821.471,-1.9358749
1425411821.487,-2.7829971
1425411821.502,-4.5776825
1425411821.518,-7.5716934
1425411821.534,-11.38987
1425411821.549,-15.185341
1425411821.565,-17.961525
1425411821.58,-19.084908
1425411821.596,-18.583908
1425411821.612,-17.079231
1425411821.627,-15.466492
1425411821.643,-14.516083
1425411821.659,-14.593796
1425411821.674,-15.60321
1425411821.69,-17.09404
1425411821.705,-18.579613
1425411821.721,-19.674767
1425411821.737,-20.25924
1425411821.752,-20.36538
1425411821.768,-20.128395
1425411821.784,-19.641716
1425411821.799,-18.904343
1425411821.815,-17.88897
1425411821.83,-16.608162
1425411821.846,-15.149765
1425411821.862,-13.689026
1425411821.877,-12.38765
1425411821.893,-11.271423
1425411821.909,-10.180351
1425411821.924,-8.82753
1425411821.94,-6.93927
1425411821.955,-4.408119
1425411821.971,-1.331047
1425411821.987,2.0184479
1425411822.002,5.4364014
1425411822.018,8.80368
1425411822.034,12.203766
1425411822.049,15.677727
1425411822.065,19.11267
1425411822.08,22.111893
1425411822.096,24.071053
1425411822.112,24.364586
1425411822.127,22.686584
1425411822.143,19.163345
1425411822.159,14.3932495
1425411822.174,9.159279
1425411822.19,4.20932
1425411822.205,-0.06264496
1425411822.221,-3.5807571
1425411822.237,-6.5406494
1425411822.252,-9.151955
1425411822.268,-11.471558
1425411822.284,-13.403175
1425411822.299,-14.773018
1425411822.315,-15.508339
1425411822.33,-15.73703
1425411822.346,-15.714928
1425411822.362,-15.748787
1425411822.377,-16.050499
1425411822.393,-16.695297
1425411822.409,-17.619217
1425411822.424,-18.749542
1425411822.44,-20.03302
1425411822.456,-21.434013
1425411822.471,-22.891563
1425411822.487,-24.29908
1425411822.502,-25.485878
1425411822.518,-26.292717
1425411822.534,-26.606201
1425411822.549,-26.362862
1425411822.565,-25.520294
1425411822.581,-24.097404
1425411822.596,-22.213524
1425411822.612,-20.329582
1425411822.627,-19.194359
1425411822.643,-19.669395
1425411822.659,-22.203941
1425411822.674,-26.38443
1425411822.69,-30.74102
1425411822.706,-33.264587
1425411822.721,-32.28202
1425411822.737,-27.362045
1425411822.752,-19.553352
1425411822.768,-10.873825
1425411822.784,-3.2164307
1425411822.799,2.5063019
1425411822.815,6.628792
1425411822.831,10.097977
1425411822.846,13.6829605
1425411822.862,17.459389
1425411822.877,21.024323
1425411822.893,24.143333
1425411822.909,27.32299
1425411822.924,31.591408
1425411822.94,37.780502
1425411822.956,45.615326
1425411822.971,53.52466
1425411822.987,59.16694
1425411823.002,60.70134
1425411823.018,57.74518
1425411823.034,51.68062
1425411823.049,45.024666
1425411823.065,40.192543
1425411823.081,38.493195
1425411823.096,39.734398
1425411823.112,42.53411
1425411823.127,45.19847
1425411823.143,46.418976
1425411823.159,45.581276
1425411823.174,42.60604
1425411823.19,37.630768
1425411823.206,30.740486
1425411823.221,22.111816
1425411823.237,12.204384
1425411823.252,1.91185
1425411823.268,-7.6683273
1425411823.284,-15.669769
1425411823.299,-21.906097
1425411823.315,-26.893158
1425411823.331,-31.441017
1425411823.346,-35.925575
1425411823.362,-39.858368
1425411823.377,-42.0567
1425411823.393,-41.40966
1425411823.409,-37.698204
1425411823.424,-32.01355
1425411823.44,-26.326012
1425411823.456,-22.531525
1425411823.471,-21.42743
1425411823.487,-22.411316
1425411823.502,-23.917381
1425411823.518,-24.442581
1425411823.534,-23.406372
1425411823.549,-21.396164
1425411823.565,-19.620232
1425411823.581,-18.993454
1425411823.596,-19.435379
1425411823.612,-19.935951
1425411823.627,-19.20784
1425411823.643,-16.553055
1425411823.659,-12.360809
1425411823.674,-7.815071
1425411823.69,-4.081009
1425411823.706,-1.5667343
1425411823.721,0.3689499
1425411823.737,3.02314
1425411823.752,7.4902496
1425411823.768,13.970825
1425411823.784,21.56813
1425411823.799,28.636467
1425411823.815,33.596527
1425411823.831,35.504456
1425411823.846,34.35311
1425411823.862,30.81752
1425411823.877,25.87149
1425411823.893,20.336006
1425411823.909,14.758644
1425411823.924,9.440247
1425411823.94,4.648758
1425411823.956,0.6377182
1425411823.971,-2.262764
1425411823.987,-3.8419418
1425411824.002,-4.127533
1425411824.018,-3.4496765
1425411824.034,-2.3872986
1425411824.049,-1.572258
1425411824.065,-1.4687881
1425411824.081,-2.2343292
1425411824.096,-3.6755219
1425411824.112,-5.428215
1425411824.127,-7.1054153
1425411824.143,-8.550262
1425411824.159,-9.80748
1425411824.174,-11.106598
1425411824.19,-12.634125
1425411824.206,-14.3756485
1425411824.221,-16.116219
1425411824.237,-17.553047
1425411824.252,-18.494278
1425411824.268,-18.996445
1425411824.284,-19.301247
1425411824.299,-19.627861
1425411824.315,-19.931389
1425411824.331,-19.876373
1425411824.346,-18.988007
1425411824.362,-16.989326
1425411824.377,-14.039139
1425411824.393,-10.640747
1425411824.409,-7.3496246
1425411824.424,-4.4372864
1425411824.44,-1.7404633
1425411824.456,1.0814819
1425411824.471,4.202751
1425411824.487,7.337158
1425411824.502,9.906097
1425411824.518,11.374741
1425411824.534,11.753868
1425411824.549,11.683685
1425411824.565,12.240135
1425411824.581,14.358711
1425411824.596,18.338394
1425411824.612,23.666351
1425411824.627,29.301697
1425411824.643,34.08966
1425411824.659,37.209877
1425411824.674,38.332916
1425411824.69,37.547188
1425411824.706,35.131714
1425411824.721,31.444443
1425411824.737,26.8777
1425411824.752,21.910576
1425411824.768,17.089233
1425411824.784,12.913612
1425411824.799,9.611168
1425411824.815,7.1243515
1425411824.831,5.1015854
1425411824.846,3.2041245
1425411824.862,1.1696701
1425411824.877,-1.004364
1425411824.893,-3.2121353
1425411824.909,-5.3712616
1425411824.924,-7.4660873
1425411824.94,-9.549789
1425411824.956,-11.583199
1425411824.971,-13.360649
1425411824.987,-14.605705
1425411825.002,-15.092979
1425411825.018,-14.889114
1425411825.034,-14.311584
1425411825.049,-13.873314
1425411825.065,-13.962013
1425411825.081,-14.662544
1425411825.096,-15.712334
1425411825.112,-16.677132
1425411825.128,-17.147156
1425411825.143,-16.984467
1425411825.159,-16.330643
1425411825.174,-15.482788
1425411825.19,-14.722122
1425411825.206,-14.207397
1425411825.221,-13.950951
1425411825.237,-13.891655
1425411825.252,-13.956177
1425411825.268,-14.045746
1425411825.284,-13.921036
1425411825.299,-13.251518
1425411825.315,-11.636826
1425411825.331,-8.899796
1425411825.346,-5.1996384
1425411825.362,-1.1632919
1425411825.378,2.3898087
1425411825.393,4.7656937
1425411825.409,5.773987
1425411825.424,5.841858
1425411825.44,5.853012
1425411825.456,6.7056503
1425411825.471,8.942894
1425411825.487,12.52095
1425411825.503,16.907265
1425411825.518,21.352745
1425411825.534,25.190819
1425411825.549,27.950195
1425411825.565,29.37352
1425411825.581,29.255867
1425411825.596,27.458748
1425411825.612,23.930428
1425411825.628,18.933762
1425411825.643,13.092659
1425411825.659,7.317375
1425411825.674,2.5282593
1425411825.69,-0.65773773
1425411825.706,-2.1539154
1425411825.721,-2.3963776
1425411825.737,-2.1317444
1425411825.753,-2.1281357
1425411825.768,-2.9098816
1425411825.784,-4.582382
1425411825.799,-6.9507294
1425411825.815,-9.61618
1425411825.831,-12.207535
1425411825.846,-14.46299
1425411825.862,-16.315567
1425411825.878,-17.755394
1425411825.893,-18.828224
1425411825.909,-19.496391
1425411825.924,-19.76049
1425411825.94,-19.642662
1425411825.956,-19.274353
1425411825.971,-18.78041
1425411825.987,-18.245277
1425411826.003,-17.629585
1425411826.018,-16.865486
1425411826.034,-15.898827
1425411826.049,-14.789658
1425411826.065,-13.686226
1425411826.081,-12.683006
1425411826.096,-11.731895
1425411826.112,-10.663025
1425411826.128,-9.293297
1425411826.143,-7.654831
1425411826.159,-6.0624695
1425411826.174,-4.9975204
1425411826.19,-4.822998
1425411826.206,-5.567436
1425411826.221,-6.766075
1425411826.237,-7.6819
1425411826.253,-7.649452
1425411826.268,-6.4660034
1425411826.284,-4.381897
1425411826.299,-2.013588
1425411826.315,0.14175415
1425411826.331,1.9644852
1425411826.346,3.8081818
1425411826.362,6.2385483
1425411826.378,9.692673
1425411826.393,14.113312
1425411826.409,18.92617
1425411826.424,23.269966
1425411826.44,26.287613
1425411826.456,27.4469
1425411826.471,26.686562
1425411826.487,24.339287
1425411826.503,20.988754
1425411826.518,17.213882
1425411826.534,13.473824
1425411826.549,9.983437
1425411826.565,6.853409
1425411826.581,4.167061
1425411826.596,2.1194534
1425411826.612,0.9767456
1425411826.628,0.9754715
1425411826.643,2.0960846
1425411826.659,4.013954
1425411826.674,6.10614
1425411826.69,7.6945724
1425411826.706,8.274635
1425411826.721,7.717392
1425411826.737,6.23407
1425411826.753,4.2800827
1425411826.768,2.2897873
1425411826.784,0.5979309
1425411826.799,-0.70155334
1425411826.815,-1.7029114
1425411826.831,-2.59552
1425411826.846,-3.5308075
1425411826.862,-4.5613785
1425411826.878,-5.6246796
1425411826.893,-6.599125
1425411826.909,-7.3986435
1425411826.924,-8.025154
1425411826.94,-8.503525
1425411826.956,-8.858025
1425411826.971,-9.023705
1425411826.987,-8.901791
1425411827.003,-8.454491
1425411827.018,-7.7677193
1425411827.034,-6.991436
1425411827.049,-6.228874
1425411827.065,-5.414177
1425411827.081,-4.358433
1425411827.096,-2.8613434
1425411827.112,-0.9286537
1425411827.128,1.2498474
1425411827.143,3.3533592
1425411827.159,5.150055
1425411827.174,6.6185417
1425411827.19,7.879692
1425411827.206,9.0480995
1425411827.221,10.097134
1425411827.237,10.823067
1425411827.253,11.060852
1425411827.268,10.732792
1425411827.284,10.041946
1425411827.299,9.329258
1425411827.315,9.028881
1425411827.331,9.434399
1425411827.346,10.662624
1425411827.362,12.514259
1425411827.378,14.547829
1425411827.393,16.12291
1425411827.409,16.58921
1425411827.424,15.517418
1425411827.44,12.888134
1425411827.456,9.146587
1425411827.471,5.0507813
1425411827.487,1.3524017
1425411827.503,-1.4347
1425411827.518,-3.2425385
1425411827.534,-4.3575897
1425411827.549,-5.231682
1425411827.565,-6.1910706
1425411827.581,-7.374611
1425411827.596,-8.64772
1425411827.612,-9.809555
1425411827.628,-10.6377945
1425411827.643,-11.051712
1425411827.659,-11.059021
1425411827.674,-10.759666
1425411827.69,-10.277069
1425411827.706,-9.711433
1425411827.721,-9.153343
1425411827.737,-8.646744
1425411827.753,-8.1530075
1425411827.768,-7.639801
1425411827.784,-7.057678
1425411827.8,-6.453148
1425411827.815,-5.957962
1425411827.831,-5.7264175
1425411827.846,-5.8333206
1425411827.862,-6.236847
1425411827.878,-6.7604218
1425411827.893,-7.2151794
1425411827.909,-7.5233154
1425411827.924,-7.7504196
1425411827.94,-8.048363
1425411827.956,-8.481812
1425411827.971,-8.934692
1425411827.987,-9.178902
1425411828.003,-8.98381
1425411828.018,-8.355064
1425411828.034,-7.457382
1425411828.05,-6.5460052
1425411828.065,-5.7161636
1425411828.081,-4.8226852
1425411828.096,-3.57193
1425411828.112,-1.7548599
1425411828.128,0.6231003
1425411828.143,3.3165817
1425411828.159,6.059944
1425411828.175,8.731216
1425411828.19,11.534218
1425411828.206,14.800751
1425411828.221,18.770294
1425411828.237,23.301872
1425411828.253,27.805717
1425411828.268,31.390778
1425411828.284,33.217384
1425411828.3,32.829735
1425411828.315,30.343674
1425411828.331,26.364563
1425411828.346,21.751884
1425411828.362,17.249054
1425411828.378,13.298386
1425411828.393,9.956345
1425411828.409,7.0442734
1425411828.425,4.3855133
1425411828.44,1.9941254
1425411828.456,0.10790253
1425411828.471,-0.90748596
1425411828.487,-0.8571701
1425411828.503,0.08667755
1425411828.518,1.3172913
1425411828.534,1.9452515
1425411828.55,1.1074982
1425411828.565,-1.6347351
1425411828.581,-6.115822
1425411828.596,-11.539658
1425411828.612,-16.779358
1425411828.628,-20.723358
1425411828.643,-22.700813
1425411828.659,-22.653183
1425411828.675,-21.13559
1425411828.69,-19.01838
1425411828.706,-17.161537
1425411828.721,-16.07109
1425411828.737,-15.769569
1425411828.753,-15.890251
1425411828.768,-15.970222
1425411828.784,-15.710075
1425411828.8,-15.096634
1425411828.815,-14.316071
1425411828.831,-13.590019
1425411828.846,-12.949173
1425411828.862,-12.257774
1425411828.878,-11.302788
1425411828.893,-10.03373
1425411828.909,-8.576225
1425411828.925,-7.155075
1425411828.94,-5.887947
1425411828.956,-4.6604004
1425411828.971,-3.125122
1425411828.987,-0.9204712
1425411829.003,2.0927048
1425411829.018,5.710251
1425411829.034,9.466339
1425411829.05,12.83577
1425411829.065,15.491043
1425411829.081,17.445381
1425411829.096,19.03225
1425411829.112,20.729965
1425411829.128,22.969627
1425411829.143,25.946007
1425411829.159,29.476631
1425411829.175,33.03582
1425411829.19,35.885323
1425411829.206,37.243988
1425411829.221,36.621246
1425411829.237,33.96485
1425411829.253,29.762245
1425411829.268,24.905869
1425411829.284,20.359459
1425411829.3,16.866005
1425411829.315,14.667725
1425411829.331,13.450401
1425411829.346,12.470757
1425411829.362,10.879257
1425411829.378,8.061691
1425411829.393,3.8170319
1425411829.409,-1.5171967
1425411829.425,-7.241829
1425411829.44,-12.493538
1425411829.456,-16.630676
1425411829.471,-19.35949
1425411829.487,-20.851082
1425411829.503,-21.561272
1425411829.518,-22.046478
1425411829.534,-22.667618
1425411829.55,-23.509026
1425411829.565,-24.458183
1425411829.581,-25.400124
1425411829.596,-26.313019
1425411829.612,-27.367851
1425411829.628,-28.754288
1425411829.643,-30.616898
1425411829.659,-32.91069
1425411829.675,-35.499107
1425411829.69,-38.13894
1425411829.706,-40.62246
1425411829.721,-42.766365
1425411829.737,-44.478226
1425411829.753,-45.695374
1425411829.768,-46.473305
1425411829.784,-46.92238
1425411829.8,-47.20147
1425411829.815,-47.346786
1425411829.831,-47.2353
1425411829.846,-46.59346
1425411829.862,-45.209976
1425411829.878,-43.11357
1425411829.893,-40.677628
1425411829.909,-38.456223
1425411829.925,-36.841057
1425411829.94,-35.803787
1425411829.956,-34.885864
1425411829.971,-33.445522
1425411829.987,-30.96431
1425411830.003,-27.148098
1425411830.018,-21.824963
1425411830.034,-14.53989
1425411830.05,-4.3877144
1425411830.065,9.793327
1425411830.081,28.721912
1425411830.096,51.831493
1425411830.112,76.78677
1425411830.128,99.876755
1425411830.143,117.283066
1425411830.159,126.70322
1425411830.175,128.40073
1425411830.19,125.128845
1425411830.206,120.79053
1425411830.221,118.61818
1425411830.237,119.83018
1425411830.253,123.525314
1425411830.268,127.718765
1425411830.284,130.88962
1425411830.3,132.76959
1425411830.315,133.99043
1425411830.331,134.85478
1425411830.346,134.22276
1425411830.362,129.48958
1425411830.378,117.931335
1425411830.393,98.30778
1425411830.409,71.97653
1425411830.425,42.457573
1425411830.44,13.833412
1425411830.456,-11.1026
1425411830.471,-31.77958
1425411830.487,-49.434036
1425411830.503,-65.67987
1425411830.518,-81.10043
1425411830.534,-94.73772
1425411830.55,-104.72471
1425411830.565,-109.51242
1425411830.581,-108.93068
1425411830.596,-104.38226
1425411830.612,-98.1205
1425411830.628,-92.111946
1425411830.643,-87.272675
1425411830.659,-83.31806
1425411830.675,-79.35111
1425411830.69,-74.58989
1425411830.706,-68.92671
1425411830.722,-62.876587
1425411830.737,-57.1756
1425411830.753,-52.20954
1425411830.768,-47.736465
1425411830.784,-42.94545
1425411830.8,-36.928177
1425411830.815,-29.17012
1425411830.831,-19.868729
1425411830.847,-9.92157
1425411830.862,-0.62898254
1425411830.878,6.8591003
1425411830.893,11.881805
1425411830.909,14.482117
1425411830.925,15.265244
1425411830.94,15.043884
1425411830.956,14.430511
1425411830.972,13.659271
1425411830.987,12.563171
1425411831.003,10.907822
1425411831.018,8.679535
1425411831.034,6.189987
1425411831.05,3.947754
1425411831.065,2.316162
1425411831.081,1.2779541
1425411831.097,0.41275024
1425411831.112,-0.8883667
1425411831.128,-3.0258179
1425411831.143,-6.0163574
1425411831.159,-9.399048
1425411831.175,-12.516281
1425411831.19,-14.806656
1425411831.206,-16.078766
1425411831.222,-16.5988
1425411831.237,-16.929077
1425411831.253,-17.632568
1425411831.268,-19.022797
1425411831.284,-20.967926
1425411831.3,-22.97702
1425411831.315,-24.460022
1425411831.331,-25.030396
1425411831.347,-24.684433
1425411831.362,-23.8441
1425411831.378,-23.042374
1425411831.393,-22.661545
1425411831.409,-22.62886
1425411831.425,-22.476776
1425411831.44,-21.561554
1425411831.456,-19.44783
1425411831.472,-16.043427
1425411831.487,-11.667206
1425411831.503,-6.7631683
1425411831.518,-1.7831268
1425411831.534,2.968811
1425411831.55,7.2831573
1425411831.565,11.034348
1425411831.581,14.155754
1425411831.597,16.714828
1425411831.612,18.921005
1425411831.628,21.164574
1425411831.643,23.80297
1425411831.659,27.006668
1425411831.675,30.620178
1425411831.69,34.177444
1425411831.706,37.079384
1425411831.722,38.778275
1425411831.737,38.972054
1425411831.753,37.666626
1425411831.768,35.114525
1425411831.784,31.696877
1425411831.8,27.78392
1425411831.815,23.677567
1425411831.831,19.541916
1425411831.847,15.493858
1425411831.862,11.649857
1425411831.878,8.208305
1425411831.893,5.4221725
1425411831.909,3.520134
1425411831.925,2.5935974
1425411831.94,2.474205
1425411831.956,2.7070313
1425411831.972,2.7171555
1425411831.987,1.9530258
1425411832.003,0.17630005
1425411832.018,-2.4579544
1425411832.034,-5.436722
1425411832.05,-8.128586
1425411832.065,-10.079086
1425411832.081,-11.232193
1425411832.097,-11.947884
1425411832.112,-12.815804
1425411832.128,-14.293549
1425411832.143,-16.436722
1425411832.159,-18.820686
1425411832.175,-20.731537
1425411832.19,-21.507019
1425411832.206,-20.856873
1425411832.222,-19.035294
1425411832.237,-16.695091
1425411832.253,-14.5774
1425411832.268,-13.195389
1425411832.284,-12.584953
1425411832.3,-12.395195
1425411832.315,-12.119942
1425411832.331,-11.409409
1425411832.347,-10.25071
1425411832.362,-8.922264
1425411832.378,-7.7381973
1425411832.393,-6.852379
1425411832.409,-6.086029
1425411832.425,-5.033531
1425411832.44,-3.2669373
1425411832.456,-0.5809021
1425411832.472,2.9929733
1425411832.487,7.1957855
1425411832.503,11.709671
1425411832.518,16.182373
1425411832.534,20.200356
1425411832.55,23.271194
1425411832.565,24.908768
1425411832.581,24.778336
1425411832.597,22.869102
1425411832.612,19.499718
1425411832.628,15.174438
1425411832.643,10.357346
1425411832.659,5.419441
1425411832.675,0.6271744
1425411832.69,-3.6897812
1425411832.706,-7.0856705
1425411832.722,-9.138359
1425411832.737,-9.696724
1425411832.753,-9.059807
1425411832.768,-7.976486
1425411832.784,-7.307274
1425411832.8,-7.602051
1425411832.815,-8.840446
1425411832.831,-10.515297
1425411832.847,-11.926971
1425411832.862,-12.645554
1425411832.878,-12.639076
1425411832.893,-12.255936
1425411832.909,-11.884003
1425411832.925,-11.765648
1425411832.94,-11.852539
1425411832.956,-11.9566345
1425411832.972,-11.89798
1425411832.987,-11.679977
1425411833.003,-11.405983
1425411833.018,-11.226814
1425411833.034,-11.177086
1425411833.05,-11.153191
1425411833.065,-10.973816
1425411833.081,-10.500862
1425411833.097,-9.737465
1425411833.112,-8.830933
1425411833.128,-7.9088287
1425411833.143,-6.99765
1425411833.159,-5.9234924
1425411833.175,-4.459923
1425411833.19,-2.4616623
1425411833.206,-0.09022522
1425411833.222,2.2445068
1425411833.237,4.0450516
1425411833.253,5.0456467
1425411833.268,5.389717
1425411833.284,5.6725845
1425411833.3,6.614563
1425411833.315,8.76268
1425411833.331,12.145409
1425411833.347,16.266571
1425411833.362,20.267387
1425411833.378,23.240265
1425411833.394,24.500874
1425411833.409,23.805328
1425411833.425,21.35735
1425411833.44,17.727703
1425411833.456,13.694744
1425411833.472,10.057541
1425411833.487,7.3911285
1425411833.503,5.903103
1425411833.519,5.37698
1425411833.534,5.365574
1425411833.55,5.394539
1425411833.565,5.2224197
1425411833.581,4.8506165
1425411833.597,4.4498177
1425411833.612,4.1021194
1425411833.628,3.7378502
1425411833.644,3.0836334
1425411833.659,1.9168053
1425411833.675,0.17189026
1425411833.69,-1.961441
1425411833.706,-4.109009
1425411833.722,-5.9350967
1425411833.737,-7.2709427
1425411833.753,-8.123024
1425411833.769,-8.626072
1425411833.784,-8.8447
1425411833.8,-8.743248
1425411833.815,-8.183334
1425411833.831,-7.1197243
1425411833.847,-5.602459
1425411833.862,-3.833126
1425411833.878,-2.0086746
1425411833.894,-0.25486374
1425411833.909,1.3808556
1425411833.925,2.8982582
1425411833.94,4.2201157
1425411833.956,5.155388
1425411833.972,5.5582466
1425411833.987,5.4098854
1425411834.003,4.9641113
1425411834.019,4.6311874
1425411834.034,4.7259216
1425411834.05,5.2655525
1425411834.065,5.9095764
1425411834.081,6.1458855
1425411834.097,5.682419
1425411834.112,4.6802597
1425411834.128,3.7748222
1425411834.144,3.6825676
1425411834.159,4.8274994
1425411834.175,6.97538
1425411834.19,9.289143
1425411834.206,10.706718
1425411834.222,10.410645
1425411834.237,8.18989
1425411834.253,4.522709
1425411834.269,0.2717266
1425411834.284,-3.6671867
1425411834.3,-6.733927
1425411834.315,-8.774015
1425411834.331,-9.959242
1425411834.347,-10.54307
1425411834.362,-10.767628
1425411834.378,-10.72739
1425411834.394,-10.480242
1425411834.409,-10.101618
1425411834.425,-9.717339
1425411834.44,-9.47629
1425411834.456,-9.488302
1425411834.472,-9.710777
1425411834.487,-9.967894
1425411834.503,-9.973511
1425411834.519,-9.514709
1425411834.534,-8.581795
1425411834.55,-7.450588
1425411834.565,-6.542864
1425411834.581,-6.2301006
1425411834.597,-6.5660915
1425411834.612,-7.2565727
1425411834.628,-7.7602577
1425411834.644,-7.6843863
1425411834.659,-6.961007
1425411834.675,-5.9316883
1425411834.69,-5.086361
1425411834.706,-4.729987
1425411834.722,-4.7322454
1425411834.737,-4.6509914
1425411834.753,-4.0062294
1425411834.769,-2.6257439
1425411834.784,-0.75804806
1425411834.8,1.0893092
1425411834.815,2.5201159
1425411834.831,3.4527545
1425411834.847,4.193209
1425411834.862,5.1576586
1425411834.878,6.691564
1425411834.894,8.796049
1425411834.909,11.278313
1425411834.925,13.854795
1425411834.94,16.318214
1425411834.956,18.589691
1425411834.972,20.636475
1425411834.987,22.417877
1425411835.003,23.847588
1425411835.019,24.793678
1425411835.034,25.150127
1425411835.05,24.83488
1425411835.065,23.778952
1425411835.081,21.93772
1425411835.097,19.34587
1425411835.112,16.137802
1425411835.128,12.539876
1425411835.144,8.808494
1425411835.159,5.166007
1425411835.175,1.665328
1425411835.19,-1.7234917
1425411835.206,-5.076268
1425411835.222,-8.314967
1425411835.237,-11.197516
1425411835.253,-13.317549
1425411835.269,-14.416174
1425411835.284,-14.490813
1425411835.3,-13.961582
1425411835.315,-13.453539
1425411835.331,-13.534412
1425411835.347,-14.402898
1425411835.362,-15.831795
1425411835.378,-17.257664
1425411835.394,-18.128117
1425411835.409,-18.154732
1425411835.425,-17.461151
1425411835.44,-16.40321
1425411835.456,-15.339142
1425411835.472,-14.365711
1425411835.487,-13.291731
1425411835.503,-11.837936
1425411835.519,-9.909094
1425411835.534,-7.663313
1425411835.55,-5.512535
1425411835.565,-3.78088
1425411835.581,-2.5895119
1425411835.597,-1.7627163
1425411835.612,-0.98802185
1425411835.628,0.011932373
1425411835.644,1.3236542
1425411835.659,2.8822422
1425411835.675,4.471304
1425411835.69,5.899225
1425411835.706,7.035574
1425411835.722,7.8179474
1425411835.737,8.245768
1425411835.753,8.402088
1425411835.769,8.452044
1425411835.784,8.662731
1425411835.8,9.32122
1425411835.815,10.70298
1425411835.831,12.892872
1425411835.847,15.804947
1425411835.862,19.151314
1425411835.878,22.49878
1425411835.894,25.30091
1425411835.909,27.045788
1425411835.925,27.273235
1425411835.94,25.803528
1425411835.956,22.833874
1425411835.972,18.938133
1425411835.987,14.919655
1425411836.003,11.528954
1425411836.019,9.148655
1425411836.034,7.73423
1425411836.05,6.879467
1425411836.066,6.127289
1425411836.081,5.1759415
1425411836.097,4.07605
1425411836.112,3.0320015
1425411836.128,2.2589836
1425411836.144,1.7270126
1425411836.159,1.1977997
1425411836.175,0.3181305
1425411836.191,-1.1658325
1425411836.206,-3.284504
1425411836.222,-5.8492775
1425411836.237,-8.600922
1425411836.253,-11.31617
1425411836.269,-13.828926
1425411836.284,-15.989941
1425411836.3,-17.672863
1425411836.316,-18.738731
1425411836.331,-19.186043
1425411836.347,-19.133106
1425411836.362,-18.818916
1425411836.378,-18.422306
1425411836.394,-17.980186
1425411836.409,-17.330212
1425411836.425,-16.24823
1425411836.441,-14.6804695
1425411836.456,-12.792248
1425411836.472,-10.9194145
1425411836.487,-9.418289
1425411836.503,-8.431911
1425411836.519,-7.8759117
1425411836.534,-7.496422
1425411836.55,-7.0445404
1425411836.566,-6.347599
1425411836.581,-5.384403
1425411836.597,-4.1337357
1425411836.612,-2.5950737
1425411836.628,-0.78432083
1425411836.644,1.1949425
1425411836.659,3.192318
1425411836.675,5.1117516
1425411836.691,7.0619354
1425411836.706,9.390919
1425411836.722,12.538235
1425411836.737,16.767647
1425411836.753,21.962803
1425411836.769,27.46988
1425411836.784,32.32507
1425411836.8,35.55277
1425411836.816,36.506237
1425411836.831,35.052715
1425411836.847,31.618168
1425411836.862,27.003395
1425411836.878,22.150848
1425411836.894,17.813213
1425411836.909,14.395836
1425411836.925,11.913986
1425411836.941,10.125626
1425411836.956,8.744751
1425411836.972,7.669964
1425411836.987,6.973488
1425411837.003,6.8056335
1425411837.019,7.141247
1425411837.034,7.673706
1425411837.05,7.853012
1425411837.066,7.1481056
1425411837.081,5.3112183
1425411837.097,2.5494308
1425411837.112,-0.5713577
1425411837.128,-3.3367767
1425411837.144,-5.201664
1425411837.159,-5.94709
1425411837.175,-5.7092667
1425411837.191,-4.815117
1425411837.206,-3.6227264
1425411837.222,-2.4295998
1425411837.237,-1.4948387
1425411837.253,-0.98666
1425411837.269,-1.0938644
1425411837.284,-1.9342575
1425411837.3,-3.5010357
1425411837.316,-5.6347103
1425411837.331,-8.023191
1425411837.347,-10.267441
1425411837.362,-12.029781
1425411837.378,-13.112766
1425411837.394,-13.499201
1425411837.409,-13.326218
1425411837.425,-12.808928
1425411837.441,-12.092791
1425411837.456,-11.235653
1425411837.472,-10.205847
1425411837.487,-8.933678
1425411837.503,-7.3534813
1425411837.519,-5.416437
1425411837.534,-3.0459824
1425411837.55,-0.1389885
1425411837.566,3.4266777
1425411837.581,7.5804176
1425411837.597,11.955215
1425411837.612,15.856357
1425411837.628,18.39154
1425411837.644,18.913273
1425411837.659,17.379349
1425411837.675,14.451972
1425411837.691,11.362956
1425411837.706,9.298796
1425411837.722,8.914232
1425411837.737,10.12394
1425411837.753,12.300398
1425411837.769,14.727222
1425411837.784,16.912996
1425411837.8,18.452316
1425411837.816,18.72583
1425411837.831,16.753056
1425411837.847,11.542543
1425411837.862,2.7222075
1425411837.878,-8.879383
1425411837.894,-21.303036
1425411837.909,-32.230976
1425411837.925,-40.093906
1425411837.941,-44.780422
1425411837.956,-47.489735
1425411837.972,-49.76592
1425411837.987,-52.413033
1425411838.003,-54.912075
1425411838.019,-55.809593
1425411838.034,-53.72666
1425411838.05,-48.360886
1425411838.066,-40.636337
1425411838.081,-32.30123
1425411838.097,-24.932268
1425411838.112,-19.24847
1425411838.128,-15.020592
1425411838.144,-11.5058975
1425411838.159,-8.046669
1425411838.175,-4.5163665
1425411838.191,-1.2852819
1425411838.206,1.0873177
1425411838.222,2.337874
1425411838.237,2.7773929
1425411838.253,3.2062578
1425411838.269,4.517123
1425411838.284,7.3020573
1425411838.3,11.491782
1425411838.316,16.409374
1425411838.331,21.099762
1425411838.347,24.78445
1425411838.362,27.149578
1425411838.378,28.385872
1425411838.394,28.94608
1425411838.409,29.203201
1425411838.425,29.176193
1425411838.441,28.651815
1425411838.456,27.33041
1425411838.472,25.182186
1425411838.487,22.468079
1425411838.503,19.642292
1425411838.519,17.036596
1425411838.534,14.712293
1425411838.55,12.4503975
1425411838.566,10.006802
1425411838.581,7.347275
1425411838.597,4.684992
1425411838.612,2.3554688
1425411838.628,0.63327026
1425411838.644,-0.46138
1425411838.659,-1.0788956
1425411838.675,-1.4538097
1425411838.691,-1.6918716
1425411838.706,-1.8519211
1425411838.722,-1.973505
1425411838.738,-2.243637
1425411838.753,-2.890829
1425411838.769,-4.0690804
1425411838.784,-5.648134
1425411838.8,-7.2204723
1425411838.816,-8.294228
1425411838.831,-8.543196
1425411838.847,-8.001898
1425411838.862,-7.007406
1425411838.878,-5.9848156
1425411838.894,-5.2123528
1425411838.909,-4.6958866
1425411838.925,-4.323597
1425411838.941,-3.9335327
1425411838.956,-3.529335
1425411838.972,-3.214859
1425411838.988,-3.1232328
1425411839.003,-3.2550964
1425411839.019,-3.4978647
1425411839.034,-3.617076
1425411839.05,-3.3747654
1425411839.066,-2.5541592
1425411839.081,-0.97654057
1425411839.097,1.5256157
1425411839.113,5.023121
1425411839.128,9.374533
1425411839.144,14.139574
1425411839.159,18.57745
1425411839.175,21.836079
1425411839.191,23.318401
1425411839.206,22.885857
1425411839.222,20.93394
1425411839.238,18.162489
1425411839.253,15.254574
1425411839.269,12.523493
1425411839.284,9.91325
1425411839.3,7.108365
1425411839.316,3.919282
1425411839.331,0.42682934
1425411839.347,-2.9635925
1425411839.363,-5.8048563
1425411839.378,-7.809745
1425411839.394,-9.001605
1425411839.409,-9.55591
1425411839.425,-9.634576
1425411839.441,-9.222592
1425411839.456,-8.212798
1425411839.472,-6.6190753
1425411839.488,-4.784782
1425411839.503,-3.3271365
1425411839.519,-2.9548392
1425411839.534,-4.0572186
1425411839.55,-6.4635324
1425411839.566,-9.449106
1425411839.581,-12.072949
1425411839.597,-13.588991
1425411839.613,-13.824731
1425411839.628,-13.153671
1425411839.644,-12.255295
1425411839.659,-11.651388
1425411839.675,-11.516088
1425411839.691,-11.63492
1425411839.706,-11.726744
1425411839.722,-11.705746
1425411839.738,-11.768189
1425411839.753,-12.181211
1425411839.769,-13.007425
1425411839.784,-13.854091
1425411839.8,-14.023506
1425411839.816,-12.896692
1425411839.831,-10.334084
1425411839.847,-6.8768425
1425411839.863,-3.5291827
1425411839.878,-1.1608431
1425411839.894,-0.010413408
1425411839.909,0.56162715
1425411839.925,1.7153127
1425411839.941,4.634509
1425411839.956,9.836656
1425411839.972,17.022951
1425411839.988,25.152555
1425411840.003,32.962406
1425411840.019,39.361923
1425411840.034,43.738186
1425411840.05,45.91148
1425411840.066,46.00033
1425411840.081,44.19905
1425411840.097,40.72502
1425411840.113,35.79445
1425411840.128,29.70489
1425411840.144,22.864082
1425411840.159,15.824746
1425411840.175,9.187821
1425411840.191,3.593513
1425411840.206,-0.5313864
1425411840.222,-3.0526729
1425411840.238,-4.285912
1425411840.253,-4.915595
1425411840.269,-5.75049
1425411840.284,-7.355118
1425411840.3,-9.79635
1425411840.316,-12.573649
1425411840.331,-14.894713
1425411840.347,-16.092518
1425411840.363,-16.062403
1425411840.378,-15.299544
1425411840.394,-14.634975
1425411840.409,-14.729456
1425411840.425,-15.697937
1425411840.441,-17.016182
1425411840.456,-17.951576
1425411840.472,-18.009413
1425411840.488,-17.338907
1425411840.503,-16.612617
1425411840.519,-16.654982
1425411840.534,-17.871367
1425411840.55,-19.981329
1425411840.566,-22.086605
1425411840.581,-23.179653
1425411840.597,-22.613823
1425411840.613,-20.414026
1425411840.628,-17.14891
1425411840.644,-13.550327
1425411840.659,-10.081255
1425411840.675,-6.8413124
1425411840.691,-3.6247406
1425411840.706,-0.2775421
1425411840.722,3.112135
1425411840.738,6.233389
1425411840.753,8.675129
1425411840.769,10.143208
1425411840.784,10.613235
1425411840.8,10.236231
1425411840.816,9.226185
1425411840.831,7.742014
1425411840.847,5.8327065
1425411840.863,3.4488316
1425411840.878,0.6234379
1425411840.894,-2.5456448
1425411840.909,-5.7149677
1425411840.925,-8.419834
1425411840.941,-10.10486
1425411840.956,-10.350731
1425411840.972,-9.015266
1425411840.988,-6.3881683
1425411841.003,-3.1185665
1425411841.019,0.0042648315
1425411841.034,2.2886353
1425411841.05,3.411106
1425411841.066,3.4225178
1425411841.081,2.633833
1425411841.097,1.4437466
1425411841.113,0.16373444
1425411841.128,-0.9978466
1425411841.144,-1.9638901
1425411841.159,-2.6837254
1425411841.175,-3.245388
1425411841.191,-3.7939453
1425411841.206,-4.525671
1425411841.222,-5.5742264
1425411841.238,-6.847192
1425411841.253,-8.028673
1425411841.269,-8.730766
1425411841.284,-8.685774
1425411841.3,-7.9187593
1425411841.316,-6.7426596
1425411841.331,-5.5714073
1425411841.347,-4.6385107
1425411841.363,-3.9533415
1425411841.378,-3.2886171
1425411841.394,-2.4798536
1425411841.409,-1.5056648
1425411841.425,-0.5680456
1425411841.441,0.18416548
1425411841.456,0.8297272
1425411841.472,1.8000145
1425411841.488,3.6826186
1425411841.503,6.876735
1425411841.519,11.300108
1425411841.534,16.362276
1425411841.55,21.181206
1425411841.566,24.955385
1425411841.581,27.163845
1425411841.597,27.678577
1425411841.613,26.620483
1425411841.628,24.23772
1425411841.644,20.840357
1425411841.66,16.808334
1425411841.675,12.576986
1425411841.691,8.605051
1425411841.706,5.192673
1425411841.722,2.4332554
1425411841.738,0.18531036
1425411841.753,-1.7501941
1425411841.769,-3.4781237
1425411841.785,-4.951028
1425411841.8,-6.0044923
1425411841.816,-6.521089
1425411841.831,-6.5676136
1425411841.847,-6.369629
1425411841.863,-6.248253
1425411841.878,-6.44754
1425411841.894,-7.058137
1425411841.91,-7.958873
1425411841.925,-8.893821
1425411841.941,-9.589697
1425411841.956,-9.910366
1425411841.972,-9.909697
1425411841.988,-9.8345
1425411842.003,-9.929014
1425411842.019,-10.356741
1425411842.035,-11.05448
1425411842.05,-11.789371
1425411842.066,-12.288
1425411842.081,-12.412941
1425411842.097,-12.231924
1425411842.113,-11.975417
1425411842.128,-11.822968
1425411842.144,-11.788119
1425411842.16,-11.668205
1425411842.175,-11.192436
1425411842.191,-10.199913
1425411842.206,-8.822059
1425411842.222,-7.4013476
1425411842.238,-6.3332996
1425411842.253,-5.8130045
1425411842.269,-5.6826444
1425411842.285,-5.4711885
1425411842.3,-4.568976
1425411842.316,-2.5056834
1425411842.331,0.863307
1425411842.347,5.3277893
1425411842.363,10.415428
1425411842.378,15.615516
1425411842.394,20.425802
1425411842.41,24.414845
1425411842.425,27.163445
1425411842.441,28.309637
1425411842.456,27.65831
1425411842.472,25.374525
1425411842.488,21.95316
1425411842.503,18.11252
1425411842.519,14.491798
1425411842.535,11.44502
1425411842.55,8.939903
1425411842.566,6.7687798
1425411842.581,4.7008677
1425411842.597,2.686677
1425411842.613,0.8207207
1425411842.628,-0.8059387
1425411842.644,-2.2666159
1425411842.66,-3.7322588
1425411842.675,-5.428338
1425411842.691,-7.387333
1425411842.706,-9.440056
1425411842.722,-11.267028
1425411842.738,-12.608124
1425411842.753,-13.373829
1425411842.769,-13.707241
1425411842.785,-13.830166
1425411842.8,-13.916826
1425411842.816,-13.9568
1425411842.831,-13.786688
1425411842.847,-13.157158
1425411842.863,-11.972645
1425411842.878,-10.356714
1425411842.894,-8.676222
1425411842.91,-7.3255577
1425411842.925,-6.554802
1425411842.941,-6.3148518
1425411842.956,-6.3279476
1425411842.972,-6.218054
1425411842.988,-5.7738686
1425411843.003,-5.0197697
1425411843.019,-4.196846
1425411843.035,-3.5532646
1425411843.05,-3.2162914
1425411843.066,-3.065981
1425411843.081,-2.8815002
1425411843.097,-2.4217339
1425411843.113,-1.583189
1425411843.128,-0.36413383
1425411843.144,1.1758099
1425411843.16,3.1376266
1425411843.175,5.7078896
1425411843.191,9.133043
1425411843.206,13.47489
1425411843.222,18.481085
1425411843.238,23.470423
1425411843.253,27.558952
1425411843.269,29.916552
1425411843.285,30.105188
1425411843.3,28.270851
1425411843.316,25.028868
1425411843.331,21.227446
1425411843.347,17.616356
1425411843.363,14.588459
1425411843.378,12.19529
1425411843.394,10.272255
1425411843.41,8.701538
1425411843.425,7.4967976
1425411843.441,6.8275986
1425411843.456,6.805994
1425411843.472,7.41601
1425411843.488,8.355946
1425411843.503,9.215218
1425411843.519,9.53685
1425411843.535,9.157055
1425411843.55,8.25897
1425411843.566,7.31065
1425411843.581,6.845236
1425411843.597,7.220764
1425411843.613,8.430429
1425411843.628,10.137656
1425411843.644,11.860084
1425411843.66,13.1055565
1425411843.675,13.826098
1425411843.691,14.40193
1425411843.706,15.425395
1425411843.722,17.433464
1425411843.738,20.599201
1425411843.753,24.694313
1425411843.769,29.208529
1425411843.785,33.68982
1425411843.8,37.525932
1425411843.816,40.721485
1425411843.831,43.62132
1425411843.847,46.754944
1425411843.863,50.61605
1425411843.878,55.50267
1425411843.894,61.379745
1425411843.91,67.936226
1425411843.925,74.8941
1425411843.941,81.545105
1425411843.956,87.89501
1425411843.972,94.379036
1425411843.988,101.702354
1425411844.003,110.66058
1425411844.019,121.892334
1425411844.035,135.7867
1425411844.05,152.40979
1425411844.066,171.63423
1425411844.081,192.01189
1425411844.097,211.984
1425411844.113,229.50542
1425411844.128,242.51122
1425411844.144,249.54768
1425411844.16,250.25125
1425411844.175,245.31969
1425411844.191,234.61266
1425411844.206,222.81018
1425411844.222,209.69089
1425411844.238,194.92712
1425411844.253,178.00693
1425411844.269,158.71762
1425411844.285,137.33344
1425411844.3,114.21765
1425411844.316,89.26282
1425411844.332,61.585327
1425411844.347,29.930634
1425411844.363,-7.514282
1425411844.378,-51.041718
1425411844.394,-99.466675
1425411844.41,-150.55841
1425411844.425,-201.69278
1425411844.441,-250.95169
1425411844.457,-297.7442
1425411844.472,-342.80823
1425411844.488,-387.11276
1425411844.503,-432.9235
1425411844.519,-482.68604
1425411844.535,-538.4629
1425411844.55,-600.48114
1425411844.566,-665.89636
1425411844.582,-728.4105
1425411844.597,-779.17163
1425411844.613,-809.14526
1425411844.628,-811.6011
1425411844.644,-785.7229
1425411844.66,-736.6554
1425411844.675,-673.41235
1425411844.691,-605.2161
1425411844.707,-538.568
1425411844.722,-476.33575
1425411844.738,-418.7376
1425411844.753,-365.21173
1425411844.769,-314.44684
1425411844.785,-266.7324
1425411844.8,-223.58392
1425411844.816,-186.12082
1425411844.832,-153.72574
1425411844.847,-124.54755
1425411844.863,-96.91159
1425411844.878,-70.327774
1425411844.894,-45.503296
1425411844.91,-20.145706
1425411844.925,6.5740967
1425411844.941,32.783035
1425411844.957,55.9668
1425411844.972,75.60402
1425411844.988,92.79078
1425411845.003,108.60171
1425411845.019,123.219986
1425411845.035,135.97163
1425411845.05,153.59503
1425411845.066,179.7593
1425411845.082,211.25542
1425411845.097,241.97827
1425411845.113,268.6546
1425411845.128,291.0561
1425411845.144,309.67258
1425411845.16,324.44733
1425411845.175,334.8313
1425411845.191,352.4773
1425411845.207,383.96732
1425411845.222,424.33002
1425411845.238,463.25705
1425411845.253,494.6204
1425411845.269,517.31134
1425411845.285,532.1481
1425411845.3,540.3169
1425411845.316,543.1012
1425411845.332,558.13293
1425411845.347,596.2744
1425411845.363,652.6561
1425411845.378,714.7447
1425411845.394,775.23145
1425411845.41,833.8832
1425411845.425,893.5527
1425411845.441,956.71014
1425411845.457,924.29706
1425411845.472,758.4555
1425411845.488,511.74985
1425411845.503,266.26825
1425411845.519,62.881744
1425411845.535,-94.11041
1425411845.55,-211.06259
1425411845.566,-294.43198
1425411845.582,-350.6729
1425411845.597,-387.56253
1425411845.613,-397.93488
1425411845.628,-380.74887
1425411845.644,-347.7176
1425411845.66,-314.60214
1425411845.675,-289.67746
1425411845.691,-273.9866
1425411845.707,-266.48782
1425411845.722,-266.58167
1425411845.738,-273.91876
1425411845.753,-275.26288
1425411845.769,-262.04605
1425411845.785,-237.46184
1425411845.8,-210.7104
1425411845.816,-187.9823
1425411845.832,-171.36427
1425411845.847,-161.36662
1425411845.863,-158.21887
1425411845.878,-161.62605
1425411845.894,-162.69128
1425411845.91,-155.17622
1425411845.925,-140.1581
1425411845.941,-122.878296
1425411845.957,-107.12627
1425411845.972,-94.58231
1425411845.988,-86.26609
1425411846.003,-82.97637
1425411846.019,-84.85
1425411846.035,-87.189285
1425411846.05,-86.03809
1425411846.066,-80.89452
1425411846.082,-73.52232
1425411846.097,-65.520676
1425411846.113,-58.022858
1425411846.128,-52.157677
1425411846.144,-49.042118
1425411846.16,-49.53399
1425411846.175,-52.753494
1425411846.191,-57.740616
1425411846.207,-63.698563
1425411846.222,-68.97109
1425411846.238,-70.08367
1425411846.253,-62.772057
1425411846.269,-44.2238
1425411846.285,-15.047604
1425411846.3,20.134285
1425411846.316,54.101295
1425411846.332,79.68947
1425411846.347,92.683174
1425411846.363,92.94325
1425411846.378,83.75545
1425411846.394,69.792336
1425411846.41,55.12156
1425411846.425,42.10309
1425411846.441,31.650436
1425411846.457,24.112907
1425411846.472,19.246758
1425411846.488,16.919899
1425411846.503,16.641815
1425411846.519,17.451805
1425411846.535,18.162102
1425411846.55,17.919067
1425411846.566,16.347115
1425411846.582,13.704826
1425411846.597,10.705559
1425411846.613,8.204544
1425411846.628,7.0663986
1425411846.644,7.8076477
1425411846.66,10.442261
1425411846.675,14.229126
1425411846.691,17.844856
1425411846.707,19.841522
1425411846.722,19.404419
1425411846.738,16.800964
1425411846.753,13.26638
1425411846.769,10.435814
1425411846.785,9.510437
1425411846.8,10.6918335
1425411846.816,13.319489
1425411846.832,16.299606
1425411846.847,18.800903
1425411846.863,20.646255
1425411846.878,22.25557
1425411846.894,24.312279
1425411846.91,27.364006
1425411846.925,31.494995
1425411846.941,36.33558
1425411846.957,41.193695
1425411846.972,45.377975
1425411846.988,48.275604
1425411847.004,49.58303
1425411847.019,49.229607
1425411847.035,47.463486
1425411847.05,44.727936
1425411847.066,41.575394
1425411847.082,38.485786
1425411847.097,35.793633
1425411847.113,33.515152
1425411847.129,31.30307
1425411847.144,28.685593
1425411847.16,24.655312
1425411847.175,18.58448
1425411847.191,10.497047
1425411847.207,1.0477753
1425411847.222,-8.537827
1425411847.238,-17.011261
1425411847.254,-23.612469
1425411847.269,-28.299873
1425411847.285,-31.663097
1425411847.3,-34.55987
1425411847.316,-37.55081
1425411847.332,-40.806927
1425411847.347,-44.032253
1425411847.363,-46.709858
1425411847.379,-48.35687
1425411847.394,-48.624264
1425411847.41,-47.33698
1425411847.425,-44.533527
1425411847.441,-40.578632
1425411847.457,-36.05667
1425411847.472,-31.733864
1425411847.488,-28.28005
1425411847.504,-25.98472
1425411847.519,-24.703606
1425411847.535,-23.830349
1425411847.55,-22.758553
1425411847.566,-21.059166
1425411847.582,-18.72084
1425411847.597,-15.991167
1425411847.613,-13.252718
1425411847.629,-10.7590475
1425411847.644,-8.562323
1425411847.66,-6.508959
1425411847.675,-4.4106126
1425411847.691,-2.1805913
1425411847.707,0.05694294
1425411847.722,2.0164135
1425411847.738,3.4071836
1425411847.754,4.0782027
1425411847.769,4.0967264
1425411847.785,3.8005493
1425411847.8,3.5836916
1425411847.816,3.7605357
1425411847.832,4.27848
1425411847.847,4.781475
1425411847.863,4.75601
1425411847.879,3.79113
1425411847.894,1.7703524
1425411847.91,-0.94187164
1425411847.925,-3.6574879
1425411847.941,-5.5295906
1425411847.957,-5.921563
1425411847.972,-4.628208
1425411847.988,-1.9242878
1425411848.004,1.5882969
1425411848.019,5.170068
1425411848.035,8.26161
1425411848.05,10.502519
1425411848.066,11.698316
1425411848.082,11.686701
1425411848.097,10.361679
1425411848.113,7.579259
1425411848.129,3.3744202
1425411848.144,-1.8786163
1425411848.16,-7.5611897
1425411848.175,-12.952993
1425411848.191,-17.488384
1425411848.207,-20.86773
1425411848.222,-23.017097
1425411848.238,-23.96933
1425411848.254,-23.768547
1425411848.269,-22.453468
1425411848.285,-20.169134
1425411848.3,-17.309586
1425411848.316,-14.493975
1425411848.332,-12.434315
1425411848.347,-11.610509
1425411848.363,-12.07654
1425411848.379,-13.369874
1425411848.394,-14.763775
1425411848.41,-15.570761
1425411848.425,-15.591484
1425411848.441,-15.182805
1425411848.457,-15.119226
1425411848.472,-16.077148
1425411848.488,-18.216415
1425411848.504,-20.951296
1425411848.519,-23.129974
1425411848.535,-23.416222
1425411848.55,-20.873652
1425411848.566,-15.27281
1425411848.582,-7.166403
1425411848.597,2.3966942
1425411848.613,12.282215
1425411848.629,21.709078
1425411848.644,30.39682
1425411848.66,38.518208
1425411848.675,46.353043
1425411848.691,53.998596
1425411848.707,61.14192
1425411848.722,67.100685
1425411848.738,71.0767
1425411848.754,72.349655
1425411848.769,70.62424
1425411848.785,66.15136
1425411848.8,59.71653
1425411848.816,52.464138
1425411848.832,45.61697
1425411848.847,40.101723
1425411848.863,36.213898
1425411848.879,33.51825
1425411848.894,30.959124
1425411848.91,27.40332
1425411848.925,22.064365
1425411848.941,14.891907
1425411848.957,6.4989777
1425411848.972,-2.1947594
1425411848.988,-10.48419
1425411849.004,-18.21512
1425411849.019,-25.738554
1425411849.035,-33.571915
1425411849.05,-41.91901
1425411849.066,-50.459652
1425411849.082,-58.404526
1425411849.097,-64.87906
1425411849.113,-69.36206
1425411849.129,-72.015175
1425411849.144,-73.697105
1425411849.16,-75.61838
1425411849.175,-78.951965
1425411849.191,-84.35219
1425411849.207,-91.84936
1425411849.222,-100.89271
1425411849.238,-110.44485
1425411849.254,-119.01469
1425411849.269,-124.64393
1425411849.285,-124.97718
1425411849.3,-117.84879
1425411849.316,-102.06524
1425411849.332,-78.21419
1425411849.347,-48.878696
1425411849.363,-18.008974
1425411849.379,10.344156
1425411849.394,33.275818
1425411849.41,49.760075
1425411849.425,60.386852
1425411849.441,66.497696
1425411849.457,69.269714
1425411849.472,69.300865
1425411849.488,66.85331
1425411849.504,62.454887
1425411849.519,57.187103
1425411849.535,52.48387
1425411849.55,49.47053
1425411849.566,48.41398
1425411849.582,48.60144
1425411849.597,48.808197
1425411849.613,48.012672
1425411849.629,45.98768
1425411849.644,43.31336
1425411849.66,40.999725
1425411849.676,39.713764
1425411849.691,39.278175
1425411849.707,38.533226
1425411849.722,35.805935
1425411849.738,29.629822
1425411849.754,19.499535
1425411849.769,6.1665535
1425411849.785,-8.613998
1425411849.8,-22.856876
1425411849.816,-35.067986
1425411849.832,-44.770596
1425411849.847,-52.392334
1425411849.863,-58.96112
1425411849.879,-65.68619
1425411849.894,-73.83237
1425411849.91,-84.414955
1425411849.926,-97.75623
1425411849.941,-112.94228
1425411849.957,-127.446075
1425411849.972,-137.30412
1425411849.988,-138.29462
1425411850.004,-127.3222
1425411850.019,-103.64275
1425411850.035,-69.011894
1425411850.051,-26.970024
1425411850.066,18.462173
1425411850.082,63.573364
1425411850.097,105.111176
1425411850.113,140.03598
1425411850.129,165.48145
1425411850.144,179.3376
1425411850.16,181.32664
1425411850.176,173.7143
1425411850.191,160.97263
1425411850.207,148.36679
1425411850.222,140.0971
1425411850.238,137.83844
1425411850.254,140.45615
1425411850.269,144.80252
1425411850.285,147.30237
1425411850.301,145.47157
1425411850.316,138.80585
1425411850.332,128.52975
1425411850.347,116.748985
1425411850.363,105.14305
1425411850.379,94.26749
1425411850.394,83.32742
1425411850.41,70.882385
1425411850.426,55.82524
1425411850.441,38.018845
1425411850.457,18.32594
1425411850.472,-1.8976097
1425411850.488,-21.626701
1425411850.504,-40.570087
1425411850.519,-59.04991
1425411850.535,-77.33422
1425411850.551,-95.11056
1425411850.566,-111.24165
1425411850.582,-124.1942
1425411850.597,-132.64218
1425411850.613,-136.12987
1425411850.629,-135.21773
1425411850.644,-131.26047
1425411850.66,-125.79889
1425411850.676,-119.97475
1425411850.691,-114.16026
1425411850.707,-108.07033
1425411850.722,-101.16272
1425411850.738,-93.1685
1425411850.754,-84.33638
1425411850.769,-75.38983
1425411850.785,-67.026596
1425411850.801,-59.584713
1425411850.816,-52.824265
1425411850.832,-46.211216
1425411850.847,-39.214863
1425411850.863,-31.70072
1425411850.879,-23.881273
1425411850.894,-16.124212
1425411850.91,-8.666722
1425411850.926,-1.518013
1425411850.941,5.4744463
1425411850.957,12.283496
1425411850.972,18.694038
1425411850.988,24.288614
1425411851.004,28.684036
1425411851.019,31.708004
1425411851.035,33.46306
1425411851.051,34.2312
1425411851.066,34.432327
1425411851.082,34.488216
1425411851.097,34.86417
1425411851.113,35.940826
1425411851.129,37.97065
1425411851.144,40.863953
1425411851.16,44.18274
1425411851.176,47.16411
1425411851.191,49.074844
1425411851.207,49.374996
1425411851.222,47.914318
1425411851.238,44.809647
1425411851.254,40.313324
1425411851.269,34.599022
1425411851.285,27.863905
1425411851.301,20.405146
1425411851.316,12.763032
1425411851.332,5.580187
1425411851.347,-0.5005026
1425411851.363,-5.161792
1425411851.379,-8.359008
1425411851.394,-10.317434
1425411851.41,-11.312535
1425411851.426,-11.672269
1425411851.441,-11.689367
1425411851.457,-11.667068
1425411851.472,-11.80241
1425411851.488,-12.061788
1425411851.504,-12.175022
1425411851.519,-11.731948
1425411851.535,-10.410044
1425411851.551,-8.304839
1425411851.566,-5.9422545
1425411851.582,-4.147357
1425411851.597,-3.570037
1425411851.613,-4.4457216
1425411851.629,-6.4310927
1425411851.644,-8.840119
1425411851.66,-10.94415
1425411851.676,-12.332917
1425411851.691,-12.959303
1425411851.707,-13.01335
1425411851.722,-12.625351
1425411851.738,-11.677042
1425411851.754,-9.808416
1425411851.769,-6.691134
1425411851.785,-2.3674383
1425411851.801,2.4858618
1425411851.816,6.72989
1425411851.832,9.216027
1425411851.847,9.427326
1425411851.863,7.7717533
1425411851.879,5.5588574
1425411851.894,4.366947
1425411851.91,5.375413
1425411851.926,8.84897
1425411851.941,14.087413
1425411851.957,19.778067
1425411851.972,24.538948
1425411851.988,27.389717
1425411852.004,28.007095
1425411852.019,26.624796
1425411852.035,23.902056
1425411852.051,20.585154
1425411852.066,17.323835
1425411852.082,14.48443
1425411852.097,12.191563
1425411852.113,10.420666
1425411852.129,9.13224
1425411852.144,8.335085
1425411852.16,8.109901
1425411852.176,8.494848
1425411852.191,9.377085
1425411852.207,10.495789
1425411852.222,11.496056
1425411852.238,11.991684
1425411852.254,11.738724
1425411852.269,10.683296
1425411852.285,8.955872
1425411852.301,6.7666626
1425411852.316,4.30801
1425411852.332,1.5863609
1425411852.348,-1.4786148
1425411852.363,-4.934021
1425411852.379,-8.606491
1425411852.394,-12.065186
1425411852.41,-14.71767
1425411852.426,-16.143276
1425411852.441,-16.325214
1425411852.457,-15.764576
1425411852.472,-15.233803
1425411852.488,-15.422993
1425411852.504,-16.575687
1425411852.519,-18.480015
1425411852.535,-20.628155
1425411852.551,-22.614899
1425411852.566,-24.266464
1425411852.582,-25.608505
1425411852.598,-26.654335
1425411852.613,-27.282143
1425411852.629,-27.203346
1425411852.644,-26.180397
1425411852.66,-24.139786
1425411852.676,-21.16301
1425411852.691,-17.379585
1425411852.707,-12.786713
1425411852.723,-7.240036
1425411852.738,-0.6428757
1425411852.754,6.8256683
1425411852.769,14.509232
1425411852.785,21.407455
1425411852.801,26.522667
1425411852.816,29.308792
1425411852.832,29.82183
1425411852.848,28.656723
1425411852.863,26.51825
1425411852.879,23.870033
1425411852.894,20.762321
1425411852.91,16.94297
1425411852.926,12.1440735
1425411852.941,6.346611
1425411852.957,-0.1433487
1425411852.973,-6.7261887
1425411852.988,-12.75666
1425411853.004,-17.659653
1425411853.019,-21.096321
1425411853.035,-22.915
1425411853.051,-23.215378
1425411853.066,-22.312813
1425411853.082,-20.728539
1425411853.098,-19.01912
1425411853.113,-17.673096
1425411853.129,-16.905708
1425411853.144,-16.674858
1425411853.16,-16.758675
1425411853.176,-16.975578
1425411853.191,-17.258286
1425411853.207,-17.657646
1425411853.223,-18.167946
1425411853.238,-18.660706
1425411853.254,-18.836472
1425411853.269,-18.425865
1425411853.285,-17.343857
1425411853.301,-15.747231
1425411853.316,-13.86898
1425411853.332,-11.85704
1425411853.348,-9.633644
1425411853.363,-6.9909744
1425411853.379,-3.757187
1425411853.394,-0.029701233
1425411853.41,3.8468323
1425411853.426,7.453125
1425411853.441,10.510727
1425411853.457,12.9863205
1425411853.473,15.057228
1425411853.488,16.895805
1425411853.504,18.623291
1425411853.519,20.252068
1425411853.535,21.910088
1425411853.551,23.831886
1425411853.566,26.24749
1425411853.582,29.09842
1425411853.598,31.84098
1425411853.613,33.5374
1425411853.629,33.171143
1425411853.644,30.107262
1425411853.66,24.397163
1425411853.676,16.75232
1425411853.691,8.382248
1425411853.707,0.5726776
1425411853.723,-5.5403748
1425411853.738,-9.282806
1425411853.754,-10.473457
1425411853.769,-9.447433
1425411853.785,-6.916458
1425411853.801,-3.8087692
1425411853.816,-0.94688416
1425411853.832,1.1035461
1425411853.848,2.1153412
1425411853.863,2.1145248
1425411853.879,1.1927643
1425411853.894,-0.598114
1425411853.91,-3.204445
1425411853.926,-6.4535065
1425411853.941,-9.948158
1425411853.957,-13.109123
1425411853.973,-15.344948
1425411853.988,-16.357239
1425411854.004,-16.179916
1425411854.019,-15.192978
1425411854.035,-13.8785095
1425411854.051,-12.708931
1425411854.066,-11.983589
1425411854.082,-11.874161
1425411854.098,-12.434158
1425411854.113,-13.657555
1425411854.129,-15.417328
1425411854.144,-17.42891
1425411854.16,-19.266502
1425411854.176,-20.48236
1425411854.191,-20.697899
1425411854.207,-19.758827
1425411854.223,-17.70929
1425411854.238,-14.753777
1425411854.254,-11.152206
1425411854.269,-7.1910477
1425411854.285,-3.0352554
1425411854.301,1.180069
1425411854.316,5.429924
1425411854.332,9.745987
1425411854.348,14.188599
1425411854.363,18.747726
1425411854.379,23.253784
1425411854.394,27.225342
1425411854.41,29.997498
1425411854.426,30.985611
1425411854.441,29.89421
1425411854.457,26.950668
1425411854.473,22.850906
1425411854.488,18.587189
1425411854.504,15.18573
1425411854.519,13.391922
1425411854.535,13.366486
1425411854.551,14.668198
1425411854.566,16.492386
1425411854.582,18.007248
1425411854.598,18.733688
1425411854.613,18.605743
1425411854.629,17.892029
1425411854.644,16.907028
1425411854.66,15.866119
1425411854.676,14.528503
1425411854.691,12.570526
1425411854.707,9.96698
1425411854.723,7.3260956
1425411854.738,5.792099
1425411854.754,6.5510254
1425411854.769,10.208405
1425411854.785,16.493713
1425411854.801,24.318115
1425411854.816,31.538834
1425411854.832,36.10576
1425411854.848,37.062073
1425411854.863,35.11975
1425411854.879,32.47107
1425411854.894,31.668594
1425411854.91,34.508286
1425411854.926,41.40953
1425411854.941,51.532303
1425411854.957,61.874634
1425411854.973,69.174576
1425411854.988,71.39717
1425411855.004,68.981415
1425411855.019,64.6985
1425411855.035,62.276077
1425411855.051,64.94768
1425411855.066,74.608
1425411855.082,91.62845
1425411855.098,112.4117
1425411855.113,131.36673
1425411855.129,142.73987
1425411855.144,142.913
1425411855.16,131.6035
1425411855.176,110.897
1425411855.191,84.05316
1425411855.207,54.13852
1425411855.223,23.218506
1425411855.238,-11.3342285
1425411855.254,-54.615448
1425411855.27,-112.06534
1425411855.285,-186.69778
1425411855.301,-277.8941
1425411855.316,-382.17535
1425411855.332,-494.1133
1425411855.348,-606.6616
1425411855.363,-692.11523
1425411855.379,-722.5991
1425411855.395,-681.407
1425411855.41,-575.3781
1425411855.426,-432.4608
1425411855.441,-285.60144
1425411855.457,-157.89893
1425411855.473,-57.9655
1425411855.488,16.592026
1425411855.504,73.003494
1425411855.52,114.92424
1425411855.535,142.40765
1425411855.551,154.06871
1425411855.566,150.99832
1425411855.582,138.46523
1425411855.598,123.998474
1425411855.613,114.256485
1425411855.629,112.72916
1425411855.645,119.38164
1425411855.66,129.24214
1425411855.676,135.63931
1425411855.691,133.5762
1425411855.707,122.17673
1425411855.723,105.01048
1425411855.738,87.64499
1425411855.754,74.963646
1425411855.77,69.406425
1425411855.785,70.7416
1425411855.801,75.20799
1425411855.816,77.914795
1425411855.832,75.05496
1425411855.848,65.6239
1425411855.863,51.839478
1425411855.879,37.3238
1425411855.895,25.54303
1425411855.91,18.343334
1425411855.926,15.931343
1425411855.941,16.552681
1425411855.957,17.690353
1425411855.973,16.94207
1425411855.988,12.675259
1425411856.004,4.2809715
1425411856.02,-8.25012
1425411856.035,-23.984024
1425411856.051,-40.953495
1425411856.066,-55.97612
1425411856.082,-65.592896
1425411856.098,-67.33543
1425411856.113,-60.82065
1425411856.129,-48.425816
1425411856.145,-33.138668
1425411856.16,-18.417784
1425411856.176,-6.4214134
1425411856.191,2.2260742
1425411856.207,8.307301
1425411856.223,13.093975
1425411856.238,17.26017
1425411856.254,20.612938
1425411856.27,22.416248
1425411856.285,22.481094
1425411856.301,21.342499
1425411856.316,20.658577
1425411856.332,22.12693
1425411856.348,26.972359
1425411856.363,35.500298
1425411856.379,46.837166
1425411856.395,59.36396
1425411856.41,71.209755
1425411856.426,81.391624
1425411856.441,88.161125
1425411856.457,93.18784
1425411856.473,98.03086
1425411856.488,103.89737
1425411856.504,111.22754
1425411856.52,119.42287
1425411856.535,127.06061
1425411856.551,132.3266
1425411856.566,134.39404
1425411856.582,133.16693
1425411856.598,129.8271
1425411856.613,125.70586
1425411856.629,122.05117
1425411856.645,119.66371
1425411856.66,118.90106
1425411856.676,121.1093
1425411856.691,124.729935
1425411856.707,128.16898
1425411856.723,128.54172
1425411856.738,122.20334
1425411856.754,105.55885
1425411856.77,77.38204
1425411856.785,40.17842
1425411856.801,-0.05693817
1425411856.816,-35.964615
1425411856.832,-61.75338
1425411856.848,-74.81859
1425411856.863,-76.608536
1425411856.879,-70.92383
1425411856.895,-61.875237
1425411856.91,-51.939365
1425411856.926,-41.65451
1425411856.941,-30.58673
1425411856.957,-18.779583
1425411856.973,-7.2939835
1425411856.988,2.62574
1425411857.004,10.078461
1425411857.02,15.366936
1425411857.035,19.75605
1425411857.051,24.936714
1425411857.066,32.388725
1425411857.082,42.607903
1425411857.098,54.698166
1425411857.113,67.14667
1425411857.129,78.69359
1425411857.145,88.67679
1425411857.16,97.3026
1425411857.176,105.43562
1425411857.191,114.12114
1425411857.207,124.127396
1425411857.223,135.58813
1425411857.238,147.50146
1425411857.254,158.53734
1425411857.27,167.50746
1425411857.285,173.66284
1425411857.301,176.74615
1425411857.316,176.87692
1425411857.332,174.12848
1425411857.348,167.96307
1425411857.363,160.33072
1425411857.379,151.58536
1425411857.395,141.65933
1425411857.41,130.37964
1425411857.426,117.72479
1425411857.441,103.969635
1425411857.457,89.68518
1425411857.473,75.60373
1425411857.488,62.450287
1425411857.504,50.737823
1425411857.52,40.173035
1425411857.535,30.240784
1425411857.551,20.329346
1425411857.566,9.912903
1425411857.582,-1.2338867
1425411857.598,-12.921265
1425411857.613,-24.639282
1425411857.629,-35.715942
1425411857.645,-45.61194
1425411857.66,-54.510315
1425411857.676,-62.966125
1425411857.691,-71.7771
1425411857.707,-81.73163
1425411857.723,-93.27832
1425411857.738,-106.33545
1425411857.754,-120.37079
1425411857.77,-134.64996
1425411857.785,-148.53076
1425411857.801,-161.96564
1425411857.816,-175.27081
1425411857.832,-189.02472
1425411857.848,-203.93604
1425411857.863,-220.82147
1425411857.879,-240.4679
1425411857.895,-263.3676
1425411857.91,-289.07666
1425411857.926,-315.63287
1425411857.942,-339.59644
1425411857.957,-356.62225
1425411857.973,-362.9754
1425411857.988,-357.0041
1425411858.004,-339.84552
1425411858.02,-314.854
1425411858.035,-286.13
1425411858.051,-256.91028
1425411858.067,-228.8075
1425411858.082,-202.15039
1425411858.098,-176.87683
1425411858.113,-153.39233
1425411858.129,-132.61584
1425411858.145,-115.388916
1425411858.16,-101.71216
1425411858.176,-90.55176
1425411858.192,-80.282715
1425411858.207,-69.54224
1425411858.223,-57.82312
1425411858.238,-45.502686
1425411858.254,-33.376587
1425411858.27,-22.111572
1425411858.285,-11.880981
1425411858.301,-2.4123535
1425411858.317,6.7026367
1425411858.332,15.739136
1425411858.348,24.638062
1425411858.363,33.033264
1425411858.379,40.373596
1425411858.395,46.094543
1425411858.41,49.79126
1425411858.426,51.307007
1425411858.442,50.82135
1425411858.457,48.800964
1425411858.473,45.898438
1425411858.488,42.77533
1425411858.504,39.93805
1425411858.52,37.66382
1425411858.535,35.993225
1425411858.551,34.76581
1425411858.567,33.6922
1425411858.582,32.41327
1425411858.598,30.613464
1425411858.613,28.15625
1425411858.629,25.157043
1425411858.645,21.988098
1425411858.66,19.11615
1425411858.676,16.848389
1425411858.692,15.190247
1425411858.707,13.833008
1425411858.723,12.380066
1425411858.738,10.571289
1425411858.754,8.471313
1425411858.77,6.4243164
1425411858.785,4.85907
1425411858.801,4.084717
1425411858.817,4.130493
1425411858.832,4.7819824
1425411858.848,5.696106
1425411858.863,6.5838013
1425411858.879,7.28302
1425411858.895,7.8276367
1425411858.91,8.318848
1425411858.926,8.8515625
1425411858.942,9.44989
1425411858.957,10.048279
1425411858.973,10.604004
1425411858.988,11.10968
1425411859.004,11.638733
1425411859.02,12.278564
1425411859.035,13.042664
1425411859.051,13.825867
1425411859.067,14.464233
1425411859.082,14.761597
1425411859.098,14.678589
1425411859.113,14.378967
1425411859.129,14.24762
1425411859.145,14.711365
1425411859.16,16.122314
1425411859.176,18.560608
1425411859.192,21.803894
1425411859.207,25.356018
1425411859.223,28.549866
1425411859.238,30.661072
1425411859.254,31.121338
1425411859.27,29.643799
1425411859.285,26.341675
1425411859.301,21.721924
1425411859.317,16.493835
1425411859.332,11.35321
1425411859.348,6.7546997
1425411859.363,2.8411255
1425411859.379,-0.49401855
1425411859.395,-3.3787842
1425411859.41,-5.811035
1425411859.426,-7.612976
1425411859.442,-8.5672
1425411859.457,-8.643555
1425411859.473,-8.0842285
1425411859.488,-7.364746
1425411859.504,-6.8637695
1425411859.52,-6.692932
1425411859.535,-6.6086426
1425411859.551,-6.227356
1425411859.567,-5.279602
1425411859.582,-3.8478394
1425411859.598,-2.2703247
1425411859.613,-0.96069336
1425411859.629,-0.10333252
1425411859.645,0.45141602
1425411859.66,1.1130371
1425411859.676,2.3170776
1425411859.692,4.284607
1425411859.707,6.93396
1425411859.723,9.9348755
1425411859.738,12.860596
1425411859.754,15.397034
1425411859.77,17.36267
1425411859.785,18.715027
1425411859.801,19.44165
1425411859.817,19.545654
1425411859.832,19.02124
1425411859.848,17.948975
1425411859.863,16.526672
1425411859.879,15.079834
1425411859.895,13.905579
1425411859.91,13.196533
1425411859.926,12.940674
1425411859.942,13.013611
1425411859.957,13.357239
1425411859.973,14.112549
1425411859.988,15.694641
1425411860.004,18.557434
1425411860.02,22.942017
1425411860.035,28.589172
1425411860.051,34.689087
1425411860.067,40.129944
1425411860.082,43.829346
1425411860.098,45.185303
1425411860.113,44.214233
1425411860.129,41.48346
1425411860.145,37.776947
1425411860.16,33.788208
1425411860.176,29.872803
1425411860.192,26.12735
1425411860.207,22.488953
1425411860.223,18.968811
1425411860.238,15.776093
1425411860.254,13.188751
1425411860.27,11.39679
1425411860.285,10.325104
1425411860.301,9.584351
1425411860.317,8.609253
1425411860.332,6.917938
1425411860.348,4.3275757
1425411860.363,0.97540283
1425411860.379,-2.7262878
1425411860.395,-6.404785
1425411860.41,-9.808746
1425411860.426,-12.923126
1425411860.442,-15.83371
1425411860.457,-18.578827
1425411860.473,-21.063324
1425411860.488,-23.03012
1425411860.504,-24.210327
1425411860.52,-24.4133
1425411860.535,-23.657135
1425411860.551,-22.153625
1425411860.567,-20.24414
1425411860.582,-18.336243
1425411860.598,-16.760742
1425411860.614,-15.683044
1425411860.629,-14.976807
1425411860.645,-14.2547
1425411860.66,-12.957397
1425411860.676,-10.637604
1425411860.692,-7.1591797
1425411860.707,-2.8674316
1425411860.723,1.5278625
1425411860.738,5.2957764
1425411860.754,8.098785
1425411860.77,10.262817
1425411860.785,12.778839
1425411860.801,16.966827
1425411860.817,23.807007
1425411860.832,33.358704
1425411860.848,44.427216
1425411860.864,54.686676
1425411860.879,61.357605
1425411860.895,62.08426
1425411860.91,55.776917
1425411860.926,42.92935
1425411860.942,25.44226
1425411860.957,5.8537903
1425411860.973,-13.496002
1425411860.989,-31.111267
1425411861.004,-46.562164
1425411861.02,-60.1055
1425411861.035,-72.22757
1425411861.051,-83.120026
1425411861.067,-92.485596
1425411861.082,-99.643555
1425411861.098,-103.86603
1425411861.114,-104.7746
1425411861.129,-102.55481
1425411861.145,-98.02002
1425411861.16,-92.34177
1425411861.176,-86.72897
1425411861.192,-82.07007
1425411861.207,-78.74249
1425411861.223,-76.52667
1425411861.239,-74.82645
1425411861.254,-72.854126
1425411861.27,-69.898315
1425411861.285,-65.538666
1425411861.301,-59.718933
1425411861.317,-52.71881
1425411861.332,-44.98828
1425411861.348,-36.95456
1425411861.364,-28.87207
1425411861.379,-20.816162
1425411861.395,-12.792206
1425411861.41,-4.8874207
1425411861.426,2.6280212
1425411861.442,9.353394
1425411861.457,14.960205
1425411861.473,19.394653
1425411861.489,22.981903
1425411861.504,26.251709
1425411861.52,29.758087
1425411861.535,33.775146
1425411861.551,38.18289
1425411861.567,42.569
1425411861.582,46.450745
1425411861.598,49.539
1425411861.614,51.949097
1425411861.629,54.175446
1425411861.645,56.8985
1425411861.66,60.70572
1425411861.676,65.77768
1425411861.692,71.81024
1425411861.707,78.04169
1425411861.723,83.5058
1425411861.739,87.25249
1425411861.754,88.5152
1425411861.77,86.811325
1425411861.785,82.04877
1425411861.801,74.58305
1425411861.817,65.28731
1425411861.832,55.434982
1425411861.848,46.387344
1425411861.864,39.22133
1425411861.879,34.37628
1425411861.895,31.613113
1425411861.91,30.224442
1425411861.926,29.414871
1425411861.942,28.596786
1425411861.957,27.4328
1425411861.973,25.75032
1425411861.989,23.455978
1425411862.004,20.566559
1425411862.02,17.374405
1425411862.035,14.500961
1425411862.051,12.695862
1425411862.067,12.4543915
1425411862.082,13.65564
1425411862.098,15.558289
1425411862.114,17.21727
1425411862.129,17.94458
1425411862.145,17.638443
1425411862.16,16.66951
1425411862.176,15.480743
1425411862.192,14.231476
1425411862.207,12.728226
1425411862.223,10.67598
1425411862.239,8.032669
1425411862.254,5.175049
1425411862.27,2.6973724
1425411862.285,1.0644989
1425411862.301,0.31158447
1425411862.317,0.08229065
1425411862.332,-0.13409424
1425411862.348,-0.69389343
1425411862.364,-1.6820679
1425411862.379,-3.0447845
1425411862.395,-4.7265625
1425411862.41,-6.75119
1425411862.426,-9.038742
1425411862.442,-11.22023
1425411862.457,-12.656403
1425411862.473,-12.695587
1425411862.489,-11.055374
1425411862.504,-8.076599
1425411862.52,-4.6404877
1425411862.535,-1.7898865
1425411862.551,-0.28738403
1425411862.567,-0.2896576
1425411862.582,-1.4247894
1425411862.598,-3.0742493
1425411862.614,-4.740219
1425411862.629,-6.2417755
1425411862.645,-7.739746
1425411862.66,-9.418259
1425411862.676,-11.356094
1425411862.692,-13.358093
1425411862.707,-15.105576
1425411862.723,-16.340668
1425411862.739,-16.999634
1425411862.754,-17.167297
1425411862.77,-16.970215
1425411862.785,-16.386108
1425411862.801,-15.193878
1425411862.817,-13.156311
1425411862.832,-10.253128
1425411862.848,-6.7977753
1425411862.864,-3.3542786
1425411862.879,-0.4060669
1425411862.895,1.9737854
1425411862.91,4.2994843
1425411862.926,7.3209076
1425411862.942,11.583878
1425411862.957,16.920593
1425411862.973,22.38945
1425411862.989,26.593018
1425411863.004,28.301208
1425411863.02,27.037537
1425411863.035,23.23436
1425411863.051,17.954697
1425411863.067,12.395767
1425411863.082,7.444351
1425411863.098,3.4828491
1425411863.114,0.53990173
1425411863.129,-1.467804
1425411863.145,-2.594696
1425411863.16,-2.8083954
1425411863.176,-2.16745
1425411863.192,-0.89686584
1425411863.207,0.62553406
1425411863.223,1.9974823
1425411863.239,2.8924408
1425411863.254,3.2382202
1425411863.27,3.1881866
1425411863.286,3.1101532
1425411863.301,3.5093536
1425411863.317,4.895279
1425411863.332,7.602112
1425411863.348,11.634537
1425411863.364,16.512909
1425411863.379,21.346893
1425411863.395,25.108871
1425411863.41,27.036041
1425411863.426,26.83957
1425411863.442,24.747849
1425411863.457,21.249084
1425411863.473,16.849075
1425411863.489,11.932434
1425411863.504,6.8451843
1425411863.52,1.9772644
1425411863.536,-2.144394
1425411863.551,-5.0659027
1425411863.567,-6.6966705
1425411863.582,-7.441635
1425411863.598,-8.101883
1425411863.614,-9.438644
1425411863.629,-11.781937
1425411863.645,-14.824768
1425411863.661,-17.804611
1425411863.676,-19.905533
1425411863.692,-20.670532
1425411863.707,-20.16716
1425411863.723,-18.806915
1425411863.739,-17.07866
1425411863.754,-15.260483
1425411863.77,-13.444351
1425411863.786,-11.589706
1425411863.801,-9.782959
1425411863.817,-8.243683
1425411863.832,-7.2457886
1425411863.848,-6.910553
1425411863.864,-7.0284424
1425411863.879,-7.107788
1425411863.895,-6.5329285
1425411863.911,-4.8954163
1425411863.926,-2.1599426
1425411863.942,1.2756653
1425411863.957,4.8483887
1425411863.973,8.0961
1425411863.989,10.8914795
1425411864.004,13.411987
1425411864.02,15.914093
1425411864.036,18.51242
1425411864.051,21.040344
1425411864.067,23.213104
1425411864.082,24.778015
1425411864.098,25.730682
1425411864.114,26.305939
1425411864.129,26.830505
1425411864.145,27.476776
1425411864.161,28.105713
1425411864.176,28.265442
1425411864.192,27.381592
1425411864.207,25.004852
1425411864.223,21.041992
1425411864.239,15.808746
1425411864.254,9.9461975
1425411864.27,4.1914673
1425411864.286,-0.7865906
1425411864.301,-4.6273804
1425411864.317,-7.2696533
1425411864.332,-8.915131
1425411864.348,-9.840942
1425411864.364,-10.336182
1425411864.379,-10.648529
1425411864.395,-11.08136
1425411864.411,-11.955872
1425411864.426,-13.600098
1425411864.442,-16.188873
1425411864.457,-19.654602
1425411864.473,-23.623993
1425411864.489,-27.508331
1425411864.504,-30.702332
1425411864.52,-32.785706
1425411864.536,-33.66153
1425411864.551,-33.54297
1425411864.567,-32.812164
1425411864.582,-31.830658
1425411864.598,-30.78189
1425411864.614,-29.694794
1425411864.629,-28.516785
1425411864.645,-27.237854
1425411864.661,-25.883362
1425411864.676,-24.461456
1425411864.692,-22.884247
1425411864.707,-20.982727
1425411864.723,-18.62378
1425411864.739,-15.840118
1425411864.754,-12.909973
1425411864.77,-10.244568
1425411864.786,-8.20932
1425411864.801,-6.8759155
1425411864.817,-5.9322815
1425411864.832,-4.8362427
1425411864.848,-3.0703735
1425411864.864,-0.39904785
1425411864.879,3.0567932
1425411864.895,6.9474792
1425411864.911,10.92218
1425411864.926,14.734619
1425411864.942,18.235626
1425411864.957,21.194305
1425411864.973,23.247375
1425411864.989,23.958496
1425411865.004,23.049713
1425411865.02,20.569519
1425411865.036,16.923676
1425411865.051,12.693237
1425411865.067,8.389709
1425411865.082,4.2357483
1425411865.098,0.2106018
1425411865.114,-3.7483215
1425411865.129,-7.5562744
1425411865.145,-10.928223
1425411865.161,-13.556549
1425411865.176,-15.360901
1425411865.192,-16.569977
1425411865.207,-17.569794
1425411865.223,-18.583893
1425411865.239,-19.522583
1425411865.254,-19.988586
1425411865.27,-19.620392
1425411865.286,-18.404999
1425411865.301,-16.780212
1425411865.317,-15.418671
1425411865.332,-14.851013
1425411865.348,-15.138977
1425411865.364,-15.851288
1425411865.379,-16.325653
1425411865.395,-16.058624
1425411865.411,-14.957275
1425411865.426,-13.284729
1425411865.442,-11.429047
1425411865.457,-9.636902
1425411865.473,-7.9368896
1425411865.489,-6.2750244
1425411865.504,-4.6430054
1425411865.52,-3.2103882
1425411865.536,-2.2499695
1425411865.551,-1.9625549
1425411865.567,-2.2694702
1425411865.582,-2.7991028
1425411865.598,-3.002594
1425411865.614,-2.4379272
1425411865.629,-0.9674988
1425411865.645,1.1400757
1425411865.661,3.3953857
1425411865.676,5.3432617
1425411865.692,6.8198547
1425411865.707,8.058533
1425411865.723,9.535492
1425411865.739,11.576904
1425411865.754,14.083069
1425411865.77,16.446655
1425411865.786,17.772614
1425411865.801,17.352997
1425411865.817,15.018036
1425411865.832,11.241699
1425411865.848,6.90213
1425411865.864,2.8174438
1425411865.879,-0.53952026
1425411865.895,-3.167572
1425411865.911,-5.3363953
1425411865.926,-7.366272
1425411865.942,-9.39801
1425411865.957,-11.403961
1425411865.973,-13.285492
1425411865.989,-15.049774
1425411866.004,-16.862396
1425411866.02,-19.0596
1425411866.036,-21.970001
1425411866.051,-25.80272
1425411866.067,-30.493332
1425411866.082,-35.72223
1425411866.098,-40.960526
1425411866.114,-45.69461
1425411866.129,-49.56694
1425411866.145,-52.55838
1425411866.161,-54.86664
1425411866.176,-56.868988
1425411866.192,-58.91678
1425411866.208,-61.31067
1425411866.223,-64.21442
1425411866.239,-67.68465
1425411866.254,-71.655334
1425411866.27,-75.92911
1425411866.286,-80.14862
1425411866.301,-83.83795
1425411866.317,-86.58023
1425411866.333,-88.16647
1425411866.348,-88.776825
1425411866.364,-89.00749
1425411866.379,-89.72885
1425411866.395,-91.60312
1425411866.411,-94.581955
1425411866.426,-97.46362
1425411866.442,-97.816284
1425411866.458,-92.43117
1425411866.473,-78.27746
1425411866.489,-53.574593
1425411866.504,-18.589592
1425411866.52,24.187729
1425411866.536,70.61066
1425411866.551,115.83711
1425411866.567,155.33727
1425411866.583,185.58177
1425411866.598,204.41495
1425411866.614,211.18944
1425411866.629,206.71481
1425411866.645,193.0798
1425411866.661,173.30136
1425411866.676,150.71753
1425411866.692,128.36401
1425411866.708,108.422775
1425411866.723,91.992584
1425411866.739,79.27172
1425411866.754,69.87869
1425411866.77,63.152218
1425411866.786,58.396057
1425411866.801,54.87505
1425411866.817,51.881645
1425411866.833,48.729828
1425411866.848,44.937546
1425411866.864,40.324947
1425411866.879,35.015747
1425411866.895,29.301243
1425411866.911,23.488752
1425411866.926,17.814743
1425411866.942,12.427649
1425411866.958,7.486026
1425411866.973,3.2095447
1425411866.989,-0.14214563
1425411867.004,-2.3850584
1425411867.02,-3.5262465
1425411867.036,-3.7877073
1425411867.051,-3.5466318
1425411867.067,-3.1603308
1425411867.083,-2.8935666
1425411867.098,-2.8888779
1425411867.114,-3.2428346
1425411867.129,-4.0626554
1425411867.145,-5.4522486
1425411867.161,-7.383715
1425411867.176,-9.6096945
1425411867.192,-11.624231
1425411867.208,-12.847399
1425411867.223,-12.826722
1425411867.239,-11.396614
1425411867.254,-8.713505
1425411867.27,-5.096609
1425411867.286,-0.8436754
1425411867.301,3.8246374
1425411867.317,8.724034
1425411867.333,13.538277
1425411867.348,17.709265
1425411867.364,20.49728
1425411867.379,21.245428
1425411867.395,19.621273
1425411867.411,15.833606
1425411867.426,10.588957
1425411867.442,4.8863764
1425411867.458,-0.31359577
1425411867.473,-4.3885555
1425411867.489,-7.1653643
1425411867.504,-8.790495
1425411867.52,-9.569568
1425411867.536,-9.754297
1425411867.551,-9.484549
1425411867.567,-8.872171
1425411867.583,-8.095472
1425411867.598,-7.449108
1425411867.614,-7.2497807
1425411867.629,-7.672903
1425411867.645,-8.643587
1425411867.661,-9.830399
1425411867.676,-10.815756
1425411867.692,-11.252735
1425411867.708,-11.074387
1425411867.723,-10.396694
1425411867.739,-9.420748
1425411867.754,-8.243597
1425411867.77,-6.8350945
1425411867.786,-5.088711
1425411867.801,-3.0292912
1425411867.817,-0.86289024
1425411867.833,1.0468102
1425411867.848,2.3857536
1425411867.864,3.0244522
1425411867.879,3.127737
1425411867.895,3.0290337
1425411867.911,3.0841599
1425411867.926,3.4815674
1425411867.942,4.226074
1425411867.958,5.2116394
1425411867.973,6.3332024
1425411867.989,7.561718
1425411868.004,8.967564
1425411868.02,10.679363
1425411868.036,12.881462
1425411868.051,15.749405
1425411868.067,19.319763
1425411868.083,23.334972
1425411868.098,27.196598
1425411868.114,30.02631
1425411868.129,30.951866
1425411868.145,29.435577
1425411868.161,25.55843
1425411868.176,19.984852
1425411868.192,13.780727
1425411868.208,7.9601135
1425411868.223,3.1803322
1425411868.239,-0.42417145
1425411868.254,-3.130001
1425411868.27,-5.331108
1425411868.286,-7.2721176
1425411868.301,-8.942276
1425411868.317,-10.214657
1425411868.333,-11.009365
1425411868.348,-11.430901
1425411868.364,-11.769897
1425411868.379,-12.2951355
1425411868.395,-13.130089
1425411868.411,-14.111366
1425411868.426,-14.951393
1425411868.442,-15.427994
1425411868.458,-15.629395
1425411868.473,-15.922432
1425411868.489,-16.788612
1425411868.504,-18.444962
1425411868.52,-20.673676
1425411868.536,-22.880821
1425411868.551,-24.363144
1425411868.567,-24.685143
1425411868.583,-23.870796
1425411868.598,-22.311104
1425411868.614,-20.513824
1425411868.629,-18.804337
1425411868.645,-17.181412
1425411868.661,-15.388321
1425411868.676,-13.14183
1425411868.692,-10.341415
1425411868.708,-7.1934967
1425411868.723,-4.0979004
1425411868.739,-1.4276047
1425411868.754,0.6937561
1425411868.77,2.511139
1425411868.786,4.543106
1425411868.801,7.353813
1425411868.817,11.260841
1425411868.833,16.130547
1425411868.848,21.354576
1425411868.864,26.07045
1425411868.88,29.461754
1425411868.895,31.00103
1425411868.911,30.647003
1425411868.926,28.724472
1425411868.942,25.75167
1425411868.958,22.25132
1425411868.973,18.654633
1425411868.989,15.257149
1425411869.005,12.265381
1425411869.02,9.817162
1425411869.036,7.953949
1425411869.051,6.6630325
1425411869.067,5.9072876
1425411869.083,5.6735992
1425411869.098,6.06588
1425411869.114,7.2167664
1425411869.13,9.139084
1425411869.145,11.634033
1425411869.161,14.228767
1425411869.176,16.38205
1425411869.192,17.796173
1425411869.208,18.704582
1425411869.223,19.859367
1425411869.239,22.225151
1425411869.255,26.483582
1425411869.27,32.54692
1425411869.286,39.442764
1425411869.301,45.441406
1425411869.317,48.58008
1425411869.333,47.26758
1425411869.348,40.72151
1425411869.364,29.24614
1425411869.38,14.141312
1425411869.395,-2.6429138
1425411869.411,-19.038467
1425411869.426,-33.394714
1425411869.442,-44.94574
1425411869.458,-53.890167
1425411869.473,-61.083893
1425411869.489,-67.47302
1425411869.505,-73.56209
1425411869.52,-79.190414
1425411869.536,-83.801834
1425411869.551,-86.925354
1425411869.567,-88.60158
1425411869.583,-89.40225
1425411869.598,-90.07318
1425411869.614,-91.00139
1425411869.63,-91.90698
1425411869.645,-91.856094
1425411869.661,-89.76489
1425411869.676,-84.9075
1425411869.692,-77.358444
1425411869.708,-67.94838
1425411869.723,-57.929398
1425411869.739,-48.46965
1425411869.755,-40.26207
1425411869.77,-33.42096
1425411869.786,-27.627075
1425411869.801,-22.442429
1425411869.817,-17.574493
1425411869.833,-12.92897
1425411869.848,-8.573303
1425411869.864,-4.458832
1425411869.88,-0.39997864
1425411869.895,3.8657074
1425411869.911,8.476379
1425411869.926,13.431
1425411869.942,18.473808
1425411869.958,23.398415
1425411869.973,28.200157
1425411869.989,33.061684
1425411870.005,38.225517
1425411870.02,43.821136
1425411870.036,49.95764
1425411870.051,57.00553
1425411870.067,65.84065
1425411870.083,77.70845
1425411870.098,93.47794
1425411870.114,112.64275
1425411870.13,132.74261
1425411870.145,149.65227
1425411870.161,158.76826
1425411870.176,156.62122
1425411870.192,142.08875
1425411870.208,116.65232
1425411870.223,83.68449
1425411870.239,47.259758
1425411870.255,11.100891
1425411870.27,-21.82576
1425411870.286,-49.16391
1425411870.301,-68.89391
1425411870.317,-79.34672
1425411870.333,-79.50952
1425411870.348,-69.597374
1425411870.364,-51.239815
1425411870.38,-27.365723
1425411870.395,-1.4708405
1425411870.411,23.10167
1425411870.426,44.01539
1425411870.442,59.9738
1425411870.458,70.58923
1425411870.473,75.91118
1425411870.489,75.99816
1425411870.505,70.92484
1425411870.52,61.101204
1425411870.536,47.698433
1425411870.551,32.691895
1425411870.567,18.508469
1425411870.583,7.252121
1425411870.598,-0.06439209
1425411870.614,-3.86911
1425411870.63,-5.727844
1425411870.645,-7.582443
1425411870.661,-10.837341
1425411870.676,-15.828918
1425411870.692,-21.856949
1425411870.708,-27.826904
1425411870.723,-32.876648
1425411870.739,-36.771484
1425411870.755,-39.989563
1425411870.77,-43.312515
1425411870.786,-47.280914
1425411870.801,-51.66803
1425411870.817,-55.47592
1425411870.833,-57.391357
1425411870.848,-56.578842
1425411870.864,-53.037354
1425411870.88,-47.657074
1425411870.895,-41.787415
1425411870.911,-36.65715
1425411870.926,-32.87709
1425411870.942,-30.3134
1425411870.958,-28.357758
1425411870.973,-26.423859
1425411870.989,-24.543274
1425411871.005,-23.219177
1425411871.02,-23.167618
1425411871.036,-24.960419
1425411871.051,-28.823822
1425411871.067,-34.5925
1425411871.083,-41.700653
1425411871.098,-49.307114
1425411871.114,-56.50435
1425411871.13,-63.009903
1425411871.145,-68.55005
1425411871.161,-72.570175
1425411871.176,-74.286194
1425411871.192,-73.13571
1425411871.208,-69.18138
1425411871.223,-63.171738
1425411871.239,-56.22316
1425411871.255,-49.18698
1425411871.27,-42.98358
1425411871.286,-36.738617
1425411871.301,-27.431381
1425411871.317,-11.221878
1425411871.333,14.327652
1425411871.348,48.621994
1425411871.364,88.19049
1425411871.38,128.10558
1425411871.395,163.81801
1425411871.411,190.63287
1425411871.426,206.12225
1425411871.442,210.56056
1425411871.458,205.73381
1425411871.473,193.24086
1425411871.489,173.64621
1425411871.505,146.91467
1425411871.52,112.89671
1425411871.536,71.38226
1425411871.552,19.719406
1425411871.567,-43.506454
1425411871.583,-116.01894
1425411871.598,-191.0026
1425411871.614,-258.95187
1425411871.63,-310.90146
1425411871.645,-341.3463
1425411871.661,-350.11096
1425411871.676,-327.7877
1425411871.692,-275.48242
1425411871.708,-205.6419
1425411871.723,-136.20361
1425411871.739,-79.72918
1425411871.755,-38.860725
1425411871.77,-10.397293
1425411871.786,9.223976
1425411871.802,21.81517
1425411871.817,28.3199
1425411871.833,27.885704
1425411871.848,21.456207
1425411871.864,12.369503
1425411871.88,4.838196
1425411871.895,1.5254745
1425411871.911,2.3370323
1425411871.927,5.0318184
1425411871.942,7.1991615
1425411871.958,7.8620224
1425411871.973,5.7148724
1425411871.989,1.2311134
1425411872.005,-3.2847958
1425411872.02,-5.0657077
1425411872.036,-2.0825229
1425411872.052,5.250206
1425411872.067,14.729111
1425411872.083,23.722427
1425411872.098,30.881876
1425411872.114,34.909874
1425411872.13,35.99095
1425411872.145,35.806984
1425411872.161,36.56839
1425411872.177,39.646214
1425411872.192,44.674232
1425411872.208,49.988724
1425411872.223,53.69622
1425411872.239,55.191616
1425411872.255,54.32244
1425411872.27,52.091576
1425411872.286,50.52446
1425411872.302,52.037125
1425411872.317,58.743538
1425411872.333,72.0886
1425411872.348,93.23842
1425411872.364,118.38292
1425411872.38,144.81665
1425411872.395,168.96246
1425411872.411,186.95818
1425411872.427,195.80673
1425411872.442,194.48907
1425411872.458,184.4887
1425411872.473,169.07114
1425411872.489,151.73965
1425411872.505,134.51788
1425411872.52,117.82142
1425411872.536,100.1498
1425411872.552,79.83016
1425411872.567,56.68029
1425411872.583,32.566414
1425411872.598,10.605637
1425411872.614,-6.5582733
1425411872.63,-18.163155
1425411872.645,-25.735474
1425411872.661,-31.631927
1425411872.677,-38.230194
1425411872.692,-46.652878
1425411872.708,-56.375183
1425411872.723,-65.63563
1425411872.739,-72.46329
1425411872.755,-75.55909
1425411872.77,-74.761925
1425411872.786,-70.94052
1425411872.802,-65.20526
1425411872.817,-58.77003
1425411872.833,-52.572952
1425411872.848,-47.13882
1425411872.864,-42.71821
1425411872.88,-39.42112
1425411872.895,-37.265553
1425411872.911,-36.11224
1425411872.927,-35.738235
1425411872.942,-35.784637
1425411872.958,-36.15763
1425411872.973,-37.119
1425411872.989,-39.15018
1425411873.005,-42.554333
1425411873.02,-47.002815
1425411873.036,-51.40405
1425411873.052,-54.121193
1425411873.067,-53.691685
1425411873.083,-49.462112
1425411873.098,-42.079838
1425411873.114,-33.152176
1425411873.13,-24.576586
1425411873.145,-17.713993
1425411873.161,-12.939947
1425411873.177,-9.730198
1425411873.192,-7.1890774
1425411873.208,-4.6814213
1425411873.223,-2.1109219
1425411873.239,0.1277504
1425411873.255,1.5907192
1425411873.27,2.2057934
1425411873.286,2.5004864
1425411873.302,3.360382
1425411873.317,5.5885963
1425411873.333,9.416996
1425411873.348,14.334362
1425411873.364,19.380934
1425411873.38,23.607124
1425411873.395,26.526276
1425411873.411,28.256464
1425411873.427,29.226292
1425411873.442,29.791912
1425411873.458,29.973736
1425411873.473,29.555933
1425411873.489,28.35523
1425411873.505,26.571053
1425411873.52,24.810429
1425411873.536,23.786942
1425411873.552,23.948341
1425411873.567,25.256332
1425411873.583,27.251581
1425411873.598,29.414536
1425411873.614,31.485697
1425411873.63,33.529213
1425411873.645,35.728516
1425411873.661,38.113235
1425411873.677,40.441063
1425411873.692,42.275795
1425411873.708,43.202465
1425411873.723,42.91103
1425411873.739,41.28691
1425411873.755,38.22596
1425411873.77,33.713566
1425411873.786,27.851753
1425411873.802,20.928993
1425411873.817,13.455151
1425411873.833,6.002469
1425411873.848,-0.9413109
1425411873.864,-7.0476627
1425411873.88,-12.07767
1425411873.895,-15.794592
1425411873.911,-17.95804
1425411873.927,-18.498093
1425411873.942,-17.768358
1425411873.958,-16.573692
1425411873.973,-15.991034
1425411873.989,-16.843725
1425411874.005,-19.322258
1425411874.02,-22.782827
1425411874.036,-26.082016
1425411874.052,-28.061207
1425411874.067,-28.07022
1425411874.083,-26.222015
1425411874.098,-23.270573
1425411874.114,-20.278538
1425411874.13,-18.193806
1425411874.145,-17.509495
1425411874.161,-18.16661
1425411874.177,-19.633389
1425411874.192,-21.174831
1425411874.208,-22.11745
1425411874.224,-22.061176
1425411874.239,-20.925892
1425411874.255,-18.905273
1425411874.27,-16.268417
1425411874.286,-13.307701
1425411874.302,-10.2150955
1425411874.317,-7.189705
1425411874.333,-4.3774033
1425411874.348,-1.8917923
1425411874.364,0.26815796
1425411874.38,2.2665634
1425411874.395,4.3731537
1425411874.411,6.8495255
1425411874.427,9.829727
1425411874.442,13.274651
1425411874.458,17.028046
1425411874.474,20.881615
1425411874.489,24.51307
1425411874.505,27.435295
1425411874.52,29.003479
1425411874.536,28.599037
1425411874.552,25.914413
1425411874.567,21.18322
1425411874.583,15.144821
1425411874.599,8.752861
1425411874.614,2.7509537
1425411874.63,-2.6080399
1425411874.645,-7.4663315
1425411874.661,-12.057289
1425411874.677,-16.358604
1425411874.692,-19.964119
1425411874.708,-22.326103
1425411874.724,-23.10257
1425411874.739,-22.471855
1425411874.755,-21.099266
1425411874.77,-19.814217
1425411874.786,-19.250267
1425411874.802,-19.507439
1425411874.817,-20.224869
1425411874.833,-20.792984
1425411874.849,-20.68515
1425411874.864,-19.705688
1425411874.88,-18.026276
1425411874.895,-16.0588
1425411874.911,-14.244858
1425411874.927,-12.851257
1425411874.942,-11.861534
1425411874.958,-11.057663
1425411874.974,-10.129051
1425411874.989,-8.892517
1425411875.005,-7.3788147
1425411875.02,-5.7731247
1425411875.036,-4.319641
1425411875.052,-3.0776367
1425411875.067,-1.9372253
1425411875.083,-0.70854187
1425411875.099,0.73275757
1425411875.114,2.330185
1425411875.13,3.8862305
1425411875.145,5.2096863
1425411875.161,6.317642
1425411875.177,7.5182953
1425411875.192,9.290085
1425411875.208,12.037964
1425411875.224,15.869049
1425411875.239,20.435394
1425411875.255,24.934967
1425411875.27,28.43837
1425411875.286,30.132507
1425411875.302,29.61493
1425411875.317,26.934616
1425411875.333,22.52806
1425411875.349,17.005646
1425411875.364,10.938675
1425411875.38,4.784851
1425411875.395,-1.1061096
1425411875.411,-6.4079285
1425411875.427,-10.803787
1425411875.442,-13.980087
1425411875.458,-15.756958
1425411875.474,-16.141281
1425411875.489,-15.405136
1425411875.505,-14.052719
1425411875.52,-12.686035
1425411875.536,-11.866196
1425411875.552,-11.893219
1425411875.567,-12.801743
1425411875.583,-14.344177
1425411875.599,-16.16864
1425411875.614,-17.90094
1425411875.63,-19.309097
1425411875.645,-20.296417
1425411875.661,-20.868896
1425411875.677,-21.044952
1425411875.692,-20.826263
1425411875.708,-20.185684
1425411875.724,-19.150253
1425411875.739,-17.807327
1425411875.755,-16.33554
1425411875.77,-14.893356
1425411875.786,-13.53511
1425411875.802,-12.21843
1425411875.817,-10.828842
1425411875.833,-9.29071
1425411875.849,-7.621414
1425411875.864,-5.9115906
1425411875.88,-4.245056
1425411875.895,-2.647461
1425411875.911,-0.95162964
1425411875.927,1.1469879
1425411875.942,4.0161133
1425411875.958,7.92688
1425411875.974,12.906876
1425411875.989,18.698227
1425411876.005,24.818192
1425411876.02,30.647797
1425411876.036,35.53119
1425411876.052,38.88037
1425411876.067,40.242126
1425411876.083,39.377136
1425411876.099,36.337646
1425411876.114,31.499207
1425411876.13,25.511063
1425411876.145,19.170563
1425411876.161,13.218933
1425411876.177,8.19696
1425411876.192,4.3618317
1425411876.208,1.7239227
1425411876.224,0.048950195
1425411876.239,-1.0344849
1425411876.255,-2.0168152
1425411876.27,-3.421997
1425411876.286,-5.680969
1425411876.302,-8.900497
1425411876.317,-12.793488
1425411876.333,-16.684662
1425411876.349,-19.823776
1425411876.364,-21.714905
1425411876.38,-22.372467
1425411876.395,-22.274643
1425411876.411,-22.083328
1425411876.427,-22.250229
1425411876.442,-22.799622
1425411876.458,-23.327011
1425411876.474,-23.321045
1425411876.489,-22.431122
1425411876.505,-20.639221
1425411876.52,-18.20996
1425411876.536,-15.534912
1425411876.552,-12.9436035
1425411876.567,-10.648087
1425411876.583,-8.755157
1425411876.599,-7.297241
1425411876.614,-6.2711945
1425411876.63,-5.5977325
1425411876.645,-5.1080017
1425411876.661,-4.5737305
1425411876.677,-3.7770233
1425411876.692,-2.612564
1425411876.708,-1.0617676
1425411876.724,0.8115387
1425411876.739,2.929123
1425411876.755,5.2875214
1425411876.77,7.946747
1425411876.786,10.968185
1425411876.802,14.410019
1425411876.817,18.266876
1425411876.833,22.455048
1425411876.849,26.787231
1425411876.864,30.932968
1425411876.88,34.381516
1425411876.895,36.503098
1425411876.911,36.645615
1425411876.927,34.376755
1425411876.942,29.689865
1425411876.958,23.099625
1425411876.974,15.558487
1425411876.989,8.153671
1425411877.005,1.7837372
1425411877.02,-3.0877075
1425411877.036,-6.5006104
1425411877.052,-8.789764
1425411877.067,-10.364975
1425411877.083,-11.579941
1425411877.099,-12.640488
1425411877.114,-13.710083
1425411877.13,-14.960419
1425411877.146,-16.523438
1425411877.161,-18.452957
1425411877.177,-20.616455
1425411877.192,-22.742996
1425411877.208,-24.497482
1425411877.224,-25.655777
1425411877.239,-26.215897
1425411877.255,-26.433197
1425411877.271,-26.672165
1425411877.286,-27.187088
1425411877.302,-27.992859
1425411877.317,-28.747498
1425411877.333,-28.975204
1425411877.349,-28.26381
1425411877.364,-26.550186
1425411877.38,-24.118362
1425411877.396,-21.522827
1425411877.411,-19.247787
1425411877.427,-17.507523
1425411877.442,-16.159348
1425411877.458,-14.858749
1425411877.474,-13.274536
1425411877.489,-11.275635
1425411877.505,-8.926971
1425411877.521,-6.3389587
1425411877.536,-3.5236359
1425411877.552,-0.31436157
1425411877.567,3.5653687
1425411877.583,8.31192
1425411877.599,13.9544525
1425411877.614,20.254639
1425411877.63,26.803757
1425411877.646,33.12291
1425411877.661,38.767868
1425411877.677,43.307617
1425411877.692,46.33635
1425411877.708,47.459488
1425411877.724,46.358536
1425411877.739,42.95494
1425411877.755,37.517456
1425411877.771,30.694183
1425411877.786,23.363297
1425411877.802,16.39917
1425411877.817,10.404037
1425411877.833,5.5749817
1425411877.849,1.76651
1425411877.864,-1.3350372
1425411877.88,-3.9387512
1425411877.896,-6.125931
1425411877.911,-7.9196625
1425411877.927,-9.416565
1425411877.942,-10.845352
1425411877.958,-12.490814
1425411877.974,-14.513962
1425411877.989,-16.829498
1425411878.005,-19.139755
1425411878.021,-21.083664
1425411878.036,-22.458572
1425411878.052,-23.28891
1425411878.067,-23.805313
1425411878.083,-24.24887
1425411878.099,-24.75473
1425411878.114,-25.278976
1425411878.13,-25.690033
1425411878.146,-25.887863
1425411878.161,-25.858795
1425411878.177,-25.615982
1425411878.192,-25.165024
1425411878.208,-24.431
1425411878.224,-23.32666
1425411878.239,-21.869568
1425411878.255,-20.16626
1425411878.271,-18.354507
1425411878.286,-16.449066
1425411878.302,-14.209702
1425411878.317,-11.218643
1425411878.333,-7.041153
1425411878.349,-1.5019073
1425411878.364,5.191101
1425411878.38,12.426804
1425411878.396,19.460602
1425411878.411,25.641548
1425411878.427,30.656761
1425411878.442,34.535072
1425411878.458,37.506256
1425411878.474,39.724754
1425411878.489,41.13659
1425411878.505,41.45262
1425411878.521,40.285072
1425411878.536,37.37719
1425411878.552,32.762474
1425411878.567,26.78749
1425411878.583,20.049889
1425411878.599,13.199799
1425411878.614,6.8452606
1425411878.63,1.4275742
1425411878.646,-2.7929611
1425411878.661,-5.740776
1425411878.677,-7.4912796
1425411878.692,-8.274712
1425411878.708,-8.394234
1425411878.724,-8.215538
1425411878.739,-8.111877
1425411878.755,-8.444382
1425411878.771,-9.447037
1425411878.786,-11.163712
1425411878.802,-13.426178
1425411878.817,-15.85788
1425411878.833,-18.0167
1425411878.849,-19.587631
1425411878.864,-20.456161
1425411878.88,-20.672348
1425411878.896,-20.336739
1425411878.911,-19.47374
1425411878.927,-18.011658
1425411878.942,-15.930878
1425411878.958,-13.378769
1425411878.974,-10.690079
1425411878.989,-8.228111
1425411879.005,-6.210663
1425411879.021,-4.549782
1425411879.036,-2.936943
1425411879.052,-1.0464783
1425411879.067,1.2031403
1425411879.083,3.6531448
1425411879.099,5.9543304
1425411879.114,7.8029175
1425411879.13,9.1256485
1425411879.146,10.095398
1425411879.161,11.058151
1425411879.177,12.37162
1425411879.192,14.287048
1425411879.208,16.926529
1425411879.224,20.292923
1425411879.239,24.308006
1425411879.255,28.773392
1425411879.271,33.345085
1425411879.286,37.48146
1425411879.302,40.504486
1425411879.317,41.732193
1425411879.333,40.713875
1425411879.349,37.380104
1425411879.364,32.101944
1425411879.38,25.61856
1425411879.396,18.787064
1425411879.411,12.381889
1425411879.427,6.913025
1425411879.442,2.5494156
1425411879.458,-0.7611923
1425411879.474,-3.2536316
1425411879.489,-5.168167
1425411879.505,-6.7592545
1425411879.521,-8.249634
1425411879.536,-9.836662
1425411879.552,-11.666084
1425411879.567,-13.800064
1425411879.583,-16.162048
1425411879.599,-18.570015
1425411879.614,-20.774483
1425411879.63,-22.573471
1425411879.646,-23.876358
1425411879.661,-24.683289
1425411879.677,-25.078163
1425411879.692,-25.113281
1425411879.708,-24.784203
1425411879.724,-24.050163
1425411879.739,-22.846466
1425411879.755,-21.18296
1425411879.771,-19.107185
1425411879.786,-16.724754
1425411879.802,-14.16655
1425411879.818,-11.589691
1425411879.833,-9.147598
1425411879.849,-6.9179153
1425411879.864,-4.848076
1425411879.88,-2.765854
1425411879.896,-0.4613037
1425411879.911,2.155304
1425411879.927,4.9563904
1425411879.943,7.647377
1425411879.958,9.911835
1425411879.974,11.606583
1425411879.989,12.844223
1425411880.005,13.935387
1425411880.021,15.222908
1425411880.036,16.978653
1425411880.052,19.345589
1425411880.068,22.29203
1425411880.083,25.624115
1425411880.099,28.884003
1425411880.114,31.429344
1425411880.13,32.526573
1425411880.146,31.656128
1425411880.161,28.739304
1425411880.177,24.276207
1425411880.193,19.07956
1425411880.208,13.994217
1425411880.224,9.505737
1425411880.239,5.6810837
1425411880.255,2.2842178
1425411880.271,-0.9446411
1425411880.286,-4.134598
1425411880.302,-7.2022095
1425411880.318,-9.955154
1425411880.333,-12.197739
1425411880.349,-13.844643
1425411880.364,-14.911736
1425411880.38,-15.562248
1425411880.396,-15.997002
1425411880.411,-16.437302
1425411880.427,-17.032059
1425411880.443,-17.809326
1425411880.458,-18.682755
1425411880.474,-19.531288
1425411880.489,-20.283089
1425411880.505,-20.986717
1425411880.521,-21.726952
1425411880.536,-22.560158
1425411880.552,-23.399582
1425411880.568,-24.069645
1425411880.583,-24.305656
1425411880.599,-23.971375
1425411880.614,-23.059895
1425411880.63,-21.720673
1425411880.646,-20.141682
1425411880.661,-18.481842
1425411880.677,-16.760674
1425411880.693,-14.910641
1425411880.708,-12.775982
1425411880.724,-10.2216835
1425411880.739,-7.1957664
1425411880.755,-3.8440628
1425411880.771,-0.4675827
1425411880.786,2.5897179
1425411880.802,5.085411
1425411880.818,7.007004
1425411880.833,8.5948105
1425411880.849,10.198292
1425411880.864,12.176167
1425411880.88,14.738152
1425411880.896,17.97256
1425411880.911,21.842426
1425411880.927,26.237698
1425411880.943,30.843182
1425411880.958,35.082104
1425411880.974,38.12178
1425411880.989,39.084393
1425411881.005,37.367123
1425411881.021,32.952057
1425411881.036,26.465061
1425411881.052,18.984665
1425411881.068,11.63681
1425411881.083,5.231056
1425411881.099,0.10139465
1425411881.114,-3.8123322
1425411881.13,-6.7241554
1425411881.146,-8.790855
1425411881.161,-10.056831
1425411881.177,-10.550781
1425411881.193,-10.449009
1425411881.208,-10.085392
1425411881.224,-9.915947
1425411881.239,-10.270027
1425411881.255,-11.221886
1425411881.271,-12.5424595
1425411881.286,-13.793703
1425411881.302,-14.572365
1425411881.318,-14.638426
1425411881.333,-13.99971
1425411881.349,-12.893169
1425411881.364,-11.613037
1425411881.38,-10.411076
1425411881.396,-9.405243
1425411881.411,-8.60342
1425411881.427,-7.9147835
1425411881.443,-7.2674046
1425411881.458,-6.5714912
1425411881.474,-5.803583
1425411881.489,-4.953905
1425411881.505,-4.0340843
1425411881.521,-3.0427456
1425411881.536,-1.9671326
1425411881.552,-0.7890129
1425411881.568,0.49303436
1425411881.583,1.8369846
1425411881.599,3.1669426
1425411881.614,4.3860435
1425411881.63,5.4757023
1425411881.646,6.5304966
1425411881.661,7.7857075
1425411881.677,9.537564
1425411881.693,12.024679
1425411881.708,15.333476
1425411881.724,19.298195
1425411881.739,23.573765
1425411881.755,27.659988
1425411881.771,30.985088
1425411881.786,33.01107
1425411881.802,33.285378
1425411881.818,31.545242
1425411881.833,27.817627
1425411881.849,22.433474
1425411881.864,16.04499
1425411881.88,9.468708
1425411881.896,3.4825602
1425411881.911,-1.3669844
1425411881.927,-4.872367
1425411881.943,-7.126849
1425411881.958,-8.410091
1425411881.974,-9.047687
1425411881.989,-9.307988
1425411882.005,-9.448027
1425411882.021,-9.679225
1425411882.036,-10.156761
1425411882.052,-10.938258
1425411882.068,-11.938356
1425411882.083,-12.962426
1425411882.099,-13.814867
1425411882.114,-14.408016
1425411882.13,-14.801329
1425411882.146,-15.19735
1425411882.161,-15.764267
1425411882.177,-16.528881
1425411882.193,-17.306313
1425411882.208,-17.768826
1425411882.224,-17.617268
1425411882.239,-16.709393
1425411882.255,-15.136065
1425411882.271,-13.129581
1425411882.286,-10.954527
1425411882.302,-8.740042
1425411882.318,-6.489011
1425411882.333,-4.1277585
1425411882.349,-1.6427519
1425411882.364,0.81431735
1425411882.38,2.9578133
1425411882.396,4.4778085
1425411882.411,5.2560234
1425411882.427,5.4987607
1425411882.443,5.741289
1425411882.458,6.6682706
1425411882.474,8.821901
1425411882.49,12.369766
1425411882.505,17.005037
1425411882.521,22.094597
1425411882.536,26.84784
1425411882.552,30.569098
1425411882.568,32.77466
1425411882.583,33.231434
1425411882.599,31.89154
1425411882.615,28.871096
1425411882.63,24.442545
1425411882.646,19.071388
1425411882.661,13.33362
1425411882.677,7.822551
1425411882.693,3.0053782
1425411882.708,-0.91290426
1425411882.724,-3.9661784
1425411882.74,-6.3338957
1425411882.755,-8.20967
1425411882.771,-9.69772
1425411882.786,-10.829496
1425411882.802,-11.595563
1425411882.818,-12.063484
1425411882.833,-12.38361
1425411882.849,-12.772288
1425411882.865,-13.451231
1425411882.88,-14.574112
1425411882.896,-16.180517
1425411882.911,-18.174793
1425411882.927,-20.334515
1425411882.943,-22.358433
1425411882.958,-23.941135
1425411882.974,-24.84516
1425411882.99,-24.95663
1425411883.005,-24.303848
1425411883.021,-22.980473
1425411883.036,-21.108452
1425411883.052,-18.817333
1425411883.068,-16.226215
1425411883.083,-13.513436
1425411883.099,-10.89981
1425411883.115,-8.579166
1425411883.13,-6.664156
1425411883.146,-5.0553875
1425411883.161,-3.5457191
1425411883.177,-1.8514614
1425411883.193,0.20544243
1425411883.208,2.6622524
1425411883.224,5.3997154
1425411883.24,8.233955
1425411883.255,11.036587
1425411883.271,13.72998
1425411883.286,16.335703
1425411883.302,18.951519
1425411883.318,21.68309
1425411883.333,24.643154
1425411883.349,27.883266
1425411883.365,31.381735
1425411883.38,34.921013
1425411883.396,38.157127
1425411883.411,40.626495
1425411883.427,41.87314
1425411883.443,41.528763
1425411883.458,39.43572
1425411883.474,35.623047
1425411883.49,30.295235
1425411883.505,23.838797
1425411883.521,16.819965
1425411883.536,9.915077
1425411883.552,3.7931137
1425411883.568,-1.0594406
1425411883.583,-4.4792404
1425411883.599,-6.665016
1425411883.615,-8.02936
1425411883.63,-9.036894
1425411883.646,-9.9909935
1425411883.661,-11.021568
1425411883.677,-12.077892
1425411883.693,-13.097748
1425411883.708,-14.034643
1425411883.724,-14.914618
1425411883.74,-15.736647
1425411883.755,-16.45752
1425411883.771,-17.040312
1425411883.786,-17.447546
1425411883.802,-17.651363
1425411883.818,-17.659922
1425411883.833,-17.449236
1425411883.849,-16.99123
1425411883.865,-16.257427
1425411883.88,-15.294571
1425411883.896,-14.20919
1425411883.911,-13.150978
1425411883.927,-12.198828
1425411883.943,-11.381668
1425411883.958,-10.586493
1425411883.974,-9.6594715
1425411883.99,-8.425283
1425411884.005,-6.785967
1425411884.021,-4.7211876
1425411884.036,-2.3372211
1425411884.052,0.1299038
1425411884.068,2.4181042
1425411884.083,4.306406
1425411884.099,5.7138786
1425411884.115,6.7995415
1425411884.13,7.9086075
1425411884.146,9.480608
1425411884.161,11.908691
1425411884.177,15.437998
1425411884.193,20.03423
1425411884.208,25.367352
1425411884.224,30.802223
1425411884.24,35.510643
1425411884.255,38.633675
1425411884.271,39.493732
1425411884.286,37.7552
1425411884.302,33.570763
1425411884.318,27.501795
