1425685390.941,0.0
1425685390.956,0.0
1425685390.972,0.0
1425685390.988,0.0
1425685391.003,0.0
1425685391.019,0.0
1425685391.035,0.0
1425685391.05,0.0
1425685391.066,0.0
1425685391.081,-6.4126616E-5
1425685391.097,-0.008278351
1425685391.113,-0.0150268795
1425685391.128,-0.011787066
1425685391.144,0.0077579315
1425685391.16,0.039514493
1425685391.175,0.064238355
1425685391.191,0.05160164
1425685391.206,-0.026833303
1425685391.222,-0.18237844
1425685391.238,-0.40922883
1425685391.253,-0.66435313
1425685391.269,-0.90336305
1425685391.285,-1.1004102
1425685391.3,-1.2656107
1425685391.316,-1.4440607
1425685391.331,-1.6950821
1425685391.347,-2.0621183
1425685391.363,-2.549904
1425685391.378,-3.1408455
1425685391.394,-3.750292
1425685391.41,-4.3010054
1425685391.425,-4.748727
1425685391.441,-5.1078205
1425685391.456,-5.450467
1425685391.472,-5.875745
1425685391.488,-6.461081
1425685391.503,-7.220176
1425685391.519,-8.145468
1425685391.535,-9.062295
1425685391.55,-9.808291
1425685391.566,-10.291383
1425685391.581,-10.561237
1425685391.597,-10.820545
1425685391.613,-11.351559
1425685391.628,-12.386232
1425685391.644,-13.987194
1425685391.66,-16.119015
1425685391.675,-18.362179
1425685391.691,-20.315342
1425685391.706,-21.74777
1425685391.722,-22.763391
1425685391.738,-23.811707
1425685391.753,-25.508017
1425685391.769,-28.338806
1425685391.785,-32.405865
1425685391.8,-37.532433
1425685391.816,-42.861927
1425685391.832,-47.583763
1425685391.847,-51.246067
1425685391.863,-54.03287
1425685391.878,-56.744675
1425685391.894,-60.44743
1425685391.91,-65.950386
1425685391.925,-73.381134
1425685391.941,-82.32753
1425685391.956,-91.40645
1425685391.972,-99.33252
1425685391.988,-105.42297
1425685392.003,-109.96724
1425685392.019,-114.14511
1425685392.035,-119.47803
1425685392.05,-127.06837
1425685392.066,-135.59273
1425685392.082,-146.1092
1425685392.097,-158.3213
1425685392.113,-171.6971
1425685392.128,-184.65973
1425685392.144,-194.13628
1425685392.16,-196.12984
1425685392.175,-187.34755
1425685392.191,-167.0596
1425685392.207,-137.88684
1425685392.222,-104.97831
1425685392.238,-72.75485
1425685392.253,-42.912643
1425685392.269,-13.507141
1425685392.285,19.653229
1425685392.3,60.229797
1425685392.316,109.04245
1425685392.332,163.59741
1425685392.347,219.57977
1425685392.363,272.9208
1425685392.378,321.85068
1425685392.394,366.3809
1425685392.41,406.9454
1425685392.425,442.9394
1425685392.441,472.2063
1425685392.457,491.81168
1425685392.472,499.2939
1425685392.488,493.77124
1425685392.503,475.97495
1425685392.519,448.02838
1425685392.535,412.58972
1425685392.55,371.80096
1425685392.566,327.15387
1425685392.582,279.55316
1425685392.597,229.71729
1425685392.613,178.62686
1425685392.628,127.75644
1425685392.644,78.90149
1425685392.66,33.965515
1425685392.675,-5.6257935
1425685392.691,-39.26538
1425685392.707,-67.15692
1425685392.722,-90.08476
1425685392.738,-109.00195
1425685392.753,-124.656296
1425685392.769,-137.39177
1425685392.785,-147.22346
1425685392.8,-153.9829
1425685392.816,-157.62389
1425685392.832,-158.39986
1425685392.847,-156.84563
1425685392.863,-153.65579
1425685392.878,-149.48727
1425685392.894,-144.79877
1425685392.91,-139.79077
1425685392.925,-134.46474
1425685392.941,-128.73178
1425685392.957,-122.541504
1425685392.972,-115.96268
1425685392.988,-109.15532
1425685393.003,-102.331314
1425685393.019,-95.66007
1425685393.035,-89.24289
1425685393.05,-83.096016
1425685393.066,-77.18768
1425685393.082,-71.47763
1425685393.097,-65.945625
1425685393.113,-60.60652
1425685393.128,-55.486088
1425685393.144,-50.6189
1425685393.16,-46.0188
1425685393.175,-41.696472
1425685393.191,-37.644188
1425685393.207,-33.845116
1425685393.222,-30.29919
1425685393.238,-26.998497
1425685393.253,-23.948902
1425685393.269,-21.142271
1425685393.285,-18.582373
1425685393.3,-16.257185
1425685393.316,-14.172014
1425685393.332,-12.31448
1425685393.347,-10.67918
1425685393.363,-9.255215
1425685393.378,-8.027553
1425685393.394,-6.9829626
1425685393.41,-6.108161
1425685393.425,-5.3878317
1425685393.441,-4.8012676
1425685393.457,-4.3428974
1425685393.472,-3.9947119
1425685393.488,-3.7468858
1425685393.503,-3.5888734
1425685393.519,-3.510593
1425685393.535,-3.5039568
1425685393.55,-3.55927
1425685393.566,-3.6772585
1425685393.582,-3.8470044
1425685393.597,-4.0690303
1425685393.613,-4.3395786
1425685393.628,-4.6573124
1425685393.644,-5.0203857
1425685393.66,-5.427521
1425685393.675,-5.8757315
1425685393.691,-6.365844
1425685393.707,-6.903551
1425685393.722,-7.4844904
1425685393.738,-8.106631
1425685393.753,-8.776249
1425685393.769,-9.491006
1425685393.785,-10.252458
1425685393.8,-11.061085
1425685393.816,-11.909499
1425685393.832,-12.806259
1425685393.847,-13.75821
1425685393.863,-14.770372
1425685393.878,-15.845242
1425685393.894,-16.986439
1425685393.91,-18.182888
1425685393.925,-19.419704
1425685393.941,-20.66671
1425685393.957,-21.858791
1425685393.972,-22.93063
1425685393.988,-23.783752
1425685394.003,-24.311117
1425685394.019,-24.386602
1425685394.035,-23.926846
1425685394.05,-22.83337
1425685394.066,-21.080761
1425685394.082,-18.67155
1425685394.097,-15.669872
1425685394.113,-12.139946
1425685394.128,-8.256176
1425685394.144,-4.191284
1425685394.16,-0.14746094
1425685394.175,3.6886063
1425685394.191,7.1350136
1425685394.207,10.055595
1425685394.222,12.347702
1425685394.238,13.973278
1425685394.253,14.919781
1425685394.269,15.224724
1425685394.285,14.96888
1425685394.3,14.258778
1425685394.316,13.181519
1425685394.332,11.857948
1425685394.347,10.349472
1425685394.363,8.742882
1425685394.378,7.059555
1425685394.394,5.3422394
1425685394.41,3.5720673
1425685394.425,1.799881
1425685394.441,0.033714294
1425685394.457,-1.7048416
1425685394.472,-3.41156
1425685394.488,-5.0871124
1425685394.504,-6.7271347
1425685394.519,-8.336456
1425685394.535,-9.949532
1425685394.55,-11.6080475
1425685394.566,-13.248886
1425685394.582,-14.850395
1425685394.597,-16.420189
1425685394.613,-17.981873
1425685394.628,-19.579582
1425685394.644,-21.252022
1425685394.66,-23.067451
1425685394.675,-25.108833
1425685394.691,-27.494598
1425685394.707,-30.086578
1425685394.722,-32.82187
1425685394.738,-35.65085
1425685394.754,-38.55414
1425685394.769,-41.53557
1425685394.785,-44.58647
1425685394.8,-47.751846
1425685394.816,-51.103683
1425685394.832,-54.78682
1425685394.847,-58.541138
1425685394.863,-62.23024
1425685394.879,-65.79239
1425685394.894,-69.1718
1425685394.91,-72.35452
1425685394.925,-75.324615
1425685394.941,-78.111404
1425685394.957,-80.77905
1425685394.972,-83.45827
1425685394.988,-85.74269
1425685395.004,-87.3405
1425685395.019,-87.98042
1425685395.035,-87.36658
1425685395.05,-85.10898
1425685395.066,-80.68887
1425685395.082,-73.32071
1425685395.097,-61.822815
1425685395.113,-48.39865
1425685395.129,-33.722076
1425685395.144,-18.291992
1425685395.16,-2.506012
1425685395.175,13.246429
1425685395.191,28.512451
1425685395.207,42.812805
1425685395.222,55.561035
1425685395.238,66.11331
1425685395.254,73.72125
1425685395.269,78.21054
1425685395.285,79.300934
1425685395.3,76.79553
1425685395.316,70.64151
1425685395.332,60.984833
1425685395.347,48.19211
1425685395.363,32.852234
1425685395.379,15.643707
1425685395.394,-2.671875
1425685395.41,-20.948456
1425685395.425,-38.242767
1425685395.441,-53.80243
1425685395.457,-67.06708
1425685395.472,-77.71655
1425685395.488,-85.60181
1425685395.504,-90.77527
1425685395.519,-93.43854
1425685395.535,-93.92914
1425685395.55,-92.351135
1425685395.566,-88.92639
1425685395.582,-83.856445
1425685395.597,-77.34888
1425685395.613,-69.58588
1425685395.629,-60.760376
1425685395.644,-51.09912
1425685395.66,-40.926697
1425685395.675,-30.665588
1425685395.691,-20.703247
1425685395.707,-11.537231
1425685395.722,-3.6759644
1425685395.738,2.4317627
1425685395.754,6.41687
1425685395.769,8.071838
1425685395.785,7.3286743
1425685395.8,4.272583
1425685395.816,-0.85369873
1425685395.832,-7.57251
1425685395.847,-15.273132
1425685395.863,-23.146606
1425685395.879,-30.308289
1425685395.894,-35.8808
1425685395.91,-39.11841
1425685395.925,-39.553284
1425685395.941,-37.175964
1425685395.957,-32.36487
1425685395.972,-25.86316
1425685395.988,-18.587585
1425685396.004,-11.369873
1425685396.019,-4.7856445
1425685396.035,0.9075928
1425685396.05,5.710083
1425685396.066,9.734009
1425685396.082,13.015137
1425685396.097,15.491211
1425685396.113,17.041748
1425685396.129,17.598389
1425685396.144,17.43335
1425685396.16,17.220093
1425685396.175,17.973022
1425685396.191,20.791626
1425685396.207,26.481567
1425685396.222,35.234863
1425685396.238,46.616455
1425685396.254,59.73706
1425685396.269,73.65674
1425685396.285,87.784546
1425685396.3,102.07385
1425685396.316,116.99414
1425685396.332,133.23206
1425685396.347,151.49841
1425685396.363,172.34607
1425685396.379,196.05481
1425685396.394,222.32507
1425685396.41,249.96228
1425685396.425,276.76294
1425685396.441,299.67505
1425685396.457,315.61694
1425685396.472,322.46472
1425685396.488,319.86414
1425685396.504,309.30066
1425685396.519,293.43652
1425685396.535,275.05408
1425685396.55,256.18787
1425685396.566,237.8844
1425685396.582,220.62927
1425685396.597,204.97937
1425685396.613,191.98657
1425685396.629,182.94788
1425685396.644,178.82727
1425685396.66,179.34595
1425685396.675,182.58667
1425685396.691,185.08704
1425685396.707,182.71362
1425685396.722,171.80908
1425685396.738,150.38
1425685396.754,118.82056
1425685396.769,79.796265
1425685396.785,37.462036
1425685396.8,-3.7469482
1425685396.816,-40.109497
1425685396.832,-69.250854
1425685396.847,-90.07178
1425685396.863,-102.41882
1425685396.879,-106.7688
1425685396.894,-104.02466
1425685396.91,-95.588745
1425685396.925,-83.26807
1425685396.941,-68.91809
1425685396.957,-53.85559
1425685396.972,-38.482056
1425685396.988,-22.223999
1425685397.004,-3.9978027
1425685397.019,17.043701
1425685397.035,40.89148
1425685397.05,66.424805
1425685397.066,91.87897
1425685397.082,115.433105
1425685397.097,136.05823
1425685397.113,153.85254
1425685397.129,169.9945
1425685397.144,186.37683
1425685397.16,205.17627
1425685397.175,228.45453
1425685397.191,257.6518
1425685397.207,292.8595
1425685397.222,332.04706
1425685397.238,370.81232
1425685397.254,402.93842
1425685397.269,422.22552
1425685397.285,424.55115
1425685397.3,409.49396
1425685397.316,380.45355
1425685397.332,343.27344
1425685397.347,303.92346
1425685397.363,266.48923
1425685397.379,232.4815
1425685397.394,201.36813
1425685397.41,172.07663
1425685397.426,144.113
1425685397.441,117.79834
1425685397.457,93.89035
1425685397.472,72.700806
1425685397.488,53.691223
1425685397.504,35.609894
1425685397.519,17.197052
1425685397.535,-2.2793503
1425685397.551,-22.692734
1425685397.566,-43.076378
1425685397.582,-62.159622
1425685397.597,-78.96396
1425685397.613,-93.21346
1425685397.629,-105.53743
1425685397.644,-117.25224
1425685397.66,-129.8273
1425685397.676,-144.4412
1425685397.691,-161.4226
1425685397.707,-180.298
1425685397.722,-200.01614
1425685397.738,-219.42621
1425685397.754,-237.82394
1425685397.769,-255.18723
1425685397.785,-272.18048
1425685397.801,-289.7761
1425685397.816,-309.15106
1425685397.832,-331.3789
1425685397.847,-357.4046
1425685397.863,-387.63696
1425685397.879,-421.29065
1425685397.894,-455.86957
1425685397.91,-486.9624
1425685397.926,-509.141
1425685397.941,-517.57526
1425685397.957,-509.78412
1425685397.972,-486.70758
1425685397.988,-452.36725
1425685398.004,-412.37762
1425685398.019,-371.98615
1425685398.035,-334.64166
1425685398.051,-301.5973
1425685398.066,-272.54993
1425685398.082,-246.6424
1425685398.097,-223.16528
1425685398.113,-201.62659
1425685398.129,-181.55688
1425685398.144,-162.2915
1425685398.16,-142.96735
1425685398.176,-122.99274
1425685398.191,-102.254944
1425685398.207,-81.27161
1425685398.222,-60.98224
1425685398.238,-42.35443
1425685398.254,-26.015625
1425685398.269,-12.184082
1425685398.285,-0.7883301
1425685398.301,8.332825
1425685398.316,15.194031
1425685398.332,19.701355
1425685398.347,21.668396
1425685398.363,20.893799
1425685398.379,17.325134
1425685398.394,11.107666
1425685398.41,2.7583618
1425685398.426,-6.843811
1425685398.441,-16.467834
1425685398.457,-24.779236
1425685398.472,-30.6604
1425685398.488,-33.520386
1425685398.504,-33.41986
1425685398.519,-30.934631
1425685398.535,-26.858276
1425685398.551,-21.86792
1425685398.566,-16.336548
1425685398.582,-10.34137
1425685398.597,-3.93396
1425685398.613,2.7702637
1425685398.629,9.425232
1425685398.644,15.496033
1425685398.66,20.472595
1425685398.676,23.965637
1425685398.691,25.903015
1425685398.707,26.633423
1425685398.722,26.823914
1425685398.738,27.18805
1425685398.754,28.208374
1425685398.769,29.914185
1425685398.785,31.92096
1425685398.801,33.73474
1425685398.816,35.118286
1425685398.832,36.375854
1425685398.847,38.274536
1425685398.863,41.667847
1425685398.879,47.01367
1425685398.894,54.048096
1425685398.91,61.812927
1425685398.926,69.05176
1425685398.941,74.776794
1425685398.957,78.65814
1425685398.972,81.11566
1425685398.988,83.167175
1425685399.004,86.09631
1425685399.019,91.06525
1425685399.035,98.76135
1425685399.051,109.06134
1425685399.066,120.72186
1425685399.082,131.34235
1425685399.097,137.50958
1425685399.113,135.47144
1425685399.129,122.190796
1425685399.144,96.459656
1425685399.16,59.66443
1425685399.176,15.734985
1425685399.191,-29.844177
1425685399.207,-71.53467
1425685399.222,-105.16058
1425685399.238,-128.71729
1425685399.254,-142.31909
1425685399.269,-147.38794
1425685399.285,-145.78882
1425685399.301,-139.18494
1425685399.316,-128.96674
1425685399.332,-116.41028
1425685399.347,-102.89624
1425685399.363,-89.789734
1425685399.379,-78.14276
1425685399.394,-68.34509
1425685399.41,-60.068604
1425685399.426,-52.57599
1425685399.441,-45.20349
1425685399.457,-37.76294
1425685399.472,-30.646973
1425685399.488,-24.58667
1425685399.504,-20.307556
1425685399.519,-18.114868
1425685399.535,-17.789917
1425685399.551,-18.596802
1425685399.566,-19.631226
1425685399.582,-20.040833
1425685399.597,-19.260437
1425685399.613,-17.100159
1425685399.629,-13.730957
1425685399.644,-9.4869995
1425685399.66,-4.770569
1425685399.676,0.057739258
1425685399.691,4.6222534
1425685399.707,8.378967
1425685399.722,10.647583
1425685399.738,10.578064
1425685399.754,7.49469
1425685399.769,1.1641846
1425685399.785,-7.9901733
1425685399.801,-18.910217
1425685399.816,-30.261963
1425685399.832,-40.647217
1425685399.847,-48.96216
1425685399.863,-54.437744
1425685399.879,-56.743347
1425685399.894,-55.93445
1425685399.91,-52.522156
1425685399.926,-47.32721
1425685399.941,-41.346252
1425685399.957,-35.478394
1425685399.972,-30.277405
1425685399.988,-25.857788
1425685400.004,-22.056824
1425685400.019,-18.58429
1425685400.035,-15.266907
1425685400.051,-12.097961
1425685400.066,-9.079895
1425685400.082,-6.2091675
1425685400.098,-3.423523
1425685400.113,-0.616333
1425685400.129,2.1757202
1425685400.144,4.865967
1425685400.16,7.3216553
1425685400.176,9.551086
1425685400.191,11.734314
1425685400.207,14.185913
1425685400.223,17.277649
1425685400.238,21.199982
1425685400.254,25.894043
1425685400.269,30.957947
1425685400.285,35.80609
1425685400.301,39.88806
1425685400.316,42.91913
1425685400.332,45.04773
1425685400.348,46.799713
1425685400.363,48.90634
1425685400.379,51.8869
1425685400.394,55.812286
1425685400.41,60.210236
1425685400.426,64.28494
1425685400.441,67.30893
1425685400.457,68.97952
1425685400.473,69.59125
1425685400.488,69.9715
1425685400.504,71.13382
1425685400.519,73.84543
1425685400.535,78.30618
1425685400.551,84.0242
1425685400.566,90.03732
1425685400.582,95.32019
1425685400.598,99.206604
1425685400.613,101.77371
1425685400.629,103.79089
1425685400.644,106.529816
1425685400.66,111.33966
1425685400.676,119.11063
1425685400.691,129.76364
1425685400.707,141.90091
1425685400.723,152.7305
1425685400.738,158.36612
1425685400.754,154.66669
1425685400.769,138.46234
1425685400.785,108.7381
1425685400.801,67.437225
1425685400.816,19.206757
1425685400.832,-29.722137
1425685400.848,-73.24475
1425685400.863,-106.942505
1425685400.879,-128.97244
1425685400.894,-139.84879
1425685400.91,-141.60602
1425685400.926,-136.77118
1425685400.941,-127.58731
1425685400.957,-115.8121
1425685400.973,-102.87259
1425685400.988,-89.98938
1425685401.004,-78.255615
1425685401.019,-68.44577
1425685401.035,-60.846466
1425685401.051,-55.146088
1425685401.066,-50.697998
1425685401.082,-46.825806
1425685401.098,-43.22351
1425685401.113,-40.07718
1425685401.129,-37.919037
1425685401.144,-37.20511
1425685401.16,-38.00705
1425685401.176,-39.750244
1425685401.191,-41.38977
1425685401.207,-41.84488
1425685401.223,-40.358765
1425685401.238,-36.72751
1425685401.254,-31.286255
1425685401.269,-24.569733
1425685401.285,-17.035278
1425685401.301,-8.793854
1425685401.316,0.2015686
1425685401.332,10.02359
1425685401.348,20.434021
1425685401.363,30.912598
1425685401.379,40.745605
1425685401.394,49.427124
1425685401.41,56.91922
1425685401.426,63.819305
1425685401.441,71.311554
1425685401.457,80.675964
1425685401.473,92.66879
1425685401.488,106.997284
1425685401.504,121.84604
1425685401.519,134.04181
1425685401.535,139.64474
1425685401.551,135.13101
1425685401.566,118.576935
1425685401.582,90.54819
1425685401.598,54.13974
1425685401.613,14.210785
1425685401.629,-24.071777
1425685401.644,-56.589508
1425685401.66,-81.21756
1425685401.676,-97.71924
1425685401.691,-107.102325
1425685401.707,-110.7301
1425685401.723,-109.687744
1425685401.738,-104.774536
1425685401.754,-96.80136
1425685401.769,-86.80295
1425685401.785,-76.159515
1425685401.801,-66.18555
1425685401.816,-57.77368
1425685401.832,-51.07242
1425685401.848,-45.628143
1425685401.863,-40.69507
1425685401.879,-35.661194
1425685401.894,-30.377563
1425685401.91,-25.204346
1425685401.926,-20.785461
1425685401.941,-17.769135
1425685401.957,-16.387634
1425685401.973,-16.324768
1425685401.988,-16.658081
1425685402.004,-16.113007
1425685402.019,-13.413208
1425685402.035,-7.759613
1425685402.051,0.88275146
1425685402.066,11.740662
1425685402.082,23.551697
1425685402.098,34.953552
1425685402.113,45.010223
1425685402.129,53.38199
1425685402.144,60.41266
1425685402.16,66.894165
1425685402.176,73.81824
1425685402.191,82.11838
1425685402.207,92.4039
1425685402.223,104.720276
1425685402.238,118.188354
1425685402.254,130.74255
1425685402.269,139.26111
1425685402.285,140.16821
1425685402.301,130.60275
1425685402.316,109.48767
1425685402.332,78.23978
1425685402.348,40.494476
1425685402.363,1.1076355
1425685402.379,-35.30136
1425685402.394,-65.45996
1425685402.41,-87.91666
1425685402.426,-102.68622
1425685402.441,-110.607544
1425685402.457,-112.6673
1425685402.473,-109.749115
1425685402.488,-102.715546
1425685402.504,-92.61392
1425685402.519,-80.73578
1425685402.535,-68.52881
1425685402.551,-57.163513
1425685402.566,-47.36493
1425685402.582,-39.26892
1425685402.598,-32.568237
1425685402.613,-26.73172
1425685402.629,-21.329803
1425685402.644,-16.21582
1425685402.66,-11.499451
1425685402.676,-7.493683
1425685402.691,-4.4686584
1425685402.707,-2.4402466
1425685402.723,-1.0952759
1425685402.738,0.28219604
1425685402.754,2.6617737
1425685402.77,6.9370117
1425685402.785,13.60025
1425685402.801,22.62616
1425685402.816,33.423737
1425685402.832,45.163788
1425685402.848,57.0141
1425685402.863,68.541626
1425685402.879,79.74515
1425685402.894,91.09329
1425685402.91,103.3067
1425685402.926,117.14792
1425685402.941,132.98096
1425685402.957,150.34006
1425685402.973,167.52509
1425685402.988,181.5928
1425685403.004,188.79446
1425685403.02,185.67343
1425685403.035,170.16089
1425685403.051,142.57242
1425685403.066,105.66498
1425685403.082,63.926117
1425685403.098,22.280975
1425685403.113,-15.24762
1425685403.129,-46.25125
1425685403.145,-70.03131
1425685403.16,-87.007904
1425685403.176,-98.00424
1425685403.191,-103.75488
1425685403.207,-104.71515
1425685403.223,-101.42578
1425685403.238,-94.68561
1425685403.254,-85.72797
1425685403.27,-75.99872
1425685403.285,-66.78937
1425685403.301,-58.838562
1425685403.316,-52.30359
1425685403.332,-46.830933
1425685403.348,-41.99597
1425685403.363,-37.64734
1425685403.379,-33.940735
1425685403.395,-31.343384
1425685403.41,-30.250793
1425685403.426,-30.623047
1425685403.441,-31.83368
1425685403.457,-32.700806
1425685403.473,-31.892761
1425685403.488,-28.278809
1425685403.504,-21.44159
1425685403.52,-11.770081
1425685403.535,-0.37994385
1425685403.551,11.304199
1425685403.566,22.059875
1425685403.582,31.279358
1425685403.598,39.129517
1425685403.613,46.421265
1425685403.629,54.2406
1425685403.645,63.646484
1425685403.66,75.33325
1425685403.676,89.36426
1425685403.691,104.92621
1425685403.707,120.20715
1425685403.723,132.531
1425685403.738,138.86053
1425685403.754,136.5946
1425685403.77,124.406006
1425685403.785,102.64227
1425685403.801,73.35657
1425685403.816,39.598145
1425685403.832,4.7247314
1425685403.848,-28.325378
1425685403.863,-57.395996
1425685403.879,-81.07214
1425685403.895,-98.61334
1425685403.91,-109.87659
1425685403.926,-115.29364
1425685403.941,-115.86438
1425685403.957,-112.94281
1425685403.973,-107.97296
1425685403.988,-102.04413
1425685404.004,-95.80896
1425685404.02,-89.49078
1425685404.035,-83.11902
1425685404.051,-76.75958
1425685404.066,-70.62262
1425685404.082,-65.03259
1425685404.098,-60.21747
1425685404.113,-56.224976
1425685404.129,-52.889526
1425685404.145,-49.953674
1425685404.16,-47.213623
1425685404.176,-44.575256
1425685404.191,-42.005737
1425685404.207,-39.335022
1425685404.223,-36.141907
1425685404.238,-31.784973
1425685404.254,-25.663086
1425685404.27,-17.387146
1425685404.285,-7.1118164
1425685404.301,4.5750732
1425685404.316,16.773499
1425685404.332,28.595337
1425685404.348,39.396362
1425685404.363,48.997192
1425685404.379,57.644592
1425685404.395,65.99811
1425685404.41,74.99652
1425685404.426,85.59607
1425685404.441,98.421814
1425685404.457,113.34918
1425685404.473,129.0614
1425685404.488,143.0224
1425685404.504,151.87079
1425685404.52,152.24884
1425685404.535,141.83179
1425685404.551,120.29852
1425685404.566,89.48724
1425685404.582,52.956238
1425685404.598,15.049744
1425685404.613,-20.340515
1425685404.629,-50.573975
1425685404.645,-74.457825
1425685404.66,-91.97278
1425685404.676,-103.6958
1425685404.691,-110.388794
1425685404.707,-112.65497
1425685404.723,-111.08185
1425685404.738,-106.320496
1425685404.754,-99.25763
1425685404.77,-90.93231
1425685404.785,-82.3775
1425685404.801,-74.43567
1425685404.816,-67.56329
1425685404.832,-61.88733
1425685404.848,-57.285645
1425685404.863,-53.613647
1425685404.879,-50.783447
1425685404.895,-48.774963
1425685404.91,-47.494507
1425685404.926,-46.64154
1425685404.941,-45.7229
1425685404.957,-44.172974
1425685404.973,-41.65216
1425685404.988,-38.097046
1425685405.004,-33.719177
1425685405.02,-28.725159
1425685405.035,-23.18097
1425685405.051,-16.816956
1425685405.066,-9.253235
1425685405.082,-0.28289795
1425685405.098,9.987732
1425685405.113,21.070923
1425685405.129,32.253113
1425685405.145,42.91266
1425685405.16,52.728943
1425685405.176,61.822876
1425685405.191,70.73572
1425685405.207,80.25415
1425685405.223,91.15765
1425685405.238,103.7746
1425685405.254,117.4884
1425685405.27,130.48718
1425685405.285,139.90332
1425685405.301,142.43677
1425685405.316,135.43628
1425685405.332,117.83563
1425685405.348,90.67633
1425685405.363,56.897827
1425685405.379,20.501953
1425685405.395,-14.572876
1425685405.41,-45.292786
1425685405.426,-69.98523
1425685405.442,-88.19409
1425685405.457,-100.22571
1425685405.473,-106.80719
1425685405.488,-108.730835
1425685405.504,-106.87512
1425685405.52,-102.20166
1425685405.535,-95.81189
1425685405.551,-88.78162
1425685405.566,-81.98425
1425685405.582,-75.89856
1425685405.598,-70.61365
1425685405.613,-66.0188
1425685405.629,-62.01831
1425685405.645,-58.74109
1425685405.66,-56.481934
1425685405.676,-55.526
1425685405.692,-55.77112
1425685405.707,-56.66565
1425685405.723,-57.25244
1425685405.738,-56.539063
1425685405.754,-53.912476
1425685405.77,-49.303467
1425685405.785,-43.228516
1425685405.801,-36.446655
1425685405.817,-29.610718
1425685405.832,-22.979248
1425685405.848,-16.412231
1425685405.863,-9.431763
1425685405.879,-1.5323486
1425685405.895,7.4953613
1425685405.91,17.473633
1425685405.926,27.838379
1425685405.942,37.875305
1425685405.957,47.02533
1425685405.973,55.13098
1425685405.988,62.525818
1425685406.004,69.99408
1425685406.02,78.54651
1425685406.035,89.036804
1425685406.051,101.72693
1425685406.067,115.849304
1425685406.082,129.4477
1425685406.098,139.57367
1425685406.113,142.95612
1425685406.129,136.9784
1425685406.145,120.5437
1425685406.16,94.65143
1425685406.176,62.11554
1425685406.192,26.821777
1425685406.207,-7.394409
1425685406.223,-37.657837
1425685406.238,-62.40027
1425685406.254,-81.21887
1425685406.27,-94.43042
1425685406.285,-102.574585
1425685406.301,-106.229126
1425685406.317,-105.940674
1425685406.332,-102.38733
1425685406.348,-96.46716
1425685406.363,-89.247314
1425685406.379,-81.82361
1425685406.395,-75.06299
1425685406.41,-69.41858
1425685406.426,-64.916504
1425685406.442,-61.362427
1425685406.457,-58.549805
1425685406.473,-56.48755
1425685406.488,-55.3562
1425685406.504,-55.31006
1425685406.52,-56.23694
1425685406.535,-57.574463
1425685406.551,-58.425415
1425685406.567,-57.795166
1425685406.582,-55.043823
1425685406.598,-50.02063
1425685406.613,-43.247314
1425685406.629,-35.585693
1425685406.645,-27.904663
1425685406.66,-20.727417
1425685406.676,-14.119019
1425685406.692,-7.7060547
1425685406.707,-0.80407715
1425685406.723,7.2182617
1425685406.738,16.676453
1425685406.754,27.327698
1425685406.77,38.32318
1425685406.785,48.509583
1425685406.801,56.887634
1425685406.817,63.11908
1425685406.832,67.78021
1425685406.848,72.27362
1425685406.863,78.348816
1425685406.879,87.42279
1425685406.895,99.923096
1425685406.91,114.882935
1425685406.926,129.95459
1425685406.942,141.87543
1425685406.957,147.24365
1425685406.973,143.3996
1425685406.988,129.2182
1425685407.004,105.44214
1425685407.02,74.53577
1425685407.035,40.043274
1425685407.051,5.6698
1425685407.067,-25.545227
1425685407.082,-51.76953
1425685407.098,-72.27289
1425685407.113,-87.191895
1425685407.129,-97.1051
1425685407.145,-102.64349
1425685407.16,-104.4328
1425685407.176,-103.09485
1425685407.192,-99.42676
1425685407.207,-94.333435
1425685407.223,-88.807495
1425685407.238,-83.645874
1425685407.254,-79.29047
1425685407.27,-75.72424
1425685407.285,-72.60736
1425685407.301,-69.558655
1425685407.317,-66.44
1425685407.332,-63.460754
1425685407.348,-61.08551
1425685407.363,-59.69153
1425685407.379,-59.287476
1425685407.395,-59.369873
1425685407.41,-59.07141
1425685407.426,-57.463257
1425685407.442,-53.944702
1425685407.457,-48.44171
1425685407.473,-41.40326
1425685407.488,-33.6037
1425685407.504,-25.877625
1425685407.52,-18.843689
1425685407.535,-12.671082
1425685407.551,-7.0598755
1425685407.567,-1.3668823
1425685407.582,5.1274414
1425685407.598,12.87207
1425685407.613,21.857727
1425685407.629,31.49878
1425685407.645,40.91205
1425685407.66,49.22827
1425685407.676,55.99414
1425685407.692,61.277588
1425685407.707,65.707825
1425685407.723,70.234314
1425685407.738,75.98535
1425685407.754,83.96625
1425685407.77,94.75104
1425685407.785,108.06506
1425685407.801,122.42615
1425685407.817,135.12836
1425685407.832,142.66895
1425685407.848,141.66418
1425685407.863,130.04327
1425685407.879,107.81879
1425685407.895,77.25537
1425685407.91,42.13495
1425685407.926,6.7437744
1425685407.942,-25.350647
1425685407.957,-51.931763
1425685407.973,-72.27338
1425685407.988,-86.70038
1425685408.004,-96.043945
1425685408.02,-101.182556
1425685408.035,-102.78076
1425685408.051,-101.401306
1425685408.067,-97.60065
1425685408.082,-92.06006
1425685408.098,-85.6098
1425685408.113,-79.03827
1425685408.129,-72.91095
1425685408.145,-67.42706
1425685408.16,-62.52771
1425685408.176,-58.051025
1425685408.192,-54.001343
1425685408.207,-50.579773
1425685408.223,-48.15509
1425685408.238,-46.991455
1425685408.254,-47.006104
1425685408.27,-47.657104
1425685408.285,-48.09436
1425685408.301,-47.413147
1425685408.317,-44.922607
1425685408.332,-40.377808
1425685408.348,-34.071045
1425685408.364,-26.654541
1425685408.379,-18.959045
1425685408.395,-11.628174
1425685408.41,-4.9994507
1425685408.426,1.0272827
1425685408.442,6.8986816
1425685408.457,13.183289
1425685408.473,20.285034
1425685408.489,28.283325
1425685408.504,36.852234
1425685408.52,45.388306
1425685408.535,53.285706
1425685408.551,60.167908
1425685408.567,66.07733
1425685408.582,71.53845
1425685408.598,77.41626
1425685408.614,84.716736
1425685408.629,94.1156
1425685408.645,105.6673
1425685408.66,118.344604
1425685408.676,130.04852
1425685408.692,137.90326
1425685408.707,139.01056
1425685408.723,131.24133
1425685408.739,114.01477
1425685408.754,88.57489
1425685408.77,57.728455
1425685408.785,25.069519
1425685408.801,-5.9696655
1425685408.817,-32.85608
1425685408.832,-54.251404
1425685408.848,-69.91083
1425685408.864,-80.22748
1425685408.879,-85.89282
1425685408.895,-87.605835
1425685408.91,-86.09143
1425685408.926,-82.14911
1425685408.942,-76.680725
1425685408.957,-70.5639
1425685408.973,-64.47162
1425685408.989,-58.72986
1425685409.004,-53.336365
1425685409.02,-48.168884
1425685409.035,-43.212097
1425685409.051,-38.762207
1425685409.067,-35.34851
1425685409.082,-33.46759
1425685409.098,-33.35034
1425685409.114,-34.68756
1425685409.129,-36.77887
1425685409.145,-38.521484
1425685409.16,-38.823975
1425685409.176,-36.907227
1425685409.192,-32.621704
1425685409.207,-26.513916
1425685409.223,-19.639465
1425685409.239,-13.051086
1425685409.254,-7.312317
1425685409.27,-2.232666
1425685409.285,3.0125732
1425685409.301,9.385559
1425685409.317,17.40744
1425685409.332,26.828491
1425685409.348,36.73517
1425685409.364,46.036713
1425685409.379,53.929016
1425685409.395,60.29425
1425685409.41,65.59778
1425685409.426,70.68936
1425685409.442,76.40744
1425685409.457,83.35535
1425685409.473,91.77399
1425685409.489,101.31848
1425685409.504,110.900085
1425685409.52,118.651276
1425685409.535,122.200226
1425685409.551,119.23825
1425685409.567,108.26926
1425685409.582,89.2952
1425685409.598,63.90927
1425685409.614,35.000305
1425685409.629,5.8234863
1425685409.645,-20.848083
1425685409.66,-43.314056
1425685409.676,-60.952606
1425685409.692,-73.89209
1425685409.707,-82.502655
1425685409.723,-87.101715
1425685409.739,-87.98801
1425685409.754,-85.61725
1425685409.77,-80.707245
1425685409.785,-74.25784
1425685409.801,-67.26541
1425685409.817,-60.41861
1425685409.832,-54.046906
1425685409.848,-48.230316
1425685409.864,-42.932587
1425685409.879,-38.367462
1425685409.895,-34.937347
1425685409.91,-33.0502
1425685409.926,-32.87848
1425685409.942,-34.115723
1425685409.957,-36.006134
1425685409.973,-37.41974
1425685409.989,-37.18396
1425685410.004,-34.519623
1425685410.02,-29.297424
1425685410.035,-22.185669
1425685410.051,-14.423462
1425685410.067,-7.308777
1425685410.082,-1.6912231
1425685410.098,2.3973389
1425685410.114,5.7640076
1425685410.129,9.594727
1425685410.145,14.89209
1425685410.16,21.981262
1425685410.176,30.450348
1425685410.192,39.415466
1425685410.207,48.00186
1425685410.223,55.72232
1425685410.239,62.619324
1425685410.254,69.155334
1425685410.27,76.08121
1425685410.285,84.1181
1425685410.301,93.7038
1425685410.317,104.60571
1425685410.332,115.619965
1425685410.348,124.50641
1425685410.364,128.47495
1425685410.379,124.919495
1425685410.395,112.32855
1425685410.41,90.941956
1425685410.426,62.739685
1425685410.442,30.927704
1425685410.457,-0.94696045
1425685410.473,-29.904266
1425685410.489,-53.93416
1425685410.504,-72.148636
1425685410.52,-84.476944
1425685410.535,-91.44614
1425685410.551,-93.86519
1425685410.567,-92.754944
1425685410.582,-89.16005
1425685410.598,-84.043274
1425685410.614,-78.16283
1425685410.629,-72.003586
1425685410.645,-65.81308
1425685410.66,-59.682358
1425685410.676,-53.724167
1425685410.692,-48.144608
1425685410.707,-43.331894
1425685410.723,-39.79445
1425685410.739,-37.9153
1425685410.754,-37.839447
1425685410.77,-39.270676
1425685410.785,-41.527405
1425685410.801,-43.597733
1425685410.817,-44.522507
1425685410.832,-43.593307
1425685410.848,-40.64839
1425685410.864,-36.106384
1425685410.879,-30.808823
1425685410.895,-25.653
1425685410.91,-21.20523
1425685410.926,-17.423233
1425685410.942,-13.709137
1425685410.957,-9.172211
1425685410.973,-3.1094208
1425685410.989,4.6982956
1425685411.004,13.824623
1425685411.02,23.447403
1425685411.036,32.67447
1425685411.051,40.960526
1425685411.067,48.264427
1425685411.082,55.11656
1425685411.098,62.352898
1425685411.114,70.90679
1425685411.129,81.42893
1425685411.145,93.87676
1425685411.161,107.131065
1425685411.176,118.894905
1425685411.192,126.156166
1425685411.207,125.99817
1425685411.223,116.5521
1425685411.239,97.775696
1425685411.254,71.48564
1425685411.27,40.825443
1425685411.286,9.275265
1425685411.301,-20.177017
1425685411.317,-45.58582
1425685411.332,-65.983536
1425685411.348,-81.14786
1425685411.364,-91.17701
1425685411.379,-96.381355
1425685411.395,-97.22931
1425685411.411,-94.4888
1425685411.426,-89.12911
1425685411.442,-82.32608
1425685411.457,-75.231995
1425685411.473,-68.77527
1425685411.489,-63.483383
1425685411.504,-59.449276
1425685411.52,-56.381245
1425685411.536,-53.83377
1425685411.551,-51.481106
1425685411.567,-49.333797
1425685411.582,-47.544907
1425685411.598,-46.31543
1425685411.614,-45.51245
1425685411.629,-44.676247
1425685411.645,-43.094055
1425685411.661,-40.130966
1425685411.676,-35.552048
1425685411.692,-29.667221
1425685411.707,-23.200294
1425685411.723,-17.019463
1425685411.739,-11.721512
1425685411.754,-7.42659
1425685411.77,-3.6707
1425685411.786,0.32917786
1425685411.801,5.385681
1425685411.817,11.983658
1425685411.832,20.134186
1425685411.848,29.404938
1425685411.864,39.142273
1425685411.879,48.70302
1425685411.895,57.699295
1425685411.911,66.077194
1425685411.926,74.07155
1425685411.942,82.12393
1425685411.957,90.78018
1425685411.973,100.57526
1425685411.989,111.821304
1425685412.004,124.20148
1425685412.02,136.50905
1425685412.036,146.34203
1425685412.051,150.54001
1425685412.067,145.89542
1425685412.082,130.40456
1425685412.098,104.14746
1425685412.114,69.73801
1425685412.129,31.605011
1425685412.145,-5.2924194
1425685412.161,-36.973938
1425685412.176,-61.29364
1425685412.192,-78.03104
1425685412.207,-88.055756
1425685412.223,-92.437775
1425685412.239,-91.84082
1425685412.254,-86.63098
1425685412.27,-77.289764
1425685412.286,-64.93619
1425685412.301,-51.19339
1425685412.317,-37.864838
1425685412.332,-26.32013
1425685412.348,-17.229584
1425685412.364,-10.57785
1425685412.379,-6.1703186
1425685412.395,-3.8631592
1425685412.411,-3.5890808
1425685412.426,-5.180847
1425685412.442,-8.148651
1425685412.457,-11.672577
1425685412.473,-14.85202
1425685412.489,-16.956085
1425685412.504,-17.661438
1425685412.52,-16.903381
1425685412.536,-14.70874
1425685412.551,-10.93811
1425685412.567,-5.40506
1425685412.582,2.0188904
1425685412.598,11.069397
1425685412.614,21.118958
1425685412.629,31.27829
1425685412.645,40.759827
1425685412.661,49.069733
1425685412.676,56.160645
1425685412.692,62.35794
1425685412.707,68.19513
1425685412.723,74.31656
1425685412.739,81.4035
1425685412.754,89.953
1425685412.77,100.189606
1425685412.786,111.62073
1425685412.801,123.006134
1425685412.817,132.12775
1425685412.832,136.25977
1425685412.848,132.74469
1425685412.864,119.84689
1425685412.879,97.455475
1425685412.895,67.41049
1425685412.911,33.240204
1425685412.926,-0.6411438
1425685412.942,-30.150665
1425685412.957,-52.59668
1425685412.973,-67.18866
1425685412.989,-74.80667
1425685413.004,-77.25433
1425685413.02,-76.29883
1425685413.036,-73.14264
1425685413.051,-68.31088
1425685413.067,-62.03839
1425685413.082,-54.707855
1425685413.098,-47.020874
1425685413.114,-39.841217
1425685413.129,-33.87274
1425685413.145,-29.390808
1425685413.161,-26.272125
1425685413.176,-24.09607
1425685413.192,-22.447021
1425685413.207,-20.99582
1425685413.223,-19.57425
1425685413.239,-18.062988
1425685413.254,-16.44345
1425685413.27,-14.707214
1425685413.286,-12.847229
1425685413.301,-10.665131
1425685413.317,-7.786499
1425685413.332,-3.7167664
1425685413.348,1.8888245
1425685413.364,8.98996
1425685413.379,17.042267
1425685413.395,25.17511
1425685413.411,32.550934
1425685413.426,38.776886
1425685413.442,44.037567
1425685413.457,48.99652
1425685413.473,54.557922
1425685413.489,61.674896
1425685413.504,71.08331
1425685413.52,83.20273
1425685413.536,97.79019
1425685413.551,113.67737
1425685413.567,128.59326
1425685413.582,139.38013
1425685413.598,142.62479
1425685413.614,135.67459
1425685413.629,117.55664
1425685413.645,89.474884
1425685413.661,54.52133
1425685413.676,17.009277
1425685413.692,-18.803864
1425685413.708,-49.53174
1425685413.723,-73.276306
1425685413.739,-89.55377
1425685413.754,-98.96387
1425685413.77,-102.65256
1425685413.786,-101.92676
1425685413.801,-97.95456
1425685413.817,-91.76633
1425685413.833,-84.187225
1425685413.848,-75.97635
1425685413.864,-67.69702
1425685413.879,-59.8338
1425685413.895,-52.69998
1425685413.911,-46.53543
1425685413.926,-41.48407
1425685413.942,-37.63379
1425685413.958,-34.949158
1425685413.973,-33.30493
1425685413.989,-32.401215
1425685414.004,-31.858307
1425685414.02,-31.266907
1425685414.036,-30.262299
1425685414.051,-28.60318
1425685414.067,-26.189423
1425685414.083,-22.97882
1425685414.098,-18.97934
1425685414.114,-14.141327
1425685414.129,-8.429352
1425685414.145,-1.7817383
1425685414.161,5.7394714
1425685414.176,13.969116
1425685414.192,22.55075
1425685414.208,31.128876
1425685414.223,39.36136
1425685414.239,47.163177
1425685414.254,54.648987
1425685414.27,62.27124
1425685414.286,70.70361
1425685414.301,80.72073
1425685414.317,92.85504
1425685414.333,106.966675
1425685414.348,121.749664
1425685414.364,134.6117
1425685414.379,142.05072
1425685414.395,140.57587
1425685414.411,127.96701
1425685414.426,104.28223
1425685414.442,72.04108
1425685414.458,35.61267
1425685414.473,-0.23825073
1425685414.489,-31.588593
1425685414.504,-56.312134
1425685414.52,-74.05054
1425685414.536,-85.63559
1425685414.551,-92.272675
1425685414.567,-95.06082
1425685414.583,-94.734955
1425685414.598,-91.874756
1425685414.614,-87.01587
1425685414.629,-80.80328
1425685414.645,-73.949615
1425685414.661,-67.085266
1425685414.676,-60.70645
1425685414.692,-55.106964
1425685414.708,-50.409454
1425685414.723,-46.685425
1425685414.739,-43.8786
1425685414.754,-41.941467
1425685414.77,-40.700348
1425685414.786,-39.839203
1425685414.801,-38.881226
1425685414.817,-37.308807
1425685414.833,-34.700745
1425685414.848,-30.925964
1425685414.864,-26.180878
1425685414.879,-20.888336
1425685414.895,-15.406769
1425685414.911,-9.834717
1425685414.926,-3.9380188
1425685414.942,2.661316
1425685414.958,10.172241
1425685414.973,18.458374
1425685414.989,27.065186
1425685415.004,35.379547
1425685415.02,42.970703
1425685415.036,49.741943
1425685415.051,56.05838
1425685415.067,62.57129
1425685415.083,70.073944
1425685415.098,79.22922
1425685415.114,90.21188
1425685415.129,102.348755
1425685415.145,113.844086
1425685415.161,121.903015
1425685415.176,123.322784
1425685415.192,115.479095
1425685415.208,97.32941
1425685415.223,69.93808
1425685415.239,36.395477
1425685415.254,0.83132935
1425685415.27,-32.654724
1425685415.286,-61.03836
1425685415.301,-82.84744
1425685415.317,-98.021454
1425685415.333,-107.36807
1425685415.348,-111.94617
1425685415.364,-112.60593
1425685415.379,-110.00305
1425685415.395,-104.766754
1425685415.411,-97.738525
1425685415.426,-89.970184
1425685415.442,-82.523285
1425685415.458,-76.16998
1425685415.473,-71.14908
1425685415.489,-67.26697
1425685415.504,-64.07919
1425685415.52,-61.25537
1425685415.536,-58.69223
1425685415.551,-56.44113
1425685415.567,-54.496124
1425685415.583,-52.6492
1425685415.598,-50.521637
1425685415.614,-47.676666
1425685415.629,-43.815247
1425685415.645,-38.81067
1425685415.661,-32.669678
1425685415.676,-25.453186
1425685415.692,-17.183563
1425685415.708,-7.891205
1425685415.723,2.3529663
1425685415.739,13.546051
1425685415.754,25.650269
1425685415.77,38.509644
1425685415.786,51.744263
1425685415.801,64.66708
1425685415.817,76.46863
1425685415.833,86.52423
1425685415.848,94.79901
1425685415.864,102.02936
1425685415.879,109.54953
1425685415.895,118.76944
1425685415.911,130.39221
1425685415.926,143.81158
1425685415.942,156.77478
1425685415.958,165.75641
1425685415.973,166.80786
1425685415.989,156.70874
1425685416.004,134.1409
1425685416.02,100.348816
1425685416.036,58.97644
1425685416.051,15.115906
1425685416.067,-26.045776
1425685416.083,-60.50418
1425685416.098,-86.15585
1425685416.114,-102.703
1425685416.129,-111.12988
1425685416.145,-112.98529
1425685416.161,-109.90799
1425685416.176,-103.39081
1425685416.192,-94.77539
1425685416.208,-85.26105
1425685416.223,-75.8042
1425685416.239,-67.03635
1425685416.254,-59.250824
1425685416.27,-52.414276
1425685416.286,-46.32306
1425685416.301,-40.707367
1425685416.317,-35.28067
1425685416.333,-29.869995
1425685416.348,-24.420319
1425685416.364,-19.079132
1425685416.38,-14.189911
1425685416.395,-10.149414
1425685416.411,-7.250519
1425685416.426,-5.4511414
1425685416.442,-4.280945
1425685416.458,-2.8785706
1425685416.473,-0.1541748
1425685416.489,4.8757935
1425685416.504,12.729675
1425685416.52,23.29419
1425685416.536,35.797455
1425685416.551,49.086395
1425685416.567,61.978516
1425685416.583,73.66864
1425685416.598,83.98184
1425685416.614,93.38992
1425685416.63,102.81821
1425685416.645,113.39642
1425685416.661,126.06146
1425685416.676,141.24976
1425685416.692,158.42053
1425685416.708,175.67236
1425685416.723,189.61557
1425685416.739,195.86023
1425685416.755,190.15152
1425685416.77,169.91705
1425685416.786,135.56107
1425685416.801,90.78497
1425685416.817,41.71512
1425685416.833,-4.927307
1425685416.848,-43.831055
1425685416.864,-72.34161
1425685416.88,-90.56955
1425685416.895,-100.48715
1425685416.911,-104.53836
1425685416.926,-104.59656
1425685416.942,-101.650055
1425685416.958,-96.18411
1425685416.973,-88.69522
1425685416.989,-80.08252
1425685417.005,-71.49136
1425685417.02,-63.946198
1425685417.036,-57.987793
1425685417.051,-53.534637
1425685417.067,-50.125824
1425685417.083,-47.246796
1425685417.098,-44.627167
1425685417.114,-42.283142
1425685417.13,-40.427338
1425685417.145,-39.245544
1425685417.161,-38.692932
1425685417.176,-38.492645
1425685417.192,-38.199127
1425685417.208,-37.30072
1425685417.223,-35.332
1425685417.239,-31.893402
1425685417.255,-26.734558
1425685417.27,-19.846985
1425685417.286,-11.503845
1425685417.301,-2.1806335
1425685417.317,7.535797
1425685417.333,17.237549
1425685417.348,26.78482
1425685417.364,36.24878
1425685417.38,45.835846
1425685417.395,55.72159
1425685417.411,66.12613
1425685417.426,77.37482
1425685417.442,89.860275
1425685417.458,103.5869
1425685417.473,117.643326
1425685417.489,129.796
1425685417.505,136.71635
1425685417.52,134.93246
1425685417.536,122.15901
1425685417.551,98.39403
1425685417.567,66.11073
1425685417.583,29.513077
1425685417.598,-6.8868103
1425685417.614,-39.470352
1425685417.63,-66.21622
1425685417.645,-86.60187
1425685417.661,-100.98512
1425685417.676,-110.04208
1425685417.692,-114.41872
1425685417.708,-114.719315
1425685417.723,-111.62163
1425685417.739,-105.9619
1425685417.755,-98.60132
1425685417.77,-90.285
1425685417.786,-81.59738
1425685417.801,-72.89633
1425685417.817,-64.4404
1425685417.833,-56.529327
1425685417.848,-49.49527
1425685417.864,-43.698242
1425685417.88,-39.3658
1425685417.895,-36.493225
1425685417.911,-34.799393
1425685417.926,-33.824753
1425685417.942,-33.056778
1425685417.958,-32.05139
1425685417.973,-30.464691
1425685417.989,-27.970581
1425685418.005,-24.200256
1425685418.02,-18.837662
1425685418.036,-11.754822
1425685418.051,-3.1475983
1425685418.067,6.413986
1425685418.083,16.139359
1425685418.098,25.324127
1425685418.114,33.555115
1425685418.13,40.807175
1425685418.145,47.434967
1425685418.161,53.964622
1425685418.176,61.05864
1425685418.192,69.398056
1425685418.208,79.604965
1425685418.223,91.93865
1425685418.239,105.8822
1425685418.255,119.73386
1425685418.27,130.59679
1425685418.286,134.98581
1425685418.301,129.81616
1425685418.317,113.59996
1425685418.333,87.12699
1425685418.348,53.38494
1425685418.364,16.747902
1425685418.38,-18.334595
1425685418.395,-48.462997
1425685418.411,-71.90407
1425685418.426,-88.45988
1425685418.442,-98.92822
1425685418.458,-104.41543
1425685418.473,-105.88723
1425685418.489,-104.06019
1425685418.505,-99.49605
1425685418.52,-92.76697
1425685418.536,-84.579285
1425685418.551,-75.76494
1425685418.567,-67.11998
1425685418.583,-59.31362
1425685418.598,-52.73806
1425685418.614,-47.560814
1425685418.63,-43.82718
1425685418.645,-41.55043
1425685418.661,-40.722015
1425685418.676,-41.158363
1425685418.692,-42.413746
1425685418.708,-43.771023
1425685418.723,-44.47103
1425685418.739,-43.952663
1425685418.755,-42.027813
1425685418.77,-38.874
1425685418.786,-34.69361
1425685418.801,-29.550282
1425685418.817,-23.201817
1425685418.833,-15.276966
1425685418.848,-5.616623
1425685418.864,5.485859
1425685418.88,17.320633
1425685418.895,29.041515
1425685418.911,39.946453
1425685418.926,49.762962
1425685418.942,58.628235
1425685418.958,66.97664
1425685418.973,75.433586
1425685418.989,84.848694
1425685419.005,95.989975
1425685419.02,109.15742
1425685419.036,123.62412
1425685419.051,137.12396
1425685419.067,146.12767
1425685419.083,146.7615
1425685419.098,136.2403
1425685419.114,114.042786
1425685419.13,82.325836
1425685419.145,45.19386
1425685419.161,7.335539
1425685419.176,-27.258688
1425685419.192,-56.23344
1425685419.208,-78.74202
1425685419.223,-94.98828
1425685419.239,-105.59567
1425685419.255,-111.19086
1425685419.27,-112.439255
1425685419.286,-110.05537
1425685419.302,-104.878204
1425685419.317,-97.79033
1425685419.333,-89.590355
1425685419.348,-80.942505
1425685419.364,-72.40509
1425685419.38,-64.524315
1425685419.395,-57.79341
1425685419.411,-52.64555
1425685419.427,-49.400555
1425685419.442,-48.08704
1425685419.458,-48.463394
1425685419.473,-49.984814
1425685419.489,-51.704784
1425685419.505,-52.55025
1425685419.52,-51.659515
1425685419.536,-48.72706
1425685419.552,-44.11076
1425685419.567,-38.746384
1425685419.583,-33.56086
1425685419.598,-29.008755
1425685419.614,-24.830887
1425685419.63,-20.104279
1425685419.645,-13.774658
1425685419.661,-5.0911064
1425685419.677,6.133217
1425685419.692,19.387918
1425685419.708,33.70759
1425685419.723,47.93692
1425685419.739,61.080627
1425685419.755,72.582565
1425685419.77,82.59039
1425685419.786,91.99727
1425685419.802,102.23727
1425685419.817,114.815674
1425685419.833,130.47209
1425685419.848,148.38788
1425685419.864,165.8722
1425685419.88,178.66577
1425685419.895,182.0318
1425685419.911,172.37646
1425685419.927,148.57831
1425685419.942,112.64616
1425685419.958,69.20435
1425685419.973,24.043482
1425685419.989,-17.618778
1425685420.005,-52.372406
1425685420.02,-78.96702
1425685420.036,-97.771935
1425685420.052,-109.70103
1425685420.067,-115.64708
1425685420.083,-116.36217
1425685420.098,-112.67958
1425685420.114,-105.89537
1425685420.13,-97.616066
1425685420.145,-89.359924
1425685420.161,-82.07448
1425685420.177,-75.9287
1425685420.192,-70.49034
1425685420.208,-65.23518
1425685420.223,-59.948036
1425685420.239,-54.889755
1425685420.255,-50.622917
1425685420.27,-47.628048
1425685420.286,-45.945263
1425685420.302,-45.077187
1425685420.317,-44.15258
1425685420.333,-42.27289
1425685420.348,-38.893246
1425685420.364,-34.043076
1425685420.38,-28.235756
1425685420.395,-22.16219
1425685420.411,-16.300344
1425685420.427,-10.662367
1425685420.442,-4.7895985
1425685420.458,1.939518
1425685420.473,9.956293
1425685420.489,19.203108
1425685420.505,29.133188
1425685420.52,38.946953
1425685420.536,47.931473
1425685420.552,55.737633
1425685420.567,62.610474
1425685420.583,69.18601
1425685420.598,76.43059
1425685420.614,85.323494
1425685420.63,96.56845
1425685420.645,110.143814
1425685420.661,124.912544
1425685420.677,138.41655
1425685420.692,147.149
1425685420.708,147.3872
1425685420.723,136.39555
1425685420.739,113.53889
1425685420.755,80.73494
1425685420.77,42.05477
1425685420.786,2.451849
1425685420.802,-33.61335
1425685420.817,-63.250793
1425685420.833,-85.42354
1425685420.848,-100.47524
1425685420.864,-109.419716
1425685420.88,-113.23796
1425685420.895,-112.69528
1425685420.911,-108.40888
1425685420.927,-101.092926
1425685420.942,-91.66039
1425685420.958,-81.12223
1425685420.973,-70.41763
1425685420.989,-60.17373
1425685421.005,-50.7806
1425685421.02,-42.435104
1425685421.036,-35.314995
1425685421.052,-29.632275
1425685421.067,-25.543331
1425685421.083,-23.061169
1425685421.098,-21.891354
1425685421.114,-21.549656
1425685421.13,-21.399166
1425685421.145,-20.893787
1425685421.161,-19.640816
1425685421.177,-17.472042
1425685421.192,-14.3222475
1425685421.208,-10.158632
1425685421.223,-4.947385
1425685421.239,1.3947468
1425685421.255,8.8618
1425685421.27,17.353724
1425685421.286,26.534332
1425685421.302,35.898457
1425685421.317,44.809387
1425685421.333,52.617073
1425685421.348,58.932346
1425685421.364,63.785393
1425685421.38,67.787254
1425685421.395,72.00258
1425685421.411,77.672615
1425685421.427,85.77261
1425685421.442,96.419334
1425685421.458,108.45223
1425685421.473,119.32565
1425685421.489,125.576584
1425685421.505,123.75497
1425685421.52,111.60548
1425685421.536,89.062126
1425685421.552,58.47783
1425685421.567,23.953356
1425685421.583,-9.97361
1425685421.598,-39.72285
1425685421.614,-63.456123
1425685421.63,-81.01081
1425685421.645,-93.1866
1425685421.661,-100.82113
1425685421.677,-104.3887
1425685421.692,-104.00366
1425685421.708,-99.929985
1425685421.723,-92.84026
1425685421.739,-83.8043
1425685421.755,-74.00627
1425685421.77,-64.40462
1425685421.786,-55.6365
1425685421.802,-48.108692
1425685421.817,-42.128574
1425685421.833,-37.944294
1425685421.848,-35.65559
1425685421.864,-35.05204
1425685421.88,-35.55548
1425685421.895,-36.369804
1425685421.911,-36.740185
1425685421.927,-36.137726
1425685421.942,-34.382477
1425685421.958,-31.554077
1425685421.974,-27.854403
1425685421.989,-23.456345
1425685422.005,-18.396597
1425685422.02,-12.582647
1425685422.036,-5.888944
1425685422.052,1.6892605
1425685422.067,9.97893
1425685422.083,18.590149
1425685422.099,27.001194
1425685422.114,34.84535
1425685422.13,41.989826
1425685422.145,48.577663
1425685422.161,54.98715
1425685422.177,61.718437
1425685422.192,69.340096
1425685422.208,78.38243
1425685422.224,88.989746
1425685422.239,100.50154
1425685422.255,111.11105
1425685422.27,117.81729
1425685422.286,117.138824
1425685422.302,106.36726
1425685422.317,84.691666
1425685422.333,53.847427
1425685422.349,17.689877
1425685422.364,-18.97396
1425685422.38,-51.918884
1425685422.395,-78.5766
1425685422.411,-98.26345
1425685422.427,-111.71457
1425685422.442,-120.17639
1425685422.458,-124.66589
1425685422.474,-125.66675
1425685422.489,-123.26785
1425685422.505,-117.596756
1425685422.52,-109.15485
1425685422.536,-98.92903
1425685422.552,-88.171585
1425685422.567,-78.0919
1425685422.583,-69.461105
1425685422.599,-62.549496
1425685422.614,-57.235622
1425685422.63,-53.2029
1425685422.645,-50.154247
1425685422.661,-47.815647
1425685422.677,-45.801617
1425685422.692,-43.536232
1425685422.708,-40.27886
1425685422.724,-35.362484
1425685422.739,-28.473736
1425685422.755,-19.704819
1425685422.77,-9.4928055
1425685422.786,1.6502609
1425685422.802,13.405731
1425685422.817,25.712387
1425685422.833,38.662476
1425685422.849,52.206398
1425685422.864,65.98917
1425685422.88,79.321495
1425685422.895,91.43871
1425685422.911,101.803375
1425685422.927,110.43227
1425685422.942,117.97365
1425685422.958,125.63579
1425685422.974,134.8501
1425685422.989,146.73373
1425685423.005,161.55345
1425685423.02,178.12927
1425685423.036,193.61148
1425685423.052,203.76137
1425685423.067,203.9358
1425685423.083,190.57645
1425685423.099,162.58176
1425685423.114,122.11354
1425685423.13,74.11801
1425685423.145,24.947441
1425685423.161,-19.575554
1425685423.177,-55.706604
1425685423.192,-82.27061
1425685423.208,-100.07956
1425685423.224,-110.75636
1425685423.239,-115.70795
1425685423.255,-115.70394
1425685423.27,-111.24719
1425685423.286,-103.1663
1425685423.302,-92.90607
1425685423.317,-82.36336
1425685423.333,-73.22583
1425685423.349,-66.3332
1425685423.364,-61.527954
1425685423.38,-57.907867
1425685423.395,-54.44845
1425685423.411,-50.477142
1425685423.427,-45.865273
1425685423.442,-40.925735
1425685423.458,-36.106133
1425685423.474,-31.77005
1425685423.489,-28.077972
1425685423.505,-24.953896
1425685423.52,-22.13572
1425685423.536,-19.108978
1425685423.552,-15.218956
1425685423.567,-9.80513
1425685423.583,-2.4822426
1425685423.599,6.654598
1425685423.614,17.087822
1425685423.63,27.949116
1425685423.645,38.424606
1425685423.661,47.989277
1425685423.677,56.55225
1425685423.692,64.389496
1425685423.708,72.016174
1425685423.724,80.14228
1425685423.739,89.45879
1425685423.755,100.49898
1425685423.77,113.23631
1425685423.786,126.70172
1425685423.802,138.80655
1425685423.817,146.4718
1425685423.833,146.31648
1425685423.849,135.74522
1425685423.864,113.95588
1425685423.88,82.46065
1425685423.895,44.870644
1425685423.911,5.851425
1425685423.927,-30.136497
1425685423.942,-59.94263
1425685423.958,-82.19012
1425685423.974,-96.97705
1425685423.989,-105.22304
1425685424.005,-107.98217
1425685424.02,-106.15382
1425685424.036,-100.51932
1425685424.052,-92.05525
1425685424.067,-81.97816
1425685424.083,-71.68134
1425685424.099,-62.36888
1425685424.114,-54.725754
1425685424.13,-48.846573
1425685424.145,-44.345814
1425685424.161,-40.727184
1425685424.177,-37.574516
1425685424.192,-34.769653
1425685424.208,-32.42003
1425685424.224,-30.73001
1425685424.239,-29.8001
1425685424.255,-29.482517
1425685424.27,-29.354633
1425685424.286,-28.741493
1425685424.302,-26.906105
1425685424.317,-23.206188
1425685424.333,-17.318745
1425685424.349,-9.346325
1425685424.364,0.23671722
1425685424.38,10.659851
1425685424.395,21.094147
1425685424.411,30.866016
1425685424.427,39.619167
1425685424.442,47.43371
1425685424.458,54.80119
1425685424.474,62.588726
1425685424.489,71.78807
1425685424.505,83.18833
1425685424.52,96.89568
1425685424.536,111.95511
1425685424.552,126.131294
1425685424.567,136.18213
1425685424.583,138.63232
1425685424.599,130.84354
1425685424.614,112.016655
1425685424.63,83.619576
1425685424.646,49.066452
1425685424.661,12.727272
1425685424.677,-21.351135
1425685424.692,-50.347282
1425685424.708,-73.03617
1425685424.724,-89.418205
1425685424.739,-100.050476
1425685424.755,-105.55586
1425685424.771,-106.43504
1425685424.786,-103.17175
1425685424.802,-96.52911
1425685424.817,-87.60112
1425685424.833,-77.692986
1425685424.849,-68.04375
1425685424.864,-59.51219
1425685424.88,-52.489693
1425685424.896,-46.933258
1425685424.911,-42.553566
1425685424.927,-38.986115
1425685424.942,-35.97905
1425685424.958,-33.455734
1425685424.974,-31.462906
1425685424.989,-30.038635
1425685425.005,-29.106506
1425685425.021,-28.368835
1425685425.036,-27.294952
1425685425.052,-25.284286
1425685425.067,-21.78984
1425685425.083,-16.519348
1425685425.099,-9.411804
1425685425.114,-0.5760193
1425685425.13,9.680344
1425685425.146,20.870132
1425685425.161,32.2538
1425685425.177,42.964005
1425685425.192,52.249817
1425685425.208,59.81865
1425685425.224,66.10994
1425685425.239,72.23999
1425685425.255,79.70163
1425685425.271,89.68004
1425685425.286,102.46672
1425685425.302,116.99695
1425685425.317,130.80385
1425685425.333,140.4194
1425685425.349,142.21034
1425685425.364,133.49048
1425685425.38,113.392914
1425685425.396,83.34236
1425685425.411,46.69542
1425685425.427,7.8467712
1425685425.442,-28.976105
1425685425.458,-60.63051
1425685425.474,-85.42584
1425685425.489,-102.839355
1425685425.505,-113.143936
1425685425.521,-117.104294
1425685425.536,-115.79111
1425685425.552,-110.5645
1425685425.567,-102.96855
1425685425.583,-94.416885
1425685425.599,-85.857376
1425685425.614,-77.73686
1425685425.63,-70.0107
1425685425.646,-62.51924
1425685425.661,-55.26883
1425685425.677,-48.381714
1425685425.692,-42.162735
1425685425.708,-36.91086
1425685425.724,-32.885345
1425685425.739,-30.230713
1425685425.755,-28.959671
1425685425.771,-28.794312
1425685425.786,-29.187637
1425685425.802,-29.424606
1425685425.817,-28.816086
1425685425.833,-26.932343
1425685425.849,-23.61052
1425685425.864,-18.770248
1425685425.88,-12.264008
1425685425.896,-3.9792633
1425685425.911,6.0186768
1425685425.927,17.190811
1425685425.942,28.55574
1425685425.958,39.00949
1425685425.974,47.835205
1425685425.989,55.046722
1425685426.005,61.433228
1425685426.021,68.205475
1425685426.036,76.493866
1425685426.052,87.10205
1425685426.067,100.17398
1425685426.083,115.03998
1425685426.099,130.06375
1425685426.114,142.61893
1425685426.13,149.40814
1425685426.146,147.20502
1425685426.161,133.90994
1425685426.177,109.4014
1425685426.192,75.84604
1425685426.208,37.170807
1425685426.224,-2.0250244
1425685426.239,-37.552246
1425685426.255,-66.61749
1425685426.271,-88.022644
1425685426.286,-101.95453
1425685426.302,-109.49664
1425685426.317,-112.024994
1425685426.333,-110.86386
1425685426.349,-107.08362
1425685426.364,-101.537476
1425685426.38,-94.89563
1425685426.396,-87.716095
1425685426.411,-80.45517
1425685426.427,-73.448364
1425685426.442,-66.92764
1425685426.458,-61.07245
1425685426.474,-56.09323
1425685426.489,-52.27301
1425685426.505,-49.87216
1425685426.521,-48.94684
1425685426.536,-49.209198
1425685426.552,-49.960632
1425685426.567,-50.23346
1425685426.583,-49.127563
1425685426.599,-46.123413
1425685426.614,-41.181183
1425685426.63,-34.73712
1425685426.646,-27.42688
1425685426.661,-19.756378
1425685426.677,-11.941345
1425685426.692,-3.8882446
1425685426.708,4.6170044
1425685426.724,13.727417
1425685426.739,23.313904
1425685426.755,32.956543
1425685426.771,42.14029
1425685426.786,50.496582
1425685426.802,58.075928
1425685426.817,65.43863
1425685426.833,73.52817
1425685426.849,83.37921
1425685426.864,95.6579
1425685426.88,110.176575
1425685426.896,125.568665
1425685426.911,139.28265
1425685426.927,148.0003
1425685426.942,148.45212
1425685426.958,138.38388
1425685426.974,117.353424
1425685426.989,87.00482
1425685427.005,50.705353
1425685427.021,12.643982
1425685427.036,-23.19812
1425685427.052,-53.886047
1425685427.067,-77.87918
1425685427.083,-94.894226
1425685427.099,-105.53073
1425685427.114,-110.791534
1425685427.13,-111.76016
1425685427.146,-109.45456
1425685427.161,-104.778564
1425685427.177,-98.48126
1425685427.192,-91.15402
1425685427.208,-83.3042
1425685427.224,-75.308624
1425685427.239,-67.5412
1425685427.255,-60.38315
1425685427.271,-54.21237
1425685427.286,-49.398773
1425685427.302,-46.176758
1425685427.318,-44.5719
1425685427.333,-44.288086
1425685427.349,-44.722504
1425685427.364,-45.08087
1425685427.38,-44.598022
1425685427.396,-42.759186
1425685427.411,-39.480713
1425685427.427,-35.02646
1425685427.442,-29.81134
1425685427.458,-24.123352
1425685427.474,-17.953522
1425685427.489,-11.083282
1425685427.505,-3.235962
1425685427.521,5.6264954
1425685427.536,15.250427
1425685427.552,25.193573
1425685427.568,34.957397
1425685427.583,44.19586
1425685427.599,52.712738
1425685427.614,60.58145
1425685427.63,68.076904
1425685427.646,75.80884
1425685427.661,84.60733
1425685427.677,95.13345
1425685427.693,107.3797
1425685427.708,120.052124
1425685427.724,130.57156
1425685427.739,135.64548
1425685427.755,132.2858
1425685427.771,118.815094
1425685427.786,95.387634
1425685427.802,63.9516
1425685427.818,27.502258
1425685427.833,-10.57489
1425685427.849,-47.1203
1425685427.864,-79.56152
1425685427.88,-106.023865
1425685427.896,-125.47238
1425685427.911,-137.70874
1425685427.927,-143.23291
1425685427.943,-143.16556
1425685427.958,-138.96503
1425685427.974,-132.21844
1425685427.989,-124.404785
1425685428.005,-116.72165
1425685428.021,-109.84943
1425685428.036,-103.87915
1425685428.052,-98.434326
1425685428.068,-93.01614
1425685428.083,-87.50012
1425685428.099,-82.4057
1425685428.114,-78.574646
1425685428.13,-76.726746
1425685428.146,-76.81091
1425685428.161,-77.770996
1425685428.177,-77.89345
1425685428.193,-75.40958
1425685428.208,-69.17975
1425685428.224,-59.109375
1425685428.239,-46.043625
1425685428.255,-31.375885
1425685428.271,-16.511139
1425685428.286,-2.4780426
1425685428.302,10.414459
1425685428.318,22.421463
1425685428.333,34.13182
1425685428.349,46.054382
1425685428.364,58.245712
1425685428.38,70.25818
1425685428.396,81.33682
1425685428.411,90.87834
1425685428.427,98.80827
1425685428.443,105.79419
1425685428.458,113.01347
1425685428.474,121.81889
1425685428.489,133.17917
1425685428.505,147.12778
1425685428.521,162.2838
1425685428.536,175.75182
1425685428.552,183.37846
1425685428.568,180.80357
1425685428.583,164.84074
1425685428.599,134.89378
1425685428.614,93.58899
1425685428.63,46.317078
1425685428.646,-0.3794937
1425685428.661,-40.750275
1425685428.677,-71.2976
1425685428.693,-91.20656
1425685428.708,-101.70035
1425685428.724,-104.87619
1425685428.739,-102.652725
1425685428.755,-96.44076
1425685428.771,-87.282585
1425685428.786,-76.25579
1425685428.802,-64.665535
1425685428.818,-53.857674
1425685428.833,-44.852585
1425685428.849,-37.978607
1425685428.864,-32.80715
1425685428.88,-28.550682
1425685428.896,-24.487633
1425685428.911,-20.424446
1425685428.927,-16.747849
1425685428.943,-14.13134
1425685428.958,-13.065445
1425685428.974,-13.446716
1425685428.989,-14.496773
1425685429.005,-15.011299
1425685429.021,-13.880928
1425685429.036,-10.45076
1425685429.052,-4.6308365
1425685429.068,3.2304077
1425685429.083,12.683693
1425685429.099,23.425537
1425685429.114,35.31023
1425685429.13,48.273823
1425685429.146,62.130577
1425685429.161,76.50176
1425685429.177,90.79181
1425685429.193,104.365364
1425685429.208,116.69545
1425685429.224,127.57439
1425685429.239,137.27649
1425685429.255,146.54425
1425685429.271,156.26941
1425685429.286,166.92708
1425685429.302,178.04756
1425685429.318,187.87599
1425685429.333,193.67471
1425685429.349,192.41496
1425685429.364,181.83308
1425685429.38,161.27216
1425685429.396,132.02441
1425685429.411,97.01669
1425685429.427,60.037086
1425685429.443,24.721626
1425685429.458,-6.153824
1425685429.474,-31.053009
1425685429.489,-49.5315
1425685429.505,-61.90477
1425685429.521,-68.89785
1425685429.536,-71.4086
1425685429.552,-70.44469
1425685429.568,-67.087036
1425685429.583,-62.43376
1425685429.599,-57.448868
1425685429.614,-52.83618
1425685429.63,-48.975357
1425685429.646,-46.028152
1425685429.661,-44.077988
1425685429.677,-43.1577
1425685429.693,-43.357834
1425685429.708,-44.669052
1425685429.724,-46.84091
1425685429.739,-49.40776
1425685429.755,-51.716705
1425685429.771,-53.09674
1425685429.786,-52.939713
1425685429.802,-50.772537
1425685429.818,-46.27275
1425685429.833,-39.417725
1425685429.849,-30.559174
1425685429.864,-20.375519
1425685429.88,-9.80777
1425685429.896,0.27630615
1425685429.911,9.389038
1425685429.927,17.426453
1425685429.943,24.582336
1425685429.958,31.161987
1425685429.974,37.399963
1425685429.99,43.606445
1425685430.005,50.154602
1425685430.021,57.574005
1425685430.036,66.43292
1425685430.052,77.03473
1425685430.068,89.17029
1425685430.083,101.93976
1425685430.099,113.86307
1425685430.114,123.05316
1425685430.13,127.62976
1425685430.146,126.04657
1425685430.161,117.420044
1425685430.177,101.9014
1425685430.193,80.66043
1425685430.208,55.6994
1425685430.224,29.36258
1425685430.24,3.7627258
1425685430.255,-19.700928
1425685430.271,-40.356293
1425685430.286,-58.0206
1425685430.302,-72.68442
1425685430.318,-84.1539
1425685430.333,-92.17972
1425685430.349,-96.71481
1425685430.365,-97.996155
1425685430.38,-96.78256
1425685430.396,-94.17529
1425685430.411,-91.30539
1425685430.427,-89.074524
1425685430.443,-87.92618
1425685430.458,-87.83078
1425685430.474,-88.49271
1425685430.49,-89.52515
1425685430.505,-90.72928
1425685430.521,-92.18771
1425685430.536,-94.21457
1425685430.552,-97.21265
1425685430.568,-101.46347
1425685430.583,-106.99463
1425685430.599,-113.54175
1425685430.615,-120.56061
1425685430.63,-127.37338
1425685430.646,-133.26315
1425685430.661,-137.60004
1425685430.677,-140.03903
1425685430.693,-140.72812
1425685430.708,-140.4107
1425685430.724,-140.21164
1425685430.74,-141.06824
1425685430.755,-143.2373
1425685430.771,-145.95093
1425685430.786,-147.64526
1425685430.802,-146.70367
1425685430.818,-142.2063
1425685430.833,-134.37503
1425685430.849,-124.34259
1425685430.865,-113.50961
1425685430.88,-102.87836
1425685430.896,-92.71597
1425685430.911,-82.83679
1425685430.927,-73.05032
1425685430.943,-63.47818
1425685430.958,-54.44864
1425685430.974,-46.098938
1425685430.99,-38.09903
1425685431.005,-29.651245
1425685431.021,-19.697266
1425685431.036,-7.325592
1425685431.052,8.0867
1425685431.068,26.906525
1425685431.083,49.210144
1425685431.099,74.57208
1425685431.115,101.74393
1425685431.13,128.23383
1425685431.146,150.49301
1425685431.161,164.74954
1425685431.177,168.52759
1425685431.193,162.04611
1425685431.208,148.86478
1425685431.224,135.19885
1425685431.24,128.24112
1425685431.255,133.83987
1425685431.271,154.29984
1425685431.286,187.29932
1425685431.302,226.02747
1425685431.318,260.89404
1425685431.333,282.0016
1425685431.349,282.0196
1425685431.365,258.19055
1425685431.38,213.10168
1425685431.396,153.82335
1425685431.411,89.7117
1425685431.427,29.831177
1425685431.443,-19.211441
1425685431.458,-54.258972
1425685431.474,-75.344284
1425685431.49,-84.601105
1425685431.505,-85.02991
1425685431.521,-79.5524
1425685431.536,-70.46779
1425685431.552,-59.372604
1425685431.568,-47.3172
1425685431.583,-35.06981
1425685431.599,-23.4469
1425685431.615,-13.568893
1425685431.63,-6.8061676
1425685431.646,-4.392395
1425685431.661,-6.994507
1425685431.677,-14.357986
1425685431.693,-25.454437
1425685431.708,-38.942078
1425685431.724,-53.869766
1425685431.74,-69.72336
1425685431.755,-86.21628
1425685431.771,-102.68976
1425685431.786,-117.79393
1425685431.802,-129.73541
1425685431.818,-136.98213
1425685431.833,-139.0269
1425685431.849,-136.47984
1425685431.865,-130.7937
1425685431.88,-123.44046
1425685431.896,-115.35632
1425685431.911,-106.76437
1425685431.927,-97.3914
1425685431.943,-86.9492
1425685431.958,-75.379364
1425685431.974,-62.993378
1425685431.99,-50.363342
1425685432.005,-38.26674
1425685432.021,-27.536057
1425685432.036,-18.894897
1425685432.052,-12.595001
1425685432.068,-8.2881775
1425685432.083,-5.0864716
1425685432.099,-1.9496536
1425685432.115,1.7673798
1425685432.13,6.0485992
1425685432.146,10.246559
1425685432.161,13.554512
1425685432.177,15.514961
1425685432.193,16.2855
1425685432.208,16.568874
1425685432.224,17.20834
1425685432.24,18.980553
1425685432.255,22.233686
1425685432.271,26.901657
1425685432.286,32.378437
1425685432.302,37.444736
1425685432.318,40.346653
1425685432.333,39.01806
1425685432.349,31.70121
1425685432.365,17.565105
1425685432.38,-2.7430573
1425685432.396,-27.024117
1425685432.411,-52.056328
1425685432.427,-74.33114
1425685432.443,-91.04454
1425685432.458,-100.7109
1425685432.474,-103.30748
1425685432.49,-100.02228
1425685432.505,-92.634544
1425685432.521,-82.929016
1425685432.536,-72.24681
1425685432.552,-61.416824
1425685432.568,-50.75316
1425685432.583,-40.2789
1425685432.599,-29.86499
1425685432.615,-19.407837
1425685432.63,-8.876999
1425685432.646,1.643753
1425685432.661,11.944275
1425685432.677,21.72551
1425685432.693,30.636246
1425685432.708,38.401215
1425685432.724,44.884827
1425685432.74,50.15094
1425685432.755,54.414063
1425685432.771,58.01819
1425685432.786,61.366882
1425685432.802,64.930756
1425685432.818,69.18033
1425685432.833,74.47516
1425685432.849,80.95804
1425685432.865,88.40869
1425685432.88,96.41879
1425685432.896,104.600464
1425685432.912,112.93494
1425685432.927,121.89969
1425685432.943,132.36133
1425685432.958,145.16986
1425685432.974,160.68658
1425685432.99,178.56763
1425685433.005,197.797
1425685433.021,217.00552
1425685433.037,234.82211
1425685433.052,249.83829
1425685433.068,260.5644
1425685433.083,265.15027
1425685433.099,261.46326
1425685433.115,247.4382
1425685433.13,221.76523
1425685433.146,184.59528
1425685433.162,137.9451
1425685433.177,85.637695
1425685433.193,32.505585
1425685433.208,-16.60965
1425685433.224,-57.881195
1425685433.24,-89.14258
1425685433.255,-110.06653
1425685433.271,-121.79303
1425685433.287,-126.27112
1425685433.302,-125.70059
1425685433.318,-122.0683
1425685433.333,-116.99063
1425685433.349,-111.73016
1425685433.365,-107.21176
1425685433.38,-104.0173
1425685433.396,-102.302124
1425685433.412,-101.75995
1425685433.427,-101.73511
1425685433.443,-101.4595
1425685433.458,-100.279175
1425685433.474,-97.85193
1425685433.49,-94.15347
1425685433.505,-89.39636
1425685433.521,-83.82703
1425685433.537,-77.566345
1425685433.552,-70.57666
1425685433.568,-62.69644
1425685433.583,-53.82144
1425685433.599,-44.04648
1425685433.615,-33.690765
1425685433.63,-23.283112
1425685433.646,-13.359558
1425685433.662,-4.3232727
1425685433.677,3.7691345
1425685433.693,11.260071
1425685433.708,18.798645
1425685433.724,27.133972
1425685433.74,36.825592
1425685433.755,47.811157
1425685433.771,59.161316
1425685433.787,69.03348
1425685433.802,75.06305
1425685433.818,74.97562
1425685433.833,67.432434
1425685433.849,52.62857
1425685433.865,32.273163
1425685433.88,9.157288
1425685433.896,-13.711761
1425685433.912,-33.80127
1425685433.927,-49.468292
1425685433.943,-60.051147
1425685433.958,-65.63669
1425685433.974,-66.87311
1425685433.99,-64.644104
1425685434.005,-59.970978
1425685434.021,-53.77585
1425685434.037,-46.78241
1425685434.052,-39.428436
1425685434.068,-31.939758
1425685434.083,-24.386414
1425685434.099,-16.85971
1425685434.115,-9.427673
1425685434.13,-2.152893
1425685434.146,4.8764954
1425685434.162,11.466797
1425685434.177,17.202698
1425685434.193,21.522217
1425685434.208,23.906616
1425685434.224,24.243683
1425685434.24,23.113495
1425685434.255,21.690369
1425685434.271,21.419342
1425685434.287,23.415588
1425685434.302,28.168365
1425685434.318,35.273346
1425685434.333,43.684937
1425685434.349,52.15793
1425685434.365,59.644836
1425685434.38,65.61575
1425685434.396,70.226746
1425685434.412,74.20703
1425685434.427,78.605774
1425685434.443,84.50015
1425685434.458,92.602905
1425685434.474,102.98016
1425685434.49,114.81891
1425685434.505,126.30008
1425685434.521,134.69028
1425685434.537,136.82281
1425685434.552,129.91455
1425685434.568,112.49896
1425685434.583,85.19513
1425685434.599,50.779816
1425685434.615,13.49646
1425685434.63,-22.18039
1425685434.646,-52.731995
1425685434.662,-76.3822
1425685434.677,-92.93756
1425685434.693,-103.21091
1425685434.708,-108.23602
1425685434.724,-108.786835
1425685434.74,-105.37399
1425685434.755,-98.64133
1425685434.771,-89.642456
1425685434.787,-79.808624
1425685434.802,-70.5737
1425685434.818,-62.85263
1425685434.833,-56.726074
1425685434.849,-51.49518
1425685434.865,-46.060486
1425685434.88,-39.633698
1425685434.896,-32.15918
1425685434.912,-24.419739
1425685434.927,-17.667175
1425685434.943,-12.896423
1425685434.958,-10.317596
1425685434.974,-9.083557
1425685434.99,-7.639923
1425685435.005,-4.4079285
1425685435.021,1.5014343
1425685435.037,9.972839
1425685435.052,19.990265
1425685435.068,30.17691
1425685435.083,39.35495
1425685435.099,47.031494
1425685435.115,53.450836
1425685435.13,59.433777
1425685435.146,66.02176
1425685435.162,74.09183
1425685435.177,84.064026
1425685435.193,95.61337
1425685435.208,107.45349
1425685435.224,117.310455
1425685435.24,122.25238
1425685435.255,119.38129
1425685435.271,106.75815
1425685435.287,84.27731
1425685435.302,53.889435
1425685435.318,19.235626
1425685435.333,-15.388275
1425685435.349,-46.23706
1425685435.365,-70.96179
1425685435.38,-88.870636
1425685435.396,-100.47162
1425685435.412,-106.82486
1425685435.427,-108.90579
1425685435.443,-107.359955
1425685435.458,-102.65076
1425685435.474,-95.41077
1425685435.49,-86.5282
1425685435.505,-77.17224
1425685435.521,-68.45917
1425685435.537,-61.130615
1425685435.552,-55.419098
1425685435.568,-51.00644
1425685435.584,-47.322937
1425685435.599,-43.741272
1425685435.615,-39.80365
1425685435.63,-35.345245
1425685435.646,-30.614838
1425685435.662,-26.193878
1425685435.677,-22.730804
1425685435.693,-20.680359
1425685435.709,-19.916443
1425685435.724,-19.628967
1425685435.74,-18.551056
1425685435.755,-15.413635
1425685435.771,-9.483612
1425685435.787,-0.8114624
1425685435.802,9.894623
1425685435.818,21.563782
1425685435.834,33.176605
1425685435.849,43.971313
1425685435.865,53.636383
1425685435.88,62.205414
1425685435.896,70.130035
1425685435.912,78.19916
1425685435.927,87.27203
1425685435.943,97.82858
1425685435.959,109.38849
1425685435.974,120.1763
1425685435.99,127.385315
1425685436.005,127.75952
1425685436.021,118.658875
1425685436.037,99.0126
1425685436.052,69.87427
1425685436.068,34.243958
1425685436.084,-3.6472168
1425685436.099,-39.421265
1425685436.115,-69.65634
1425685436.13,-92.463135
1425685436.146,-107.56131
1425685436.162,-115.71768
1425685436.177,-117.939606
1425685436.193,-115.13559
1425685436.209,-108.12381
1425685436.224,-97.93033
1425685436.24,-86.08322
1425685436.255,-74.38953
1425685436.271,-64.36099
1425685436.287,-56.653534
1425685436.302,-50.905426
1425685436.318,-46.084686
1425685436.334,-41.23996
1425685436.349,-36.134186
1425685436.365,-31.16922
1425685436.38,-27.132996
1425685436.396,-24.512665
1425685436.412,-23.170563
1425685436.427,-22.428558
1425685436.443,-21.44925
1425685436.459,-19.711182
1425685436.474,-17.132324
1425685436.49,-14.004578
1425685436.505,-10.591095
1425685436.521,-6.9113464
1425685436.537,-2.6102295
1425685436.552,3.0112305
1425685436.568,10.562164
1425685436.584,20.264618
1425685436.599,31.675812
1425685436.615,43.69873
1425685436.63,54.976074
1425685436.646,64.447845
1425685436.662,71.786255
1425685436.677,77.56879
1425685436.693,83.103
1425685436.709,89.8811
1425685436.724,99.01233
1425685436.74,110.68622
1425685436.755,123.87872
1425685436.771,136.32272
1425685436.787,144.85406
1425685436.802,146.04892
1425685436.818,137.13687
1425685436.834,116.938385
1425685436.849,86.48413
1425685436.865,48.915222
1425685436.88,8.760681
1425685436.896,-29.257263
1425685436.912,-61.41214
1425685436.927,-85.57419
1425685436.943,-101.3201
1425685436.959,-109.473816
1425685436.974,-111.4527
1425685436.99,-108.82129
1425685437.005,-103.012085
1425685437.021,-95.26193
1425685437.037,-86.65802
1425685437.052,-78.02597
1425685437.068,-69.89169
1425685437.084,-62.394165
1425685437.099,-55.39981
1425685437.115,-48.660797
1425685437.13,-42.12262
1425685437.146,-36.036896
1425685437.162,-30.893555
1425685437.177,-27.235321
1425685437.193,-25.227417
1425685437.209,-24.452515
1425685437.224,-23.96045
1425685437.24,-22.603058
1425685437.255,-19.550842
1425685437.271,-14.619232
1425685437.287,-8.380829
1425685437.302,-1.727478
1425685437.318,4.576599
1425685437.334,10.284882
1425685437.349,15.806763
1425685437.365,21.922485
1425685437.38,29.326172
1425685437.396,38.22354
1425685437.412,48.139313
1425685437.427,58.08258
1425685437.443,67.0271
1425685437.459,74.32315
1425685437.474,80.01962
1425685437.49,84.86261
1425685437.505,90.06207
1425685437.521,96.937805
1425685437.537,106.433075
1425685437.552,118.70294
1425685437.568,132.74063
1425685437.584,146.16553
1425685437.599,155.40292
1425685437.615,156.41235
1425685437.63,145.89117
1425685437.646,122.56943
1425685437.662,87.98868
1425685437.677,46.314026
1425685437.693,3.2131653
1425685437.709,-35.945007
1425685437.724,-67.49698
1425685437.74,-90.066864
1425685437.755,-104.29785
1425685437.771,-111.78241
1425685437.787,-114.15549
1425685437.802,-112.665955
1425685437.818,-108.20694
1425685437.834,-101.64963
1425685437.849,-94.03107
1425685437.865,-86.39206
1425685437.88,-79.49155
1425685437.896,-73.625854
1425685437.912,-68.711334
1425685437.927,-64.55371
1425685437.943,-61.14502
1425685437.959,-58.70349
1425685437.974,-57.474365
1425685437.99,-57.448853
1425685438.005,-58.156586
1425685438.021,-58.700073
1425685438.037,-57.985962
1425685438.052,-55.12018
1425685438.068,-49.729767
1425685438.084,-42.1019
1425685438.099,-33.150208
1425685438.115,-23.937195
1425685438.13,-15.352203
1425685438.146,-7.705139
1425685438.162,-0.6525879
1425685438.177,6.490265
1425685438.193,14.371674
1425685438.209,23.115479
1425685438.224,32.27011
1425685438.24,41.222534
1425685438.256,49.44397
1425685438.271,56.8815
1425685438.287,63.961426
1425685438.302,71.32913
1425685438.318,79.666595
1425685438.334,89.46753
1425685438.349,100.87103
1425685438.365,113.39154
1425685438.38,125.58807
1425685438.396,134.91946
1425685438.412,138.04636
1425685438.427,131.79742
1425685438.443,114.338135
1425685438.459,86.19818
1425685438.474,50.36084
1425685438.49,11.553741
1425685438.506,-25.289703
1425685438.521,-56.3154
1425685438.537,-79.59128
1425685438.552,-95.04883
1425685438.568,-103.73059
1425685438.584,-107.02051
1425685438.599,-106.14459
1425685438.615,-101.910614
1425685438.631,-95.04407
1425685438.646,-86.39627
1425685438.662,-77.023865
1425685438.677,-68.114685
1425685438.693,-60.5578
1425685438.709,-54.65799
1425685438.724,-50.187836
1425685438.74,-46.475586
1425685438.756,-42.92874
1425685438.771,-39.31389
1425685438.787,-35.875137
1425685438.802,-33.066742
1425685438.818,-31.159119
1425685438.834,-29.981003
1425685438.849,-28.88887
1425685438.865,-27.04956
1425685438.881,-23.925217
1425685438.896,-19.528305
1425685438.912,-14.3918915
1425685438.927,-9.211914
1425685438.943,-4.3944397
1425685438.959,0.23916626
1425685438.974,5.3453827
1425685438.99,11.773117
1425685439.006,19.98796
1425685439.021,29.814163
1425685439.037,40.405014
1425685439.052,50.564056
1425685439.068,59.31685
1425685439.084,66.3853
1425685439.099,72.41214
1425685439.115,78.72261
1425685439.131,86.84271
1425685439.146,97.72714
1425685439.162,111.14229
1425685439.177,125.29248
1425685439.193,136.95749
1425685439.209,142.25298
1425685439.224,137.70638
1425685439.24,121.47185
1425685439.256,94.12956
1425685439.271,58.67859
1425685439.287,19.73993
1425685439.302,-17.727875
1425685439.318,-49.770706
1425685439.334,-74.219406
1425685439.349,-90.74393
1425685439.365,-100.2401
1425685439.381,-104.05789
1425685439.396,-103.444
1425685439.412,-99.30206
1425685439.427,-92.383194
1425685439.443,-83.51312
1425685439.459,-73.67485
1425685439.474,-63.8779
1425685439.49,-54.902267
1425685439.506,-47.177307
1425685439.521,-40.764847
1425685439.537,-35.501083
1425685439.552,-31.193756
1425685439.568,-27.772812
1425685439.584,-25.227493
1425685439.599,-23.461884
1425685439.615,-22.23729
1425685439.631,-21.136871
1425685439.646,-19.724472
1425685439.662,-17.643448
1425685439.677,-14.833923
1425685439.693,-11.444717
1425685439.709,-7.707718
1425685439.724,-3.7037506
1425685439.74,0.7649231
1425685439.756,6.116974
1425685439.771,12.792252
1425685439.787,20.936722
1425685439.802,30.25148
1425685439.818,39.940384
1425685439.834,49.044937
1425685439.849,56.790863
1425685439.865,62.927246
1425685439.881,67.91673
1425685439.896,72.835724
1425685439.912,79.07211
1425685439.927,87.83383
1425685439.943,99.476654
1425685439.959,112.935394
1425685439.974,125.47984
1425685439.99,133.20529
1425685440.006,132.12064
1425685440.021,119.55144
1425685440.037,95.30623
1425685440.052,61.924957
1425685440.068,24.002182
1425685440.084,-13.284454
1425685440.099,-45.611023
1425685440.115,-70.42131
1425685440.131,-87.0726
1425685440.146,-96.351456
1425685440.162,-99.78133
1425685440.177,-99.01724
1425685440.193,-95.57434
1425685440.209,-90.62193
1425685440.224,-84.90706
1425685440.24,-78.81297
1425685440.256,-72.44211
1425685440.271,-65.80292
1425685440.287,-58.935486
1425685440.302,-51.874832
1425685440.318,-44.751892
1425685440.334,-37.849106
1425685440.349,-31.602524
1425685440.365,-26.68808
1425685440.381,-23.747498
1425685440.396,-23.106339
1425685440.412,-24.458878
1425685440.427,-26.844498
1425685440.443,-28.949463
1425685440.459,-29.577744
1425685440.474,-28.13073
1425685440.49,-24.686867
1425685440.506,-19.731583
1425685440.521,-13.747253
1425685440.537,-6.9015045
1425685440.552,0.97904205
1425685440.568,10.057137
1425685440.584,20.213295
1425685440.599,30.877579
1425685440.615,41.21586
1425685440.631,50.43872
1425685440.646,58.16333
1425685440.662,64.58851
1425685440.677,70.61218
1425685440.693,77.50978
1425685440.709,86.487015
1425685440.724,98.214485
1425685440.74,112.22122
1425685440.756,126.679665
1425685440.771,138.51863
1425685440.787,144.012
1425685440.802,139.8434
1425685440.818,124.25719
1425685440.834,97.726364
1425685440.849,63.075798
1425685440.865,24.6708
1425685440.881,-12.829285
1425685440.896,-45.709763
1425685440.912,-71.864555
1425685440.928,-90.80061
1425685440.943,-103.11692
1425685440.959,-109.78408
1425685440.974,-111.75716
1425685440.99,-109.89781
1425685441.006,-105.04305
1425685441.021,-98.14475
1425685441.037,-90.21695
1425685441.052,-82.01564
1425685441.068,-73.95688
1425685441.084,-66.19824
1425685441.099,-58.792664
1425685441.115,-52.01741
1425685441.131,-46.361485
1425685441.146,-42.36892
1425685441.162,-40.29252
1425685441.178,-39.929783
1425685441.193,-40.58819
1425685441.209,-41.350796
1425685441.224,-41.397972
1425685441.24,-40.2324
1425685441.256,-37.776665
1425685441.271,-34.200214
1425685441.287,-29.751999
1425685441.303,-24.538095
1425685441.318,-18.441587
1425685441.334,-11.2481365
1425685441.349,-2.7637901
1425685441.365,6.9264793
1425685441.381,17.412697
1425685441.396,28.002377
1425685441.412,37.903397
1425685441.428,46.56139
1425685441.443,53.816715
1425685441.459,60.09902
1425685441.474,66.26835
1425685441.49,73.48939
1425685441.506,82.77346
1425685441.521,94.67219
1425685441.537,108.74501
1425685441.553,123.2105
1425685441.568,134.98946
1425685441.584,140.26128
1425685441.599,135.62343
1425685441.615,119.39202
1425685441.631,92.40346
1425685441.646,57.791035
1425685441.662,20.071217
1425685441.678,-16.300573
1425685441.693,-48.124336
1425685441.709,-73.78013
1425685441.724,-92.969185
1425685441.74,-106.08006
1425685441.756,-113.65465
1425685441.771,-116.23716
1425685441.787,-114.4659
1425685441.803,-109.203445
1425685441.818,-101.56053
1425685441.834,-92.73489
1425685441.849,-83.7646
1425685441.865,-75.36767
1425685441.881,-67.96683
1425685441.896,-61.63282
1425685441.912,-56.267677
1425685441.928,-51.740482
1425685441.943,-48.01851
1425685441.959,-45.160767
1425685441.974,-43.236694
1425685441.99,-41.946373
1425685442.006,-40.657776
1425685442.021,-38.482338
1425685442.037,-34.70133
1425685442.053,-29.177711
1425685442.068,-22.509117
1425685442.084,-15.739012
1425685442.099,-9.789115
1425685442.115,-5.0191736
1425685442.131,-0.9356413
1425685442.146,3.4335923
1425685442.162,9.122328
1425685442.178,16.844433
1425685442.193,26.610683
1425685442.209,37.73131
1425685442.224,49.032173
1425685442.24,59.275364
1425685442.256,67.6513
1425685442.271,74.14151
1425685442.287,79.66392
1425685442.303,85.776855
1425685442.318,94.142624
1425685442.334,105.66941
1425685442.349,119.88844
1425685442.365,134.78932
1425685442.381,146.93419
1425685442.396,152.2217
1425685442.412,147.05508
1425685442.428,129.4358
1425685442.443,99.86949
1425685442.459,61.4638
1425685442.474,19.16077
1425685442.49,-21.608786
1425685442.506,-56.408478
1425685442.521,-82.80558
1425685442.537,-100.45184
1425685442.553,-110.382996
1425685442.568,-114.09302
1425685442.584,-112.9334
1425685442.599,-107.966156
1425685442.615,-100.220894
1425685442.631,-90.94011
1425685442.646,-81.45254
1425685442.662,-72.871124
1425685442.678,-65.755066
1425685442.693,-59.997894
1425685442.709,-55.139503
1425685442.724,-50.7647
1425685442.74,-46.76159
1425685442.756,-43.362152
1425685442.771,-40.96029
1425685442.787,-39.751358
1425685442.803,-39.60659
1425685442.818,-39.94571
1425685442.834,-39.906227
1425685442.849,-38.668663
1425685442.865,-35.733513
1425685442.881,-31.100225
1425685442.896,-25.280592
1425685442.912,-19.010237
1425685442.928,-12.861231
1425685442.943,-6.9225025
1425685442.959,-0.7255306
1425685442.974,6.47029
1425685442.99,15.254582
1425685443.006,25.625248
1425685443.021,36.9031
1425685443.037,47.988785
1425685443.053,57.754936
1425685443.068,65.67598
1425685443.084,72.04862
1425685443.099,77.90953
1425685443.115,84.75963
1425685443.131,93.914276
1425685443.146,105.94572
1425685443.162,120.0928
1425685443.178,134.08835
1425685443.193,144.35402
1425685443.209,146.87094
1425685443.224,138.3989
1425685443.24,117.62461
1425685443.256,85.89549
1425685443.271,46.94576
1425685443.287,5.939905
1425685443.303,-32.01244
1425685443.318,-63.19558
1425685443.334,-85.95488
1425685443.349,-100.54645
1425685443.365,-108.411156
1425685443.381,-111.27072
1425685443.396,-110.470215
1425685443.412,-106.89067
1425685443.428,-101.15143
1425685443.443,-93.957985
1425685443.459,-86.171555
1425685443.474,-78.747894
1425685443.49,-72.36577
1425685443.506,-67.30724
1425685443.521,-63.428123
1425685443.537,-60.355026
1425685443.553,-57.875553
1425685443.568,-56.09861
1425685443.584,-55.373734
1425685443.599,-56.01827
1425685443.615,-57.98289
1425685443.631,-60.709053
1425685443.646,-63.2429
1425685443.662,-64.696945
1425685443.678,-64.5235
1425685443.693,-62.782623
1425685443.709,-60.016384
1425685443.724,-56.909096
1425685443.74,-53.948124
1425685443.756,-51.10489
1425685443.771,-47.894783
1425685443.787,-43.644028
1425685443.803,-37.847588
1425685443.818,-30.428108
1425685443.834,-21.83876
1425685443.85,-12.841114
1425685443.865,-4.2158585
1425685443.881,3.5685234
1425685443.896,10.516922
1425685443.912,17.049225
1425685443.928,23.868675
1425685443.943,31.538918
1425685443.959,40.238464
1425685443.975,49.576233
1425685443.99,58.49688
1425685444.006,65.46507
1425685444.021,68.76421
1425685444.037,66.95815
1425685444.053,59.318092
1425685444.068,46.158096
1425685444.084,28.810303
1425685444.1,9.329498
1425685444.115,-9.972824
1425685444.131,-27.178299
1425685444.146,-41.057373
1425685444.162,-51.26892
1425685444.178,-58.151367
1425685444.193,-62.318222
1425685444.209,-64.265
1425685444.225,-64.0654
1425685444.24,-61.433884
1425685444.256,-56.05362
1425685444.271,-48.078293
1425685444.287,-38.378555
1425685444.303,-28.337296
1425685444.318,-19.467804
1425685444.334,-12.691025
1425685444.35,-8.003052
1425685444.365,-4.6185455
1425685444.381,-1.5182648
1425685444.396,1.9697113
1425685444.412,5.8913727
1425685444.428,10.01236
1425685444.443,14.12735
1425685444.459,18.335022
1425685444.475,22.985992
1425685444.49,28.258759
1425685444.506,33.93106
1425685444.521,39.408722
1425685444.537,44.116425
1425685444.553,47.895752
1425685444.568,51.290466
1425685444.584,55.23578
1425685444.6,60.569733
1425685444.615,67.71176
1425685444.631,76.36276
1425685444.646,85.75281
1425685444.662,94.94476
1425685444.678,103.18945
1425685444.693,110.12866
1425685444.709,115.811066
1425685444.725,120.65448
1425685444.74,125.21997
1425685444.756,130.04117
1425685444.771,135.2883
1425685444.787,140.52725
1425685444.803,144.70581
1425685444.818,146.06192
1425685444.834,142.43616
1425685444.85,131.74194
1425685444.865,112.568146
1425685444.881,84.823364
1425685444.896,50.092865
1425685444.912,11.504578
1425685444.928,-26.921417
1425685444.943,-61.156647
1425685444.959,-88.15976
1425685444.975,-106.45386
1425685444.99,-116.188995
1425685445.006,-118.7767
1425685445.021,-116.15448
1425685445.037,-110.24689
1425685445.053,-102.5152
1425685445.068,-93.917114
1425685445.084,-84.999115
1425685445.1,-76.10953
1425685445.115,-67.584656
1425685445.131,-59.811005
1425685445.146,-53.13867
1425685445.162,-47.72705
1425685445.178,-43.418915
1425685445.193,-39.8291
1425685445.209,-36.49637
1425685445.225,-33.11029
1425685445.24,-29.585815
1425685445.256,-25.943878
1425685445.271,-22.09253
1425685445.287,-17.760223
1425685445.303,-12.591003
1425685445.318,-6.3358154
1425685445.334,0.9303589
1425685445.35,8.841919
1425685445.365,17.049805
1425685445.381,25.471558
1425685445.396,34.434937
1425685445.412,44.4794
1425685445.428,55.9581
1425685445.443,68.71823
1425685445.459,82.05597
1425685445.475,94.99808
1425685445.49,106.77884
1425685445.506,117.16678
1425685445.521,126.574615
1425685445.537,135.76633
1425685445.553,145.5368
1425685445.568,156.18433
1425685445.584,167.14798
1425685445.6,176.89932
1425685445.615,182.99945
1425685445.631,182.50189
1425685445.646,172.65872
1425685445.662,151.73865
1425685445.678,119.83179
1425685445.693,79.15729
1425685445.709,33.762848
1425685445.725,-11.374756
1425685445.74,-51.628082
1425685445.756,-83.75043
1425685445.771,-106.465576
1425685445.787,-120.2283
1425685445.803,-126.49066
1425685445.818,-126.92029
1425685445.834,-122.856384
1425685445.85,-115.30426
1425685445.865,-105.20569
1425685445.881,-93.70184
1425685445.896,-82.14584
1425685445.912,-71.8602
1425685445.928,-63.72943
1425685445.943,-57.946533
1425685445.959,-54.02771
1425685445.975,-51.079727
1425685445.99,-48.180725
1425685446.006,-44.7209
1425685446.021,-40.555084
1425685446.037,-35.965546
1425685446.053,-31.502594
1425685446.068,-27.637695
1425685446.084,-24.530365
1425685446.1,-21.75998
1425685446.115,-18.343216
1425685446.131,-13.115097
1425685446.146,-5.262924
1425685446.162,5.202133
1425685446.178,17.405579
1425685446.193,29.894806
1425685446.209,41.309372
1425685446.225,50.990524
1425685446.24,59.021545
1425685446.256,66.149994
1425685446.271,73.31908
1425685446.287,81.34657
1425685446.303,90.923965
1425685446.318,102.55899
1425685446.334,116.36157
1425685446.35,131.56274
1425685446.365,146.07729
1425685446.381,156.44255
1425685446.396,158.59727
1425685446.412,149.1962
1425685446.428,126.97597
1425685446.443,93.46831
1425685446.459,52.65766
1425685446.475,9.7561035
1425685446.49,-30.200684
1425685446.506,-63.625916
1425685446.522,-88.86105
1425685446.537,-105.860435
1425685446.553,-115.66655
1425685446.568,-119.57202
1425685446.584,-118.74673
1425685446.6,-114.07301
1425685446.615,-106.30699
1425685446.631,-96.20538
1425685446.647,-84.69878
1425685446.662,-72.83219
1425685446.678,-61.51202
1425685446.693,-51.352165
1425685446.709,-42.642845
1425685446.725,-35.38649
1425685446.74,-29.557098
1425685446.756,-25.131618
1425685446.772,-22.0593
1425685446.787,-20.122921
1425685446.803,-18.880169
1425685446.818,-17.696417
1425685446.834,-15.960648
1425685446.85,-13.224061
1425685446.865,-9.237703
1425685446.881,-3.9566936
1425685446.897,2.4982529
1425685446.912,9.90332
1425685446.928,17.862328
1425685446.943,25.94339
1425685446.959,33.816967
1425685446.975,41.376575
1425685446.99,48.765236
1425685447.006,56.33634
1425685447.022,64.40123
1425685447.037,73.15661
1425685447.053,82.71437
1425685447.068,93.26406
1425685447.084,105.185326
1425685447.1,118.89241
1425685447.115,134.34833
1425685447.131,150.46844
1425685447.147,164.88098
1425685447.162,174.29619
1425685447.178,175.34053
1425685447.193,165.72208
1425685447.209,145.00163
1425685447.225,114.779495
1425685447.24,78.260345
1425685447.256,39.284134
1425685447.272,1.4010773
1425685447.287,-32.70369
1425685447.303,-61.445053
1425685447.318,-84.12816
1425685447.334,-100.669876
1425685447.35,-111.358536
1425685447.365,-116.75926
1425685447.381,-117.62457
1425685447.397,-114.86223
1425685447.412,-109.41687
1425685447.428,-102.178955
1425685447.443,-93.9671
1425685447.459,-85.54816
1425685447.475,-77.67197
1425685447.49,-71.01019
1425685447.506,-66.13034
1425685447.522,-63.238983
1425685447.537,-62.1257
1425685447.553,-62.16031
1425685447.568,-62.467834
1425685447.584,-62.231018
1425685447.6,-60.90338
1425685447.615,-58.14453
1425685447.631,-53.82553
1425685447.647,-47.973297
1425685447.662,-40.686554
1425685447.678,-32.21646
1425685447.693,-22.981598
1425685447.709,-13.485748
1425685447.725,-4.197815
1425685447.74,4.625305
1425685447.756,13.038239
1425685447.772,21.315277
1425685447.787,29.794617
1425685447.803,38.684326
1425685447.818,48.095245
1425685447.834,58.087708
1425685447.85,68.904205
1425685447.865,80.92923
1425685447.881,94.32803
1425685447.897,108.63757
1425685447.912,122.26279
1425685447.928,132.41995
1425685447.943,135.74051
1425685447.959,129.3013
1425685447.975,111.74774
1425685447.99,84.157715
1425685448.006,49.698242
1425685448.022,12.657837
1425685448.037,-22.97699
1425685448.053,-54.522705
1425685448.068,-80.92456
1425685448.084,-102.12781
1425685448.1,-118.355835
1425685448.115,-129.60907
1425685448.131,-135.63629
1425685448.147,-136.45209
1425685448.162,-132.69458
1425685448.178,-125.64899
1425685448.193,-116.90033
1425685448.209,-107.845825
1425685448.225,-99.34619
1425685448.24,-91.67761
1425685448.256,-84.88672
1425685448.272,-78.99512
1425685448.287,-74.15454
1425685448.303,-70.64087
1425685448.318,-68.58197
1425685448.334,-67.904236
1425685448.35,-68.17407
1425685448.365,-68.59021
1425685448.381,-68.24292
1425685448.397,-66.38458
1425685448.412,-62.648865
1425685448.428,-57.183838
1425685448.443,-50.53662
1425685448.459,-43.27008
1425685448.475,-35.66217
1425685448.49,-27.644714
1425685448.506,-18.959839
1425685448.522,-9.488281
1425685448.537,0.5272217
1425685448.553,10.713562
1425685448.568,20.720032
1425685448.584,30.46814
1425685448.6,40.205017
1425685448.615,50.241577
1425685448.631,60.860046
1425685448.647,72.11743
1425685448.662,83.85858
1425685448.678,95.619385
1425685448.693,106.587585
1425685448.709,115.32074
1425685448.725,119.80109
1425685448.74,117.91785
1425685448.756,108.10083
1425685448.772,90.0813
1425685448.787,65.24481
1425685448.803,36.37903
1425685448.818,6.8825684
1425685448.834,-20.130066
1425685448.85,-42.56311
1425685448.865,-59.61737
1425685448.881,-71.53662
1425685448.897,-79.13257
1425685448.912,-83.25934
1425685448.928,-84.41382
1425685448.943,-82.88934
1425685448.959,-79.003174
1425685448.975,-73.322876
1425685448.99,-66.769775
1425685449.006,-60.38202
1425685449.022,-54.990784
1425685449.037,-50.99121
1425685449.053,-48.27014
1425685449.068,-46.359375
1425685449.084,-44.76935
1425685449.1,-43.184692
1425685449.115,-41.527954
1425685449.131,-39.869568
1425685449.147,-38.275513
1425685449.162,-36.731018
1425685449.178,-35.071167
1425685449.194,-33.105896
1425685449.209,-30.606201
1425685449.225,-27.369568
1425685449.24,-23.277649
1425685449.256,-18.279968
1425685449.272,-12.43634
1425685449.287,-5.833252
1425685449.303,1.5692749
1425685449.318,9.842712
1425685449.334,18.932251
1425685449.35,28.61322
1425685449.365,38.322815
1425685449.381,47.428894
1425685449.397,55.543396
1425685449.412,62.837097
1425685449.428,70.120056
1425685449.444,78.40155
1425685449.459,88.262024
1425685449.475,99.19348
1425685449.49,109.41547
1425685449.506,116.18677
1425685449.522,116.69916
1425685449.537,109.03772
1425685449.553,92.898315
1425685449.569,69.739136
1425685449.584,42.383118
1425685449.6,14.101685
1425685449.615,-12.203064
1425685449.631,-34.575073
1425685449.647,-52.168823
1425685449.662,-65.045166
1425685449.678,-73.66046
1425685449.694,-78.58209
1425685449.709,-80.29907
1425685449.725,-79.260925
1425685449.74,-76.025635
1425685449.756,-71.35193
1425685449.772,-66.06769
1425685449.787,-60.939026
1425685449.803,-56.481934
1425685449.819,-52.8089
1425685449.834,-49.79956
1425685449.85,-47.1911
1425685449.865,-44.7959
1425685449.881,-42.547913
1425685449.897,-40.486023
1425685449.912,-38.68933
1425685449.928,-37.06311
1425685449.944,-35.438843
1425685449.959,-33.55005
1425685449.975,-31.161072
1425685449.99,-28.190979
1425685450.006,-24.712097
1425685450.022,-20.813232
1425685450.037,-16.478699
1425685450.053,-11.474304
1425685450.069,-5.459839
1425685450.084,1.8013306
1425685450.1,10.141235
1425685450.115,19.02124
1425685450.131,27.58197
1425685450.147,35.10315
1425685450.162,41.344543
1425685450.178,46.65924
1425685450.194,51.890503
1425685450.209,58.0188
1425685450.225,65.80475
1425685450.24,75.51123
1425685450.256,86.62311
1425685450.272,97.769104
1425685450.287,106.74286
1425685450.303,110.96936
1425685450.319,108.0777
1425685450.334,96.76196
1425685450.35,77.3233
1425685450.365,51.66925
1425685450.381,22.868896
1425685450.397,-5.784485
1425685450.412,-31.548584
1425685450.428,-52.529114
1425685450.444,-67.82318
1425685450.459,-77.366394
1425685450.475,-81.74115
1425685450.49,-82.03406
1425685450.506,-79.657715
1425685450.522,-76.00696
1425685450.537,-72.126526
1425685450.553,-68.56012
1425685450.569,-65.28784
1425685450.584,-62.03601
1425685450.6,-58.562622
1425685450.615,-54.698975
1425685450.631,-50.497925
1425685450.647,-46.18573
1425685450.662,-42.069702
1425685450.678,-38.59912
1425685450.694,-36.167725
1425685450.709,-34.94983
1425685450.725,-34.730774
1425685450.74,-34.86853
1425685450.756,-34.480164
1425685450.772,-32.775146
1425685450.787,-29.376953
1425685450.803,-24.329224
1425685450.819,-18.04712
1425685450.834,-11.017883
1425685450.85,-3.621582
1425685450.865,3.940857
1425685450.881,11.521301
1425685450.897,18.991943
1425685450.912,26.17511
1425685450.928,32.876953
1425685450.944,39.04706
1425685450.959,44.865234
1425685450.975,50.84607
1425685450.99,57.857605
1425685451.006,66.76135
1425685451.022,77.949585
1425685451.037,90.89642
1425685451.053,103.85712
1425685451.069,114.21503
1425685451.084,119.13312
1425685451.1,116.48804
1425685451.115,105.482605
1425685451.131,86.935
1425685451.147,62.885742
1425685451.162,36.0542
1425685451.178,9.152893
1425685451.194,-15.582886
1425685451.209,-36.601563
1425685451.225,-53.070923
1425685451.24,-64.73395
1425685451.256,-71.83783
1425685451.272,-74.96716
1425685451.287,-74.909424
1425685451.303,-72.609436
1425685451.319,-68.989075
1425685451.334,-64.891174
1425685451.35,-60.88977
1425685451.365,-57.133118
1425685451.381,-53.448547
1425685451.397,-49.56317
1425685451.412,-45.339966
1425685451.428,-41.04663
1425685451.444,-37.275757
1425685451.459,-34.664185
1425685451.475,-33.50464
1425685451.49,-33.541504
1425685451.506,-34.012817
1425685451.522,-34.009766
1425685451.537,-32.8609
1425685451.553,-30.3479
1425685451.569,-26.693848
1425685451.584,-22.321594
1425685451.6,-17.54242
1425685451.615,-12.455872
1425685451.631,-6.9570923
1425685451.647,-0.91296387
1425685451.662,5.6659546
1425685451.678,12.564331
1425685451.694,19.40271
1425685451.709,25.794067
1425685451.725,31.510498
1425685451.74,36.680603
1425685451.756,41.75177
1425685451.772,47.434265
1425685451.787,54.512634
1425685451.803,63.51599
1425685451.819,74.562744
1425685451.834,87.04468
1425685451.85,99.564026
1425685451.866,110.00177
1425685451.881,115.92706
1425685451.897,115.152954
1425685451.912,106.36749
1425685451.928,89.619934
1425685451.944,66.38837
1425685451.959,39.219604
1425685451.975,11.113831
1425685451.99,-15.167969
1425685452.006,-37.62976
1425685452.022,-55.21808
1425685452.037,-67.7121
1425685452.053,-75.52081
1425685452.069,-79.359375
1425685452.084,-80.00311
1425685452.1,-78.11316
1425685452.116,-74.16571
1425685452.131,-68.548096
1425685452.147,-61.73938
1425685452.162,-54.473633
1425685452.178,-47.61084
1425685452.194,-42.026245
1425685452.209,-38.22516
1425685452.225,-36.22168
1425685452.241,-35.59149
1425685452.256,-35.75177
1425685452.272,-36.20752
1425685452.287,-36.59436
1425685452.303,-36.5802
1425685452.319,-35.752808
1425685452.334,-33.710938
1425685452.35,-30.285583
1425685452.366,-25.700989
1425685452.381,-20.69458
1425685452.397,-16.095093
1425685452.412,-12.446106
1425685452.428,-9.726013
1425685452.444,-7.281372
1425685452.459,-4.1952515
1425685452.475,0.3121338
1425685452.491,6.673584
1425685452.506,14.805481
1425685452.522,24.137512
1425685452.537,33.80475
1425685452.553,42.94513
1425685452.569,50.934143
1425685452.584,57.743958
1425685452.6,64.03113
1425685452.616,70.89209
1425685452.631,79.30896
1425685452.647,89.46423
1425685452.662,100.32703
1425685452.678,109.88867
1425685452.694,115.58826
1425685452.709,115.11633
1425685452.725,107.06909
1425685452.741,91.276855
1425685452.756,68.862366
1425685452.772,41.993042
1425685452.787,13.479736
1425685452.803,-13.8098755
1425685452.819,-37.421448
1425685452.834,-55.79657
1425685452.85,-68.43988
1425685452.866,-75.720276
1425685452.881,-78.629456
1425685452.897,-78.31879
1425685452.912,-75.89044
1425685452.928,-72.19678
1425685452.944,-67.91333
1425685452.959,-63.481873
1425685452.975,-59.12616
1425685452.991,-54.93338
1425685453.006,-50.880737
1425685453.022,-47.044006
1425685453.037,-43.58963
1425685453.053,-40.64557
1425685453.069,-38.28131
1425685453.084,-36.378204
1425685453.1,-34.724304
1425685453.116,-33.14966
1425685453.131,-31.546387
1425685453.147,-29.860565
1425685453.162,-28.009186
1425685453.178,-25.85968
1425685453.194,-23.215546
1425685453.209,-19.929504
1425685453.225,-16.01477
1425685453.241,-11.581909
1425685453.256,-6.739746
1425685453.272,-1.4186401
1425685453.287,4.545746
1425685453.303,11.371674
1425685453.319,19.02533
1425685453.334,27.177338
1425685453.35,35.26581
1425685453.366,42.72455
1425685453.381,49.240143
1425685453.397,54.979797
1425685453.412,60.55017
1425685453.428,66.91971
1425685453.444,74.95236
1425685453.459,84.91217
1425685453.475,96.06839
1425685453.491,106.5332
1425685453.506,113.66214
1425685453.522,114.764404
1425685453.537,108.03705
1425685453.553,93.16754
1425685453.569,71.51254
1425685453.584,45.60031
1425685453.6,18.40326
1425685453.616,-7.4628906
1425685453.631,-30.16214
1425685453.647,-48.690704
1425685453.662,-62.664124
1425685453.678,-72.06033
1425685453.694,-77.119446
1425685453.709,-78.29358
1425685453.725,-76.31854
1425685453.741,-72.178314
1425685453.756,-66.94205
1425685453.772,-61.522705
1425685453.787,-56.540283
1425685453.803,-52.12805
1425685453.819,-48.117157
1425685453.834,-44.235992
1425685453.85,-40.35544
1425685453.866,-36.57617
1425685453.881,-33.266083
1425685453.897,-30.791138
1425685453.912,-29.314087
1425685453.928,-28.754028
1425685453.944,-28.756866
1425685453.959,-28.84372
1425685453.975,-28.49591
1425685453.991,-27.219574
1425685454.006,-24.648834
1425685454.022,-20.66919
1425685454.037,-15.498474
1425685454.053,-9.5980835
1425685454.069,-3.5671692
1425685454.084,2.1942444
1425685454.1,7.667389
1425685454.116,13.139618
1425685454.131,19.014679
1425685454.147,25.506622
1425685454.162,32.53885
1425685454.178,39.8909
1425685454.194,47.396423
1425685454.209,55.122925
1425685454.225,63.35785
1425685454.241,72.41846
1425685454.256,82.3685
1425685454.272,92.83777
1425685454.287,102.92737
1425685454.303,111.227234
1425685454.319,115.99597
1425685454.334,115.47226
1425685454.35,108.3136
1425685454.366,94.209076
1425685454.381,74.02594
1425685454.397,49.69565
1425685454.412,23.733826
1425685454.428,-1.4706421
1425685454.444,-24.19873
1425685454.459,-43.45578
1425685454.475,-58.847626
1425685454.491,-70.27081
1425685454.506,-77.68649
1425685454.522,-81.215485
1425685454.537,-81.19449
1425685454.553,-78.161865
1425685454.569,-72.874176
1425685454.584,-66.2388
1425685454.6,-59.194427
1425685454.616,-52.59854
1425685454.631,-47.141693
1425685454.647,-43.141968
1425685454.662,-40.600708
1425685454.678,-39.272003
1425685454.694,-38.827515
1425685454.709,-39.007416
1425685454.725,-39.62903
1425685454.741,-40.310577
1425685454.756,-40.459747
1425685454.772,-39.40869
1425685454.788,-36.669373
1425685454.803,-32.315216
1425685454.819,-26.970032
1425685454.834,-21.553406
1425685454.85,-16.75885
1425685454.866,-12.732697
1425685454.881,-8.951874
1425685454.897,-4.615967
1425685454.913,0.9192505
1425685454.928,7.943817
1425685454.944,16.193237
1425685454.959,25.108398
1425685454.975,33.99466
1425685454.991,42.295746
1425685455.006,49.65567
1425685455.022,56.061523
1425685455.038,61.867065
1425685455.053,67.68857
1425685455.069,74.318054
1425685455.084,82.35382
1425685455.1,91.86026
1425685455.116,102.190155
1425685455.131,111.780334
1425685455.147,118.390045
1425685455.163,119.58963
1425685455.178,113.38202
1425685455.194,98.90878
1425685455.209,76.87985
1425685455.225,49.52487
1425685455.241,20.018799
1425685455.256,-8.343353
1425685455.272,-32.90909
1425685455.288,-52.118835
1425685455.303,-65.51544
1425685455.319,-73.43204
1425685455.334,-76.692566
1425685455.35,-76.26773
1425685455.366,-73.16083
1425685455.381,-68.41446
1425685455.397,-62.955017
1425685455.413,-57.53064
1425685455.428,-52.61606
1425685455.444,-48.41208
1425685455.459,-44.920013
1425685455.475,-42.03189
1425685455.491,-39.52881
1425685455.506,-37.261414
1425685455.522,-35.231262
1425685455.538,-33.54796
1425685455.553,-32.476807
1425685455.569,-32.129578
1425685455.584,-32.283234
1425685455.6,-32.33693
1425685455.616,-31.46402
1425685455.631,-28.988312
1425685455.647,-24.740753
1425685455.663,-19.187881
1425685455.678,-13.185928
1425685455.694,-7.5927734
1425685455.709,-2.8532715
1425685455.725,1.2029114
1425685455.741,5.2374115
1425685455.756,10.055923
1425685455.772,16.195023
1425685455.788,23.683548
1425685455.803,31.96637
1425685455.819,40.154602
1425685455.834,47.368713
1425685455.85,53.154434
1425685455.866,57.81877
1425685455.881,62.323166
1425685455.897,68.00511
1425685455.913,75.98308
1425685455.928,86.59085
1425685455.944,98.98277
1425685455.959,111.19707
1425685455.975,120.503586
1425685455.991,124.08603
1425685456.006,119.81094
1425685456.022,106.74257
1425685456.038,85.538864
1425685456.053,58.306076
1425685456.069,28.13002
1425685456.084,-1.6295776
1425685456.1,-28.206741
1425685456.116,-49.824997
1425685456.131,-65.94852
1425685456.147,-76.911194
1425685456.163,-83.51555
1425685456.178,-86.647675
1425685456.194,-87.02597
1425685456.209,-85.19217
1425685456.225,-81.523605
1425685456.241,-76.33415
1425685456.256,-69.925354
1425685456.272,-62.72824
1425685456.288,-55.27359
1425685456.303,-48.159836
1425685456.319,-42.00125
1425685456.334,-37.254196
1425685456.35,-34.121765
1425685456.366,-32.549133
1425685456.381,-32.26909
1425685456.397,-32.82057
1425685456.413,-33.650055
1425685456.428,-34.00757
1425685456.444,-33.121277
1425685456.459,-30.420685
1425685456.475,-25.820724
1425685456.491,-19.835373
1425685456.506,-13.470993
1425685456.522,-7.7341766
1425685456.538,-3.1643372
1425685456.553,0.40260315
1425685456.569,3.7235565
1425685456.584,7.698654
1425685456.6,12.884323
1425685456.616,19.405212
1425685456.631,26.91484
1425685456.647,34.878326
1425685456.663,42.779266
1425685456.678,50.307526
1425685456.694,57.396423
1425685456.709,64.323715
1425685456.725,71.66571
1425685456.741,80.0173
1425685456.756,89.614655
1425685456.772,99.80032
1425685456.788,108.84903
1425685456.803,114.30789
1425685456.819,113.612854
1425685456.834,105.03346
1425685456.85,88.29843
1425685456.866,64.684875
1425685456.881,36.736908
1425685456.897,7.5565033
1425685456.913,-19.907928
1425685456.928,-43.35472
1425685456.944,-61.330215
1425685456.959,-73.3071
1425685456.975,-79.56987
1425685456.991,-80.93312
1425685457.006,-78.59206
1425685457.022,-73.818756
1425685457.038,-67.71536
1425685457.053,-61.168533
1425685457.069,-54.777084
1425685457.084,-48.885223
1425685457.1,-43.70793
1425685457.116,-39.372528
1425685457.131,-35.98329
1425685457.147,-33.63765
1425685457.163,-32.39363
1425685457.178,-32.13542
1425685457.194,-32.59703
1425685457.209,-33.353317
1425685457.225,-33.954742
1425685457.241,-34.01729
1425685457.256,-33.329666
1425685457.272,-31.824677
1425685457.288,-29.4982
1425685457.303,-26.36142
1425685457.319,-22.40178
1425685457.334,-17.613495
1425685457.35,-11.971802
1425685457.366,-5.472412
1425685457.381,1.8355408
1425685457.397,9.770935
1425685457.413,17.97992
1425685457.428,25.933334
1425685457.444,33.116425
1425685457.46,39.204163
1425685457.475,44.289627
1425685457.491,48.914703
1425685457.506,54.015
1425685457.522,60.562683
1425685457.538,69.191574
1425685457.553,79.75717
1425685457.569,91.09775
1425685457.585,101.12085
1425685457.6,107.19008
1425685457.616,106.85376
1425685457.631,98.53293
1425685457.647,82.11571
1425685457.663,59.120575
1425685457.678,32.259705
1425685457.694,4.7309723
1425685457.71,-20.601578
1425685457.725,-41.75351
1425685457.741,-57.657364
1425685457.756,-68.11479
1425685457.772,-73.50859
1425685457.788,-74.599625
1425685457.803,-72.43303
1425685457.819,-68.11975
1425685457.835,-62.694458
1425685457.85,-56.943893
1425685457.866,-51.36853
1425685457.881,-46.204056
1425685457.897,-41.56302
1425685457.913,-37.578934
1425685457.928,-34.38678
1425685457.944,-32.124695
1425685457.96,-30.778336
1425685457.975,-30.191574
1425685457.991,-30.036102
1425685458.006,-29.96466
1425685458.022,-29.623352
1425685458.038,-28.777695
1425685458.053,-27.296783
1425685458.069,-25.123657
1425685458.085,-22.278198
1425685458.1,-18.751831
1425685458.116,-14.4203415
1425685458.131,-9.134628
1425685458.147,-2.8322296
1425685458.163,4.3525543
1425685458.178,11.973068
1425685458.194,19.447441
1425685458.21,26.278503
1425685458.225,32.26316
1425685458.241,37.557068
1425685458.256,42.584892
1425685458.272,47.907143
1425685458.288,54.12864
1425685458.303,61.90895
1425685458.319,71.75447
1425685458.335,83.73791
1425685458.35,97.039
1425685458.366,109.74758
1425685458.381,119.00069
1425685458.397,121.74991
1425685458.413,115.745056
1425685458.428,100.36454
1425685458.444,76.89533
1425685458.46,48.112274
1425685458.475,17.490234
1425685458.491,-11.612679
1425685458.506,-36.65686
1425685458.522,-56.18518
1425685458.538,-69.82406
1425685458.553,-78.0446
1425685458.569,-81.826416
1425685458.585,-82.256035
1425685458.6,-80.26249
1425685458.616,-76.53946
1425685458.631,-71.58495
1425685458.647,-65.9317
1425685458.663,-60.05043
1425685458.678,-54.283325
1425685458.694,-48.81257
1425685458.71,-43.681435
1425685458.725,-38.990234
1425685458.741,-35.06009
1425685458.756,-32.42936
1425685458.772,-31.494972
1425685458.788,-32.209183
1425685458.803,-33.898796
1425685458.819,-35.473946
1425685458.835,-35.908928
1425685458.85,-34.709396
1425685458.866,-31.917107
1425685458.881,-27.994156
1425685458.897,-23.400902
1425685458.913,-18.339989
1425685458.928,-12.811096
1425685458.944,-6.6834793
1425685458.96,0.0870285
1425685458.975,7.4158325
1425685458.991,15.120811
1425685459.006,23.045456
1425685459.022,31.04972
1425685459.038,39.018684
1425685459.053,46.962082
1425685459.069,54.929947
1425685459.085,63.20768
1425685459.1,72.19954
1425685459.116,82.3411
1425685459.131,93.72882
1425685459.147,105.76998
1425685459.163,116.982185
1425685459.178,125.09283
1425685459.194,127.6156
1425685459.21,122.50005
1425685459.225,108.90933
1425685459.241,87.6597
1425685459.256,61.007446
1425685459.272,32.02655
1425685459.288,3.7677078
1425685459.303,-21.442535
1425685459.319,-42.27118
1425685459.335,-58.221313
1425685459.35,-69.38446
1425685459.366,-76.10315
1425685459.381,-78.91598
1425685459.397,-78.54585
1425685459.413,-75.863884
1425685459.428,-71.80014
1425685459.444,-67.13801
1425685459.46,-62.407097
1425685459.475,-57.804337
1425685459.491,-53.37474
1425685459.506,-49.063095
1425685459.522,-44.941628
1425685459.538,-41.200546
1425685459.553,-38.118805
1425685459.569,-35.96302
1425685459.585,-34.786446
1425685459.6,-34.432632
1425685459.616,-34.399254
1425685459.631,-34.044968
1425685459.647,-32.759575
1425685459.663,-30.222557
1425685459.678,-26.567238
1425685459.694,-22.27526
1425685459.71,-17.968834
1425685459.725,-13.999023
1425685459.741,-10.303146
1425685459.756,-6.309349
1425685459.772,-1.2910919
1425685459.788,5.3525925
1425685459.803,13.737587
1425685459.819,23.375618
1425685459.835,33.351723
1425685459.85,42.580513
1425685459.866,50.336754
1425685459.881,56.51068
1425685459.897,61.747047
1425685459.913,67.26734
1425685459.928,74.36189
1425685459.944,83.82267
1425685459.96,95.4102
1425685459.975,107.62506
1425685459.991,117.90683
1425685460.006,123.2581
1425685460.022,121.015495
1425685460.038,109.740616
1425685460.053,89.59748
1425685460.069,62.463055
1425685460.085,31.43837
1425685460.1,0.06599426
1425685460.116,-28.407928
1425685460.132,-51.71209
1425685460.147,-68.81221
1425685460.163,-79.80165
1425685460.178,-85.50746
1425685460.194,-87.01196
1425685460.21,-85.374374
1425685460.225,-81.4158
1425685460.241,-75.84602
1425685460.257,-69.310165
1425685460.272,-62.491974
1425685460.288,-56.05355
1425685460.303,-50.464973
1425685460.319,-45.98873
1425685460.335,-42.627583
1425685460.35,-40.261776
1425685460.366,-38.74348
1425685460.382,-37.96172
1425685460.397,-37.81968
1425685460.413,-38.137524
1425685460.428,-38.54689
1425685460.444,-38.550995
1425685460.46,-37.553726
1425685460.475,-35.128494
1425685460.491,-31.146229
1425685460.507,-25.845806
1425685460.522,-19.760933
1425685460.538,-13.411697
1425685460.553,-7.065979
1425685460.569,-0.5643425
1425685460.585,6.502636
1425685460.6,14.469994
1425685460.616,23.275936
1425685460.632,32.31156
1425685460.647,40.646168
1425685460.663,47.478844
1425685460.678,52.556133
1425685460.694,56.324734
1425685460.71,59.742805
1425685460.725,63.977318
1425685460.741,70.00183
1425685460.757,78.38266
1425685460.772,89.109604
1425685460.788,101.388565
1425685460.803,113.56929
1425685460.819,123.1178
1425685460.835,127.04085
1425685460.85,122.69231
1425685460.866,108.637665
1425685460.882,85.33185
1425685460.897,55.18649
1425685460.913,21.972328
1425685460.928,-10.185059
1425685460.944,-37.893837
1425685460.96,-59.172646
1425685460.975,-73.581436
1425685460.991,-81.87006
1425685461.007,-85.30924
1425685461.022,-85.18063
1425685461.038,-82.51366
1425685461.053,-78.083725
1425685461.069,-72.51916
1425685461.085,-66.41533
1425685461.1,-60.360428
1425685461.116,-54.769855
1425685461.132,-49.90302
1425685461.147,-45.804874
1425685461.163,-42.451538
1425685461.178,-39.81968
1425685461.194,-37.958977
1425685461.21,-36.9548
1425685461.225,-36.803825
1425685461.241,-37.325798
1425685461.257,-38.139774
1425685461.272,-38.722248
1425685461.288,-38.514107
1425685461.303,-36.99198
1425685461.319,-33.868237
1425685461.335,-29.17249
1425685461.35,-23.257141
1425685461.366,-16.716583
1425685461.382,-10.131878
1425685461.397,-3.8218079
1425685461.413,2.2957687
1425685461.428,8.544125
1425685461.444,15.288765
1425685461.46,22.635273
1425685461.475,30.347355
1425685461.491,37.956608
1425685461.507,45.047375
1425685461.522,51.513874
1425685461.538,57.74271
1425685461.553,64.5361
1425685461.569,72.69702
1425685461.585,82.55344
1425685461.6,93.54628
1425685461.616,103.98596
1425685461.632,111.30904
1425685461.647,112.72447
1425685461.663,106.111984
1425685461.678,90.826996
1425685461.694,68.01168
1425685461.71,40.301254
1425685461.725,11.056683
1425685461.741,-16.59579
1425685461.757,-40.427593
1425685461.772,-59.309532
1425685461.788,-72.99796
1425685461.803,-81.72721
1425685461.819,-85.95839
1425685461.835,-86.20993
1425685461.85,-83.2174
1425685461.866,-77.952805
1425685461.882,-71.5477
1425685461.897,-65.05456
1425685461.913,-59.180923
1425685461.928,-54.124893
1425685461.944,-49.678005
1425685461.96,-45.52722
1425685461.975,-41.515007
1425685461.991,-37.86496
1425685462.007,-35.018066
1425685462.022,-33.369106
1425685462.038,-32.923393
1425685462.053,-33.110558
1425685462.069,-33.01069
1425685462.085,-31.724869
1425685462.1,-28.832726
1425685462.116,-24.593353
1425685462.132,-19.756523
1425685462.147,-15.168312
1425685462.163,-11.304614
1425685462.178,-8.011579
1425685462.194,-4.5938253
1425685462.21,-0.22595692
1425685462.225,5.6541934
1425685462.241,13.079876
1425685462.257,21.561565
1425685462.272,30.313883
1425685462.288,38.62626
1425685462.303,46.07669
1425685462.319,52.600872
1425685462.335,58.54935
1425685462.35,64.50013
1425685462.366,71.181465
1425685462.382,79.23047
1425685462.397,88.90364
1425685462.413,99.71502
1425685462.428,110.2456
1425685462.444,118.208046
1425685462.46,120.906166
1425685462.475,116.022934
1425685462.491,102.436035
1425685462.507,80.6895
1425685462.522,52.96614
1425685462.538,22.417147
1425685462.553,-7.6455545
1425685462.569,-34.52756
1425685462.585,-56.524124
1425685462.6,-72.879005
1425685462.616,-83.521255
1425685462.632,-88.823654
1425685462.647,-89.48016
1425685462.663,-86.50274
1425685462.678,-81.13601
1425685462.694,-74.67907
1425685462.71,-68.167625
1425685462.725,-62.206047
1425685462.741,-56.881615
1425685462.757,-51.95493
1425685462.772,-47.14415
1425685462.788,-42.377758
1425685462.804,-37.821587
1425685462.819,-33.835537
1425685462.835,-30.815434
1425685462.85,-28.95385
1425685462.866,-28.193903
1425685462.882,-28.1919
1425685462.897,-28.380419
1425685462.913,-28.115456
1425685462.928,-26.91288
1425685462.944,-24.571655
1425685462.96,-21.251377
1425685462.975,-17.31984
1425685462.991,-13.020981
1425685463.007,-8.382816
1425685463.022,-3.0775414
1425685463.038,3.3267174
1425685463.054,11.039597
1425685463.069,19.896687
1425685463.085,29.292355
1425685463.1,38.42158
1425685463.116,46.58413
1425685463.132,53.51293
1425685463.147,59.42684
1425685463.163,64.9723
1425685463.179,71.07874
1425685463.194,78.606544
1425685463.21,88.123856
1425685463.225,99.50276
1425685463.241,111.76706
1425685463.257,123.00184
1425685463.272,130.68077
1425685463.288,132.18208
1425685463.304,125.49921
1425685463.319,109.94006
1425685463.335,86.324936
1425685463.35,57.000412
1425685463.366,25.24797
1425685463.382,-5.5491257
1425685463.397,-32.64694
1425685463.413,-54.466473
1425685463.429,-70.59412
1425685463.444,-81.450745
1425685463.46,-87.7131
1425685463.475,-90.06172
1425685463.491,-88.98726
1425685463.507,-85.034515
1425685463.522,-78.96019
1425685463.538,-71.782425
1425685463.554,-64.58909
1425685463.569,-58.211258
1425685463.585,-52.992554
1425685463.6,-48.814686
1425685463.616,-45.308483
1425685463.632,-42.26997
1425685463.647,-39.767094
1425685463.663,-38.152058
1425685463.679,-37.734272
1425685463.694,-38.546494
1425685463.71,-40.11788
1425685463.725,-41.54641
1425685463.741,-41.665504
1425685463.757,-39.52225
1425685463.772,-34.715103
1425685463.788,-27.655888
1425685463.804,-19.426907
1425685463.819,-11.387886
1425685463.835,-4.593693
1425685463.85,0.6682739
1425685463.866,4.954567
1425685463.882,9.296345
1425685463.897,14.702847
1425685463.913,21.657036
1425685463.929,29.992344
1425685463.944,38.975746
1425685463.96,47.790035
1425685463.975,55.768024
1425685463.991,62.823784
1425685464.007,69.440216
1425685464.022,76.59371
1425685464.038,85.34366
1425685464.054,96.23899
1425685464.069,108.746994
1425685464.085,120.987854
1425685464.1,129.94084
1425685464.116,132.4062
1425685464.132,125.95445
1425685464.147,109.8241
1425685464.163,85.19313
1425685464.179,54.748806
1425685464.194,21.911259
1425685464.21,-9.990448
1425685464.225,-38.383842
1425685464.241,-61.613712
1425685464.257,-78.894
1425685464.272,-90.12402
1425685464.288,-95.75079
1425685464.304,-96.51541
1425685464.319,-93.46805
1425685464.335,-87.8312
1425685464.35,-80.86157
1425685464.366,-73.700485
1425685464.382,-67.1794
1425685464.397,-61.691414
1425685464.413,-57.232113
1425685464.429,-53.52187
1425685464.444,-50.284153
1425685464.46,-47.40496
1425685464.475,-45.034775
1425685464.491,-43.346786
1425685464.507,-42.420174
1425685464.522,-42.057198
1425685464.538,-41.78654
1425685464.554,-40.960487
1425685464.569,-39.031273
1425685464.585,-35.68094
1425685464.6,-31.043594
1425685464.616,-25.604439
1425685464.632,-20.058243
1425685464.647,-14.962494
1425685464.663,-10.46167
1425685464.679,-6.0885925
1425685464.694,-1.0595245
1425685464.71,5.4011307
1425685464.725,13.548134
1425685464.741,22.944672
1425685464.757,32.574913
1425685464.772,41.35251
1425685464.788,48.61856
1425685464.804,54.47033
1425685464.819,59.69879
1425685464.835,65.49152
1425685464.85,73.020226
1425685464.866,83.08498
1425685464.882,95.67562
1425685464.897,109.754425
1425685464.913,123.05385
1425685464.929,132.4125
1425685464.944,134.42328
1425685464.96,126.55741
1425685464.975,108.05979
1425685464.991,80.426994
1425685465.007,47.027596
1425685465.022,12.138657
1425685465.038,-20.267288
1425685465.054,-47.3431
1425685465.069,-67.649574
1425685465.085,-81.02457
1425685465.1,-88.12351
1425685465.116,-90.03164
1425685465.132,-88.04957
1425685465.147,-83.50496
1425685465.163,-77.63747
1425685465.179,-71.4012
1425685465.194,-65.39426
1425685465.21,-59.84378
1425685465.225,-54.76172
1425685465.241,-50.027
1425685465.257,-45.625397
1425685465.272,-41.630806
1425685465.288,-38.288612
1425685465.304,-35.79001
1425685465.319,-34.317657
1425685465.335,-33.800323
1425685465.35,-33.915237
1425685465.366,-34.12622
1425685465.382,-33.82589
1425685465.397,-32.547348
1425685465.413,-30.102585
1425685465.429,-26.515442
1425685465.444,-22.022774
1425685465.46,-16.9113
1425685465.475,-11.447884
1425685465.491,-5.7422714
1425685465.507,0.1837616
1425685465.522,6.4666367
1425685465.538,13.238197
1425685465.554,20.528877
1425685465.569,28.177399
1425685465.585,35.839333
1425685465.6,43.132744
1425685465.616,49.881462
1425685465.632,56.25152
1425685465.647,62.817986
1425685465.663,70.341995
