1425427213.809,0.0
1425427213.824,0.0
1425427213.84,0.0
1425427213.856,0.0
1425427213.871,0.0
1425427213.887,0.0
1425427213.902,0.0
1425427213.918,0.0
1425427213.934,0.0
1425427213.949,0.0022315353
1425427213.965,-0.0045169927
1425427213.981,-0.011265522
1425427213.996,-0.011383951
1425427214.012,0.0011864507
1425427214.028,0.025910312
1425427214.043,0.050634187
1425427214.059,0.051362894
1425427214.074,-0.0014929791
1425427214.09,-0.1302426
1425427214.106,-0.35562757
1425427214.121,-0.6591247
1425427214.137,-1.0095103
1425427214.153,-1.3709826
1425427214.168,-1.7197359
1425427214.184,-2.0551105
1425427214.199,-2.39945
1425427214.215,-2.7866635
1425427214.231,-3.2399073
1425427214.246,-3.796012
1425427214.262,-4.418684
1425427214.278,-5.0592937
1425427214.293,-5.6644096
1425427214.309,-6.2021537
1425427214.324,-6.6808796
1425427214.34,-7.149598
1425427214.356,-7.6782336
1425427214.371,-8.310739
1425427214.387,-9.143657
1425427214.403,-10.089731
1425427214.418,-11.041313
1425427214.434,-11.8842125
1425427214.449,-12.564316
1425427214.465,-13.13563
1425427214.481,-13.760044
1425427214.496,-14.65232
1425427214.512,-15.962056
1425427214.528,-17.914442
1425427214.543,-20.317299
1425427214.559,-22.903854
1425427214.574,-25.37947
1425427214.59,-27.578028
1425427214.606,-29.57246
1425427214.621,-31.675173
1425427214.637,-34.3178
1425427214.653,-37.813618
1425427214.668,-42.541233
1425427214.684,-48.1463
1425427214.699,-54.104755
1425427214.715,-59.83309
1425427214.731,-64.972374
1425427214.746,-69.58293
1425427214.762,-74.14353
1425427214.778,-79.344986
1425427214.793,-85.70726
1425427214.809,-93.76193
1425427214.824,-102.99779
1425427214.84,-112.61757
1425427214.856,-121.73034
1425427214.871,-129.76602
1425427214.887,-136.75102
1425427214.903,-143.30344
1425427214.918,-150.74623
1425427214.934,-157.77356
1425427214.949,-166.64323
1425427214.965,-177.94798
1425427214.981,-191.79102
1425427214.996,-206.96808
1425427215.012,-220.56592
1425427215.028,-228.24644
1425427215.043,-225.36154
1425427215.059,-208.53198
1425427215.074,-176.87024
1425427215.09,-132.76222
1425427215.106,-80.04997
1425427215.121,-23.069275
1425427215.137,34.94339
1425427215.153,92.43695
1425427215.168,149.15695
1425427215.184,205.22772
1425427215.199,260.36963
1425427215.215,313.74133
1425427215.231,363.87396
1425427215.246,409.83353
1425427215.262,450.90775
1425427215.278,486.50244
1425427215.293,515.73865
1425427215.309,537.2274
1425427215.324,549.22
1425427215.34,549.9613
1425427215.356,538.367
1425427215.371,514.2055
1425427215.387,478.674
1425427215.403,433.87952
1425427215.418,382.45126
1425427215.434,327.02106
1425427215.449,269.84186
1425427215.465,212.63379
1425427215.481,156.6594
1425427215.496,102.95233
1425427215.512,52.373596
1425427215.528,5.9046936
1425427215.543,-35.580414
1425427215.559,-71.42584
1425427215.574,-101.35184
1425427215.59,-125.50113
1425427215.606,-144.3797
1425427215.621,-158.69403
1425427215.637,-169.15071
1425427215.653,-176.3711
1425427215.668,-180.75139
1425427215.684,-182.57419
1425427215.699,-182.06863
1425427215.715,-179.5066
1425427215.731,-175.23325
1425427215.746,-169.65286
1425427215.762,-163.17686
1425427215.778,-156.14554
1425427215.793,-148.80646
1425427215.809,-141.2962
1425427215.824,-133.68877
1425427215.84,-126.0182
1425427215.856,-118.33108
1425427215.871,-110.687386
1425427215.887,-103.155716
1425427215.903,-95.807274
1425427215.918,-88.69174
1425427215.934,-81.8426
1425427215.949,-75.27208
1425427215.965,-68.9936
1425427215.981,-63.00918
1425427215.996,-57.33106
1425427216.012,-51.96851
1425427216.028,-46.926212
1425427216.043,-42.20704
1425427216.059,-37.803646
1425427216.074,-33.71192
1425427216.09,-29.91785
1425427216.106,-26.42022
1425427216.121,-23.20451
1425427216.137,-20.268185
1425427216.153,-17.605158
1425427216.168,-15.20863
1425427216.184,-13.074173
1425427216.199,-11.189104
1425427216.215,-9.543842
1425427216.231,-8.122463
1425427216.246,-6.9121943
1425427216.262,-5.8944793
1425427216.278,-5.0513935
1425427216.293,-4.3651953
1425427216.309,-3.8223505
1425427216.324,-3.4052238
1425427216.34,-3.0972517
1425427216.356,-2.889287
1425427216.371,-2.7693145
1425427216.387,-2.7274942
1425427216.403,-2.7524045
1425427216.418,-2.838847
1425427216.434,-2.9798865
1425427216.449,-3.1703131
1425427216.465,-3.4121742
1425427216.481,-3.697331
1425427216.496,-4.0254593
1425427216.512,-4.3958106
1425427216.528,-4.808934
1425427216.543,-5.2657394
1425427216.559,-5.7604666
1425427216.574,-6.295834
1425427216.59,-6.8744164
1425427216.606,-7.4972677
1425427216.621,-8.166527
1425427216.637,-8.878759
1425427216.653,-9.640133
1425427216.668,-10.443362
1425427216.684,-11.299124
1425427216.7,-12.196594
1425427216.715,-13.140808
1425427216.731,-14.139009
1425427216.746,-15.202915
1425427216.762,-16.332829
1425427216.778,-17.52625
1425427216.793,-18.78656
1425427216.809,-20.087921
1425427216.825,-21.400738
1425427216.84,-22.669668
1425427216.856,-23.813599
1425427216.871,-24.732199
1425427216.887,-25.30146
1425427216.903,-25.403816
1425427216.918,-24.920332
1425427216.934,-23.762867
1425427216.95,-21.891922
1425427216.965,-19.30983
1425427216.981,-16.0844
1425427216.996,-12.289986
1425427217.012,-8.112995
1425427217.028,-3.751423
1425427217.043,0.5876503
1425427217.059,4.689373
1425427217.075,8.369194
1425427217.09,11.477474
1425427217.106,13.91486
1425427217.121,15.640171
1425427217.137,16.663906
1425427217.153,17.027634
1425427217.168,16.831638
1425427217.184,16.189964
1425427217.2,15.203167
1425427217.215,13.977486
1425427217.231,12.6028595
1425427217.246,11.1399
1425427217.262,9.63623
1425427217.278,8.109123
1425427217.293,6.551155
1425427217.309,5.0015335
1425427217.325,3.4838028
1425427217.34,2.00103
1425427217.356,0.5661545
1425427217.371,-0.8389511
1425427217.387,-2.2174149
1425427217.403,-3.587799
1425427217.418,-4.984253
1425427217.434,-6.460823
1425427217.45,-7.960144
1425427217.465,-9.441597
1425427217.481,-10.923416
1425427217.496,-12.391724
1425427217.512,-13.8789215
1425427217.528,-15.402374
1425427217.543,-17.003937
1425427217.559,-18.744469
1425427217.575,-20.735855
1425427217.59,-22.812485
1425427217.606,-24.909256
1425427217.621,-26.994568
1425427217.637,-29.05133
1425427217.653,-31.082916
1425427217.668,-33.116714
1425427217.684,-35.19568
1425427217.7,-37.403275
1425427217.715,-39.885376
1425427217.731,-42.393738
1425427217.746,-44.795364
1425427217.762,-47.036667
1425427217.778,-49.072357
1425427217.793,-50.899612
1425427217.809,-52.513794
1425427217.825,-53.942474
1425427217.84,-55.225327
1425427217.856,-56.477524
1425427217.871,-57.255234
1425427217.887,-57.297165
1425427217.903,-56.4041
1425427217.918,-54.39203
1425427217.934,-51.067917
1425427217.95,-46.151
1425427217.965,-39.136246
1425427217.981,-29.161713
1425427217.996,-18.738098
1425427218.012,-8.8515625
1425427218.028,-0.22424316
1425427218.043,6.5159607
1425427218.059,10.871033
1425427218.075,12.445343
1425427218.09,11.000061
1425427218.106,6.4819946
1425427218.121,-0.95803833
1425427218.137,-11.039337
1425427218.153,-22.783295
1425427218.168,-35.305756
1425427218.184,-47.799072
1425427218.2,-59.60269
1425427218.215,-70.19946
1425427218.231,-79.214935
1425427218.246,-86.37723
1425427218.262,-91.49008
1425427218.278,-94.46033
1425427218.293,-94.89609
1425427218.309,-92.67099
1425427218.325,-87.96631
1425427218.34,-81.17343
1425427218.356,-72.87424
1425427218.371,-63.6286
1425427218.387,-53.8201
1425427218.403,-43.545624
1425427218.418,-32.696472
1425427218.434,-20.774597
1425427218.45,-7.5046997
1425427218.465,7.1016846
1425427218.481,22.581604
1425427218.496,38.20575
1425427218.512,53.151306
1425427218.528,66.83923
1425427218.543,79.06915
1425427218.559,90.042114
1425427218.575,100.263855
1425427218.59,110.11255
1425427218.606,119.531494
1425427218.621,128.12335
1425427218.637,135.28833
1425427218.653,140.5946
1425427218.668,144.1001
1425427218.684,146.50159
1425427218.7,148.98187
1425427218.715,153.07635
1425427218.731,160.36908
1425427218.746,172.3086
1425427218.762,189.77936
1425427218.778,212.57642
1425427218.793,238.84058
1425427218.809,264.90442
1425427218.825,285.95032
1425427218.84,297.3166
1425427218.856,296.0625
1425427218.871,282.06598
1425427218.887,257.99188
1425427218.903,228.19128
1425427218.918,197.09998
1425427218.934,167.86896
1425427218.95,141.83191
1425427218.965,118.93988
1425427218.981,98.59235
1425427218.996,80.382935
1425427219.012,64.2876
1425427219.028,50.493347
1425427219.043,38.96112
1425427219.059,29.264282
1425427219.075,20.694153
1425427219.09,12.57489
1425427219.106,4.5599365
1425427219.121,-3.2745972
1425427219.137,-10.461792
1425427219.153,-16.490784
1425427219.168,-21.094177
1425427219.184,-24.440796
1425427219.2,-26.971924
1425427219.215,-29.18573
1425427219.231,-31.264465
1425427219.246,-33.01593
1425427219.262,-34.115784
1425427219.278,-34.44922
1425427219.293,-34.48419
1425427219.309,-35.252197
1425427219.325,-37.961853
1425427219.34,-43.407867
1425427219.356,-51.516144
1425427219.372,-61.236847
1425427219.387,-70.83353
1425427219.403,-78.420166
1425427219.418,-82.477264
1425427219.434,-82.26401
1425427219.45,-77.93677
1425427219.465,-70.52762
1425427219.481,-61.640656
1425427219.497,-53.093445
1425427219.512,-46.460632
1425427219.528,-42.676697
1425427219.543,-41.88507
1425427219.559,-43.5213
1425427219.575,-46.609344
1425427219.59,-50.13159
1425427219.606,-53.23633
1425427219.622,-55.336426
1425427219.637,-56.092987
1425427219.653,-55.36621
1425427219.668,-53.195526
1425427219.684,-49.894867
1425427219.7,-45.97589
1425427219.715,-42.03061
1425427219.731,-38.541107
1425427219.747,-35.706573
1425427219.762,-33.43048
1425427219.778,-31.451294
1425427219.793,-29.492523
1425427219.809,-27.438843
1425427219.825,-25.370972
1425427219.84,-23.512756
1425427219.856,-22.10733
1425427219.872,-21.259949
1425427219.887,-20.868118
1425427219.903,-20.622986
1425427219.918,-20.095581
1425427219.934,-18.83844
1425427219.95,-16.477295
1425427219.965,-12.803314
1425427219.981,-7.837509
1425427219.997,-1.9406738
1425427220.012,4.119278
1425427220.028,9.230057
1425427220.043,12.164459
1425427220.059,11.944412
1425427220.075,8.248062
1425427220.09,1.5654297
1425427220.106,-6.9080963
1425427220.122,-15.635269
1425427220.137,-23.283875
1425427220.153,-29.063477
1425427220.168,-32.849243
1425427220.184,-34.98697
1425427220.2,-35.95642
1425427220.215,-36.14302
1425427220.231,-35.697968
1425427220.247,-34.645844
1425427220.262,-33.031036
1425427220.278,-31.010895
1425427220.293,-28.885056
1425427220.309,-27.040802
1425427220.325,-25.79715
1425427220.34,-25.331024
1425427220.356,-25.581833
1425427220.372,-26.278046
1425427220.387,-27.021988
1425427220.403,-27.449844
1425427220.418,-27.316025
1425427220.434,-26.555145
1425427220.45,-25.247055
1425427220.465,-23.546799
1425427220.481,-21.551437
1425427220.497,-19.298233
1425427220.512,-16.72586
1425427220.528,-13.7895355
1425427220.543,-10.49765
1425427220.559,-6.9701233
1425427220.575,-3.3995514
1425427220.59,-0.015625
1425427220.606,2.9926605
1425427220.622,5.516388
1425427220.637,7.6281433
1425427220.653,9.522858
1425427220.668,11.478851
1425427220.684,13.77475
1425427220.7,16.625061
1425427220.715,20.11876
1425427220.731,24.22676
1425427220.747,28.728088
1425427220.762,33.18344
1425427220.778,36.90251
1425427220.793,39.051666
1425427220.809,38.772095
1425427220.825,35.500153
1425427220.84,29.238647
1425427220.856,20.660324
1425427220.872,10.991226
1425427220.887,1.6748505
1425427220.903,-6.050705
1425427220.918,-11.521057
1425427220.934,-14.71109
1425427220.95,-16.078629
1425427220.965,-16.308441
1425427220.981,-15.992065
1425427220.997,-15.530823
1425427221.012,-15.068832
1425427221.028,-14.671143
1425427221.043,-14.360825
1425427221.059,-14.258575
1425427221.075,-14.4835205
1425427221.09,-15.134735
1425427221.106,-16.15776
1425427221.122,-17.38623
1425427221.137,-18.514923
1425427221.153,-19.312866
1425427221.168,-19.623886
1425427221.184,-19.510452
1425427221.2,-19.12407
1425427221.215,-18.625214
1425427221.231,-18.038284
1425427221.247,-17.278214
1425427221.262,-16.205612
1425427221.278,-14.765961
1425427221.293,-12.996948
1425427221.309,-11.010086
1425427221.325,-8.929184
1425427221.34,-6.8291473
1425427221.356,-4.6892853
1425427221.372,-2.5110626
1425427221.387,-0.3244171
1425427221.403,1.8135681
1425427221.418,3.8454895
1425427221.434,5.7743683
1425427221.45,7.6858063
1425427221.465,9.726273
1425427221.481,12.078766
1425427221.497,14.911392
1425427221.512,18.347046
1425427221.528,22.348404
1425427221.543,26.6203
1425427221.559,30.475769
1425427221.575,32.985336
1425427221.59,33.1817
1425427221.606,30.434982
1425427221.622,24.728653
1425427221.637,16.849808
1425427221.653,8.075638
1425427221.668,-0.1506958
1425427221.684,-6.731888
1425427221.7,-11.162567
1425427221.715,-13.578796
1425427221.731,-14.521286
1425427221.747,-14.609451
1425427221.762,-14.2591095
1425427221.778,-13.643158
1425427221.793,-12.755081
1425427221.809,-11.656235
1425427221.825,-10.533646
1425427221.84,-9.744049
1425427221.856,-9.602768
1425427221.872,-10.222595
1425427221.887,-11.45726
1425427221.903,-12.97551
1425427221.918,-14.421127
1425427221.934,-15.56163
1425427221.95,-16.3909
1425427221.965,-17.004898
1425427221.981,-17.469284
1425427221.997,-17.70665
1425427222.012,-17.504913
1425427222.028,-16.67688
1425427222.044,-15.115158
1425427222.059,-12.912918
1425427222.075,-10.281845
1425427222.09,-7.4582825
1425427222.106,-4.5700684
1425427222.122,-1.6989899
1425427222.137,1.0988464
1425427222.153,3.735962
1425427222.168,6.078125
1425427222.184,8.00415
1425427222.2,9.48436
1425427222.215,10.621353
1425427222.231,11.631531
1425427222.247,12.799942
1425427222.262,14.422836
1425427222.278,16.792145
1425427222.294,20.081375
1425427222.309,24.198624
1425427222.325,28.68132
1425427222.34,32.6019
1425427222.356,34.782654
1425427222.372,34.140488
1425427222.387,30.19667
1425427222.403,23.283066
1425427222.419,14.516846
1425427222.434,5.3903656
1425427222.45,-2.742279
1425427222.465,-9.0985565
1425427222.481,-13.544617
1425427222.497,-16.3544
1425427222.512,-17.948318
1425427222.528,-18.650421
1425427222.544,-18.646072
1425427222.559,-18.05893
1425427222.575,-17.09459
1425427222.59,-16.052902
1425427222.606,-15.171829
1425427222.622,-14.564835
1425427222.637,-14.124756
1425427222.653,-13.615051
1425427222.669,-12.826721
1425427222.684,-11.711517
1425427222.7,-10.47084
1425427222.715,-9.390274
1425427222.731,-8.744995
1425427222.747,-8.660645
1425427222.762,-9.049652
1425427222.778,-9.587555
1425427222.794,-9.818787
1425427222.809,-9.246704
1425427222.825,-7.467987
1425427222.84,-4.3172913
1425427222.856,0.11077881
1425427222.872,5.3273315
1425427222.887,10.597748
1425427222.903,15.099457
1425427222.919,18.211884
1425427222.934,19.780731
1425427222.95,20.177155
1425427222.965,20.18518
1425427222.981,20.677155
1425427222.997,22.366333
1425427223.012,25.524841
1425427223.028,30.022003
1425427223.044,35.485474
1425427223.059,41.502502
1425427223.075,47.727356
1425427223.09,53.76361
1425427223.106,58.984894
1425427223.122,62.50705
1425427223.137,63.291077
1425427223.153,60.60138
1425427223.169,54.433014
1425427223.184,45.670197
1425427223.2,35.76767
1425427223.215,26.271393
1425427223.231,18.225403
1425427223.247,11.881531
1425427223.262,6.842621
1425427223.278,2.472992
1425427223.294,-1.6749878
1425427223.309,-5.7256775
1425427223.325,-9.559189
1425427223.34,-13.143417
1425427223.356,-16.617798
1425427223.372,-20.278793
1425427223.387,-24.42305
1425427223.403,-29.065094
1425427223.419,-33.954727
1425427223.434,-38.59192
1425427223.45,-42.514984
1425427223.465,-45.424088
1425427223.481,-47.28102
1425427223.497,-48.230988
1425427223.512,-48.488403
1425427223.528,-48.203934
1425427223.544,-47.36429
1425427223.559,-45.924576
1425427223.575,-43.87329
1425427223.59,-41.42041
1425427223.606,-39.037445
1425427223.622,-37.288895
1425427223.637,-36.675934
1425427223.653,-37.267868
1425427223.669,-38.61154
1425427223.684,-39.75197
1425427223.7,-39.60005
1425427223.715,-37.210785
1425427223.731,-32.131348
1425427223.747,-24.444473
1425427223.762,-14.764084
1425427223.778,-4.111328
1425427223.794,6.274475
1425427223.809,15.077728
1425427223.825,21.190857
1425427223.84,23.942688
1425427223.856,23.36502
1425427223.872,20.151123
1425427223.887,15.463593
1425427223.903,10.573547
1425427223.919,6.4556274
1425427223.934,3.690277
1425427223.95,2.4359436
1425427223.965,2.6619568
1425427223.981,4.2308655
1425427223.997,7.05011
1425427224.012,10.870392
1425427224.028,15.311035
1425427224.044,19.825897
1425427224.059,23.878265
1425427224.075,27.092133
1425427224.09,29.367462
1425427224.106,30.819427
1425427224.122,31.7229
1425427224.137,32.356598
1425427224.153,32.917206
1425427224.169,33.466248
1425427224.184,33.99997
1425427224.2,34.449554
1425427224.215,34.802307
1425427224.231,35.104523
1425427224.247,35.471863
1425427224.262,36.00531
1425427224.278,36.690887
1425427224.294,37.416107
1425427224.309,37.95331
1425427224.325,38.083527
1425427224.34,37.718384
1425427224.356,36.968384
1425427224.372,36.163757
1425427224.387,35.692413
1425427224.403,35.95581
1425427224.419,37.13791
1425427224.434,39.234833
1425427224.45,42.012756
1425427224.465,45.08763
1425427224.481,47.874893
1425427224.497,49.69449
1425427224.512,49.790802
1425427224.528,47.563736
1425427224.544,42.75142
1425427224.559,35.637634
1425427224.575,26.998978
1425427224.59,17.976288
1425427224.606,9.680374
1425427224.622,2.8513336
1425427224.637,-2.2910461
1425427224.653,-6.007965
1425427224.669,-8.785004
1425427224.684,-10.999573
1425427224.7,-12.834793
1425427224.715,-14.285294
1425427224.731,-15.395157
1425427224.747,-16.334244
1425427224.762,-17.410614
1425427224.778,-18.893753
1425427224.794,-20.813507
1425427224.809,-22.930603
1425427224.825,-24.812637
1425427224.84,-26.07695
1425427224.856,-26.560455
1425427224.872,-26.338242
1425427224.887,-25.601303
1425427224.903,-24.455582
1425427224.919,-22.816925
1425427224.934,-20.472992
1425427224.95,-17.282867
1425427224.966,-13.347321
1425427224.981,-9.028656
1425427224.997,-4.7914886
1425427225.012,-1.0606232
1425427225.028,2.0177765
1425427225.044,4.606468
1425427225.059,7.0979233
1425427225.075,9.957848
1425427225.091,13.598236
1425427225.106,18.22036
1425427225.122,23.722305
1425427225.137,29.585075
1425427225.153,34.936516
1425427225.169,38.66813
1425427225.184,39.73465
1425427225.2,37.4998
1425427225.216,32.00991
1425427225.231,23.980728
1425427225.247,14.619011
1425427225.262,5.2438354
1425427225.278,-3.047966
1425427225.294,-9.625435
1425427225.309,-14.342613
1425427225.325,-17.443794
1425427225.341,-19.396015
1425427225.356,-20.639519
1425427225.372,-21.539555
1425427225.387,-22.285557
1425427225.403,-22.931168
1425427225.419,-23.4954
1425427225.434,-23.951172
1425427225.45,-24.335354
1425427225.466,-24.675838
1425427225.481,-24.990795
1425427225.497,-25.224308
1425427225.512,-25.285984
1425427225.528,-25.127377
1425427225.544,-24.781935
1425427225.559,-24.367588
1425427225.575,-23.934135
1425427225.591,-23.478268
1425427225.606,-22.823618
1425427225.622,-21.729792
1425427225.637,-20.050327
1425427225.653,-17.86856
1425427225.669,-15.503857
1425427225.684,-13.35247
1425427225.7,-11.7537155
1425427225.716,-10.752666
1425427225.731,-10.18107
1425427225.747,-9.762896
1425427225.762,-9.31999
1425427225.778,-8.85033
1425427225.794,-8.569828
1425427225.809,-8.793123
1425427225.825,-9.878582
1425427225.841,-12.118027
1425427225.856,-15.655998
1425427225.872,-20.400364
1425427225.887,-25.99467
1425427225.903,-31.869648
1425427225.919,-37.4367
1425427225.934,-42.204678
1425427225.95,-45.918674
1425427225.966,-48.473946
1425427225.981,-49.85084
1425427225.997,-49.962837
1425427226.012,-48.702316
1425427226.028,-46.028957
1425427226.044,-42.12635
1425427226.059,-37.49353
1425427226.075,-32.833076
1425427226.091,-28.965225
1425427226.106,-26.655258
1425427226.122,-26.491016
1425427226.137,-28.730968
1425427226.153,-33.05139
1425427226.169,-38.395245
1425427226.184,-43.018906
1425427226.2,-45.001278
1425427226.216,-42.991398
1425427226.231,-36.910954
1425427226.247,-28.129494
1425427226.262,-18.89512
1425427226.278,-11.312269
1425427226.294,-6.448717
1425427226.309,-3.9595003
1425427226.325,-2.5623465
1425427226.341,-0.8709793
1425427226.356,1.7912474
1425427226.372,5.214223
1425427226.387,8.628197
1425427226.403,11.383687
1425427226.419,13.423825
1425427226.434,15.283319
1425427226.45,17.722631
1425427226.466,21.263721
1425427226.481,25.849092
1425427226.497,30.854324
1425427226.512,35.308212
1425427226.528,38.181763
1425427226.544,38.71817
1425427226.559,36.55813
1425427226.575,31.876318
1425427226.591,25.29541
1425427226.606,17.717447
1425427226.622,10.100231
1425427226.637,3.1898537
1425427226.653,-2.5663128
1425427226.669,-7.0505085
1425427226.684,-10.311062
1425427226.7,-12.452824
1425427226.716,-13.558453
1425427226.731,-13.720409
1425427226.747,-13.093052
1425427226.762,-12.007717
1425427226.778,-10.902752
1425427226.794,-10.178326
1425427226.809,-10.052509
1425427226.825,-10.468399
1425427226.841,-11.11961
1425427226.856,-11.571953
1425427226.872,-11.452526
1425427226.887,-10.593975
1425427226.903,-9.096951
1425427226.919,-7.270645
1425427226.934,-5.4452972
1425427226.95,-3.870491
1425427226.966,-2.5357285
1425427226.981,-1.2356873
1425427226.997,0.40208435
1425427227.012,2.6735
1425427227.028,5.656204
1425427227.044,9.14077
1425427227.059,12.7276
1425427227.075,15.992874
1425427227.091,18.725311
1425427227.106,20.99105
1425427227.122,23.052635
1425427227.137,25.254929
1425427227.153,27.841217
1425427227.169,30.888878
1425427227.184,34.285095
1425427227.2,37.76725
1425427227.216,40.950714
1425427227.231,43.25271
1425427227.247,44.04348
1425427227.262,42.6939
1425427227.278,38.81465
1425427227.294,32.459923
1425427227.309,24.261986
1425427227.325,15.252502
1425427227.341,6.601639
1425427227.356,-0.7467575
1425427227.372,-6.327034
1425427227.387,-10.161392
1425427227.403,-12.599098
1425427227.419,-14.0479355
1425427227.434,-14.80706
1425427227.45,-15.01638
1425427227.466,-14.733124
1425427227.481,-14.123352
1425427227.497,-13.469948
1425427227.512,-13.174934
1425427227.528,-13.523651
1425427227.544,-14.574516
1425427227.559,-16.016342
1425427227.575,-17.400963
1425427227.591,-18.285187
1425427227.606,-18.459885
1425427227.622,-18.049973
1425427227.638,-17.33133
1425427227.653,-16.526024
1425427227.669,-15.622757
1425427227.684,-14.308723
1425427227.7,-12.118874
1425427227.716,-8.760368
1425427227.731,-4.319557
1425427227.747,0.7149124
1425427227.763,5.636032
1425427227.778,9.835983
1425427227.794,13.026802
1425427227.809,15.3667145
1425427227.825,17.260757
1425427227.841,19.237808
1425427227.856,21.69986
1425427227.872,24.840393
1425427227.888,28.5643
1425427227.903,32.431046
1425427227.919,35.71573
1425427227.934,37.475037
1425427227.95,36.826035
1425427227.966,33.264404
1425427227.981,26.916336
1425427227.997,18.634949
1425427228.013,9.720505
1425427228.028,1.5036011
1425427228.044,-5.138199
1425427228.059,-9.929138
1425427228.075,-13.148819
1425427228.091,-15.303406
1425427228.106,-16.828064
1425427228.122,-17.933334
1425427228.138,-18.628128
1425427228.153,-18.843018
1425427228.169,-18.560898
1425427228.184,-17.856339
1425427228.2,-16.894516
1425427228.216,-15.867935
1425427228.231,-14.988861
1425427228.247,-14.349686
1425427228.263,-13.977249
1425427228.278,-13.77739
1425427228.294,-13.586899
1425427228.309,-13.241196
1425427228.325,-12.669037
1425427228.341,-11.869476
1425427228.356,-10.896805
1425427228.372,-9.763306
1425427228.388,-8.388336
1425427228.403,-6.5970306
1425427228.419,-4.2504883
1425427228.434,-1.3922272
1425427228.45,1.7241364
1425427228.466,4.7136383
1425427228.481,7.1633453
1425427228.497,8.898102
1425427228.513,10.012085
1425427228.528,10.8602295
1425427228.544,11.887268
1425427228.559,13.5216675
1425427228.575,16.01059
1425427228.591,19.410263
1425427228.606,23.510864
1425427228.622,27.833252
1425427228.638,31.673508
1425427228.653,34.12706
1425427228.669,34.35495
1425427228.684,31.846603
1425427228.7,26.669724
1425427228.716,19.493118
1425427228.731,11.3910675
1425427228.747,3.551239
1425427228.763,-3.1556854
1425427228.778,-8.311691
1425427228.794,-11.992004
1425427228.809,-14.50499
1425427228.825,-16.216537
1425427228.841,-17.355225
1425427228.856,-18.02272
1425427228.872,-18.22377
1425427228.888,-18.003098
1425427228.903,-17.463577
1425427228.919,-16.743713
1425427228.934,-16.020676
1425427228.95,-15.456848
1425427228.966,-15.10585
1425427228.981,-14.934174
1425427228.997,-14.832138
1425427229.013,-14.635544
1425427229.028,-14.212479
1425427229.044,-13.536789
1425427229.059,-12.621582
1425427229.075,-11.531464
1425427229.091,-10.299286
1425427229.106,-8.888046
1425427229.122,-7.2060394
1425427229.138,-5.165207
1425427229.153,-2.6861572
1425427229.169,0.16941833
1425427229.184,3.2244263
1425427229.2,6.213669
1425427229.216,8.867401
1425427229.231,10.973801
1425427229.247,12.514709
1425427229.263,13.638123
1425427229.278,14.68277
1425427229.294,16.03157
1425427229.309,17.994064
1425427229.325,20.67746
1425427229.341,23.944931
1425427229.356,27.411942
1425427229.372,30.491821
1425427229.388,32.514145
1425427229.403,32.833252
1425427229.419,31.008316
1425427229.434,26.964005
1425427229.45,21.060303
1425427229.466,14.084045
1425427229.481,7.052429
1425427229.497,0.9202118
1425427229.513,-3.6922913
1425427229.528,-6.6078033
1425427229.544,-8.140396
1425427229.559,-8.76976
1425427229.575,-8.986511
1425427229.591,-9.118546
1425427229.606,-9.28125
1425427229.622,-9.468246
1425427229.638,-9.654739
1425427229.653,-9.841461
1425427229.669,-10.058441
1425427229.684,-10.330078
1425427229.7,-10.6649475
1425427229.716,-11.022263
1425427229.731,-11.351746
1425427229.747,-11.5859375
1425427229.763,-11.694489
1425427229.778,-11.639008
1425427229.794,-11.408447
1425427229.809,-10.973328
1425427229.825,-10.334625
1425427229.841,-9.446991
1425427229.856,-8.271606
1425427229.872,-6.766159
1425427229.888,-4.9107513
1425427229.903,-2.749649
1425427229.919,-0.42918396
1425427229.934,1.8679504
1425427229.95,3.9267578
1425427229.966,5.591522
1425427229.981,6.805847
1425427229.997,7.662781
1425427230.013,8.369919
1425427230.028,9.233582
1425427230.044,10.498627
1425427230.059,12.352158
1425427230.075,14.823212
1425427230.091,17.797165
1425427230.106,21.033768
1425427230.122,24.211777
1425427230.138,26.864899
1425427230.153,28.445984
1425427230.169,28.416687
1425427230.184,26.375916
1425427230.2,22.31044
1425427230.216,16.648834
1425427230.231,10.242996
1425427230.247,4.0871124
1425427230.263,-1.0370331
1425427230.278,-4.7843933
1425427230.294,-7.2768707
1425427230.31,-8.860748
1425427230.325,-9.933853
1425427230.341,-10.6371155
1425427230.356,-10.950745
1425427230.372,-10.817093
1425427230.388,-10.287933
1425427230.403,-9.594269
1425427230.419,-9.07756
1425427230.435,-9.017929
1425427230.45,-9.496323
1425427230.466,-10.387039
1425427230.481,-11.4240265
1425427230.497,-12.27359
1425427230.513,-12.702698
1425427230.528,-12.545685
1425427230.544,-11.834793
1425427230.56,-10.717087
1425427230.575,-9.39975
1425427230.591,-8.057388
1425427230.606,-6.8048096
1425427230.622,-5.5695343
1425427230.638,-4.173111
1425427230.653,-2.4332123
1425427230.669,-0.25419617
1425427230.685,2.2623901
1425427230.7,4.8638306
1425427230.716,7.2550354
1425427230.731,9.247314
1425427230.747,10.84584
1425427230.763,12.212143
1425427230.778,13.584991
1425427230.794,15.119446
1425427230.81,16.937073
1425427230.825,19.05272
1425427230.841,21.4366
1425427230.856,23.965881
1425427230.872,26.359726
1425427230.888,28.081146
1425427230.903,28.516708
1425427230.919,27.090378
1425427230.935,23.52208
1425427230.95,18.07103
1425427230.966,11.480011
1425427230.981,4.743973
1425427230.997,-1.2069702
1425427231.013,-5.8240814
1425427231.028,-8.999771
1425427231.044,-10.9730835
1425427231.06,-12.108444
1425427231.075,-12.702301
1425427231.091,-12.869476
1425427231.106,-12.651428
1425427231.122,-12.054428
1425427231.138,-11.203384
1425427231.153,-10.331238
1425427231.169,-9.724533
1425427231.185,-9.580627
1425427231.2,-9.904556
1425427231.216,-10.454239
1425427231.231,-10.865036
1425427231.247,-10.790756
1425427231.263,-10.094269
1425427231.278,-8.908081
1425427231.294,-7.566925
1425427231.31,-6.432434
1425427231.325,-5.7056427
1425427231.341,-5.2934875
1425427231.356,-4.906204
1425427231.372,-4.1920776
1425427231.388,-2.9889984
1425427231.403,-1.371933
1425427231.419,0.34872437
1425427231.435,1.8106079
1425427231.45,2.8156128
1425427231.466,3.4224548
1425427231.481,3.9074402
1425427231.497,4.6586456
1425427231.513,5.983017
1425427231.528,8.082199
1425427231.544,10.982559
1425427231.56,14.593567
1425427231.575,18.67662
1425427231.591,22.879501
1425427231.606,26.616394
1425427231.622,29.17723
1425427231.638,29.878525
1425427231.653,28.299194
1425427231.669,24.52327
1425427231.685,19.114899
1425427231.7,13.015457
1425427231.716,7.186447
1425427231.731,2.3419113
1425427231.747,-1.256073
1425427231.763,-3.7181396
1425427231.778,-5.2965546
1425427231.794,-6.2180634
1425427231.81,-6.5642395
1425427231.825,-6.3602448
1425427231.841,-5.6709976
1425427231.856,-4.72316
1425427231.872,-3.8806534
1425427231.888,-3.5414734
1425427231.903,-3.9707184
1425427231.919,-5.151123
1425427231.935,-6.8391495
1425427231.95,-8.61483
1425427231.966,-10.051262
1425427231.981,-10.887215
1425427231.997,-11.080688
1425427232.013,-10.782524
1425427232.028,-10.216469
1425427232.044,-9.539772
1425427232.06,-8.750626
1425427232.075,-7.689171
1425427232.091,-6.073868
1425427232.106,-3.7092285
1425427232.122,-0.59415436
1425427232.138,2.9982529
1425427232.153,6.621338
1425427232.169,9.805473
1425427232.185,12.250168
1425427232.2,13.915199
1425427232.216,15.015549
1425427232.231,15.920738
1425427232.247,17.028961
1425427232.263,18.592865
1425427232.278,20.750107
1425427232.294,23.405739
1425427232.31,26.256378
1425427232.325,28.784828
1425427232.341,30.340652
1425427232.356,30.26194
1425427232.372,28.134888
1425427232.388,23.936493
1425427232.403,18.103088
1425427232.419,11.408306
1425427232.435,4.785866
1425427232.45,-1.0065117
1425427232.466,-5.525486
1425427232.481,-8.67651
1425427232.497,-10.653286
1425427232.513,-11.76125
1425427232.528,-12.274673
1425427232.544,-12.435463
1425427232.56,-12.407188
1425427232.575,-12.307533
1425427232.591,-12.252731
1425427232.606,-12.371002
1425427232.622,-12.725426
1425427232.638,-13.300293
1425427232.653,-13.940498
1425427232.669,-14.392239
1425427232.685,-14.401039
1425427232.7,-13.839811
1425427232.716,-12.773964
1425427232.731,-11.489098
1425427232.747,-10.308668
1425427232.763,-9.475445
1425427232.778,-8.976041
1425427232.794,-8.542685
1425427232.81,-7.7636538
1425427232.825,-6.3003683
1425427232.841,-4.0454836
1425427232.856,-1.2117352
1425427232.872,1.773434
1425427232.888,4.401834
1425427232.903,6.332405
1425427232.919,7.474899
1425427232.935,8.032156
1425427232.95,8.425364
1425427232.966,9.093296
1425427232.982,10.378893
1425427232.997,12.436345
1425427233.013,15.134266
1425427233.028,18.15836
1425427233.044,21.02782
1425427233.06,23.148153
1425427233.075,23.912128
1425427233.091,22.806341
1425427233.106,19.577492
1425427233.122,14.388079
1425427233.138,7.8337555
1425427233.153,0.8684883
1425427233.169,-5.507675
1425427233.185,-10.5453
1425427233.2,-13.961681
1425427233.216,-15.942081
1425427233.232,-16.929203
1425427233.247,-17.339523
1425427233.263,-17.41056
1425427233.278,-17.181767
1425427233.294,-16.662113
1425427233.31,-15.971111
1425427233.325,-15.361946
1425427233.341,-15.125362
1425427233.357,-15.430092
1425427233.372,-16.183456
1425427233.388,-17.06525
1425427233.403,-17.670357
1425427233.419,-17.67292
1425427233.435,-16.969711
1425427233.45,-15.65683
1425427233.466,-13.981644
1425427233.482,-12.215729
1425427233.497,-10.522179
1425427233.513,-8.9614105
1425427233.528,-7.482338
1425427233.544,-5.971222
1425427233.56,-4.296707
1425427233.575,-2.4350052
1425427233.591,-0.43656158
1425427233.607,1.4891891
1425427233.622,3.1461945
1425427233.638,4.380707
1425427233.653,5.219208
1425427233.669,5.851166
1425427233.685,6.6123123
1425427233.7,7.8932495
1425427233.716,9.989685
1425427233.732,13.008957
1425427233.747,16.795418
1425427233.763,20.875992
1425427233.778,24.52488
1425427233.794,26.913742
1425427233.81,27.28466
1425427233.825,25.239151
1425427233.841,20.897034
1425427233.857,14.867096
1425427233.872,8.122047
1425427233.888,1.6614685
1425427233.903,-3.7418594
1425427233.919,-7.7441406
1425427233.935,-10.368675
1425427233.95,-11.838608
1425427233.966,-12.396454
1425427233.982,-12.241241
1425427233.997,-11.523376
1425427234.013,-10.462662
1425427234.028,-9.362305
1425427234.044,-8.6189575
1425427234.06,-8.529678
1425427234.075,-9.197327
1425427234.091,-10.431427
1425427234.107,-11.830093
1425427234.122,-12.9539795
1425427234.138,-13.456497
1425427234.153,-13.214447
1425427234.169,-12.354355
1425427234.185,-11.153397
1425427234.2,-9.909927
1425427234.216,-8.776596
1425427234.232,-7.763489
1425427234.247,-6.7156067
1425427234.263,-5.4753113
1425427234.278,-3.9526978
1425427234.294,-2.1811829
1425427234.31,-0.31874084
1425427234.325,1.4520721
1425427234.341,2.9840546
1425427234.357,4.2381134
1425427234.372,5.2790833
1425427234.388,6.235489
1425427234.403,7.269272
1425427234.419,8.535431
1425427234.435,10.1857605
1425427234.45,12.266998
1425427234.466,14.777145
1425427234.482,17.500305
1425427234.497,19.997269
1425427234.513,21.638382
1425427234.528,21.804855
1425427234.544,20.07315
1425427234.56,16.420288
1425427234.575,11.251556
1425427234.591,5.2985687
1425427234.607,-0.60910034
1425427234.622,-5.7837677
1425427234.638,-9.831207
1425427234.653,-12.655075
1425427234.669,-14.3463745
1425427234.685,-15.0633545
1425427234.7,-14.976517
1425427234.716,-14.224228
1425427234.732,-13.044174
1425427234.747,-11.771561
1425427234.763,-10.789902
1425427234.778,-10.432587
1425427234.794,-10.829849
1425427234.81,-11.864365
1425427234.825,-13.215118
1425427234.841,-14.478073
1425427234.857,-15.313843
1425427234.872,-15.569214
1425427234.888,-15.263321
1425427234.903,-14.532471
1425427234.919,-13.544174
1425427234.935,-12.362366
1425427234.95,-10.96788
1425427234.966,-9.27211
1425427234.982,-7.1614532
1425427234.997,-4.599533
1425427235.013,-1.6782379
1425427235.028,1.3496094
1425427235.044,4.166809
1425427235.06,6.501663
1425427235.075,8.231537
1425427235.091,9.503784
1425427235.107,10.656448
1425427235.122,12.120804
1425427235.138,14.227417
1425427235.153,17.065735
1425427235.169,20.381546
1425427235.185,23.622635
1425427235.2,26.005875
1425427235.216,26.75792
1425427235.232,25.313507
1425427235.247,21.495209
1425427235.263,15.660706
1425427235.278,8.564941
1425427235.294,1.1829529
1425427235.31,-5.570282
1425427235.325,-11.075958
1425427235.341,-15.112091
1425427235.357,-17.78247
1425427235.372,-19.334503
1425427235.388,-20.068604
1425427235.403,-20.167175
1425427235.419,-19.820557
1425427235.435,-19.174713
1425427235.45,-18.393616
1425427235.466,-17.635376
1425427235.482,-16.993591
1425427235.497,-16.478088
1425427235.513,-16.066742
1425427235.528,-15.69278
1425427235.544,-15.316284
1425427235.56,-14.886322
1425427235.575,-14.357513
1425427235.591,-13.701477
1425427235.607,-12.870728
1425427235.622,-11.842804
1425427235.638,-10.610687
1425427235.654,-9.151886
1425427235.669,-7.4366455
1425427235.685,-5.4338684
1425427235.7,-3.1767273
1425427235.716,-0.7861023
1425427235.732,1.5520935
1425427235.747,3.650116
1425427235.763,5.414673
1425427235.778,6.93631
1425427235.794,8.425476
1425427235.81,10.197876
1425427235.825,12.492767
1425427235.841,15.421387
1425427235.857,18.87149
1425427235.872,22.49942
1425427235.888,25.771027
1425427235.904,28.047668
1425427235.919,28.728271
1425427235.935,27.43274
1425427235.95,24.155334
1425427235.966,19.26242
1425427235.982,13.391571
1425427235.997,7.3107605
1425427236.013,1.6699219
1425427236.029,-3.1061096
1425427236.044,-6.889984
1425427236.06,-9.747803
1425427236.075,-11.831757
1425427236.091,-13.317078
1425427236.107,-14.294342
1425427236.122,-14.835449
1425427236.138,-14.975098
1425427236.154,-14.833588
1425427236.169,-14.637848
1425427236.185,-14.604401
1425427236.2,-14.907471
1425427236.216,-15.486267
1425427236.232,-16.114197
1425427236.247,-16.45166
1425427236.263,-16.245575
1425427236.279,-15.468353
1425427236.294,-14.343567
1425427236.31,-13.183899
1425427236.325,-12.199921
1425427236.341,-11.350616
1425427236.357,-10.37854
1425427236.372,-9.006653
1425427236.388,-7.1271057
1425427236.404,-4.9125977
1425427236.419,-2.719574
1425427236.435,-0.90838623
1425427236.45,0.35488892
1425427236.466,1.172821
1425427236.482,1.8252563
1425427236.497,2.6763
1425427236.513,4.012512
1425427236.529,6.0053406
1425427236.544,8.638794
1425427236.56,11.779968
1425427236.575,15.147278
1425427236.591,18.289246
1425427236.607,20.602478
1425427236.622,21.405975
1425427236.638,20.172668
1425427236.654,16.71933
1425427236.669,11.37207
1425427236.685,4.9274597
1425427236.7,-1.5912476
1425427236.716,-7.1903687
1425427236.732,-11.259338
1425427236.747,-13.636017
1425427236.763,-14.582581
1425427236.779,-14.496033
1425427236.794,-13.760986
1425427236.81,-12.61026
1425427236.825,-11.236755
1425427236.841,-9.86853
1425427236.857,-8.80014
1425427236.872,-8.315399
1425427236.888,-8.509033
1425427236.904,-9.226013
1425427236.919,-10.067535
1425427236.935,-10.614899
1425427236.95,-10.604706
1425427236.966,-10.046539
1425427236.982,-9.179901
1425427236.997,-8.296478
1425427237.013,-7.541321
1425427237.029,-6.830597
1425427237.044,-5.924835
1425427237.06,-4.5892334
1425427237.075,-2.723053
1425427237.091,-0.42462158
1425427237.107,2.0333557
1425427237.122,4.3291016
1425427237.138,6.2084656
1425427237.154,7.5466614
1425427237.169,8.389069
1425427237.185,8.949799
1425427237.2,9.507416
1425427237.216,10.371307
1425427237.232,11.772583
1425427237.247,13.805695
1425427237.263,16.329803
1425427237.279,18.944794
1425427237.294,20.959015
1425427237.31,21.623993
1425427237.325,20.33142
1425427237.341,16.872742
1425427237.357,11.567871
1425427237.372,5.2290344
1425427237.388,-1.1225891
1425427237.404,-6.5301514
1425427237.419,-10.424927
1425427237.435,-12.708954
1425427237.45,-13.689484
1425427237.466,-13.806702
1425427237.482,-13.4531555
1425427237.497,-12.848236
1425427237.513,-12.081726
1425427237.529,-11.200592
1425427237.544,-10.3281555
1425427237.56,-9.6484375
1425427237.575,-9.325806
1425427237.591,-9.394775
1425427237.607,-9.756439
1425427237.622,-10.148773
1425427237.638,-10.352539
1425427237.654,-10.216064
1425427237.669,-9.795441
1425427237.685,-9.239197
1425427237.7,-8.683075
1425427237.716,-8.114197
1425427237.732,-7.340515
1425427237.747,-6.115082
1425427237.763,-4.2676086
1425427237.779,-1.8468323
1425427237.794,0.8630066
1425427237.81,3.463501
1425427237.825,5.567566
1425427237.841,7.004944
1425427237.857,7.8187866
1425427237.872,8.292511
1425427237.888,8.802704
1425427237.904,9.736267
1425427237.919,11.346008
1425427237.935,13.718475
1425427237.95,16.691498
1425427237.966,19.879456
1425427237.982,22.66861
1425427237.997,24.351807
1425427238.013,24.303833
1425427238.029,22.153412
1425427238.044,17.943207
1425427238.06,12.155884
1425427238.075,5.600769
1425427238.091,-0.8222046
1425427238.107,-6.3826904
1425427238.122,-10.629089
1425427238.138,-13.487854
1425427238.154,-15.097534
1425427238.169,-15.704498
1425427238.185,-15.512573
1425427238.2,-14.724762
1425427238.216,-13.53006
1425427238.232,-12.221741
1425427238.247,-11.098328
1425427238.263,-10.4096985
1425427238.279,-10.240143
1425427238.294,-10.498047
1425427238.31,-10.897888
1425427238.325,-11.149109
1425427238.341,-11.0434265
1425427238.357,-10.516937
1425427238.372,-9.641174
1425427238.388,-8.527618
1425427238.404,-7.2710876
1425427238.419,-5.9102173
1425427238.435,-4.4607544
1425427238.45,-2.931427
1425427238.466,-1.3303528
1425427238.482,0.27200317
1425427238.497,1.8356934
1425427238.513,3.28714
1425427238.529,4.5906982
1425427238.544,5.7563477
1425427238.56,6.827423
1425427238.576,7.8679504
1425427238.591,9.012421
1425427238.607,10.366821
1425427238.622,12.005463
1425427238.638,13.898224
1425427238.654,15.860535
1425427238.669,17.507141
1425427238.685,18.35144
1425427238.701,17.920258
1425427238.716,15.926147
1425427238.732,12.402008
1425427238.747,7.743805
1425427238.763,2.6026
1425427238.779,-2.2823486
1425427238.794,-6.325592
1425427238.81,-9.184631
1425427238.826,-10.801727
1425427238.841,-11.360962
1425427238.857,-11.152649
1425427238.872,-10.460999
1425427238.888,-9.540649
1425427238.904,-8.580383
1425427238.919,-7.7337646
1425427238.935,-7.136139
1425427238.951,-6.9071045
1425427238.966,-7.1065674
1425427238.982,-7.751251
1425427238.997,-8.71048
1425427239.013,-9.780518
1425427239.029,-10.716705
1425427239.044,-11.333862
1425427239.06,-11.564514
1425427239.076,-11.474152
1425427239.091,-11.138214
1425427239.107,-10.597748
1425427239.122,-9.75946
1425427239.138,-8.509827
1425427239.154,-6.770508
1425427239.169,-4.6581726
1425427239.185,-2.4196167
1425427239.201,-0.33187866
1425427239.216,1.4495544
1425427239.232,2.9678345
1425427239.247,4.469269
1425427239.263,6.219574
1425427239.279,8.411713
1425427239.294,11.056976
1425427239.31,14.056061
1425427239.326,17.173828
1425427239.341,20.024872
1425427239.357,22.047852
1425427239.372,22.570923
1425427239.388,20.996765
1425427239.404,17.119263
1425427239.419,11.270782
1425427239.435,4.342224
1425427239.451,-2.5134277
1425427239.466,-8.307983
1425427239.482,-12.519714
1425427239.497,-15.112274
1425427239.513,-16.423584
1425427239.529,-16.795135
1425427239.544,-16.457
1425427239.56,-15.5130005
1425427239.576,-14.071259
1425427239.591,-12.344879
1425427239.607,-10.723938
1425427239.622,-9.5972595
1425427239.638,-9.213776
1425427239.654,-9.537994
1425427239.669,-10.311218
1425427239.685,-11.163544
1425427239.701,-11.804291
1425427239.716,-12.105774
1425427239.732,-12.171448
1425427239.747,-12.182983
1425427239.763,-12.2638855
1425427239.779,-12.367828
1425427239.794,-12.287964
1425427239.81,-11.697205
1425427239.826,-10.357086
1425427239.841,-8.219147
1425427239.857,-5.4830017
1425427239.872,-2.5029602
1425427239.888,0.2906494
1425427239.904,2.5944214
1425427239.919,4.2871094
1425427239.935,5.463928
1425427239.951,6.372223
1425427239.966,7.317108
1425427239.982,8.546143
1425427239.997,10.246674
1425427240.013,12.391266
1425427240.029,14.782043
1425427240.044,17.009155
1425427240.06,18.509186
1425427240.076,18.647858
1425427240.091,16.949432
1425427240.107,13.27301
1425427240.122,7.936859
1425427240.138,1.7045593
1425427240.154,-4.463135
1425427240.169,-9.671173
1425427240.185,-13.386932
1425427240.201,-15.552643
1425427240.216,-16.457123
1425427240.232,-16.534393
1425427240.247,-16.148163
1425427240.263,-15.476685
1425427240.279,-14.599884
1425427240.294,-13.577362
1425427240.31,-12.553864
1425427240.326,-11.765228
1425427240.341,-11.391663
1425427240.357,-11.519714
1425427240.372,-12.065735
1425427240.388,-12.797821
1425427240.404,-13.46106
1425427240.419,-13.865387
1425427240.435,-13.883514
1425427240.451,-13.527222
1425427240.466,-12.88269
1425427240.482,-12.100067
1425427240.497,-11.272827
1425427240.513,-10.442749
1425427240.529,-9.524078
1425427240.544,-8.330811
1425427240.56,-6.6989746
1425427240.576,-4.5588074
1425427240.591,-2.0689087
1425427240.607,0.4901123
1425427240.622,2.7919922
1425427240.638,4.6091614
1425427240.654,5.959564
1425427240.669,7.025055
1425427240.685,8.134247
1425427240.701,9.5755005
1425427240.716,11.536926
1425427240.732,14.03598
1425427240.747,16.898132
1425427240.763,19.771423
1425427240.779,22.089905
1425427240.794,23.22763
1425427240.81,22.66269
1425427240.826,20.201385
1425427240.841,16.09018
1425427240.857,10.974426
1425427240.872,5.7117004
1425427240.888,1.1248474
1425427240.904,-2.2724304
1425427240.919,-4.331604
1425427240.935,-5.1962585
1425427240.951,-5.199341
1425427240.966,-4.662445
1425427240.982,-3.8692627
1425427240.997,-2.997467
1425427241.013,-2.2083435
1425427241.029,-1.6545715
1425427241.044,-1.4885864
1425427241.06,-1.8413696
1425427241.076,-2.7083435
1425427241.091,-3.997406
1425427241.107,-5.467804
1425427241.122,-6.7891846
1425427241.138,-7.675537
1425427241.154,-7.931305
1425427241.169,-7.5500183
1425427241.185,-6.6644897
1425427241.201,-5.503174
1425427241.216,-4.2415466
1425427241.232,-2.9424744
1425427241.248,-1.5015259
1425427241.263,0.25439453
1425427241.279,2.4542236
1425427241.294,5.050995
1425427241.31,7.805786
1425427241.326,10.367371
1425427241.341,12.406738
1425427241.357,13.760559
1425427241.373,14.475494
1425427241.388,14.827301
1425427241.404,15.156525
1425427241.419,15.810944
1425427241.435,16.99469
1425427241.451,18.740845
1425427241.466,20.827942
1425427241.482,22.816406
1425427241.498,24.139679
1425427241.513,24.203125
1425427241.529,22.595337
1425427241.544,19.245789
1425427241.56,14.432861
1425427241.576,8.739655
1425427241.591,2.8551025
1425427241.607,-2.591217
1425427241.623,-7.1961365
1425427241.638,-10.779724
1425427241.654,-13.374664
1425427241.669,-15.078918
1425427241.685,-16.0029
1425427241.701,-16.20877
1425427241.716,-15.741974
1425427241.732,-14.711761
1425427241.748,-13.31192
1425427241.763,-11.854126
1425427241.779,-10.602417
1425427241.794,-9.761017
1425427241.81,-9.341034
1425427241.826,-9.214325
1425427241.841,-9.130646
1425427241.857,-8.936157
1425427241.873,-8.57901
1425427241.888,-8.180847
1425427241.904,-7.911438
1425427241.919,-7.87442
1425427241.935,-8.029449
1425427241.951,-8.166809
1425427241.966,-8.03479
1425427241.982,-7.4522095
1425427241.998,-6.3782043
1425427242.013,-4.962555
1425427242.029,-3.4360352
1425427242.044,-2.0597534
1425427242.06,-0.9536438
1425427242.076,-0.12994385
1425427242.091,0.5555115
1425427242.107,1.2855225
1425427242.123,2.278534
1425427242.138,3.7090454
1425427242.154,5.7197266
1425427242.169,8.316193
1425427242.185,11.329773
1425427242.201,14.330566
1425427242.216,16.688263
1425427242.232,17.727356
1425427242.248,16.951385
1425427242.263,14.26004
1425427242.279,10.021912
1425427242.294,4.95105
1425427242.31,-0.09552002
1425427242.326,-4.4792175
1425427242.341,-7.867584
1425427242.357,-10.284851
1425427242.373,-11.875
1425427242.388,-12.828766
1425427242.404,-13.213806
1425427242.419,-13.068024
1425427242.435,-12.468628
1425427242.451,-11.609192
1425427242.466,-10.778778
1425427242.482,-10.270935
1425427242.498,-10.260361
1425427242.513,-10.735382
1425427242.529,-11.505981
1425427242.544,-12.277817
1425427242.56,-12.790024
1425427242.576,-12.912491
1425427242.591,-12.626144
1425427242.607,-12.013687
1425427242.623,-11.149277
1425427242.638,-10.108017
1425427242.654,-8.876816
1425427242.669,-7.4331055
1425427242.685,-5.71579
1425427242.701,-3.7373657
1425427242.716,-1.5524445
1425427242.732,0.70809937
1425427242.748,2.8538208
1425427242.763,4.707245
1425427242.779,6.171341
1425427242.794,7.2635193
1425427242.81,8.136307
1425427242.826,9.039185
1425427242.841,10.218338
1425427242.857,11.830383
1425427242.873,13.878418
1425427242.888,16.194305
1425427242.904,18.460526
1425427242.919,20.224594
1425427242.935,21.03415
1425427242.951,20.528
1425427242.966,18.546494
1425427242.982,15.206421
1425427242.998,10.918884
1425427243.013,6.2726746
1425427243.029,1.9285736
1425427243.044,-1.6172943
1425427243.06,-4.0727234
1425427243.076,-5.4733276
1425427243.091,-6.0438385
1425427243.107,-6.1084595
1425427243.123,-5.9622498
1425427243.138,-5.776703
1425427243.154,-5.6187744
1425427243.169,-5.4953766
1425427243.185,-5.4347076
1425427243.201,-5.5481567
1425427243.216,-5.95372
1425427243.232,-6.7083435
1425427243.248,-7.7041473
1425427243.263,-8.693558
1425427243.279,-9.365662
1425427243.294,-9.495102
1425427243.31,-9.052811
1425427243.326,-8.229782
1425427243.341,-7.2622986
1425427243.357,-6.309311
1425427243.373,-5.348816
1425427243.388,-4.2217255
1425427243.404,-2.732376
1425427243.419,-0.8233185
1425427243.435,1.3462219
1425427243.451,3.4519653
1425427243.466,5.1670837
1425427243.482,6.277466
1425427243.498,6.8480377
1425427243.513,7.1443024
1425427243.529,7.5847015
1425427243.544,8.552948
1425427243.56,10.289825
1425427243.576,12.790863
1425427243.591,15.860107
1425427243.607,19.099625
1425427243.623,22.009918
1425427243.638,23.98639
1425427243.654,24.453064
1425427243.669,22.990051
1425427243.685,19.517853
1425427243.701,14.426819
1425427243.716,8.52533
1425427243.732,2.8985748
1425427243.748,-1.500534
1425427243.763,-4.1473083
1425427243.779,-5.118042
1425427243.794,-4.9669495
1425427243.81,-4.375168
1425427243.826,-3.902008
1425427243.841,-3.717331
1425427243.857,-3.6568298
1425427243.873,-3.3865967
1425427243.888,-2.6917877
1425427243.904,-1.5653229
1425427243.92,-0.23805237
1425427243.935,0.9655609
1425427243.951,1.7575378
1425427243.966,1.9934387
1425427243.982,1.6548157
1425427243.998,0.77633667
1425427244.013,-0.5756836
1425427244.029,-2.320282
1425427244.044,-4.3211365
1425427244.06,-6.3362885
1425427244.076,-8.019318
1425427244.091,-8.966637
1425427244.107,-8.95208
1425427244.123,-7.912796
1425427244.138,-6.1265945
1425427244.154,-4.0164413
1425427244.17,-2.0476685
1425427244.185,-0.5539093
1425427244.201,0.38909912
1425427244.216,0.93096924
1425427244.232,1.3780289
1425427244.248,2.0532303
1425427244.263,3.2965164
1425427244.279,5.3537903
1425427244.295,8.318817
1425427244.31,12.080963
1425427244.326,16.203781
1425427244.341,19.918472
1425427244.357,22.284798
1425427244.373,22.543663
1425427244.388,20.362282
1425427244.404,16.088326
1425427244.42,10.612892
1425427244.435,5.0849533
1425427244.451,0.4691925
1425427244.466,-2.7150574
1425427244.482,-4.485565
1425427244.498,-5.2325897
1425427244.513,-5.4169846
1425427244.529,-5.3665466
1425427244.545,-5.1753693
1425427244.56,-4.8086395
1425427244.576,-4.223778
1425427244.591,-3.4918213
1425427244.607,-2.8095398
1425427244.623,-2.3829803
1425427244.638,-2.2999268
1425427244.654,-2.4602203
1425427244.67,-2.6273727
1425427244.685,-2.5620346
1425427244.701,-2.1597366
1425427244.716,-1.4974365
1425427244.732,-0.7678604
1425427244.748,-0.12069702
1425427244.763,0.42590332
1425427244.779,1.0478134
1425427244.795,1.9599533
1425427244.81,3.3294373
1425427244.826,5.122444
1425427244.841,7.1387634
1425427244.857,9.064941
1425427244.873,10.606308
1425427244.888,11.582848
1425427244.904,12.007187
1425427244.92,12.074196
1425427244.935,12.140579
1425427244.951,12.589783
1425427244.966,13.712166
1425427244.982,15.519745
1425427244.998,17.718834
1425427245.013,19.753159
1425427245.029,20.964851
1425427245.045,20.785637
1425427245.06,18.895897
1425427245.076,15.326248
1425427245.091,10.430664
1425427245.107,4.7685013
1425427245.123,-1.0001297
1425427245.138,-6.287483
1425427245.154,-10.643799
1425427245.17,-13.87265
1425427245.185,-15.964394
1425427245.201,-17.066277
1425427245.216,-17.369232
1425427245.232,-17.073029
1425427245.248,-16.368149
1425427245.263,-15.450577
1425427245.279,-14.513733
1425427245.295,-13.767204
1425427245.31,-13.372185
1425427245.326,-13.421486
1425427245.341,-13.848801
1425427245.357,-14.491615
1425427245.373,-15.081314
1425427245.388,-15.389618
1425427245.404,-15.228058
1425427245.42,-14.52739
1425427245.435,-13.30468
1425427245.451,-11.645477
1425427245.466,-9.626686
1425427245.482,-7.3526077
1425427245.498,-4.944847
1425427245.513,-2.5387573
1425427245.529,-0.2879181
1425427245.545,1.695755
1425427245.56,3.3429031
1425427245.576,4.7106476
1425427245.591,5.959282
1425427245.607,7.2719955
1425427245.623,8.852776
1425427245.638,10.808044
1425427245.654,13.140762
1425427245.67,15.699265
1425427245.685,18.18576
1425427245.701,20.129776
1425427245.716,21.034897
1425427245.732,20.478516
1425427245.748,18.308556
1425427245.763,14.736229
1425427245.779,10.303413
1425427245.795,5.7362213
1425427245.81,1.658165
1425427245.826,-1.5666962
1425427245.841,-3.8859863
1425427245.857,-5.4947968
1425427245.873,-6.6011887
1425427245.888,-7.369011
1425427245.904,-7.814522
1425427245.92,-7.9549866
1425427245.935,-7.8545227
1425427245.951,-7.69207
1425427245.966,-7.675537
1425427245.982,-7.913719
1425427245.998,-8.411667
1425427246.013,-9.019119
1425427246.029,-9.540039
1425427246.045,-9.841591
1425427246.06,-9.863853
1425427246.076,-9.64167
1425427246.091,-9.193321
1425427246.107,-8.5557785
1425427246.123,-7.7249756
1425427246.138,-6.7008514
1425427246.154,-5.4701843
1425427246.17,-4.001152
1425427246.185,-2.280342
1425427246.201,-0.32508087
1425427246.216,1.7409592
1425427246.232,3.699562
1425427246.248,5.3166504
1425427246.263,6.472946
1425427246.279,7.270836
1425427246.295,8.0117035
1425427246.31,9.124184
1425427246.326,10.87571
1425427246.341,13.328911
1425427246.357,16.219421
1425427246.373,19.057724
1425427246.388,21.224434
1425427246.404,22.153343
1425427246.42,21.42759
1425427246.435,18.923515
1425427246.451,14.82663
1425427246.466,9.675545
1425427246.482,4.260811
1425427246.498,-0.58264923
1425427246.513,-4.223503
1425427246.529,-6.3994904
1425427246.545,-7.271736
1425427246.56,-7.2933273
1425427246.576,-6.9594345
1425427246.592,-6.6152267
1425427246.607,-6.3824234
1425427246.623,-6.225563
1425427246.638,-6.121826
1425427246.654,-6.1259766
1425427246.67,-6.3852386
1425427246.685,-7.0172653
1425427246.701,-8.005398
1425427246.716,-9.147209
1425427246.732,-10.150925
1425427246.748,-10.787651
1425427246.763,-10.965042
1425427246.779,-10.762447
1425427246.795,-10.331306
1425427246.81,-9.747082
1425427246.826,-8.976891
1425427246.842,-7.8756256
1425427246.857,-6.2842636
1425427246.873,-4.121361
1425427246.888,-1.4855957
1425427246.904,1.3664131
1425427246.92,4.097248
1425427246.935,6.4121513
1425427246.951,8.144657
1425427246.967,9.322472
1425427246.982,10.139275
1425427246.998,10.917885
1425427247.013,11.956268
1425427247.029,13.454487
1425427247.045,15.414402
1425427247.06,17.585537
1425427247.076,19.505192
1425427247.092,20.61285
1425427247.107,20.405262
1425427247.123,18.62547
1425427247.138,15.360992
1425427247.154,11.050362
1425427247.17,6.3495865
1425427247.185,1.9593391
1425427247.201,-1.6097031
1425427247.217,-4.1062584
1425427247.232,-5.589718
1425427247.248,-6.2828293
1425427247.263,-6.5124016
1425427247.279,-6.512848
1425427247.295,-6.450588
1425427247.31,-6.4055824
1425427247.326,-6.428589
1425427247.342,-6.5829773
1425427247.357,-6.935585
1425427247.373,-7.449318
1425427247.388,-8.011684
1425427247.404,-8.412785
1425427247.42,-8.430527
1425427247.435,-7.9475327
1425427247.451,-7.0474434
1425427247.467,-5.9635925
1425427247.482,-5.014168
1425427247.498,-4.3485146
1425427247.513,-3.9196815
1425427247.529,-3.460102
1425427247.545,-2.627266
1425427247.56,-1.1990852
1425427247.576,0.8047676
1425427247.592,3.144516
1425427247.607,5.4531555
1425427247.623,7.425823
1425427247.638,8.927353
1425427247.654,10.028244
1425427247.67,10.931202
1425427247.685,11.865215
1425427247.701,12.947983
1425427247.717,14.226715
1425427247.732,15.648716
1425427247.748,17.117905
1425427247.763,18.474857
1425427247.779,19.490517
1425427247.795,19.822052
1425427247.81,19.077354
1425427247.826,16.968578
1425427247.842,13.479862
1425427247.857,8.957764
1425427247.873,4.061222
1425427247.888,-0.49185944
1425427247.904,-4.1634064
1425427247.92,-6.801998
1425427247.935,-8.530636
1425427247.951,-9.659561
1425427247.967,-10.351376
1425427247.982,-10.657841
1425427247.998,-10.459515
1425427248.013,-9.68589
1425427248.029,-8.464073
1425427248.045,-7.098877
1425427248.06,-5.998955
1425427248.076,-5.469269
1425427248.092,-5.588722
1425427248.107,-6.193123
1425427248.123,-6.9641953
1425427248.138,-7.59993
1425427248.154,-7.875931
1425427248.17,-7.7933426
1425427248.185,-7.4237976
1425427248.201,-6.904381
1425427248.217,-6.324898
1425427248.232,-5.7137604
1425427248.248,-5.04879
1425427248.263,-4.3439484
1425427248.279,-3.640503
1425427248.295,-3.0121384
1425427248.31,-2.5496292
1425427248.326,-2.2512817
1425427248.342,-2.0253143
1425427248.357,-1.6758118
1425427248.373,-0.97380066
1425427248.388,0.28842926
1425427248.404,2.2297363
1425427248.42,4.8223267
1425427248.435,7.8903656
1425427248.451,11.06694
1425427248.467,13.836578
1425427248.482,15.5826645
1425427248.498,15.763626
1425427248.513,14.07766
1425427248.529,10.633438
1425427248.545,5.938965
1425427248.56,0.7083435
1425427248.576,-4.298851
1425427248.592,-8.562828
1425427248.607,-11.876671
1425427248.623,-14.277428
1425427248.638,-15.941246
1425427248.654,-16.997368
1425427248.67,-17.500214
1425427248.685,-17.46434
1425427248.701,-16.955772
1425427248.717,-16.133308
1425427248.732,-15.256424
1425427248.748,-14.589836
1425427248.763,-14.264442
1425427248.779,-14.276787
1425427248.795,-14.435799
1425427248.81,-14.486977
1425427248.826,-14.262344
1425427248.842,-13.69976
1425427248.857,-12.93483
1425427248.873,-12.161598
1425427248.888,-11.522949
1425427248.904,-11.01149
1425427248.92,-10.440414
1425427248.935,-9.57531
1425427248.951,-8.21138
1425427248.967,-6.3523293
1425427248.982,-4.156727
1425427248.998,-1.8919868
1425427249.013,0.19177246
1425427249.029,1.9713478
1425427249.045,3.5408325
1425427249.06,5.067978
1425427249.076,6.7880745
1425427249.092,8.898502
1425427249.107,11.463303
1425427249.123,14.408508
1425427249.138,17.488976
1425427249.154,20.302074
1425427249.17,22.297623
1425427249.185,22.91328
1425427249.201,21.726795
1425427249.217,18.664433
1425427249.232,14.054878
1425427249.248,8.555794
1425427249.263,3.0116196
1425427249.279,-1.8288879
1425427249.295,-5.510597
1425427249.31,-7.907177
1425427249.326,-9.21167
1425427249.342,-9.715961
1425427249.357,-9.733685
1425427249.373,-9.484882
1425427249.388,-9.082489
1425427249.404,-8.615139
1425427249.42,-8.171623
1425427249.435,-7.859108
1425427249.451,-7.769722
1425427249.467,-7.9431
1425427249.482,-8.333733
1425427249.498,-8.783497
1425427249.514,-9.117256
1425427249.529,-9.136898
1425427249.545,-8.744995
1425427249.56,-7.965679
1425427249.576,-6.926079
1425427249.592,-5.7975845
1425427249.607,-4.6878433
1425427249.623,-3.6050682
1425427249.639,-2.4598408
1425427249.654,-1.1529236
1425427249.67,0.38681602
1425427249.685,2.1242542
1425427249.701,3.9510536
1425427249.717,5.694643
1425427249.732,7.206318
1425427249.748,8.421593
1425427249.764,9.373104
1425427249.779,10.193647
1425427249.795,11.063103
1425427249.81,12.205387
1425427249.826,13.761793
1425427249.842,15.784067
1425427249.857,18.099058
1425427249.873,20.316227
1425427249.889,21.863367
1425427249.904,22.177244
1425427249.92,20.831654
1425427249.935,17.748419
1425427249.951,13.196995
1425427249.967,7.774378
1425427249.982,2.2001896
1425427249.998,-2.8324509
1425427250.014,-6.8329296
1425427250.029,-9.532932
1425427250.045,-10.963525
1425427250.06,-11.321711
1425427250.076,-10.868309
1425427250.092,-9.8879
1425427250.107,-8.650331
1425427250.123,-7.35728
1425427250.139,-6.205024
1425427250.154,-5.3494234
1425427250.17,-4.878145
1425427250.185,-4.775099
1425427250.201,-4.881815
1425427250.217,-4.9298058
1425427250.232,-4.6509
1425427250.248,-3.920681
1425427250.264,-2.7932177
1425427250.279,-1.4915504
1425427250.295,-0.3026247
1425427250.31,0.58476734
1425427250.326,1.1831675
1425427250.342,1.6961923
1425427250.357,2.4145908
1425427250.373,3.5425186
1425427250.389,5.085013
1425427250.404,6.849435
1425427250.42,8.486332
1425427250.435,9.696701
1425427250.451,10.335741
1425427250.467,10.499853
1425427250.482,10.480766
1425427250.498,10.623444
1425427250.514,11.230673
1425427250.529,12.478696
1425427250.545,14.364907
1425427250.56,16.704353
1425427250.576,19.127882
1425427250.592,21.140568
1425427250.607,22.110752
1425427250.623,21.547867
1425427250.639,19.157677
1425427250.654,15.060219
1425427250.67,9.695684
1425427250.685,3.7866797
1425427250.701,-1.9344444
1425427250.717,-6.8880935
1425427250.732,-10.771585
1425427250.748,-13.509518
1425427250.764,-15.165951
1425427250.779,-15.860569
1425427250.795,-15.697573
1425427250.81,-14.848531
1425427250.826,-13.521908
1425427250.842,-12.052548
1425427250.857,-10.7647085
1425427250.873,-9.937307
1425427250.889,-9.696625
1425427250.904,-9.952649
1425427250.92,-10.469392
1425427250.935,-10.948678
1425427250.951,-11.18053
1425427250.967,-11.082928
1425427250.982,-10.7081375
1425427250.998,-10.135838
1425427251.014,-9.390779
1425427251.029,-8.395984
1425427251.045,-7.0170927
1425427251.06,-5.165526
1425427251.076,-2.8769221
1425427251.092,-0.30032325
1425427251.107,2.2679946
1425427251.123,4.5762854
1425427251.139,6.471102
1425427251.154,7.979513
1425427251.17,9.264813
1425427251.185,10.549385
1425427251.201,12.009164
1425427251.217,13.7332535
1425427251.232,15.643885
1425427251.248,17.45977
1425427251.264,18.724987
1425427251.279,18.93191
1425427251.295,17.62966
1425427251.31,14.612321
1425427251.326,10.036914
1425427251.342,4.4267173
1425427251.357,-1.4577215
1425427251.373,-6.829817
1425427251.389,-11.088628
1425427251.404,-13.95529
1425427251.42,-15.438614
1425427251.435,-15.747622
1425427251.451,-15.166994
1425427251.467,-13.93835
1425427251.482,-12.284582
1425427251.498,-10.407473
1425427251.514,-8.525301
1425427251.529,-6.827853
1425427251.545,-5.4632764
1425427251.56,-4.464122
1425427251.576,-3.7357042
1425427251.592,-3.1387858
1425427251.607,-2.580625
1425427251.623,-2.0720272
1425427251.639,-1.7669306
1425427251.654,-1.8107829
1425427251.67,-2.273106
1425427251.685,-3.0636053
1425427251.701,-3.9557776
1425427251.717,-4.698232
1425427251.732,-5.099597
1425427251.748,-5.0997133
1425427251.764,-4.73925
1425427251.779,-4.108332
1425427251.795,-3.2464252
1425427251.81,-2.1333284
1425427251.826,-0.7297754
1425427251.842,0.97914124
1425427251.857,2.9553742
1425427251.873,5.171132
1425427251.889,7.603014
1425427251.904,10.312035
1425427251.92,13.288121
1425427251.935,16.400436
1425427251.951,19.289268
1425427251.967,21.396812
1425427251.982,22.128937
1425427251.998,21.079346
1425427252.014,18.213581
1425427252.029,13.940557
1425427252.045,8.980329
1425427252.06,4.146085
1425427252.076,0.06562424
1425427252.092,-2.9639902
1425427252.107,-4.9910755
1425427252.123,-6.241852
1425427252.139,-7.0456924
1425427252.154,-7.6094246
1425427252.17,-8.054257
1425427252.186,-8.409097
1425427252.201,-8.673734
1425427252.217,-8.861286
1425427252.232,-8.989464
1425427252.248,-9.073464
1425427252.264,-9.087511
1425427252.279,-9.048911
1425427252.295,-8.932725
1425427252.311,-8.7767
1425427252.326,-8.574733
1425427252.342,-8.300384
1425427252.357,-7.8941097
1425427252.373,-7.263138
1425427252.389,-6.3377285
1425427252.404,-5.051034
1425427252.42,-3.4457073
1425427252.436,-1.5829678
1425427252.451,0.4141426
1425427252.467,2.3836803
1425427252.482,4.1872177
1425427252.498,5.7263126
1425427252.514,6.9780273
1425427252.529,8.056503
1425427252.545,9.150179
1425427252.561,10.476454
1425427252.576,12.187994
1425427252.592,14.278246
1425427252.607,16.520205
1425427252.623,18.491657
1425427252.639,19.634583
1425427252.654,19.434267
1425427252.67,17.574324
1425427252.686,14.099804
1425427252.701,9.45113
1425427252.717,4.3182774
1425427252.732,-0.49320984
1425427252.748,-4.3365383
1425427252.764,-6.864092
1425427252.779,-8.066349
1425427252.795,-8.173334
1425427252.811,-7.5336533
1425427252.826,-6.4850693
1425427252.842,-5.268755
1425427252.857,-4.0752773
1425427252.873,-3.040865
1425427252.889,-2.2877274
1425427252.904,-1.8474121
1425427252.92,-1.6910248
1425427252.936,-1.6899929
1425427252.951,-1.705553
1425427252.967,-1.645586
1425427252.982,-1.5180988
1425427252.998,-1.4072609
1425427253.014,-1.4383183
1425427253.029,-1.70298
1425427253.045,-2.1791553
1425427253.061,-2.702608
1425427253.076,-3.0298996
1425427253.092,-2.9223137
1425427253.107,-2.2593231
1425427253.123,-1.0746651
1425427253.139,0.40719604
1425427253.154,1.8878393
1425427253.17,3.0839643
1425427253.186,3.837697
1425427253.201,4.1935635
1425427253.217,4.3465214
1425427253.232,4.637723
1425427253.248,5.4204006
1425427253.264,6.9433594
1425427253.279,9.2538185
1425427253.295,12.122439
1425427253.311,15.062926
1425427253.326,17.417702
1425427253.342,18.57981
1425427253.357,18.146833
1425427253.373,16.10756
1425427253.389,12.763874
1425427253.404,8.699726
1425427253.42,4.5034523
1425427253.436,0.6618519
1425427253.451,-2.5659313
1425427253.467,-5.0942564
1425427253.482,-6.9068356
1425427253.498,-8.041314
1425427253.514,-8.532038
1425427253.529,-8.472078
1425427253.545,-8.084217
1425427253.561,-7.6397505
1425427253.576,-7.398733
1425427253.592,-7.5577645
1425427253.607,-8.179581
1425427253.623,-9.183208
1425427253.639,-10.414994
1425427253.654,-11.682681
1425427253.67,-12.776104
1425427253.686,-13.5038805
1425427253.701,-13.721953
1425427253.717,-13.351683
1425427253.732,-12.426689
1425427253.748,-11.082754
1425427253.764,-9.485249
1425427253.779,-7.772234
1425427253.795,-5.994548
1425427253.811,-4.125634
1425427253.826,-2.14439
1425427253.842,-0.07425666
1425427253.857,1.9445019
1425427253.873,3.7669902
1425427253.889,5.269522
1425427253.904,6.4739895
1425427253.92,7.5484085
1425427253.936,8.771107
1425427253.951,10.357639
1425427253.967,12.380056
1425427253.982,14.580377
1425427253.998,16.443521
1425427254.014,17.289646
1425427254.029,16.55287
1425427254.045,13.967653
1425427254.061,9.740906
1425427254.076,4.512928
1425427254.092,-0.88384247
1425427254.107,-5.6889834
1425427254.123,-9.463406
1425427254.139,-12.137312
1425427254.154,-13.911615
1425427254.17,-15.089368
1425427254.186,-15.832433
1425427254.201,-16.161814
1425427254.217,-16.012491
1425427254.232,-15.376314
1425427254.248,-14.417604
1425427254.264,-13.503204
1425427254.279,-13.007323
1425427254.295,-13.194131
1425427254.311,-14.039406
1425427254.326,-15.218277
1425427254.342,-16.207783
1425427254.357,-16.541286
1425427254.373,-15.994405
1425427254.389,-14.660084
1425427254.404,-12.866081
1425427254.42,-11.007821
1425427254.436,-9.346089
1425427254.451,-7.9401903
1425427254.467,-6.576127
1425427254.482,-5.000497
1425427254.498,-3.0192175
1425427254.514,-0.6877928
1425427254.529,1.7605505
1425427254.545,3.998495
1425427254.561,5.7726145
1425427254.576,6.9992704
1425427254.592,7.7898874
1425427254.607,8.392122
1425427254.623,9.072304
1425427254.639,10.048626
1425427254.654,11.443668
1425427254.67,13.243408
1425427254.686,15.290766
1425427254.701,17.24835
1425427254.717,18.616089
1425427254.732,18.870228
1425427254.748,17.641718
1425427254.764,14.869732
1425427254.779,10.864576
1425427254.795,6.209553
1425427254.811,1.6030712
1425427254.826,-2.4062443
1425427254.842,-5.512722
1425427254.858,-7.648424
1425427254.873,-8.927862
1425427254.889,-9.527586
1425427254.904,-9.623863
1425427254.92,-9.399021
1425427254.936,-8.993118
1425427254.951,-8.53887
1425427254.967,-8.164909
1425427254.983,-8.002777
1425427254.998,-8.134369
1425427255.014,-8.620178
1425427255.029,-9.451229
1425427255.045,-10.500137
1425427255.061,-11.550846
1425427255.076,-12.353886
1425427255.092,-12.715694
1425427255.108,-12.586243
1425427255.123,-12.057602
1425427255.139,-11.302921
1425427255.154,-10.450348
1425427255.17,-9.522377
1425427255.186,-8.398567
1425427255.201,-6.9218445
1425427255.217,-4.987808
1425427255.233,-2.657116
1425427255.248,-0.14777374
1425427255.264,2.23238
1425427255.279,4.238991
1425427255.295,5.8030815
1425427255.311,7.1104546
1425427255.326,8.500183
1425427255.342,10.296284
1425427255.358,12.668091
1425427255.373,15.537426
1425427255.389,18.659428
1425427255.404,21.72575
1425427255.42,24.408417
1425427255.436,26.38419
1425427255.451,27.342598
1425427255.467,27.026127
1425427255.483,25.247421
1425427255.498,22.097324
1425427255.514,17.936054
1425427255.529,13.350105
1425427255.545,8.938972
1425427255.561,5.1493797
1425427255.576,2.149456
1425427255.592,-0.08877182
1425427255.608,-1.6658974
1425427255.623,-2.6012306
1425427255.639,-2.9025269
1425427255.654,-2.585064
1425427255.67,-1.8634453
1425427255.686,-1.1037292
1425427255.701,-0.71113586
1425427255.717,-0.9383011
1425427255.733,-1.7781029
1425427255.748,-2.9517632
1425427255.764,-4.031967
1425427255.779,-4.6595993
1425427255.795,-4.6620903
1425427255.811,-4.1169357
1425427255.826,-3.286274
1425427255.842,-2.4793205
1425427255.858,-1.8978844
1425427255.873,-1.5647659
1425427255.889,-1.330513
1425427255.904,-0.90371704
1425427255.92,-0.06399536
1425427255.936,1.2487259
1425427255.951,2.8567848
1425427255.967,4.420143
1425427255.983,5.601471
1425427255.998,6.188301
1425427256.014,6.213646
1425427256.029,5.9554367
1425427256.045,5.748413
1425427256.061,5.912365
1425427256.076,6.6252365
1425427256.092,7.9218254
1425427256.108,9.637329
1425427256.123,11.479729
1425427256.139,13.000084
1425427256.154,13.691975
1425427256.17,13.101276
1425427256.186,10.989754
1425427256.201,7.4252205
1425427256.217,2.8222237
1425427256.233,-2.1974258
1425427256.248,-6.9595985
1425427256.264,-10.914703
1425427256.279,-13.731651
1425427256.295,-15.316212
1425427256.311,-15.754021
1425427256.326,-15.247944
1425427256.342,-14.092854
1425427256.358,-12.597076
1425427256.373,-11.092163
1425427256.389,-9.849411
1425427256.404,-9.051094
1425427256.42,-8.747963
1425427256.436,-8.888199
1425427256.451,-9.321899
1425427256.467,-9.902531
1425427256.483,-10.453461
1425427256.498,-10.838867
1425427256.514,-11.0395355
1425427256.529,-11.078514
1425427256.545,-11.047939
1425427256.561,-11.008568
1425427256.576,-10.950455
1425427256.592,-10.730919
1425427256.608,-10.180832
1425427256.623,-9.131607
1425427256.639,-7.5402985
1425427256.654,-5.568115
1425427256.67,-3.4524689
1425427256.686,-1.437027
1425427256.701,0.33685303
1425427256.717,1.896431
1425427256.733,3.4017868
1425427256.748,5.0108337
1425427256.764,6.837059
1425427256.779,8.894264
1425427256.795,11.059822
1425427256.811,13.14032
1425427256.826,14.811493
1425427256.842,15.686462
1425427256.858,15.353897
1425427256.873,13.544785
1425427256.889,10.300171
1425427256.904,5.9959335
1425427256.92,1.2789307
1425427256.936,-3.1747437
1425427256.951,-6.848793
1425427256.967,-9.494339
1425427256.983,-11.143021
1425427256.998,-11.92556
1425427257.014,-11.990578
1425427257.029,-11.418526
1425427257.045,-10.291214
1425427257.061,-8.731651
1425427257.076,-6.995331
1425427257.092,-5.3450394
1425427257.108,-4.037552
1425427257.123,-3.178978
1425427257.139,-2.7580643
1425427257.154,-2.653801
1425427257.17,-2.7351532
1425427257.186,-2.8755417
1425427257.201,-2.987671
1425427257.217,-3.0487976
1425427257.233,-3.0544891
1425427257.248,-3.0090866
1425427257.264,-2.910347
1425427257.279,-2.7013779
1425427257.295,-2.3649216
1425427257.311,-1.8664093
1425427257.326,-1.2215881
1425427257.342,-0.45910645
1425427257.358,0.37220764
1425427257.373,1.2018433
1425427257.389,1.9865494
1425427257.404,2.716751
1425427257.42,3.4998627
1425427257.436,4.5596848
1425427257.451,6.1401215
1425427257.467,8.452545
1425427257.483,11.480972
1425427257.498,14.94043
1425427257.514,18.249046
1425427257.53,20.69281
1425427257.545,21.620888
1425427257.561,20.711319
1425427257.576,18.04554
1425427257.592,14.069267
1425427257.608,9.46006
1425427257.623,4.9255753
1425427257.639,1.0126953
1425427257.654,-2.003357
1425427257.67,-4.102211
1425427257.686,-5.431595
1425427257.701,-6.2034225
1425427257.717,-6.561714
1425427257.733,-6.602669
1425427257.748,-6.3434525
1425427257.764,-5.867256
1425427257.78,-5.3143616
1425427257.795,-4.8510056
1425427257.811,-4.6067963
1425427257.826,-4.5744247
1425427257.842,-4.634491
1425427257.858,-4.577751
1425427257.873,-4.2635117
1425427257.889,-3.7073364
1425427257.905,-3.0625763
1425427257.92,-2.562767
1425427257.936,-2.3570251
1425427257.951,-2.4083176
1425427257.967,-2.457611
1425427257.983,-2.2020721
1425427257.998,-1.3945389
1425427258.014,-0.021606445
1425427258.03,1.7215881
1425427258.045,3.4790802
1425427258.061,4.8954926
1425427258.076,5.78598
1425427258.092,6.162895
1425427258.108,6.240967
1425427258.123,6.3861847
1425427258.139,7.037903
1425427258.155,8.527611
1425427258.17,10.971619
1425427258.186,14.130234
1425427258.201,17.434357
1425427258.217,20.110115
1425427258.233,21.402267
1425427258.248,20.879272
1425427258.264,18.557213
1425427258.28,14.883293
1425427258.295,10.535316
1425427258.311,6.180237
1425427258.326,2.3097687
1425427258.342,-0.88520813
1425427258.358,-3.3723755
1425427258.373,-5.2169266
1425427258.389,-6.472145
1425427258.405,-7.1273346
1425427258.42,-7.1693726
1425427258.436,-6.6209946
1425427258.451,-5.6498947
1425427258.467,-4.5028305
1425427258.483,-3.4888992
1425427258.498,-2.8050919
1425427258.514,-2.5053024
1425427258.53,-2.4730453
1425427258.545,-2.4789505
1425427258.561,-2.3226547
1425427258.576,-1.9394226
1425427258.592,-1.394722
1425427258.608,-0.85411835
1425427258.623,-0.4750595
1425427258.639,-0.30097198
1425427258.655,-0.2387085
1425427258.67,-0.090400696
1425427258.686,0.34674835
1425427258.701,1.1890945
1425427258.717,2.4748764
1425427258.733,4.071228
1425427258.748,5.824852
1425427258.764,7.527153
1425427258.78,9.062279
1425427258.795,10.436768
1425427258.811,11.74955
1425427258.826,13.211014
1425427258.842,15.016861
1425427258.858,17.266884
1425427258.873,19.869316
1425427258.889,22.515945
1425427258.905,24.709106
1425427258.92,25.864746
1425427258.936,25.509476
1425427258.951,23.400291
1425427258.967,19.694527
1425427258.983,14.883522
1425427258.998,9.715057
1425427259.014,4.881523
1425427259.03,0.89219666
1425427259.045,-2.0985184
1425427259.061,-4.2018204
1425427259.076,-5.6701202
1425427259.092,-6.710396
1425427259.108,-7.422989
1425427259.123,-7.7988205
1425427259.139,-7.838669
1425427259.155,-7.653099
1425427259.17,-7.444214
1425427259.186,-7.454956
1425427259.201,-7.84774
1425427259.217,-8.542526
1425427259.233,-9.289383
1425427259.248,-9.742065
1425427259.264,-9.660973
1425427259.28,-9.016899
1425427259.295,-7.9931946
1425427259.311,-6.8787994
1425427259.326,-5.9140015
1425427259.342,-5.1711807
1425427259.358,-4.5270844
1425427259.373,-3.797676
1425427259.389,-2.873581
1425427259.405,-1.7945633
1425427259.42,-0.7060776
1425427259.436,0.19595337
1425427259.451,0.8145981
1425427259.467,1.1985092
1425427259.483,1.5160904
1425427259.498,2.00132
1425427259.514,2.8444443
1425427259.53,4.172592
1425427259.545,6.022728
1425427259.561,8.307861
1425427259.576,10.740501
1425427259.592,12.903633
1425427259.608,14.248611
1425427259.623,14.277992
1425427259.639,12.75119
1425427259.655,9.748795
1425427259.67,5.696602
1425427259.686,1.2381134
1425427259.701,-3.0032997
1425427259.717,-6.5635147
1425427259.733,-9.229088
1425427259.748,-10.978752
1425427259.764,-11.903793
1425427259.78,-12.117977
1425427259.795,-11.734982
1425427259.811,-10.905056
1425427259.826,-9.850094
1425427259.842,-8.895134
1425427259.858,-8.345478
1425427259.873,-8.370743
1425427259.889,-8.966915
1425427259.905,-9.941856
1425427259.92,-10.989784
1425427259.936,-11.803806
1425427259.951,-12.259342
1425427259.967,-12.353291
1425427259.983,-12.210564
1425427259.998,-11.950405
1425427260.014,-11.576309
1425427260.03,-10.977615
1425427260.045,-10.014175
1425427260.061,-8.586662
1425427260.076,-6.751457
1425427260.092,-4.691105
1425427260.108,-2.6584435
1425427260.123,-0.8824501
1425427260.139,0.5607605
1425427260.155,1.7448578
1425427260.17,2.8780136
1425427260.186,4.238331
1425427260.201,6.068119
1425427260.217,8.573624
1425427260.233,11.757416
1425427260.248,15.385838
1425427260.264,18.983936
1425427260.28,21.878365
1425427260.295,23.391472
1425427260.311,23.07742
1425427260.326,20.877274
1425427260.342,17.159931
1425427260.358,12.573612
1425427260.373,7.8231316
1425427260.389,3.450283
1425427260.405,-0.27556038
1425427260.42,-3.333149
1425427260.436,-5.8074493
1425427260.452,-7.7963696
1425427260.467,-9.342463
1425427260.483,-10.4493065
1425427260.498,-11.1474495
1425427260.514,-11.553259
1425427260.53,-11.813185
1425427260.545,-12.090128
1425427260.561,-12.460226
1425427260.577,-12.941887
1425427260.592,-13.440773
1425427260.608,-13.800167
1425427260.623,-13.8878
1425427260.639,-13.619282
1425427260.655,-13.014399
1425427260.67,-12.145184
1425427260.686,-11.103523
1425427260.702,-9.971853
1425427260.717,-8.7905655
1425427260.733,-7.554573
1425427260.748,-6.2244244
1425427260.764,-4.744644
1425427260.78,-3.114729
1425427260.795,-1.3789825
1425427260.811,0.37161064
1425427260.827,1.9696293
1425427260.842,3.3354359
1425427260.858,4.457781
1425427260.873,5.4884987
1425427260.889,6.6433887
1425427260.905,8.153263
1425427260.92,10.152241
1425427260.936,12.614386
1425427260.952,15.344598
1425427260.967,17.949226
1425427260.983,19.926922
1425427260.998,20.765213
1425427261.014,20.0573
1425427261.03,17.65879
1425427261.045,13.77855
1425427261.061,8.990103
1425427261.077,4.050338
1425427261.092,-0.33668423
1425427261.108,-3.7402525
1425427261.123,-6.122409
1425427261.139,-7.7074757
1425427261.155,-8.801395
1425427261.17,-9.592681
1425427261.186,-10.068008
1425427261.202,-10.10292
1425427261.217,-9.62407
1425427261.233,-8.731518
1425427261.248,-7.688837
1425427261.264,-6.8123665
1425427261.28,-6.318243
1425427261.295,-6.22672
1425427261.311,-6.3398423
1425427261.327,-6.3637524
1425427261.342,-6.087068
1425427261.358,-5.462866
1425427261.373,-4.6183414
1425427261.389,-3.7639155
1425427261.405,-3.0489628
1425427261.42,-2.4678736
1425427261.436,-1.8767545
1425427261.452,-1.0367675
1425427261.467,0.21504569
1425427261.483,1.8518726
1425427261.498,3.6802335
1425427261.514,5.443065
1425427261.53,6.8994656
1425427261.545,7.9646735
1425427261.561,8.759791
1425427261.577,9.516399
1425427261.592,10.521973
1425427261.608,11.997213
1425427261.623,14.063078
1425427261.639,16.703537
1425427261.655,19.743279
1425427261.67,22.805141
1425427261.686,25.360207
1425427261.702,26.807106
1425427261.717,26.648771
1425427261.733,24.60899
1425427261.748,20.798237
1425427261.764,15.628656
1425427261.78,9.766908
1425427261.795,3.9231606
1425427261.811,-1.3148403
1425427261.827,-5.5710163
1425427261.842,-8.696745
1425427261.858,-10.782972
1425427261.873,-11.976774
1425427261.889,-12.46175
1425427261.905,-12.42919
1425427261.92,-12.030886
1425427261.936,-11.425787
1425427261.952,-10.762342
1425427261.967,-10.127235
1425427261.983,-9.597668
1425427261.998,-9.194189
1425427262.014,-8.870596
1425427262.03,-8.540958
1425427262.045,-8.148491
1425427262.061,-7.641594
1425427262.077,-7.0652237
1425427262.092,-6.4647064
1425427262.108,-5.9197006
1425427262.123,-5.442108
1425427262.139,-5.01807
1425427262.155,-4.546055
1425427262.17,-3.895485
1425427262.186,-2.976143
1425427262.202,-1.8020439
1425427262.217,-0.4922409
1425427262.233,0.7280693
1425427262.248,1.6924591
1425427262.264,2.3099442
1425427262.28,2.6749763
1425427262.295,3.026947
1425427262.311,3.6573296
1425427262.327,4.8216324
1425427262.342,6.633892
1425427262.358,8.925308
1425427262.373,11.279522
1425427262.389,13.127853
1425427262.405,13.860466
1425427262.42,13.066551
1425427262.436,10.651569
1425427262.452,6.8913536
1425427262.467,2.3598442
1425427262.483,-2.308838
1425427262.498,-6.5890465
1425427262.514,-10.195705
1425427262.53,-13.022022
1425427262.545,-15.116734
1425427262.561,-16.503239
1425427262.577,-17.190754
1425427262.592,-17.200981
1425427262.608,-16.665268
1425427262.623,-15.832634
1425427262.639,-15.0354
1425427262.655,-14.535019
1425427262.67,-14.456543
1425427262.686,-14.694565
1425427262.702,-15.043877
1425427262.717,-15.275093
1425427262.733,-15.271545
1425427262.748,-15.053513
1425427262.764,-14.740997
1425427262.78,-14.355553
1425427262.795,-13.824104
1425427262.811,-12.962311
1425427262.827,-11.570877
1425427262.842,-9.554649
1425427262.858,-7.004341
1425427262.873,-4.216278
1425427262.889,-1.5505295
1425427262.905,0.68800354
1425427262.92,2.3752213
1425427262.936,3.5983963
1425427262.952,4.580742
1425427262.967,5.6680374
1425427262.983,7.1378403
1425427262.998,9.190506
1425427263.014,11.874832
1425427263.03,15.04528
1425427263.045,18.303566
1425427263.061,21.058266
1425427263.077,22.576775
1425427263.092,22.249756
1425427263.108,19.789757
1425427263.124,15.396439
1425427263.139,9.704231
1425427263.155,3.6381989
1425427263.17,-1.94561
1425427263.186,-6.4542923
1425427263.202,-9.713081
1425427263.217,-11.878693
1425427263.233,-13.251877
1425427263.249,-14.084442
1425427263.264,-14.537193
1425427263.28,-14.647804
1425427263.295,-14.438202
1425427263.311,-14.016792
1425427263.327,-13.5590515
1425427263.342,-13.223457
1425427263.358,-13.102867
1425427263.374,-13.118538
1425427263.389,-13.086121
1425427263.405,-12.812325
1425427263.42,-12.206375
1425427263.436,-11.263367
1425427263.452,-10.131073
1425427263.467,-8.92141
1425427263.483,-7.675743
1425427263.499,-6.326172
1425427263.514,-4.757187
1425427263.53,-2.862358
1425427263.545,-0.67220306
1425427263.561,1.6737747
1425427263.577,3.9441833
1425427263.592,5.9536896
1425427263.608,7.594612
1425427263.624,8.912979
1425427263.639,10.073151
1425427263.655,11.351669
1425427263.67,13.025543
1425427263.686,15.259018
1425427263.702,18.00595
1425427263.717,20.95617
1425427263.733,23.528542
1425427263.749,25.030632
1425427263.764,24.848328
1425427263.78,22.702103
1425427263.795,18.732605
1425427263.811,13.513115
1425427263.827,7.75441
1425427263.842,2.1481323
1425427263.858,-2.8578415
1425427263.874,-7.039154
1425427263.889,-10.373581
1425427263.905,-12.869934
1425427263.92,-14.57563
1425427263.936,-15.4835205
1425427263.952,-15.65667
1425427263.967,-15.245529
1425427263.983,-14.483887
1425427263.999,-13.686142
1425427264.014,-13.10807
1425427264.03,-12.878159
1425427264.045,-12.967728
1425427264.061,-13.21283
1425427264.077,-13.412415
1425427264.092,-13.3767395
1425427264.108,-13.073036
1425427264.124,-12.509262
1425427264.139,-11.788605
1425427264.155,-10.932449
1425427264.17,-9.942253
1425427264.186,-8.701546
1425427264.202,-7.107624
1425427264.217,-5.0975914
1425427264.233,-2.7124634
1425427264.249,-0.10586929
1425427264.264,2.506771
1425427264.28,4.908146
1425427264.295,6.962017
1425427264.311,8.656868
1425427264.327,10.116081
1425427264.342,11.537209
1425427264.358,13.125397
1425427264.374,15.037815
1425427264.389,17.32557
1425427264.405,19.902187
1425427264.42,22.482136
1425427264.436,24.610016
1425427264.452,25.688866
1425427264.467,25.194378
1425427264.483,22.83488
1425427264.499,18.771648
1425427264.514,13.597519
1425427264.53,8.158253
1425427264.545,3.2157059
1425427264.561,-0.7582741
1425427264.577,-3.6935654
1425427264.592,-5.7530975
1425427264.608,-7.173313
1425427264.624,-8.067345
1425427264.639,-8.432209
1425427264.655,-8.234684
1425427264.67,-7.5846367
1425427264.686,-6.7561455
1425427264.702,-6.0887413
1425427264.717,-5.8478813
1425427264.733,-6.0803375
1425427264.749,-6.598377
1425427264.764,-7.0801735
1425427264.78,-7.2424965
1425427264.795,-6.9296875
1425427264.811,-6.168297
1425427264.827,-5.0939903
1425427264.842,-3.830124
1425427264.858,-2.4818077
1425427264.874,-1.0993729
1425427264.889,0.29969406
1425427264.905,1.6724739
1425427264.92,2.9525337
1425427264.936,4.1164436
1425427264.952,5.120163
1425427264.967,6.01334
1425427264.983,6.791691
1425427264.999,7.4606934
1425427265.014,8.064075
1425427265.03,8.684746
1425427265.045,9.467751
1425427265.061,10.580807
1425427265.077,12.165024
1425427265.092,14.19928
1425427265.108,16.436974
1425427265.124,18.454552
1425427265.139,19.660103
1425427265.155,19.52829
1425427265.17,17.742401
1425427265.186,14.311188
1425427265.202,9.589104
1425427265.217,4.234329
1425427265.233,-1.035759
1425427265.249,-5.590561
1425427265.264,-9.052597
1425427265.28,-11.320847
1425427265.295,-12.518684
1425427265.311,-12.861153
1425427265.327,-12.627541
1425427265.342,-12.07431
1425427265.358,-11.444344
1425427265.374,-10.994331
1425427265.389,-10.895676
1425427265.405,-11.188995
1425427265.42,-11.779968
1425427265.436,-12.425598
1425427265.452,-12.893677
1425427265.467,-13.001572
1425427265.483,-12.703865
1425427265.499,-12.076492
1425427265.514,-11.221565
1425427265.53,-10.20771
1425427265.545,-9.004845
1425427265.561,-7.5517197
1425427265.577,-5.769867
1425427265.592,-3.6115646
1425427265.608,-1.1920166
1425427265.624,1.3405151
1425427265.639,3.7457047
1425427265.655,5.8041153
1425427265.67,7.341049
1425427265.686,8.333183
1425427265.702,8.889
1425427265.717,9.28035
1425427265.733,9.866478
1425427265.749,10.962608
1425427265.764,12.704536
1425427265.78,14.927261
1425427265.796,17.149124
1425427265.811,18.698524
1425427265.827,18.894508
1425427265.842,17.30951
1425427265.858,13.93882
1425427265.874,9.201775
1425427265.889,3.8109589
1425427265.905,-1.4187927
1425427265.921,-5.8674545
1425427265.936,-9.193474
1425427265.952,-11.386856
1425427265.967,-12.661751
1425427265.983,-13.307404
1425427265.999,-13.593872
1425427266.014,-13.687386
1425427266.03,-13.6847
1425427266.046,-13.6527405
1425427266.061,-13.668594
1425427266.077,-13.855827
1425427266.092,-14.275574
1425427266.108,-14.904274
1425427266.124,-15.553558
1425427266.139,-16.018585
1425427266.155,-16.089653
1425427266.171,-15.756004
1425427266.186,-15.169739
1425427266.202,-14.537643
1425427266.217,-14.018112
1425427266.233,-13.546158
1425427266.249,-12.87886
1425427266.264,-11.663055
1425427266.28,-9.649139
1425427266.296,-6.8335114
1425427266.311,-3.4598846
1425427266.327,0.023498535
1425427266.342,3.1961746
1425427266.358,5.825699
1425427266.374,7.902977
1425427266.389,9.625244
1425427266.405,11.306023
1425427266.421,13.2444
1425427266.436,15.616814
1425427266.452,18.418335
1425427266.467,21.425888
1425427266.483,24.218452
1425427266.499,26.264557
1425427266.514,27.036217
1425427266.53,26.14849
1425427266.546,23.514328
1425427266.561,19.362068
1425427266.577,14.203804
1425427266.592,8.694977
1425427266.608,3.4296036
1425427266.624,-1.1696701
1425427266.639,-4.902817
1425427266.655,-7.786003
1425427266.671,-9.934433
1425427266.686,-11.462952
1425427266.702,-12.434021
1425427266.717,-12.841339
1425427266.733,-12.739853
1425427266.749,-12.282257
1425427266.764,-11.763756
1425427266.78,-11.515114
1425427266.796,-11.74839
1425427266.811,-12.396568
1425427266.827,-13.1809845
1425427266.842,-13.7034
1425427266.858,-13.640938
1425427266.874,-12.952164
1425427266.889,-11.843071
1425427266.905,-10.64283
1425427266.921,-9.578918
1425427266.936,-8.650078
1425427266.952,-7.663643
1425427266.967,-6.363014
1425427266.983,-4.567421
1425427266.999,-2.314476
1425427267.014,0.18852234
1425427267.03,2.634674
1425427267.046,4.73555
1425427267.061,6.3598404
1425427267.077,7.4839478
1425427267.092,8.2771225
1425427267.108,8.99575
1425427267.124,9.987129
1425427267.139,11.5597
1425427267.155,13.897179
1425427267.171,16.9141
1425427267.186,20.19799
1425427267.202,23.063652
1425427267.217,24.758247
1425427267.233,24.67656
1425427267.249,22.626572
1425427267.264,18.80291
1425427267.28,13.783928
1425427267.296,8.295631
1425427267.311,3.0536804
1425427267.327,-1.4497375
1425427267.342,-4.9161453
1425427267.358,-7.274193
1425427267.374,-8.589928
1425427267.389,-9.024231
1425427267.405,-8.81765
1425427267.421,-8.246544
1425427267.436,-7.586487
1425427267.452,-7.0874634
1425427267.467,-6.9266586
1425427267.483,-7.159546
1425427267.499,-7.721466
1425427267.514,-8.405655
1425427267.53,-8.924759
1425427267.546,-9.047646
1425427267.561,-8.586609
1425427267.577,-7.574127
1425427267.592,-6.199669
1425427267.608,-4.7166443
1425427267.624,-3.3362732
1425427267.639,-2.1012955
1425427267.655,-0.90715027
1425427267.671,0.41820526
1425427267.686,1.9927521
1425427267.702,3.784645
1425427267.717,5.6134415
1425427267.733,7.188881
1425427267.749,8.324928
1425427267.764,8.981384
1425427267.78,9.340118
1425427267.796,9.718941
1425427267.811,10.495804
1425427267.827,11.97065
1425427267.842,14.2882
1425427267.858,17.357407
1425427267.874,20.804932
1425427267.889,23.974014
1425427267.905,26.078568
1425427267.921,26.353302
1425427267.936,24.365486
1425427267.952,20.165512
1425427267.967,14.322105
1425427267.983,7.747162
1425427267.999,1.3797073
1425427268.014,-4.067833
1425427268.03,-8.285416
1425427268.046,-11.314987
1425427268.061,-13.333336
1425427268.077,-14.493095
1425427268.092,-14.865761
1425427268.108,-14.574051
1425427268.124,-13.839371
1425427268.139,-13.071281
1425427268.155,-12.69368
1425427268.171,-12.979248
1425427268.186,-13.88266
1425427268.202,-15.0887375
1425427268.217,-16.128998
1425427268.233,-16.701797
1425427268.249,-16.749489
1425427268.264,-16.453438
1425427268.28,-16.04544
1425427268.296,-15.635475
1425427268.311,-15.106895
1425427268.327,-14.23233
1425427268.342,-12.824028
1425427268.358,-10.858719
1425427268.374,-8.505203
1425427268.389,-6.063736
1425427268.405,-3.7776337
1425427268.421,-1.8485489
1425427268.436,-0.28528595
1425427268.452,0.98812866
1425427268.468,2.1651611
1425427268.483,3.4843292
1425427268.499,5.2198486
1425427268.514,7.550888
1425427268.53,10.462822
1425427268.546,13.683235
1425427268.561,16.62046
1425427268.577,18.548729
1425427268.592,18.786552
1425427268.608,16.924835
1425427268.624,12.98423
1425427268.639,7.418953
1425427268.655,1.0504379
1425427268.671,-5.1829147
1425427268.686,-10.446205
1425427268.702,-14.235176
1425427268.718,-16.402985
1425427268.733,-17.140701
1425427268.749,-16.840416
1425427268.764,-15.90583
1425427268.78,-14.657501
1425427268.796,-13.334236
1425427268.811,-12.078018
1425427268.827,-11.0190735
1425427268.843,-10.252632
1425427268.858,-9.829903
1425427268.874,-9.684059
1425427268.889,-9.685883
1425427268.905,-9.622871
1425427268.921,-9.346069
1425427268.936,-8.825676
1425427268.952,-8.162323
1425427268.968,-7.4876175
1425427268.983,-6.8979797
1425427268.999,-6.320076
1425427269.014,-5.576996
1425427269.03,-4.483322
1425427269.046,-2.933693
1425427269.061,-1.0028839
1425427269.077,1.102684
1425427269.093,3.118782
1425427269.108,4.8574066
1425427269.124,6.3344917
1425427269.139,7.754078
1425427269.155,9.411625
1425427269.171,11.5737
1425427269.186,14.370441
1425427269.202,17.712547
1425427269.218,21.299252
1425427269.233,24.62907
1425427269.249,27.112614
1425427269.264,28.105206
1425427269.28,27.14156
1425427269.296,24.023968
1425427269.311,18.972702
1425427269.327,12.5816765
1425427269.343,5.6937485
1425427269.358,-0.8488846
1425427269.374,-6.370346
1425427269.389,-10.551521
1425427269.405,-13.411083
1425427269.421,-15.185898
1425427269.436,-16.142727
1425427269.452,-16.496357
1425427269.468,-16.394672
1425427269.483,-15.970062
1425427269.499,-15.380329
1425427269.514,-14.823456
1425427269.53,-14.448025
1425427269.546,-14.295799
1425427269.561,-14.2798195
1425427269.577,-14.212925
1425427269.593,-13.888065
1425427269.608,-13.239025
1425427269.624,-12.346813
1425427269.639,-11.373489
1425427269.655,-10.471336
1425427269.671,-9.62711
1425427269.686,-8.668045
1425427269.702,-7.3181877
1425427269.718,-5.360382
1425427269.733,-2.7768211
1425427269.749,0.23322678
1425427269.764,3.2961235
1425427269.78,6.061756
1425427269.796,8.337318
1425427269.811,10.200058
1425427269.827,11.896084
1425427269.843,13.791046
1425427269.858,16.112026
1425427269.874,18.888378
1425427269.889,21.881676
1425427269.905,24.666794
1425427269.921,26.661846
1425427269.936,27.307087
1425427269.952,26.168278
1425427269.968,23.089775
1425427269.983,18.24246
1425427269.999,12.161249
1425427270.014,5.6244164
1425427270.03,-0.53460884
1425427270.046,-5.64357
1425427270.061,-9.356216
1425427270.077,-11.650343
1425427270.093,-12.742649
1425427270.108,-12.911663
1425427270.124,-12.384611
1425427270.139,-11.32383
1425427270.155,-9.859346
1425427270.171,-8.17128
1425427270.186,-6.539978
1425427270.202,-5.2407665
1425427270.218,-4.472086
1425427270.233,-4.2250614
1425427270.249,-4.2924633
1425427270.264,-4.3580666
1425427270.28,-4.15889
1425427270.296,-3.58926
1425427270.311,-2.71529
1425427270.327,-1.7469635
1425427270.343,-0.83932686
1425427270.358,-0.03353119
1425427270.374,0.7870102
1425427270.389,1.8077593
1425427270.405,3.1696854
1425427270.421,4.839123
1425427270.436,6.617592
1425427270.452,8.227402
1425427270.468,9.465397
1425427270.483,10.306602
1425427270.499,10.947042
1425427270.514,11.7122555
1425427270.53,12.93376
1425427270.546,14.81203
1425427270.561,17.332994
1425427270.577,20.195671
1425427270.593,22.928026
1425427270.608,24.912088
1425427270.624,25.534462
1425427270.639,24.400534
1425427270.655,21.423569
1425427270.671,16.924957
1425427270.686,11.567836
1425427270.702,6.151841
1425427270.718,1.3739462
1425427270.733,-2.3219728
1425427270.749,-4.818119
1425427270.764,-6.251998
1425427270.78,-6.8444595
1425427270.796,-6.833626
1425427270.811,-6.3825006
1425427270.827,-5.622772
1425427270.843,-4.725855
1425427270.858,-3.9052124
1425427270.874,-3.3741646
1425427270.889,-3.3121681
1425427270.905,-3.752884
1425427270.921,-4.500601
1425427270.936,-5.259327
1425427270.952,-5.7086067
1425427270.968,-5.6389084
1425427270.983,-5.075876
1425427270.999,-4.1886578
1425427271.014,-3.2030602
1425427271.03,-2.2568378
1425427271.046,-1.3555813
1425427271.061,-0.37755775
1425427271.077,0.7959118
1425427271.093,2.1332684
1425427271.108,3.5149536
1425427271.124,4.7318726
1425427271.139,5.6582756
1425427271.155,6.3736477
1425427271.171,7.0666027
1425427271.186,8.034683
1425427271.202,9.493286
1425427271.218,11.504906
1425427271.233,13.928322
1425427271.249,16.439892
1425427271.264,18.52625
1425427271.28,19.591488
1425427271.296,19.085014
1425427271.311,16.691338
1425427271.327,12.452412
1425427271.343,6.8416023
1425427271.358,0.6205559
1425427271.374,-5.304573
1425427271.39,-10.21603
1425427271.405,-13.729687
1425427271.421,-15.850544
1425427271.436,-16.844051
1425427271.452,-17.044464
1425427271.468,-16.720207
1425427271.483,-16.027023
1425427271.499,-15.081532
1425427271.515,-14.022976
1425427271.53,-13.052383
1425427271.546,-12.421734
1425427271.561,-12.31192
1425427271.577,-12.736847
1425427271.593,-13.50803
1425427271.608,-14.293713
1425427271.624,-14.73428
1425427271.64,-14.599014
1425427271.655,-13.835896
1425427271.671,-12.600887
1425427271.686,-11.094437
1425427271.702,-9.454826
1425427271.718,-7.6837654
1425427271.733,-5.7279396
1425427271.749,-3.53685
1425427271.765,-1.1632347
1425427271.78,1.2290115
1425427271.796,3.4278564
1425427271.811,5.3207283
1425427271.827,6.939228
1425427271.843,8.484375
1425427271.858,10.198101
1425427271.874,12.296402
1425427271.89,14.853813
1425427271.905,17.71254
1425427271.921,20.500393
1425427271.936,22.636787
1425427271.952,23.493706
1425427271.968,22.55296
1425427271.983,19.628906
1425427271.999,14.9668045
1425427272.015,9.214733
1425427272.03,3.2513657
1425427272.046,-2.1446037
1425427272.061,-6.4542885
1425427272.077,-9.522221
1425427272.093,-11.461849
1425427272.108,-12.486298
1425427272.124,-12.80909
1425427272.14,-12.622105
1425427272.155,-12.113369
1425427272.171,-11.491032
1425427272.186,-10.965267
1425427272.202,-10.667217
1425427272.218,-10.58897
1425427272.233,-10.629116
1425427272.249,-10.652023
1425427272.265,-10.581818
1425427272.28,-10.390923
1425427272.296,-10.124771
1425427272.311,-9.784363
1425427272.327,-9.337799
1425427272.343,-8.64838
1425427272.358,-7.629387
1425427272.374,-6.2608414
1425427272.39,-4.6115303
1425427272.405,-2.8475533
1425427272.421,-1.1047668
1425427272.436,0.51996994
1425427272.452,2.0124474
1425427272.468,3.4130402
1425427272.483,4.772045
1425427272.499,6.1366425
1425427272.515,7.5486336
1425427272.53,9.138317
1425427272.546,11.0479355
1425427272.561,13.383789
1425427272.577,16.063858
1425427272.593,18.729755
1425427272.608,20.732433
1425427272.624,21.362099
1425427272.64,20.082237
1425427272.655,16.781803
1425427272.671,11.87867
1425427272.686,6.178917
1425427272.702,0.59078217
1425427272.718,-4.1183777
1425427272.733,-7.5699043
1425427272.749,-9.78899
1425427272.765,-11.05891
1425427272.78,-11.752026
1425427272.796,-12.112904
1425427272.811,-12.223854
1425427272.827,-12.073944
1425427272.843,-11.640282
1425427272.858,-11.02063
1425427272.874,-10.40406
1425427272.89,-10.003696
1425427272.905,-9.90144
1425427272.921,-10.017868
1425427272.936,-10.113266
1425427272.952,-9.94754
1425427272.968,-9.428478
1425427272.983,-8.625484
1425427272.999,-7.6938896
1425427273.015,-6.786846
1425427273.03,-5.8863754
1425427273.046,-4.8412056
1425427273.061,-3.407013
1425427273.077,-1.4267998
1425427273.093,1.0706062
1425427273.108,3.8483963
1425427273.124,6.5479164
1425427273.14,8.82547
1425427273.155,10.5023155
1425427273.171,11.638695
1425427273.186,12.538639
1425427273.202,13.578789
1425427273.218,15.13036
1425427273.233,17.381756
1425427273.249,20.2136
1425427273.265,23.215504
1425427273.28,25.719818
1425427273.296,26.97359
1425427273.311,26.310265
1425427273.327,23.370556
1425427273.343,18.247746
1425427273.358,11.533585
1425427273.374,4.1825256
1425427273.39,-2.7412834
1425427273.405,-8.372627
1425427273.421,-12.290131
1425427273.436,-14.503334
1425427273.452,-15.391445
1425427273.468,-15.384808
1425427273.483,-14.900204
1425427273.499,-14.180138
1425427273.515,-13.355827
1425427273.53,-12.528576
1425427273.546,-11.762775
1425427273.561,-11.07383
1425427273.577,-10.418549
1425427273.593,-9.728092
1425427273.608,-8.926559
1425427273.624,-7.9988403
1425427273.64,-7.021328
1425427273.655,-6.0825043
1425427273.671,-5.2019463
1425427273.686,-4.3092117
1425427273.702,-3.266739
1425427273.718,-1.9593887
1425427273.733,-0.36286163
1425427273.749,1.4792862
1425427273.765,3.4391098
1425427273.78,5.3971863
1425427273.796,7.264511
1425427273.811,8.966408
1425427273.827,10.464279
1425427273.843,11.742432
1425427273.858,12.85611
1425427273.874,13.924004
1425427273.89,15.134407
1425427273.905,16.662445
1425427273.921,18.492325
1425427273.936,20.401093
1425427273.952,21.900902
1425427273.968,22.365204
1425427273.983,21.204819
1425427273.999,18.12513
1425427274.015,13.265457
1425427274.03,7.203354
1425427274.046,0.79468536
1425427274.062,-5.0555115
1425427274.077,-9.687431
1425427274.093,-12.83094
1425427274.108,-14.601372
1425427274.124,-15.320023
1425427274.14,-15.340927
1425427274.155,-14.930107
1425427274.171,-14.264381
1425427274.187,-13.467316
1425427274.202,-12.706955
1425427274.218,-12.178841
1425427274.233,-12.054932
1425427274.249,-12.361305
1425427274.265,-12.972931
1425427274.28,-13.610764
1425427274.296,-14.005264
1425427274.312,-14.016006
1425427274.327,-13.686394
1425427274.343,-13.186089
1425427274.358,-12.693588
1425427274.374,-12.236725
1425427274.39,-11.692772
1425427274.405,-10.819313
1425427274.421,-9.43927
1425427274.437,-7.581909
1425427274.452,-5.453621
1425427274.468,-3.354782
1425427274.483,-1.5097046
1425427274.499,0.030426025
1425427274.515,1.4445801
1425427274.53,2.9938507
1425427274.546,4.925003
1425427274.562,7.3611984
1425427274.577,10.234756
1425427274.593,13.247627
1425427274.608,15.860847
1425427274.624,17.392166
1425427274.64,17.164482
1425427274.655,14.822235
1425427274.671,10.456795
1425427274.687,4.6902237
1425427274.702,-1.5227661
1425427274.718,-7.1669617
1425427274.733,-11.529442
1425427274.749,-14.371658
1425427274.765,-15.873726
1425427274.78,-16.414803
1425427274.796,-16.297745
1425427274.812,-15.664619
1425427274.827,-14.544304
1425427274.843,-13.023346
1425427274.858,-11.367691
1425427274.874,-9.973114
1425427274.89,-9.179657
1425427274.905,-9.143425
1425427274.921,-9.679153
1425427274.937,-10.407593
1425427274.952,-10.927254
1425427274.968,-11.025681
1425427274.983,-10.717087
1425427274.999,-10.171822
1425427275.015,-9.518555
1425427275.03,-8.715683
1425427275.046,-7.6065674
1425427275.062,-6.0081024
1425427275.077,-3.8898315
1425427275.093,-1.4461365
1425427275.108,0.97943115
1425427275.124,3.0392456
1425427275.14,4.5145264
1425427275.155,5.4582214
1425427275.171,6.151924
1425427275.187,7.037964
1425427275.202,8.518192
1425427275.218,10.81374
1425427275.233,13.837124
1425427275.249,17.188477
1425427275.265,20.236717
1425427275.28,22.246025
1425427275.296,22.600079
1425427275.312,20.959969
1425427275.327,17.402954
1425427275.343,12.398754
1425427275.358,6.700966
1425427275.374,1.1605225
1425427275.39,-3.493515
1425427275.405,-6.8174553
1425427275.421,-8.75386
1425427275.437,-9.534908
1425427275.452,-9.5476
1425427275.468,-9.142929
1425427275.483,-8.581642
1425427275.499,-8.0143585
1425427275.515,-7.5578003
1425427275.53,-7.3413506
1425427275.546,-7.534218
1425427275.562,-8.221508
1425427275.577,-9.337486
1425427275.593,-10.675526
1425427275.608,-11.945606
1425427275.624,-12.863808
1425427275.64,-13.272652
1425427275.655,-13.161594
1425427275.671,-12.634304
1425427275.687,-11.785389
1425427275.702,-10.689724
1425427275.718,-9.355358
1425427275.733,-7.776848
1425427275.749,-5.9991264
1425427275.765,-4.1411133
1425427275.78,-2.3591995
1425427275.796,-0.7342949
1425427275.812,0.7721214
1425427275.827,2.3263168
1425427275.843,4.1583176
1425427275.858,6.461521
1425427275.874,9.325455
1425427275.89,12.676115
1425427275.905,16.243372
1425427275.921,19.584557
1425427275.937,22.113333
1425427275.952,23.204927
1425427275.968,22.374987
1425427275.983,19.485584
1425427275.999,14.827333
1425427276.015,9.157745
1425427276.03,3.4664097
1425427276.046,-1.3367805
1425427276.062,-4.703125
1425427276.077,-6.534195
1425427276.093,-7.094782
1425427276.108,-6.8109875
1425427276.124,-6.062475
1425427276.14,-5.121297
1425427276.155,-4.158883
1425427276.171,-3.3840399
1425427276.187,-3.0237188
1425427276.202,-3.2423105
1425427276.218,-4.067415
1425427276.233,-5.3765316
1425427276.249,-6.8755884
1425427276.265,-8.280495
1425427276.28,-9.4011345
1425427276.296,-10.17235
1425427276.312,-10.624956
1425427276.327,-10.810244
1425427276.343,-10.732033
1425427276.358,-10.301538
1425427276.374,-9.404549
1425427276.39,-7.9612045
1425427276.405,-6.001721
1425427276.421,-3.6631033
1425427276.437,-1.1330398
1425427276.452,1.416901
1425427276.468,3.88006
1425427276.483,6.2487197
1425427276.499,8.591094
1425427276.515,10.989325
1425427276.53,13.52795
1425427276.546,16.237785
1425427276.562,19.073503
1425427276.577,21.830627
1425427276.593,24.186945
1425427276.608,25.640259
1425427276.624,25.685154
1425427276.64,23.925785
1425427276.655,20.339994
1425427276.671,15.3226595
1425427276.687,9.635177
1425427276.702,4.1647234
1425427276.718,-0.33275032
1425427276.734,-3.4670439
1425427276.749,-5.222598
1425427276.765,-5.8618145
1425427276.78,-5.7746754
1425427276.796,-5.2880154
1425427276.812,-4.6119223
1425427276.827,-3.8328695
1425427276.843,-3.0208588
1425427276.859,-2.2623024
1425427276.874,-1.6691704
1425427276.89,-1.3732758
1425427276.905,-1.4203892
1425427276.921,-1.7207565
1425427276.937,-2.04525
1425427276.952,-2.141243
1425427276.968,-1.8075867
1425427276.984,-0.9977875
1425427276.999,0.21559334
1425427277.015,1.7217731
1425427277.03,3.4459858
1425427277.046,5.372278
1425427277.062,7.4716835
1425427277.077,9.577902
1425427277.093,11.411501
1425427277.109,12.663321
1425427277.124,13.21623
1425427277.14,13.196745
1425427277.155,13.024536
1425427277.171,13.182911
1425427277.187,14.038141
1425427277.202,15.633095
1425427277.218,17.690573
1425427277.234,19.689198
1425427277.249,20.999317
1425427277.265,21.052616
1425427277.28,19.41449
1425427277.296,15.949358
1425427277.312,10.854694
1425427277.327,4.69668
1425427277.343,-1.7209301
1425427277.359,-7.5589094
1425427277.374,-12.122498
1425427277.39,-15.078598
1425427277.405,-16.457245
1425427277.421,-16.554968
1425427277.437,-15.740063
1425427277.452,-14.4111185
1425427277.468,-12.87305
1425427277.484,-11.410179
1425427277.499,-10.256614
1425427277.515,-9.571886
1425427277.53,-9.388235
1425427277.546,-9.610572
1425427277.562,-10.031786
1425427277.577,-10.458443
1425427277.593,-10.704861
1425427277.609,-10.669577
1425427277.624,-10.270866
1425427277.64,-9.498574
1425427277.655,-8.368293
1425427277.671,-6.9743395
1425427277.687,-5.4191732
1425427277.702,-3.820055
1425427277.718,-2.2187014
1425427277.734,-0.6116953
1425427277.749,1.0487223
1425427277.765,2.7703495
1425427277.78,4.529525
1425427277.796,6.2956305
1425427277.812,8.089233
1425427277.827,9.979799
1425427277.843,12.039897
1425427277.859,14.220811
1425427277.874,16.258469
1425427277.89,17.68644
1425427277.905,17.955956
1425427277.921,16.673092
1425427277.937,13.75211
1425427277.952,9.418591
1425427277.968,4.1606636
1425427277.984,-1.4191685
1425427277.999,-6.691821
1425427278.015,-11.1287565
1425427278.03,-14.353045
1425427278.046,-16.213545
1425427278.062,-16.749786
1425427278.077,-16.221865
1425427278.093,-14.961984
1425427278.109,-13.350481
1425427278.124,-11.629217
1425427278.14,-9.995238
1425427278.155,-8.532586
1425427278.171,-7.368737
1425427278.187,-6.6328
1425427278.202,-6.434925
1425427278.218,-6.773345
1425427278.234,-7.475733
1425427278.249,-8.256126
1425427278.265,-8.807775
1425427278.28,-8.908791
1425427278.296,-8.448532
1425427278.312,-7.446018
1425427278.327,-5.98376
1425427278.343,-4.1533604
1425427278.359,-2.101633
1425427278.374,0.020784378
1425427278.39,2.0335245
1425427278.405,3.7855062
1425427278.421,5.1861963
1425427278.437,6.309882
1425427278.452,7.3455963
1425427278.468,8.561863
1425427278.484,10.169891
1425427278.499,12.229572
1425427278.515,14.577356
1425427278.53,16.805637
1425427278.546,18.347658
1425427278.562,18.572521
1425427278.577,16.975466
1425427278.593,13.409275
1425427278.609,8.163418
1425427278.624,1.964222
1425427278.64,-4.26318
1425427278.655,-9.608583
1425427278.671,-13.505014
1425427278.687,-15.787001
1425427278.702,-16.672005
1425427278.718,-16.555218
1425427278.734,-15.811773
1425427278.749,-14.6868725
1425427278.765,-13.350847
1425427278.78,-11.954109
1425427278.796,-10.699324
1425427278.812,-9.763287
1425427278.827,-9.251457
1425427278.843,-9.101091
1425427278.859,-9.1235695
1425427278.874,-9.066452
1425427278.89,-8.758049
1425427278.905,-8.125336
1425427278.921,-7.2619267
1425427278.937,-6.292248
1425427278.952,-5.3198814
1425427278.968,-4.4009953
1425427278.984,-3.5189
1425427278.999,-2.623989
1425427279.015,-1.6623039
1425427279.03,-0.61315536
1425427279.046,0.51947784
1425427279.062,1.7356033
1425427279.077,3.0083427
1425427279.093,4.35458
1425427279.109,5.8561172
1425427279.124,7.6391068
1425427279.14,9.853237
1425427279.155,12.581852
1425427279.171,15.638329
1425427279.187,18.599987
1425427279.202,20.76019
1425427279.218,21.412884
1425427279.234,20.06606
1425427279.249,16.719357
1425427279.265,11.876369
1425427279.28,6.422676
1425427279.296,1.2565002
1425427279.312,-2.9593391
1425427279.327,-5.9469185
1425427279.343,-7.781975
1425427279.359,-8.721359
1425427279.374,-9.022263
1425427279.39,-8.815674
1425427279.406,-8.124207
1425427279.421,-6.9918175
1425427279.437,-5.5896835
1425427279.452,-4.1926003
1425427279.468,-3.0907784
1425427279.484,-2.4886208
1425427279.499,-2.357708
1425427279.515,-2.5545158
1425427279.53,-2.8325424
1425427279.546,-3.0257988
1425427279.562,-3.0688362
1425427279.577,-2.9911766
1425427279.593,-2.8064613
1425427279.609,-2.4156342
1425427279.624,-1.682251
1425427279.64,-0.49612808
1425427279.656,1.1605797
1425427279.671,3.1041718
1425427279.687,5.0492706
1425427279.702,6.7311096
1425427279.718,8.022644
1425427279.734,8.990513
1425427279.749,9.8636055
1425427279.765,10.892208
1425427279.781,12.35778
1425427279.796,14.421772
1425427279.812,17.152657
1425427279.827,20.421932
1425427279.843,23.872162
1425427279.859,26.951504
1425427279.874,28.964245
1425427279.89,29.271854
1425427279.906,27.530247
1425427279.921,23.849102
1425427279.937,18.78835
1425427279.952,13.1972275
1425427279.968,7.9596367
1425427279.984,3.7299538
1425427279.999,0.8241272
1425427280.015,-0.8190689
1425427280.031,-1.4764366
1425427280.046,-1.5059509
1425427280.062,-1.1661797
1425427280.077,-0.63887405
1425427280.093,0.0015525818
1425427280.109,0.69638443
1425427280.124,1.356575
1425427280.14,1.7999039
1425427280.156,1.779644
1425427280.171,1.0647774
1425427280.187,-0.5084381
1425427280.202,-2.9672356
1425427280.218,-6.220909
1425427280.234,-10.084709
1425427280.249,-14.358437
1425427280.265,-18.861195
1425427280.281,-23.420761
1425427280.296,-27.911015
1425427280.312,-32.221672
1425427280.327,-36.291153
1425427280.343,-40.04971
1425427280.359,-43.467678
1425427280.374,-46.45404
1425427280.39,-48.872726
1425427280.406,-50.497097
1425427280.421,-51.112038
1425427280.437,-50.556602
1425427280.452,-48.855675
1425427280.468,-46.22915
1425427280.484,-43.112823
1425427280.499,-40.050163
1425427280.515,-37.611305
1425427280.531,-36.275116
1425427280.546,-36.32656
1425427280.562,-37.784233
1425427280.577,-40.38925
1425427280.593,-43.67331
1425427280.609,-47.102936
1425427280.624,-50.23667
1425427280.64,-52.83332
1425427280.656,-54.84452
1425427280.671,-56.335464
1425427280.687,-57.339767
1425427280.702,-57.818596
1425427280.718,-57.676025
1425427280.734,-56.81888
1425427280.749,-55.284775
1425427280.765,-53.244278
1425427280.781,-50.89911
1425427280.796,-48.421646
1425427280.812,-45.836044
1425427280.827,-43.023438
1425427280.843,-39.748337
1425427280.859,-35.792862
1425427280.874,-30.982498
1425427280.89,-25.292694
1425427280.906,-18.778564
1425427280.921,-11.590591
1425427280.937,-3.901062
1425427280.952,4.0493317
1425427280.968,11.967163
1425427280.984,19.49263
1425427280.999,26.271317
1425427281.015,32.017685
1425427281.031,36.654892
1425427281.046,40.34868
1425427281.062,43.476547
1425427281.077,46.503784
1425427281.093,49.806396
1425427281.109,53.510437
1425427281.124,57.44586
1425427281.14,61.102173
1425427281.156,63.81006
1425427281.171,64.881134
1425427281.187,63.82422
1425427281.202,60.520325
1425427281.218,55.30365
1425427281.234,48.919373
1425427281.249,42.349854
1425427281.265,36.486115
1425427281.281,31.921814
1425427281.296,28.757782
1425427281.312,26.724121
1425427281.327,25.33667
1425427281.343,24.219025
1425427281.359,23.238312
1425427281.374,22.484924
1425427281.39,22.141876
1425427281.406,22.307343
1425427281.421,22.85907
1425427281.437,23.488281
1425427281.452,23.826263
1425427281.468,23.557007
1425427281.484,22.55481
1425427281.499,20.89618
1425427281.515,18.779938
1425427281.531,16.48111
1425427281.546,14.274658
1425427281.562,12.350555
1425427281.577,10.849335
1425427281.593,9.843353
1425427281.609,9.324493
1425427281.624,9.276703
1425427281.64,9.648041
1425427281.656,10.340363
1425427281.671,11.272095
1425427281.687,12.368866
1425427281.702,13.6214905
1425427281.718,15.141907
1425427281.734,17.099915
1425427281.749,19.632263
1425427281.765,22.64209
1425427281.781,25.755219
1425427281.796,28.2435
1425427281.812,29.243347
1425427281.827,28.033447
1425427281.843,24.370544
1425427281.859,18.59793
1425427281.874,11.636047
1425427281.89,4.616913
1425427281.906,-1.465332
1425427281.921,-6.0357056
1425427281.937,-9.039001
1425427281.952,-10.791534
1425427281.968,-11.699158
1425427281.984,-12.041565
1425427281.999,-11.94162
1425427282.015,-11.398499
1425427282.031,-10.493591
1425427282.046,-9.427948
1425427282.062,-8.468628
1425427282.078,-7.837158
1425427282.093,-7.4960938
1425427282.109,-7.2450256
1425427282.124,-6.779846
1425427282.14,-5.9339905
1425427282.156,-4.7269897
1425427282.171,-3.3562012
1425427282.187,-2.0316467
1425427282.202,-0.84643555
1425427282.218,0.29589844
1425427282.234,1.6017151
1425427282.249,3.2146912
1425427282.265,5.1088257
1425427282.281,7.087799
1425427282.296,8.912689
1425427282.312,10.415955
1425427282.328,11.611877
1425427282.343,12.709625
1425427282.359,13.971466
1425427282.374,15.656708
1425427282.39,17.848175
1425427282.406,20.43155
1425427282.421,23.033112
1425427282.437,25.092773
1425427282.453,25.973785
1425427282.468,25.16858
1425427282.484,22.503235
1425427282.499,18.212708
1425427282.515,12.959991
1425427282.531,7.5894775
1425427282.546,2.8854065
1425427282.562,-0.66397095
1425427282.578,-2.9592285
1425427282.593,-4.19635
1425427282.609,-4.719818
1425427282.624,-4.789154
1425427282.64,-4.590393
1425427282.656,-4.167755
1425427282.671,-3.562622
1425427282.687,-2.8171692
1425427282.703,-2.0431519
1425427282.718,-1.3685303
1425427282.734,-0.87994385
1425427282.749,-0.6026306
1425427282.765,-0.48632813
1425427282.781,-0.42160034
1425427282.796,-0.2810974
1425427282.812,0.036743164
1425427282.828,0.58703613
1425427282.843,1.4023132
1425427282.859,2.4608765
1425427282.874,3.7341309
1425427282.89,5.1558533
1425427282.906,6.667328
1425427282.921,8.161011
1425427282.937,9.595764
1425427282.953,10.969482
1425427282.968,12.401306
1425427282.984,14.047577
1425427282.999,16.107727
1425427283.015,18.701141
1425427283.031,21.812866
1425427283.046,25.223816
1425427283.062,28.53064
1425427283.078,31.168549
1425427283.093,32.489716
1425427283.109,31.94165
1425427283.124,29.25354
1425427283.14,24.553986
1425427283.156,18.418976
1425427283.171,11.736816
1425427283.187,5.447693
1425427283.203,0.30569458
1425427283.218,-3.361023
1425427283.234,-5.5980835
1425427283.249,-6.771637
1425427283.265,-7.3143005
1425427283.281,-7.540436
1425427283.296,-7.563751
1425427283.312,-7.335785
1425427283.328,-6.8156433
1425427283.343,-6.022461
1425427283.359,-5.111908
1425427283.374,-4.3372498
1425427283.39,-3.9152222
1425427283.406,-3.9039001
1425427283.421,-4.2091064
1425427283.437,-4.599762
1425427283.453,-4.841034
1425427283.468,-4.7770386
1425427283.484,-4.3834534
1425427283.499,-3.6963196
1425427283.515,-2.7781677
1425427283.531,-1.6796875
1425427283.546,-0.43945313
1425427283.562,0.8852539
1425427283.578,2.1906433
1425427283.593,3.383484
1425427283.609,4.4048767
1425427283.624,5.3524475
1425427283.64,6.392761
1425427283.656,7.770172
1425427283.671,9.6510315
1425427283.687,12.030823
1425427283.703,14.632294
1425427283.718,16.895569
1425427283.734,18.158997
1425427283.749,17.828491
1425427283.765,15.597473
1425427283.781,11.570709
1425427283.796,6.2833557
1425427283.812,0.5368042
1425427283.828,-4.799469
1425427283.843,-9.098236
1425427283.859,-12.080719
1425427283.874,-13.864655
1425427283.89,-14.799194
1425427283.906,-15.279053
1425427283.921,-15.519379
1425427283.937,-15.533417
1425427283.953,-15.223755
1425427283.968,-14.54129
1425427283.984,-13.624847
1425427283.999,-12.758179
1425427284.015,-12.280853
1425427284.031,-12.345856
1425427284.046,-12.887726
1425427284.062,-13.570007
1425427284.078,-13.992065
1425427284.093,-13.815704
1425427284.109,-12.946991
1425427284.124,-11.510803
1425427284.14,-9.744812
1425427284.156,-7.9022827
1425427284.171,-6.0830994
1425427284.187,-4.28302
1425427284.203,-2.3906555
1425427284.218,-0.32873535
1425427284.234,1.8992615
1425427284.249,4.2188416
1425427284.265,6.5333557
1425427284.281,8.836578
1425427284.296,11.193359
1425427284.312,13.720032
1425427284.328,16.401001
1425427284.343,18.95337
1425427284.359,20.828491
1425427284.374,21.300507
1425427284.39,19.791992
1425427284.406,16.117828
1425427284.421,10.664703
1425427284.437,4.278076
1425427284.453,-1.9839783
1425427284.468,-7.185089
1425427284.484,-10.823456
1425427284.499,-12.889923
1425427284.515,-13.753784
1425427284.531,-13.878967
1425427284.546,-13.650696
1425427284.562,-13.239838
1425427284.578,-12.705536
1425427284.593,-12.066315
1425427284.609,-11.427307
1425427284.624,-10.964447
1425427284.64,-10.8237
1425427284.656,-11.042847
1425427284.671,-11.506378
1425427284.687,-11.977631
1425427284.703,-12.212372
1425427284.718,-12.028656
1425427284.734,-11.370209
1425427284.749,-10.248718
1425427284.765,-8.76297
1425427284.781,-6.974365
1425427284.796,-4.9587097
1425427284.812,-2.7803345
1425427284.828,-0.54733276
1425427284.843,1.5825806
1425427284.859,3.4173584
1425427284.874,4.8282166
1425427284.89,5.8320313
1425427284.906,6.647766
1425427284.921,7.6324463
1425427284.937,9.16333
1425427284.953,11.439453
1425427284.968,14.331512
1425427284.984,17.34076
1425427285,19.71936
1425427285.015,20.661224
1425427285.031,19.614746
1425427285.046,16.403778
1425427285.062,11.369446
1425427285.078,5.2072144
1425427285.093,-1.1358337
1425427285.109,-6.7293396
1425427285.125,-10.909119
1425427285.14,-13.4375
1425427285.156,-14.475525
1425427285.171,-14.520081
1425427285.187,-14.089325
1425427285.203,-13.58905
1425427285.218,-13.200287
1425427285.234,-12.941803
1425427285.25,-12.761749
1425427285.265,-12.648651
1425427285.281,-12.64447
1425427285.296,-12.831909
1425427285.312,-13.269379
1425427285.328,-13.9505005
1425427285.343,-14.8316345
1425427285.359,-15.843964
1425427285.375,-16.872742
1425427285.39,-17.729004
1425427285.406,-18.079956
1425427285.421,-17.538727
1425427285.437,-15.771912
1425427285.453,-12.68454
1425427285.468,-8.490143
1425427285.484,-3.6938171
1425427285.5,1.0696106
1425427285.515,5.22818
1425427285.531,8.476501
1425427285.546,10.824371
1425427285.562,12.560242
1425427285.578,14.111298
1425427285.593,15.86969
1425427285.609,18.141663
1425427285.625,21.038605
1425427285.64,24.419556
1425427285.656,27.900665
1425427285.671,30.834167
1425427285.687,32.43399
1425427285.703,31.972076
1425427285.718,29.100494
1425427285.734,23.99884
1425427285.75,17.417084
1425427285.765,10.4045105
1425427285.781,3.9759521
1425427285.796,-1.1980896
1425427285.812,-4.921112
1425427285.828,-7.4066772
1425427285.843,-9.044922
1425427285.859,-10.17041
1425427285.875,-10.983337
1425427285.89,-11.550873
1425427285.906,-11.875732
1425427285.921,-12.018005
1425427285.937,-12.017242
1425427285.953,-11.962189
1425427285.968,-11.877197
1425427285.984,-11.733734
1425427286,-11.402344
1425427286.015,-10.826874
1425427286.031,-10.000763
1425427286.046,-9.077576
1425427286.062,-8.230316
1425427286.078,-7.5569153
1425427286.093,-6.956848
1425427286.109,-6.139099
1425427286.125,-4.730133
1425427286.14,-2.4844666
1425427286.156,0.5447998
1425427286.171,4.0479126
1425427286.187,7.5412292
1425427286.203,10.610931
1425427286.218,13.0486145
1425427286.234,14.879547
1425427286.25,16.350525
1425427286.265,17.793945
1425427286.281,19.569366
1425427286.296,21.90097
1425427286.312,24.843018
1425427286.328,28.10437
1425427286.343,31.039581
1425427286.359,32.772125
1425427286.375,32.47406
1425427286.39,29.693665
1425427286.406,24.580109
1425427286.421,17.847076
1425427286.437,10.5651245
1425427286.453,3.758484
1425427286.468,-1.8728638
1425427286.484,-6.0827637
1425427286.5,-8.958313
1425427286.515,-10.814728
1425427286.531,-11.899078
1425427286.546,-12.388123
1425427286.562,-12.386993
1425427286.578,-12.024689
1425427286.593,-11.460846
1425427286.609,-10.911316
1425427286.625,-10.572601
1425427286.64,-10.567017
1425427286.656,-10.884094
1425427286.671,-11.378357
1425427286.687,-11.843445
1425427286.703,-12.07193
1425427286.718,-11.908569
1425427286.734,-11.283142
1425427286.75,-10.219147
1425427286.765,-8.782013
1425427286.781,-7.049591
1425427286.796,-5.1382446
1425427286.812,-3.1547241
1425427286.828,-1.2242432
1425427286.843,0.49353027
1425427286.859,1.8912964
1425427286.875,2.9463196
1425427286.89,3.7415466
1425427286.906,4.498474
1425427286.921,5.4911804
1425427286.937,6.979767
1425427286.953,9.0876465
1425427286.968,11.695465
1425427286.984,14.352875
1425427287,16.439575
1425427287.015,17.21576
1425427287.031,16.125397
1425427287.046,12.967651
1425427287.062,8.058502
1425427287.078,2.114502
1425427287.093,-3.8864746
1425427287.109,-9.0589905
1425427287.125,-12.797699
1425427287.14,-14.92453
1425427287.156,-15.631409
1425427287.171,-15.327576
1425427287.187,-14.44371
1425427287.203,-13.2973175
1425427287.218,-12.081299
1425427287.234,-10.876251
1425427287.25,-9.73407
1425427287.265,-8.739487
1425427287.281,-8.010666
1425427287.296,-7.6970825
1425427287.312,-7.8975067
1425427287.328,-8.586563
1425427287.343,-9.639114
1425427287.359,-10.863373
1425427287.375,-12.059982
1425427287.39,-13.095093
1425427287.406,-13.848099
1425427287.421,-14.209839
1425427287.437,-14.035233
1425427287.453,-13.213013
1425427287.468,-11.717361
1425427287.484,-9.686615
1425427287.5,-7.433777
1425427287.515,-5.2867737
1425427287.531,-3.460022
1425427287.546,-1.9406891
1425427287.562,-0.4571228
1425427287.578,1.3258057
1425427287.593,3.671341
1425427287.609,6.5804443
1425427287.625,9.695877
1425427287.64,12.347458
1425427287.656,13.751099
1425427287.672,13.1749115
1425427287.687,10.215317
1425427287.703,4.959839
1425427287.718,-1.9738159
1425427287.734,-9.569916
1425427287.75,-16.653336
1425427287.765,-22.335846
1425427287.781,-26.166245
1425427287.797,-28.22493
1425427287.812,-28.947433
1425427287.828,-28.824509
1425427287.843,-28.194275
1425427287.859,-27.17218
1425427287.875,-25.72667
1425427287.89,-23.87796
1425427287.906,-21.745895
1425427287.922,-19.570404
1425427287.937,-17.586197
1425427287.953,-15.937073
1425427287.968,-14.604858
1425427287.984,-13.45929
1425427288,-12.311966
1425427288.015,-11.026657
1425427288.031,-9.498764
1425427288.047,-7.7515106
1425427288.062,-5.839691
1425427288.078,-3.8501434
1425427288.093,-1.8633423
1425427288.109,0.09529114
1425427288.125,2.0823364
1425427288.14,4.166107
1425427288.156,6.473282
1425427288.172,9.05957
1425427288.187,11.929153
1425427288.203,15.084183
1425427288.218,18.57724
1425427288.234,22.414871
1425427288.25,26.538574
1425427288.265,30.621902
1425427288.281,34.052917
1425427288.297,36.00061
1425427288.312,35.73233
