1434411783.452,0.0
1434411783.467,0.0
1434411783.483,0.0
1434411783.499,0.0
1434411783.514,0.0
1434411783.53,0.0
1434411783.545,0.0
1434411783.561,0.0
1434411783.577,0.0
1434411783.592,0.0022315353
1434411783.608,-0.0045169927
1434411783.624,-0.011265522
1434411783.639,-0.011383951
1434411783.655,0.0011864507
1434411783.67,0.025910312
1434411783.686,0.050634187
1434411783.702,0.051362894
1434411783.717,-0.0014929791
1434411783.733,-0.1302426
1434411783.749,-0.35562757
1434411783.764,-0.6591247
1434411783.78,-1.0095103
1434411783.795,-1.3709826
1434411783.811,-1.7197359
1434411783.827,-2.0551105
1434411783.842,-2.39945
1434411783.858,-2.7866635
1434411783.874,-3.2399073
1434411783.889,-3.796012
1434411783.905,-4.418684
1434411783.92,-5.0592937
1434411783.936,-5.6644096
1434411783.952,-6.2021537
1434411783.967,-6.6808796
1434411783.983,-7.149598
1434411783.999,-7.6782336
1434411784.014,-8.310739
1434411784.03,-9.143657
1434411784.045,-10.089731
1434411784.061,-11.041313
1434411784.077,-11.8842125
1434411784.092,-12.564316
1434411784.108,-13.13563
1434411784.124,-13.760044
1434411784.139,-14.65232
1434411784.155,-15.962056
1434411784.17,-17.914442
1434411784.186,-20.317299
1434411784.202,-22.903854
1434411784.217,-25.37947
1434411784.233,-27.578028
1434411784.249,-29.57246
1434411784.264,-31.675173
1434411784.28,-34.3178
1434411784.295,-37.813618
1434411784.311,-42.541233
1434411784.327,-48.1463
1434411784.342,-54.104755
1434411784.358,-59.83309
1434411784.374,-64.972374
1434411784.389,-69.58293
1434411784.405,-74.14353
1434411784.42,-79.344986
1434411784.436,-85.70726
1434411784.452,-93.76193
1434411784.467,-102.99779
1434411784.483,-112.61757
1434411784.499,-121.73034
1434411784.514,-129.76602
1434411784.53,-136.75102
1434411784.545,-143.30344
1434411784.561,-150.74623
1434411784.577,-157.77356
1434411784.592,-166.64323
1434411784.608,-177.94798
1434411784.624,-191.79102
1434411784.639,-206.96808
1434411784.655,-220.56592
1434411784.67,-228.24644
1434411784.686,-225.36151
1434411784.702,-208.53194
1434411784.717,-176.87027
1434411784.733,-132.76256
1434411784.749,-80.05089
1434411784.764,-23.07071
1434411784.78,34.942047
1434411784.795,92.43683
1434411784.811,149.15915
1434411784.827,205.2319
1434411784.842,260.37274
1434411784.858,313.738
1434411784.874,363.85944
1434411784.889,409.80838
1434411784.905,450.88187
1434411784.92,486.49576
1434411784.936,515.77625
1434411784.952,537.3308
1434411784.967,549.3977
1434411784.983,550.20386
1434411784.999,538.65015
1434411785.014,514.50073
1434411785.03,478.96225
1434411785.046,434.1607
1434411785.061,382.74582
1434411785.077,327.36084
1434411785.092,270.25534
1434411785.108,213.13095
1434411785.124,157.22507
1434411785.139,103.55069
1434411785.155,52.96472
1434411785.17,6.4664917
1434411785.186,-35.03528
1434411785.202,-70.84723
1434411785.217,-100.66763
1434411785.233,-124.64807
1434411785.249,-143.33517
1434411785.264,-157.49422
1434411785.28,-167.88051
1434411785.296,-175.1249
1434411785.311,-179.5777
1434411785.327,-181.4327
1434411785.342,-180.82368
1434411785.358,-177.96869
1434411785.374,-173.23706
1434411785.389,-167.13756
1434411785.405,-160.22894
1434411785.421,-152.97191
1434411785.436,-145.6395
1434411785.452,-138.26733
1434411785.467,-130.73264
1434411785.483,-122.86148
1434411785.499,-114.58402
1434411785.514,-106.00812
1434411785.53,-97.41204
1434411785.546,-89.15805
1434411785.561,-81.531624
1434411785.577,-74.6205
1434411785.592,-68.261024
1434411785.608,-62.1213
1434411785.624,-55.84251
1434411785.639,-49.236553
1434411785.655,-42.38681
1434411785.671,-35.631096
1434411785.686,-29.415993
1434411785.702,-24.072483
1434411785.717,-19.69251
1434411785.733,-16.064425
1434411785.749,-12.80124
1434411785.764,-9.489869
1434411785.78,-5.825073
1434411785.796,-1.6240773
1434411785.811,3.1701102
1434411785.827,8.365173
1434411785.842,13.371861
1434411785.858,17.11913
1434411785.874,18.268314
1434411785.889,15.711341
1434411785.905,9.222766
1434411785.921,-0.19296074
1434411785.936,-10.524826
1434411785.952,-19.482685
1434411785.967,-25.44809
1434411785.983,-28.099054
1434411785.999,-28.273314
1434411786.014,-27.391514
1434411786.03,-26.58358
1434411786.046,-26.234854
1434411786.061,-26.04313
1434411786.077,-25.51202
1434411786.092,-24.403873
1434411786.108,-22.888409
1434411786.124,-21.38134
1434411786.139,-20.171444
1434411786.155,-19.2701
1434411786.171,-18.410522
1434411786.186,-17.26696
1434411786.202,-15.661888
1434411786.217,-13.692005
1434411786.233,-11.680599
1434411786.249,-9.98624
1434411786.264,-8.867741
1434411786.28,-8.331257
1434411786.296,-8.164955
1434411786.311,-7.9909782
1434411786.327,-7.4594994
1434411786.342,-6.4059753
1434411786.358,-4.935417
1434411786.374,-3.4083138
1434411786.389,-2.1841965
1434411786.405,-1.5418282
1434411786.421,-1.4431534
1434411786.436,-1.6493225
1434411786.452,-1.798584
1434411786.467,-1.6375618
1434411786.483,-1.133503
1434411786.499,-0.36398697
1434411786.514,0.50113297
1434411786.53,1.3267059
1434411786.546,2.0190582
1434411786.561,2.4964714
1434411786.577,2.7041855
1434411786.592,2.5916061
1434411786.608,2.2151756
1434411786.624,1.7051125
1434411786.639,1.2828064
1434411786.655,1.1162415
1434411786.671,1.2744484
1434411786.686,1.6872215
1434411786.702,2.2262726
1434411786.717,2.7431412
1434411786.733,3.1846619
1434411786.749,3.558239
1434411786.764,3.88443
1434411786.78,4.170765
1434411786.796,4.363571
1434411786.811,4.4037743
1434411786.827,4.31184
1434411786.842,4.199539
1434411786.858,4.1843376
1434411786.874,4.250351
1434411786.889,4.2711143
1434411786.905,3.9404144
1434411786.921,3.0094109
1434411786.936,1.4197311
1434411786.952,-0.57258606
1434411786.967,-2.513214
1434411786.983,-3.955288
1434411786.999,-4.6687355
1434411787.014,-4.726349
1434411787.03,-4.4001865
1434411787.046,-3.992714
1434411787.061,-3.6782684
1434411787.077,-3.4320812
1434411787.092,-3.1716518
1434411787.108,-2.803278
1434411787.124,-2.3520184
1434411787.139,-1.8880367
1434411787.155,-1.4918289
1434411787.171,-1.1760693
1434411787.186,-0.92139816
1434411787.202,-0.6691284
1434411787.217,-0.37407494
1434411787.233,-0.025398254
1434411787.249,0.33943558
1434411787.264,0.65930176
1434411787.28,0.865572
1434411787.296,0.9205227
1434411787.311,0.84278107
1434411787.327,0.73854256
1434411787.342,0.75139236
1434411787.358,1.0020123
1434411787.374,1.4839802
1434411787.389,2.0799007
1434411787.405,2.6022816
1434411787.421,2.908474
1434411787.436,2.9566784
1434411787.452,2.8532295
1434411787.467,2.7677956
1434411787.483,2.846609
1434411787.499,3.1072235
1434411787.514,3.4732895
1434411787.53,3.8105984
1434411787.546,4.027088
1434411787.561,4.12801
1434411787.577,4.2211227
1434411787.592,4.409008
1434411787.608,4.773588
1434411787.624,5.2445316
1434411787.639,5.6936264
1434411787.655,6.0141945
1434411787.671,6.187561
1434411787.686,6.281702
1434411787.702,6.4231377
1434411787.717,6.710846
1434411787.733,7.140766
1434411787.749,7.6176167
1434411787.764,8.030157
1434411787.78,8.277544
1434411787.796,8.353193
1434411787.811,8.215927
1434411787.827,7.785265
1434411787.842,6.896389
1434411787.858,5.397522
1434411787.874,3.2109318
1434411787.889,0.46030045
1434411787.905,-2.5800781
1434411787.921,-5.530245
1434411787.936,-8.065502
1434411787.952,-9.971842
1434411787.968,-11.229849
1434411787.983,-11.927568
1434411787.999,-12.242525
1434411788.014,-12.37285
1434411788.03,-12.506468
1434411788.046,-12.740883
1434411788.061,-13.1273575
1434411788.077,-13.598846
1434411788.093,-14.0642605
1434411788.108,-14.391306
1434411788.124,-14.575136
1434411788.139,-14.652184
1434411788.155,-14.709152
1434411788.171,-14.809896
1434411788.186,-14.963913
1434411788.202,-15.1276245
1434411788.218,-15.262442
1434411788.233,-15.354187
1434411788.249,-15.401411
1434411788.264,-15.343256
1434411788.28,-15.049522
1434411788.296,-14.318445
1434411788.311,-13.010664
1434411788.327,-11.080458
1434411788.343,-8.6534
1434411788.358,-5.96867
1434411788.374,-3.1918087
1434411788.389,-0.46994781
1434411788.405,2.0704021
1434411788.421,4.3842087
1434411788.436,6.428522
1434411788.452,8.202436
1434411788.468,9.70156
1434411788.483,10.955946
1434411788.499,11.982069
1434411788.514,12.780781
1434411788.53,13.293527
1434411788.546,13.536791
1434411788.561,13.513689
1434411788.577,13.314181
1434411788.593,12.988984
1434411788.608,12.586422
1434411788.624,12.077343
1434411788.639,11.445848
1434411788.655,10.719468
1434411788.671,9.94437
1434411788.686,9.187791
1434411788.702,8.492275
1434411788.718,7.8560047
1434411788.733,7.301832
1434411788.749,6.8577733
1434411788.764,6.615155
1434411788.78,6.660305
1434411788.796,6.985654
1434411788.811,7.4239645
1434411788.827,7.722976
1434411788.843,7.5412617
1434411788.858,6.628998
1434411788.874,4.920764
1434411788.889,2.5587442
1434411788.905,-0.13795614
1434411788.921,-2.7407646
1434411788.936,-4.835876
1434411788.952,-6.0979357
1434411788.968,-6.4435573
1434411788.983,-6.0160756
1434411788.999,-5.169335
1434411789.014,-4.35635
1434411789.03,-3.9127846
1434411789.046,-3.9597096
1434411789.061,-4.4112806
1434411789.077,-5.0133467
1434411789.093,-5.504795
1434411789.108,-5.7374654
1434411789.124,-5.7372274
1434411789.139,-5.652442
1434411789.155,-5.661814
1434411789.171,-5.8481035
1434411789.186,-6.189475
1434411789.202,-6.547893
1434411789.218,-6.818106
1434411789.233,-6.944913
1434411789.249,-6.9949145
1434411789.264,-7.0805545
1434411789.28,-7.2643538
1434411789.296,-7.493187
1434411789.311,-7.6353893
1434411789.327,-7.5148745
1434411789.343,-7.0471
1434411789.358,-6.399379
1434411789.374,-5.8056316
1434411789.389,-5.479871
1434411789.405,-5.480131
1434411789.421,-5.682501
1434411789.436,-5.8401213
1434411789.452,-5.707695
1434411789.468,-5.1820374
1434411789.483,-4.3465557
1434411789.499,-3.3949184
1434411789.514,-2.4860325
1434411789.53,-1.6988068
1434411789.546,-0.9800854
1434411789.561,-0.23046112
1434411789.577,0.64749527
1434411789.593,1.6876698
1434411789.608,2.863762
1434411789.624,4.1027412
1434411789.639,5.313774
1434411789.655,6.411642
1434411789.671,7.3238354
1434411789.686,8.001812
1434411789.702,8.474426
1434411789.718,8.852446
1434411789.733,9.336802
1434411789.749,10.169643
1434411789.764,11.558746
1434411789.78,13.575571
1434411789.796,16.079428
1434411789.811,18.670008
1434411789.827,20.77846
1434411789.843,21.794907
1434411789.858,21.316212
1434411789.874,19.268791
1434411789.889,15.944893
1434411789.905,11.89378
1434411789.921,7.722069
1434411789.936,3.904251
1434411789.952,0.7027359
1434411789.968,-1.829071
1434411789.983,-3.7222252
1434411789.999,-5.0580025
1434411790.014,-5.889679
1434411790.03,-6.3050117
1434411790.046,-6.437294
1434411790.061,-6.5092545
1434411790.077,-6.7393417
1434411790.093,-7.28302
1434411790.108,-8.149681
1434411790.124,-9.234604
1434411790.139,-10.355175
1434411790.155,-11.34927
1434411790.171,-12.136997
1434411790.186,-12.714897
1434411790.202,-13.093323
1434411790.218,-13.296761
1434411790.233,-13.296101
1434411790.249,-13.0564995
1434411790.264,-12.557613
1434411790.28,-11.847599
1434411790.296,-11.003521
1434411790.311,-10.109985
1434411790.327,-9.1800995
1434411790.343,-8.198673
1434411790.358,-7.1065216
1434411790.374,-5.887535
1434411790.389,-4.589943
1434411790.405,-3.3202286
1434411790.421,-2.1932297
1434411790.436,-1.3012047
1434411790.452,-0.6687126
1434411790.468,-0.28663254
1434411790.483,-0.06297684
1434411790.499,0.10449219
1434411790.514,0.35165405
1434411790.53,0.7908058
1434411790.546,1.529522
1434411790.561,2.5832825
1434411790.577,3.887886
1434411790.593,5.3251305
1434411790.608,6.800316
1434411790.624,8.225193
1434411790.64,9.560993
1434411790.655,10.787235
1434411790.671,11.911072
1434411790.686,12.968563
1434411790.702,14.046883
1434411790.718,15.229107
1434411790.733,16.516335
1434411790.749,17.736786
1434411790.765,18.589165
1434411790.78,18.680393
1434411790.796,17.748024
1434411790.811,15.755325
1434411790.827,12.953423
1434411790.843,9.760803
1434411790.858,6.639618
1434411790.874,3.9129105
1434411790.89,1.7216187
1434411790.905,0.027748108
1434411790.921,-1.2680969
1434411790.936,-2.3014145
1434411790.952,-3.1703033
1434411790.968,-3.9543228
1434411790.983,-4.6525574
1434411790.999,-5.2181168
1434411791.015,-5.5745544
1434411791.03,-5.70121
1434411791.046,-5.675392
1434411791.061,-5.664566
1434411791.077,-5.871826
1434411791.093,-6.426758
1434411791.108,-7.288559
1434411791.124,-8.268356
1434411791.14,-9.088524
1434411791.155,-9.530014
1434411791.171,-9.485878
1434411791.186,-9.019676
1434411791.202,-8.30513
1434411791.218,-7.5306473
1434411791.233,-6.8073883
1434411791.249,-6.167282
1434411791.265,-5.5473022
1434411791.28,-4.8822174
1434411791.296,-4.1341553
1434411791.311,-3.344345
1434411791.327,-2.6118393
1434411791.343,-2.0452042
1434411791.358,-1.6858673
1434411791.374,-1.4560242
1434411791.39,-1.1529465
1434411791.405,-0.5616455
1434411791.421,0.4595337
1434411791.436,1.876976
1434411791.452,3.499588
1434411791.468,5.0423126
1434411791.483,6.282593
1434411791.499,7.124588
1434411791.515,7.6632767
1434411791.53,8.121407
1434411791.546,8.751633
1434411791.561,9.780899
1434411791.577,11.310661
1434411791.593,13.336441
1434411791.608,15.761215
1434411791.624,18.404
1434411791.64,21.03186
1434411791.655,23.328583
1434411791.671,24.939758
1434411791.686,25.50711
1434411791.702,24.801064
1434411791.718,22.779388
1434411791.733,19.660759
1434411791.749,15.852333
1434411791.765,11.85891
1434411791.78,8.119362
1434411791.796,4.918495
1434411791.811,2.36969
1434411791.827,0.46017456
1434411791.843,-0.9059067
1434411791.858,-1.8363571
1434411791.874,-2.4969711
1434411791.89,-3.0781174
1434411791.905,-3.7866745
1434411791.921,-4.739418
1434411791.936,-5.938881
1434411791.952,-7.2507324
1434411791.968,-8.517876
1434411791.983,-9.643555
1434411791.999,-10.661392
1434411792.015,-11.659538
1434411792.03,-12.701103
1434411792.046,-13.712547
1434411792.061,-14.492233
1434411792.077,-14.827797
1434411792.093,-14.625526
1434411792.108,-13.972893
1434411792.124,-13.109528
1434411792.14,-12.29599
1434411792.155,-11.682747
1434411792.171,-11.252541
1434411792.186,-10.863655
1434411792.202,-10.316147
1434411792.218,-9.480988
1434411792.233,-8.315689
1434411792.249,-6.860939
1434411792.265,-5.2159576
1434411792.28,-3.5077362
1434411792.296,-1.873352
1434411792.311,-0.48133087
1434411792.327,0.5496826
1434411792.343,1.1890411
1434411792.358,1.5673218
1434411792.374,1.9227676
1434411792.39,2.5659409
1434411792.405,3.6746597
1434411792.421,5.2626343
1434411792.436,7.147644
1434411792.452,9.039757
1434411792.468,10.694733
1434411792.483,12.055038
1434411792.499,13.232361
1434411792.515,14.485252
1434411792.53,16.04129
1434411792.546,18.015427
1434411792.561,20.34349
1434411792.577,22.809067
1434411792.593,25.11692
1434411792.608,26.942848
1434411792.624,27.987648
1434411792.64,28.01683
1434411792.655,26.859657
1434411792.671,24.482346
1434411792.686,20.988945
1434411792.702,16.674637
1434411792.718,11.976006
1434411792.733,7.395111
1434411792.749,3.3882446
1434411792.765,0.2574234
1434411792.78,-1.9335175
1434411792.796,-3.3338318
1434411792.811,-4.233116
1434411792.827,-4.9214478
1434411792.843,-5.609646
1434411792.858,-6.342411
1434411792.874,-7.0733566
1434411792.89,-7.6898537
1434411792.905,-8.175823
1434411792.921,-8.578732
1434411792.936,-9.02475
1434411792.952,-9.633591
1434411792.968,-10.483475
1434411792.983,-11.535564
1434411792.999,-12.697144
1434411793.015,-13.828739
1434411793.03,-14.771111
1434411793.046,-15.376614
1434411793.061,-15.549
1434411793.077,-15.260063
1434411793.093,-14.577358
1434411793.108,-13.625851
1434411793.124,-12.578953
1434411793.14,-11.570599
1434411793.155,-10.692837
1434411793.171,-9.961079
1434411793.186,-9.347454
1434411793.202,-8.791351
1434411793.218,-8.227688
1434411793.233,-7.5853004
1434411793.249,-6.841728
1434411793.265,-5.9734383
1434411793.28,-4.9908447
1434411793.296,-3.9600067
1434411793.312,-2.925724
1434411793.327,-1.9329834
1434411793.343,-0.98153305
1434411793.358,-0.012077332
1434411793.374,1.0644798
1434411793.39,2.3748245
1434411793.405,3.9890099
1434411793.421,5.966629
1434411793.437,8.280388
1434411793.452,10.867413
1434411793.468,13.591461
1434411793.483,16.309494
1434411793.499,18.89751
1434411793.515,21.334728
1434411793.53,23.663338
1434411793.546,25.970142
1434411793.562,28.26997
1434411793.577,30.420643
1434411793.593,32.086277
1434411793.608,32.820625
1434411793.624,32.204903
1434411793.64,30.04127
1434411793.655,26.4339
1434411793.671,21.805035
1434411793.687,16.771385
1434411793.702,11.973398
1434411793.718,7.8571587
1434411793.733,4.6368656
1434411793.749,2.2341938
1434411793.765,0.4066925
1434411793.78,-1.1481438
1434411793.796,-2.6807156
1434411793.812,-4.2703056
1434411793.827,-5.859744
1434411793.843,-7.2951345
1434411793.858,-8.439112
1434411793.874,-9.314756
1434411793.89,-10.068692
1434411793.905,-10.903465
1434411793.921,-11.971457
1434411793.937,-13.272902
1434411793.952,-14.6639595
1434411793.968,-15.976482
1434411793.983,-17.08739
1434411793.999,-17.987246
1434411794.015,-18.721218
1434411794.03,-19.320505
1434411794.046,-19.72817
1434411794.062,-19.832415
1434411794.077,-19.526325
1434411794.093,-18.77686
1434411794.108,-17.654154
1434411794.124,-16.313114
1434411794.14,-14.886111
1434411794.155,-13.49576
1434411794.171,-12.192503
1434411794.187,-10.986634
1434411794.202,-9.827807
1434411794.218,-8.659168
1434411794.233,-7.3980865
1434411794.249,-5.960307
1434411794.265,-4.2800884
1434411794.28,-2.3316898
1434411794.296,-0.13937187
1434411794.312,2.2291737
1434411794.327,4.659937
1434411794.343,7.019638
1434411794.358,9.1893425
1434411794.374,11.061089
1434411794.39,12.610647
1434411794.405,13.922293
1434411794.421,15.203386
1434411794.437,16.7171
1434411794.452,18.732035
1434411794.468,21.336082
1434411794.483,24.3964
1434411794.499,27.497845
1434411794.515,30.026264
1434411794.53,31.373276
1434411794.546,31.084858
1434411794.562,29.010933
1434411794.577,25.376019
1434411794.593,20.6781
1434411794.608,15.532623
1434411794.624,10.489548
1434411794.64,5.9881325
1434411794.655,2.245308
1434411794.671,-0.6907501
1434411794.687,-2.9361572
1434411794.702,-4.6946907
1434411794.718,-6.2553864
1434411794.733,-7.8681602
1434411794.749,-9.704323
1434411794.765,-11.801796
1434411794.78,-14.034451
1434411794.796,-16.202175
1434411794.812,-18.087719
1434411794.827,-19.567265
1434411794.843,-20.65504
1434411794.858,-21.483707
1434411794.874,-22.230183
1434411794.89,-23.020782
1434411794.905,-23.869396
1434411794.921,-24.631634
1434411794.937,-25.125107
1434411794.952,-25.164001
1434411794.968,-24.712143
1434411794.983,-23.827713
1434411794.999,-22.684753
1434411795.015,-21.47316
1434411795.03,-20.298378
1434411795.046,-19.151993
1434411795.062,-17.969803
1434411795.077,-16.67598
1434411795.093,-15.244308
1434411795.108,-13.718613
1434411795.124,-12.186134
1434411795.14,-10.708839
1434411795.155,-9.332619
1434411795.171,-8.025833
1434411795.187,-6.7594757
1434411795.202,-5.460556
1434411795.218,-4.080475
1434411795.233,-2.5579758
1434411795.249,-0.8650589
1434411795.265,1.012619
1434411795.28,3.0633545
1434411795.296,5.269043
1434411795.312,7.60376
1434411795.327,10.038795
1434411795.343,12.532196
1434411795.358,15.08326
1434411795.374,17.73539
1434411795.39,20.582664
1434411795.405,23.681023
1434411795.421,26.975777
1434411795.437,30.151474
1434411795.452,32.65925
1434411795.468,33.849274
1434411795.483,33.21061
1434411795.499,30.56504
1434411795.515,26.182602
1434411795.53,20.662521
1434411795.546,14.756622
1434411795.562,9.108765
1434411795.577,4.140877
1434411795.593,0.0022659302
1434411795.608,-3.3366394
1434411795.624,-5.9987793
1434411795.64,-8.104332
1434411795.655,-9.791382
1434411795.671,-11.181831
1434411795.687,-12.411751
1434411795.702,-13.592133
1434411795.718,-14.828545
1434411795.733,-16.159592
1434411795.749,-17.555428
1434411795.765,-18.91703
1434411795.78,-20.141556
1434411795.796,-21.132416
1434411795.812,-21.878944
1434411795.827,-22.445213
1434411795.843,-22.911858
1434411795.858,-23.322441
1434411795.874,-23.619705
1434411795.89,-23.681503
1434411795.905,-23.390205
1434411795.921,-22.714485
1434411795.937,-21.76416
1434411795.952,-20.71643
1434411795.968,-19.72882
1434411795.984,-18.828705
1434411795.999,-17.927567
1434411796.015,-16.852577
1434411796.03,-15.504013
1434411796.046,-13.898575
1434411796.062,-12.192856
1434411796.077,-10.553413
1434411796.093,-9.063568
1434411796.108,-7.6500244
1434411796.124,-6.154892
1434411796.14,-4.4196396
1434411796.155,-2.417305
1434411796.171,-0.26872253
1434411796.187,1.7823257
1434411796.202,3.5275955
1434411796.218,4.852745
1434411796.234,5.8099213
1434411796.249,6.637512
1434411796.265,7.69014
1434411796.28,9.3186035
1434411796.296,11.769012
1434411796.312,15.049187
1434411796.327,18.925125
1434411796.343,22.982033
1434411796.359,26.736603
1434411796.374,29.774704
1434411796.39,31.80169
1434411796.405,32.60961
1434411796.421,32.041756
1434411796.437,29.978928
1434411796.452,26.427261
1434411796.468,21.58915
1434411796.484,15.956276
1434411796.499,10.174866
1434411796.515,4.90625
1434411796.53,0.58722687
1434411796.546,-2.6809845
1434411796.562,-5.1222534
1434411796.577,-7.060135
1434411796.593,-8.778885
1434411796.609,-10.376656
1434411796.624,-11.802734
1434411796.64,-12.937225
1434411796.655,-13.744144
1434411796.671,-14.296028
1434411796.687,-14.765213
1434411796.702,-15.335922
1434411796.718,-16.118404
1434411796.734,-17.115765
1434411796.749,-18.255997
1434411796.765,-19.394382
1434411796.78,-20.38538
1434411796.796,-21.081413
1434411796.812,-21.381657
1434411796.827,-21.234505
1434411796.843,-20.673012
1434411796.859,-19.796867
1434411796.874,-18.751347
1434411796.89,-17.684265
1434411796.905,-16.684242
1434411796.921,-15.756821
1434411796.937,-14.865742
1434411796.952,-13.941116
1434411796.968,-12.91811
1434411796.984,-11.746384
1434411796.999,-10.4111595
1434411797.015,-8.930412
1434411797.03,-7.349613
1434411797.046,-5.7185287
1434411797.062,-4.1190147
1434411797.077,-2.5754166
1434411797.093,-1.076683
1434411797.109,0.43876266
1434411797.124,1.9883614
1434411797.14,3.5607224
1434411797.155,5.0877495
1434411797.171,6.514593
1434411797.187,7.8405724
1434411797.202,9.161707
1434411797.218,10.609045
1434411797.234,12.314064
1434411797.249,14.344252
1434411797.265,16.714758
1434411797.28,19.39644
1434411797.296,22.319538
1434411797.312,25.31302
1434411797.327,28.071424
1434411797.343,30.123491
1434411797.359,30.941921
1434411797.374,30.117945
1434411797.39,27.520573
1434411797.405,23.392756
1434411797.421,18.273722
1434411797.437,12.84112
1434411797.452,7.6855593
1434411797.468,3.2155514
1434411797.484,-0.38102436
1434411797.499,-3.1089897
1434411797.515,-5.0732064
1434411797.53,-6.463295
1434411797.546,-7.4704185
1434411797.562,-8.28608
1434411797.577,-9.014664
1434411797.593,-9.721423
1434411797.609,-10.38299
1434411797.624,-10.992146
1434411797.64,-11.545833
1434411797.655,-12.090317
1434411797.671,-12.69566
1434411797.687,-13.423527
1434411797.702,-14.286011
1434411797.718,-15.220119
1434411797.734,-16.1347
1434411797.749,-16.889336
1434411797.765,-17.372356
1434411797.78,-17.524029
1434411797.796,-17.322289
1434411797.812,-16.817741
1434411797.827,-16.06791
1434411797.843,-15.169655
1434411797.859,-14.165001
1434411797.874,-13.099167
1434411797.89,-11.95965
1434411797.905,-10.742424
1434411797.921,-9.431099
1434411797.937,-8.048822
1434411797.952,-6.6381397
1434411797.968,-5.2715263
1434411797.984,-4.0061264
1434411797.999,-2.8909836
1434411798.015,-1.9225864
1434411798.03,-1.0452194
1434411798.046,-0.1583786
1434411798.062,0.8386078
1434411798.077,2.040535
1434411798.093,3.4795074
1434411798.109,5.1601524
1434411798.124,7.0163
1434411798.14,8.9932785
1434411798.155,10.995964
1434411798.171,12.954632
1434411798.187,14.834202
1434411798.202,16.63462
1434411798.218,18.415428
1434411798.234,20.247028
1434411798.249,22.155136
1434411798.265,24.058964
1434411798.28,25.732399
1434411798.296,26.862587
1434411798.312,27.106419
1434411798.327,26.248829
1434411798.343,24.246624
1434411798.359,21.273296
1434411798.374,17.620705
1434411798.39,13.657539
1434411798.405,9.703865
1434411798.421,6.0188446
1434411798.437,2.7501907
1434411798.452,-0.001159668
1434411798.468,-2.2305832
1434411798.484,-3.9826813
1434411798.499,-5.3643875
1434411798.515,-6.4808044
1434411798.53,-7.4201508
1434411798.546,-8.219292
1434411798.562,-8.874947
1434411798.577,-9.351517
1434411798.593,-9.671928
1434411798.609,-9.884064
1434411798.624,-10.11261
1434411798.64,-10.464691
1434411798.655,-11.032616
1434411798.671,-11.795891
1434411798.687,-12.613983
1434411798.702,-13.253151
1434411798.718,-13.505196
1434411798.734,-13.249626
1434411798.749,-12.576363
1434411798.765,-11.693222
1434411798.78,-10.85891
1434411798.796,-10.219276
1434411798.812,-9.76638
1434411798.827,-9.365974
1434411798.843,-8.870148
1434411798.859,-8.212479
1434411798.874,-7.447159
1434411798.89,-6.6761627
1434411798.906,-5.976074
1434411798.921,-5.298561
1434411798.937,-4.5416718
1434411798.952,-3.5822372
1434411798.968,-2.403633
1434411798.984,-1.0677643
1434411798.999,0.28248596
1434411799.015,1.5857468
1434411799.031,2.8692245
1434411799.046,4.252632
1434411799.062,5.8324203
1434411799.077,7.6106796
1434411799.093,9.444527
1434411799.109,11.123009
1434411799.124,12.45475
1434411799.14,13.410591
1434411799.156,14.131088
1434411799.171,14.881157
1434411799.187,15.8943405
1434411799.202,17.278778
1434411799.218,18.922539
1434411799.234,20.548874
1434411799.249,21.793427
1434411799.265,22.33728
1434411799.281,21.986603
1434411799.296,20.722916
1434411799.312,18.651794
1434411799.327,15.995285
1434411799.343,13.013657
1434411799.359,10.010513
1434411799.374,7.254715
1434411799.39,4.9521484
1434411799.406,3.1795044
1434411799.421,1.8950043
1434411799.437,0.9460144
1434411799.452,0.14187622
1434411799.468,-0.667099
1434411799.484,-1.5446625
1434411799.499,-2.4881287
1434411799.515,-3.4005585
1434411799.531,-4.194931
1434411799.546,-4.8046265
1434411799.562,-5.2263947
1434411799.577,-5.5018463
1434411799.593,-5.7303467
1434411799.609,-5.9994965
1434411799.624,-6.384308
1434411799.64,-6.9018707
1434411799.656,-7.51416
1434411799.671,-8.1297455
1434411799.687,-8.644745
1434411799.702,-8.946945
1434411799.718,-9.013733
1434411799.734,-8.863846
1434411799.749,-8.541794
1434411799.765,-8.068497
1434411799.781,-7.4618835
1434411799.796,-6.7026215
1434411799.812,-5.7839203
1434411799.827,-4.7761993
1434411799.843,-3.7458649
1434411799.859,-2.7766418
1434411799.874,-1.910553
1434411799.89,-1.1698151
1434411799.906,-0.5329895
1434411799.921,0.021896362
1434411799.937,0.49873352
1434411799.952,0.92414856
1434411799.968,1.3206177
1434411799.984,1.7605591
1434411799.999,2.2985992
1434411800.015,2.9755554
1434411800.031,3.777893
1434411800.046,4.6563873
1434411800.062,5.5753174
1434411800.077,6.52919
1434411800.093,7.5737457
1434411800.109,8.770737
1434411800.124,10.17128
1434411800.14,11.7939
1434411800.156,13.644897
1434411800.171,15.675964
1434411800.187,17.758392
1434411800.202,19.644928
1434411800.218,20.954819
1434411800.234,21.308746
1434411800.249,20.453644
1434411800.265,18.45874
1434411800.281,15.682968
1434411800.296,12.70163
1434411800.312,10.037598
1434411800.327,7.9525757
1434411800.343,6.4188538
1434411800.359,5.222336
1434411800.374,4.164978
1434411800.39,3.1534882
1434411800.406,2.2138672
1434411800.421,1.3810577
1434411800.437,0.6161957
1434411800.452,-0.20783997
1434411800.468,-1.1907043
1434411800.484,-2.34729
1434411800.499,-3.544342
1434411800.515,-4.614502
1434411800.531,-5.447006
1434411800.546,-6.0392914
1434411800.562,-6.4851837
1434411800.577,-6.911865
1434411800.593,-7.3610992
1434411800.609,-7.807358
1434411800.624,-8.147079
1434411800.64,-8.297211
1434411800.656,-8.211105
1434411800.671,-7.936249
1434411800.687,-7.5569
1434411800.702,-7.1783905
1434411800.718,-6.874954
1434411800.734,-6.627762
1434411800.749,-6.3077393
1434411800.765,-5.761627
1434411800.781,-4.88591
1434411800.796,-3.7314148
1434411800.812,-2.4840393
1434411800.827,-1.4130707
1434411800.843,-0.70266724
1434411800.859,-0.37031555
1434411800.874,-0.23768616
1434411800.89,-0.040908813
1434411800.906,0.44996643
1434411800.921,1.3017426
1434411800.937,2.4324188
1434411800.952,3.6710358
1434411800.968,4.8642273
1434411800.984,5.9209137
1434411800.999,6.83342
1434411801.015,7.6600494
1434411801.031,8.465576
1434411801.046,9.343216
1434411801.062,10.431335
1434411801.077,11.862717
1434411801.093,13.748825
1434411801.109,16.072006
1434411801.124,18.668106
1434411801.14,21.189453
1434411801.156,23.181427
1434411801.171,24.178497
1434411801.187,23.831253
1434411801.202,22.033112
1434411801.218,18.964844
1434411801.234,15.057571
1434411801.249,10.904861
1434411801.265,7.100128
1434411801.281,4.0861206
1434411801.296,2.0109253
1434411801.312,0.7799225
1434411801.327,0.10598755
1434411801.343,-0.31915283
1434411801.359,-0.7033081
1434411801.374,-1.1191711
1434411801.39,-1.558609
1434411801.406,-1.9871674
1434411801.421,-2.4378815
1434411801.437,-2.9880676
1434411801.452,-3.7010193
1434411801.468,-4.566757
1434411801.484,-5.511261
1434411801.499,-6.445694
1434411801.515,-7.2792664
1434411801.531,-7.999893
1434411801.546,-8.638245
1434411801.562,-9.219482
1434411801.578,-9.752335
1434411801.593,-10.186996
1434411801.609,-10.453934
1434411801.624,-10.506577
1434411801.64,-10.3715515
1434411801.656,-10.074875
1434411801.671,-9.67334
1434411801.687,-9.205704
1434411801.703,-8.6922
1434411801.718,-8.117462
1434411801.734,-7.471451
1434411801.749,-6.729141
1434411801.765,-5.8729553
1434411801.781,-4.8921814
1434411801.796,-3.8059998
1434411801.812,-2.679428
1434411801.828,-1.6313934
1434411801.843,-0.743042
1434411801.859,-0.057800293
1434411801.874,0.49855042
1434411801.89,1.0489502
1434411801.906,1.7809601
1434411801.921,2.8014526
1434411801.937,4.1377106
1434411801.953,5.732193
1434411801.968,7.5063324
1434411801.984,9.39328
1434411801.999,11.365448
1434411802.015,13.420959
1434411802.031,15.544418
1434411802.046,17.701935
1434411802.062,19.80368
1434411802.078,21.707504
1434411802.093,23.21083
1434411802.109,24.038712
1434411802.124,23.953644
1434411802.14,22.781723
1434411802.156,20.554184
1434411802.171,17.46968
1434411802.187,13.972107
1434411802.203,10.515564
1434411802.218,7.473221
1434411802.234,5.04702
1434411802.249,3.170021
1434411802.265,1.610611
1434411802.281,0.13639069
1434411802.296,-1.3397522
1434411802.312,-2.7005005
1434411802.328,-3.682869
1434411802.343,-4.054245
1434411802.359,-3.7815018
1434411802.374,-3.109604
1434411802.39,-2.486702
1434411802.406,-2.3676453
1434411802.421,-3.0180588
1434411802.437,-4.371002
1434411802.453,-6.1530304
1434411802.468,-8.010391
1434411802.484,-9.68235
1434411802.499,-11.078407
1434411802.515,-12.216003
1434411802.531,-13.116592
1434411802.546,-13.744408
1434411802.562,-14.036438
1434411802.578,-13.927193
1434411802.593,-13.449524
1434411802.609,-12.724075
1434411802.624,-11.893738
1434411802.64,-11.084557
1434411802.656,-10.33992
1434411802.671,-9.6623
1434411802.687,-8.966011
1434411802.703,-8.177826
1434411802.718,-7.231697
1434411802.734,-6.0930634
1434411802.749,-4.7788925
1434411802.765,-3.3449936
1434411802.781,-1.8441849
1434411802.796,-0.32624817
1434411802.812,1.2205582
1434411802.828,2.8408813
1434411802.843,4.5439835
1434411802.859,6.3049393
1434411802.874,8.060959
1434411802.89,9.745209
1434411802.906,11.354622
1434411802.921,12.934402
1434411802.937,14.627258
1434411802.953,16.57772
1434411802.968,18.912987
1434411802.984,21.63652
1434411802.999,24.628925
1434411803.015,27.57042
1434411803.031,29.99783
1434411803.046,31.39569
1434411803.062,31.34077
1434411803.078,29.634666
1434411803.093,26.395454
1434411803.109,22.032715
1434411803.124,17.13897
1434411803.14,12.287422
1434411803.156,7.9179306
1434411803.171,4.259865
1434411803.187,1.3578529
1434411803.203,-0.88788605
1434411803.218,-2.6335907
1434411803.234,-4.03294
1434411803.249,-5.216007
1434411803.265,-6.306301
1434411803.281,-7.363941
1434411803.296,-8.4463005
1434411803.312,-9.583357
1434411803.328,-10.76605
1434411803.343,-11.936459
1434411803.359,-13.002605
1434411803.374,-13.875776
1434411803.39,-14.532103
1434411803.406,-15.036898
1434411803.421,-15.539313
1434411803.437,-16.17139
1434411803.453,-16.953812
1434411803.468,-17.786888
1434411803.484,-18.480484
1434411803.499,-18.836926
1434411803.515,-18.762537
1434411803.531,-18.294325
1434411803.546,-17.579628
1434411803.562,-16.731092
1434411803.578,-15.801009
1434411803.593,-14.745205
1434411803.609,-13.523048
1434411803.624,-12.151852
1434411803.64,-10.738668
1434411803.656,-9.440121
1434411803.671,-8.356501
1434411803.687,-7.452756
1434411803.703,-6.5280523
1434411803.718,-5.3461676
1434411803.734,-3.7574577
1434411803.749,-1.794014
1434411803.765,0.30796814
1434411803.781,2.2682743
1434411803.796,3.9281597
1434411803.812,5.368206
1434411803.828,6.854513
1434411803.843,8.73563
1434411803.859,11.240633
1434411803.874,14.394253
1434411803.89,18.005505
1434411803.906,21.747185
1434411803.921,25.258102
1434411803.937,28.160748
1434411803.953,30.12452
1434411803.968,30.847733
1434411803.984,30.081856
1434411803.999,27.748734
1434411804.015,23.995392
1434411804.031,19.220245
1434411804.046,13.99921
1434411804.062,8.9507065
1434411804.078,4.534157
1434411804.093,0.9959984
1434411804.109,-1.689228
1434411804.124,-3.7210083
1434411804.14,-5.348301
1434411804.156,-6.7772293
1434411804.171,-8.091534
1434411804.187,-9.307968
1434411804.203,-10.421684
1434411804.218,-11.492996
1434411804.234,-12.597061
1434411804.25,-13.775948
1434411804.265,-14.973976
1434411804.281,-15.985886
1434411804.296,-16.624504
1434411804.312,-16.78901
1434411804.328,-16.587158
1434411804.343,-16.277847
1434411804.359,-16.182281
1434411804.375,-16.460129
1434411804.39,-17.009048
1434411804.406,-17.510307
1434411804.421,-17.581627
1434411804.437,-16.987083
1434411804.453,-15.75531
1434411804.468,-14.150932
1434411804.484,-12.53817
1434411804.5,-11.189949
1434411804.515,-10.201813
1434411804.531,-9.475334
1434411804.546,-8.828445
1434411804.562,-8.060928
1434411804.578,-7.051422
1434411804.593,-5.727806
1434411804.609,-4.057831
1434411804.625,-2.0350037
1434411804.64,0.2638321
1434411804.656,2.6623306
1434411804.671,4.877228
1434411804.687,6.613823
1434411804.703,7.7363358
1434411804.718,8.388367
1434411804.734,8.970505
1434411804.75,10.037346
1434411804.765,12.002174
1434411804.781,14.959862
1434411804.796,18.55101
1434411804.812,22.045189
1434411804.828,24.55085
1434411804.843,25.355568
1434411804.859,24.120285
1434411804.875,20.992851
1434411804.89,16.52652
1434411804.906,11.481186
1434411804.921,6.5732956
1434411804.937,2.2485275
1434411804.953,-1.2940979
1434411804.968,-4.1331635
1434411804.984,-6.4418488
1434411805,-8.363602
1434411805.015,-10.002243
1434411805.031,-11.420639
1434411805.046,-12.673355
1434411805.062,-13.790726
1434411805.078,-14.766663
1434411805.093,-15.527313
1434411805.109,-16.0354
1434411805.125,-16.319046
1434411805.14,-16.510742
1434411805.156,-16.851547
1434411805.171,-17.529312
1434411805.187,-18.587036
1434411805.203,-19.913055
1434411805.218,-21.273514
1434411805.234,-22.41127
1434411805.25,-23.092224
1434411805.265,-23.117737
1434411805.281,-22.323776
1434411805.296,-20.643723
1434411805.312,-18.178085
1434411805.328,-15.27063
1434411805.343,-12.429703
1434411805.359,-10.182144
1434411805.375,-8.832352
1434411805.39,-8.333435
1434411805.406,-8.335876
1434411805.421,-8.325516
1434411805.437,-7.869644
1434411805.453,-6.674652
1434411805.468,-4.686722
1434411805.484,-2.059845
1434411805.5,0.89160156
1434411805.515,3.7838287
1434411805.531,6.2782135
1434411805.546,8.190323
1434411805.562,9.597946
1434411805.578,10.824234
1434411805.593,12.346954
1434411805.609,14.550049
1434411805.625,17.531876
1434411805.64,21.075958
1434411805.656,24.628342
1434411805.671,27.464005
1434411805.687,28.923904
1434411805.703,28.578568
1434411805.718,26.338959
1434411805.734,22.448563
1434411805.75,17.438766
1434411805.765,11.946411
1434411805.781,6.570816
1434411805.796,1.7363739
1434411805.812,-2.339447
1434411805.828,-5.6209564
1434411805.843,-8.181717
1434411805.859,-10.178375
1434411805.875,-11.787888
1434411805.89,-13.198334
1434411805.906,-14.587158
1434411805.921,-16.062653
1434411805.937,-17.65303
1434411805.953,-19.315659
1434411805.968,-20.956207
1434411805.984,-22.464096
1434411806,-23.733505
1434411806.015,-24.660278
1434411806.031,-25.126968
1434411806.046,-25.07286
1434411806.062,-24.501816
1434411806.078,-23.511856
1434411806.093,-22.301056
1434411806.109,-21.103867
1434411806.125,-20.132538
1434411806.14,-19.49968
1434411806.156,-19.166275
1434411806.171,-18.988602
1434411806.187,-18.746918
1434411806.203,-18.207886
1434411806.218,-17.204376
1434411806.234,-15.729843
1434411806.25,-13.901779
1434411806.265,-11.959717
1434411806.281,-10.183411
1434411806.296,-8.766708
1434411806.312,-7.7322845
1434411806.328,-6.960663
1434411806.343,-6.2171326
1434411806.359,-5.275772
1434411806.375,-3.9871979
1434411806.39,-2.299118
1434411806.406,-0.25456238
1434411806.421,2.0213776
1434411806.437,4.3807983
1434411806.453,6.6946564
1434411806.468,8.871628
1434411806.484,10.944595
1434411806.5,13.067963
1434411806.515,15.422836
1434411806.531,18.180527
1434411806.546,21.304184
1434411806.562,24.5121
1434411806.578,27.331741
1434411806.593,29.207306
1434411806.609,29.657349
1434411806.625,28.432434
1434411806.64,25.582657
1434411806.656,21.46164
1434411806.671,16.633064
1434411806.687,11.725449
1434411806.703,7.2417984
1434411806.718,3.459175
1434411806.734,0.37147522
1434411806.75,-2.2289352
1434411806.765,-4.54628
1434411806.781,-6.687744
1434411806.796,-8.639351
1434411806.812,-10.312149
1434411806.828,-11.685158
1434411806.843,-12.821167
1434411806.859,-13.868713
1434411806.875,-14.917366
1434411806.89,-16.00251
1434411806.906,-17.038452
1434411806.922,-17.945984
1434411806.937,-18.66851
1434411806.953,-19.181396
1434411806.968,-19.468826
1434411806.984,-19.498787
1434411807,-19.21859
1434411807.015,-18.588745
1434411807.031,-17.63604
1434411807.046,-16.450142
1434411807.062,-15.13562
1434411807.078,-13.839325
1434411807.093,-12.659271
1434411807.109,-11.668701
1434411807.125,-10.866966
1434411807.14,-10.167755
1434411807.156,-9.4012985
1434411807.172,-8.404533
1434411807.187,-7.124161
1434411807.203,-5.651802
1434411807.218,-4.2269745
1434411807.234,-3.0921555
1434411807.25,-2.3580933
1434411807.265,-1.9727478
1434411807.281,-1.7396469
1434411807.297,-1.4285736
1434411807.312,-0.8315964
1434411807.328,0.18636322
1434411807.343,1.7070007
1434411807.359,3.697548
1434411807.375,6.0033646
1434411807.39,8.348251
1434411807.406,10.431503
1434411807.422,12.086601
1434411807.437,13.409153
1434411807.453,14.712563
1434411807.468,16.36684
1434411807.484,18.53638
1434411807.5,21.060535
1434411807.515,23.542816
1434411807.531,25.50565
1434411807.547,26.56417
1434411807.562,26.504894
1434411807.578,25.268192
1434411807.593,22.904198
1434411807.609,19.546165
1434411807.625,15.504246
1434411807.64,11.175579
1434411807.656,7.022957
1434411807.672,3.3997765
1434411807.687,0.45541382
1434411807.703,-1.7734718
1434411807.718,-3.3421364
1434411807.734,-4.344593
1434411807.75,-4.9205894
1434411807.765,-5.283888
1434411807.781,-5.7591934
1434411807.797,-6.643759
1434411807.812,-8.069086
1434411807.828,-9.931656
1434411807.843,-11.931974
1434411807.859,-13.752329
1434411807.875,-15.154675
1434411807.89,-16.001623
1434411807.906,-16.232008
1434411807.922,-15.818489
1434411807.937,-14.790427
1434411807.953,-13.336176
1434411807.968,-11.78867
1434411807.984,-10.55049
1434411808,-9.903418
1434411808.015,-9.853255
1434411808.031,-10.136299
1434411808.047,-10.356814
1434411808.062,-10.20498
1434411808.078,-9.538792
1434411808.093,-8.405006
1434411808.109,-6.944256
1434411808.125,-5.28964
1434411808.14,-3.5584517
1434411808.156,-1.851582
1434411808.172,-0.28864002
1434411808.187,1.0380602
1434411808.203,2.071765
1434411808.218,2.8744535
1434411808.234,3.5756226
1434411808.25,4.3362083
1434411808.265,5.320202
1434411808.281,6.5984726
1434411808.297,8.130461
1434411808.312,9.762354
1434411808.328,11.315725
1434411808.343,12.658442
1434411808.359,13.813927
1434411808.375,14.936342
1434411808.39,16.209764
1434411808.406,17.72059
1434411808.422,19.338501
1434411808.437,20.75853
1434411808.453,21.628204
1434411808.468,21.68496
1434411808.484,20.817505
1434411808.5,19.078297
1434411808.515,16.614162
1434411808.531,13.608006
1434411808.547,10.274048
1434411808.562,6.896618
1434411808.578,3.7786522
1434411808.593,1.1815147
1434411808.609,-0.773674
1434411808.625,-2.1458893
1434411808.64,-3.0790787
1434411808.656,-3.739975
1434411808.672,-4.245331
1434411808.687,-4.643078
1434411808.703,-4.9966736
1434411808.718,-5.398323
1434411808.734,-5.9568977
1434411808.75,-6.713379
1434411808.765,-7.6101418
1434411808.781,-8.464893
1434411808.797,-9.089027
1434411808.812,-9.357506
1434411808.828,-9.238243
1434411808.843,-8.818367
1434411808.859,-8.249954
1434411808.875,-7.683922
1434411808.89,-7.2220078
1434411808.906,-6.911751
1434411808.922,-6.732147
1434411808.937,-6.6060867
1434411808.953,-6.439575
1434411808.968,-6.127281
1434411808.984,-5.615425
1434411809,-4.8967667
1434411809.015,-3.9678192
1434411809.031,-2.8276901
1434411809.047,-1.5203171
1434411809.062,-0.12594604
1434411809.078,1.2493896
1434411809.093,2.48555
1434411809.109,3.5191574
1434411809.125,4.390686
1434411809.14,5.1947327
1434411809.156,6.035324
1434411809.172,6.931473
1434411809.187,7.805786
1434411809.203,8.554001
1434411809.218,9.139542
1434411809.234,9.603752
1434411809.25,10.077972
1434411809.265,10.709511
1434411809.281,11.578064
1434411809.297,12.679565
1434411809.312,13.9796295
1434411809.328,15.36879
1434411809.343,16.72432
1434411809.359,17.857445
1434411809.375,18.53106
1434411809.39,18.590279
1434411809.406,17.992912
1434411809.422,16.804382
1434411809.437,15.159637
1434411809.453,13.181412
1434411809.468,10.934273
1434411809.484,8.461159
1434411809.5,5.8723984
1434411809.515,3.3411026
1434411809.531,1.0928345
1434411809.547,-0.70453644
1434411809.562,-2.004074
1434411809.578,-2.8384552
1434411809.593,-3.288002
1434411809.609,-3.4480057
1434411809.625,-3.419136
1434411809.64,-3.3204727
1434411809.656,-3.3797684
1434411809.672,-3.8311386
1434411809.687,-4.7947693
1434411809.703,-6.2295914
1434411809.718,-7.862648
1434411809.734,-9.343666
1434411809.75,-10.341873
1434411809.765,-10.618065
1434411809.781,-10.109161
1434411809.797,-8.961624
1434411809.812,-7.458351
1434411809.828,-5.962555
1434411809.844,-4.8053513
1434411809.859,-4.1541977
1434411809.875,-3.943573
1434411809.89,-3.9559097
1434411809.906,-3.9222717
1434411809.922,-3.701355
1434411809.937,-3.308426
1434411809.953,-2.8238373
1434411809.969,-2.302414
1434411809.984,-1.7219925
1434411810,-1.0130539
1434411810.015,-0.16369629
1434411810.031,0.7514038
1434411810.047,1.5716553
1434411810.062,2.1999817
1434411810.078,2.6423645
1434411810.094,3.0706787
1434411810.109,3.673111
1434411810.125,4.5439453
1434411810.14,5.6821136
1434411810.156,6.983719
1434411810.172,8.322479
1434411810.187,9.658554
1434411810.203,11.018997
1434411810.219,12.507721
1434411810.234,14.1651
1434411810.25,15.958862
1434411810.265,17.703583
1434411810.281,19.12912
1434411810.297,19.927292
1434411810.312,19.885025
1434411810.328,18.95665
1434411810.344,17.296967
1434411810.359,15.165939
1434411810.375,12.815063
1434411810.39,10.439041
1434411810.406,8.118622
1434411810.422,5.879944
1434411810.437,3.7837677
1434411810.453,1.8839569
1434411810.469,0.24031067
1434411810.484,-1.1579437
1434411810.5,-2.3583221
1434411810.515,-3.387268
1434411810.531,-4.216278
1434411810.547,-4.8215485
1434411810.562,-5.195099
1434411810.578,-5.4483337
1434411810.594,-5.7721405
1434411810.609,-6.349121
1434411810.625,-7.2529755
1434411810.64,-8.39003
1434411810.656,-9.554474
1434411810.672,-10.511032
1434411810.687,-11.097321
1434411810.703,-11.2413025
1434411810.719,-10.966797
1434411810.734,-10.346161
1434411810.75,-9.480759
1434411810.765,-8.473694
1434411810.781,-7.435135
1434411810.797,-6.438217
1434411810.812,-5.481476
1434411810.828,-4.5612335
1434411810.844,-3.6647186
1434411810.859,-2.8382416
1434411810.875,-2.17659
1434411810.89,-1.7025452
1434411810.906,-1.3305511
1434411810.922,-0.87049866
1434411810.937,-0.10169983
1434411810.953,1.0732574
1434411810.969,2.5821533
1434411810.984,4.1781464
1434411811,5.596054
1434411811.015,6.666641
1434411811.031,7.416931
1434411811.047,8.008804
1434411811.062,8.648468
1434411811.078,9.498596
1434411811.094,10.625092
1434411811.109,11.986237
1434411811.125,13.492157
1434411811.14,15.061249
1434411811.156,16.579239
1434411811.172,17.893188
1434411811.187,18.802246
1434411811.203,19.033813
1434411811.219,18.355515
1434411811.234,16.647522
1434411811.25,14.031586
1434411811.265,10.913528
1434411811.281,7.840622
1434411811.297,5.2982483
1434411811.312,3.5208435
1434411811.328,2.4188538
1434411811.344,1.6358643
1434411811.359,0.75987244
1434411811.375,-0.4343872
1434411811.39,-1.9220581
1434411811.406,-3.4720612
1434411811.422,-4.8500977
1434411811.437,-5.87825
1434411811.453,-6.5641556
1434411811.469,-6.9850845
1434411811.484,-7.2717514
1434411811.5,-7.533867
1434411811.515,-7.870819
1434411811.531,-8.370239
1434411811.547,-9.0699005
1434411811.562,-9.941841
1434411811.578,-10.899803
1434411811.594,-11.784393
1434411811.609,-12.444267
1434411811.625,-12.790375
1434411811.64,-12.764084
1434411811.656,-12.335457
1434411811.672,-11.535385
1434411811.687,-10.4275055
1434411811.703,-9.131462
1434411811.719,-7.829918
1434411811.734,-6.697235
1434411811.75,-5.8142776
1434411811.765,-5.180519
1434411811.781,-4.650917
1434411811.797,-4.034134
1434411811.812,-3.1320038
1434411811.828,-1.7515411
1434411811.844,0.20816803
1434411811.859,2.697647
1434411811.875,5.4684753
1434411811.89,8.148392
1434411811.906,10.315086
1434411811.922,11.68396
1434411811.937,12.266968
1434411811.953,12.305115
1434411811.969,12.204376
1434411811.984,12.318863
1434411812,12.86171
1434411812.015,13.90155
1434411812.031,15.423935
1434411812.047,17.2995
1434411812.062,19.337196
1434411812.078,21.155464
1434411812.094,22.255676
1434411812.109,22.146912
1434411812.125,20.564034
1434411812.14,17.584099
1434411812.156,13.672165
1434411812.172,9.489929
1434411812.187,5.6499405
1434411812.203,2.5864105
1434411812.219,0.43055725
1434411812.234,-0.9473114
1434411812.25,-1.783783
1434411812.265,-2.3139267
1434411812.281,-2.7115784
1434411812.297,-3.0669327
1434411812.312,-3.403595
1434411812.328,-3.7955246
1434411812.344,-4.2914505
1434411812.359,-4.9798965
1434411812.375,-5.901146
1434411812.39,-6.9594574
1434411812.406,-7.975403
1434411812.422,-8.759483
1434411812.437,-9.208496
1434411812.453,-9.385109
1434411812.469,-9.500595
1434411812.484,-9.763199
1434411812.5,-10.234299
1434411812.516,-10.812202
1434411812.531,-11.24781
1434411812.547,-11.304848
1434411812.562,-10.837761
1434411812.578,-9.849304
1434411812.594,-8.4292755
1434411812.609,-6.7555466
1434411812.625,-5.0074387
1434411812.641,-3.3901901
1434411812.656,-2.090454
1434411812.672,-1.223381
1434411812.687,-0.8000412
1434411812.703,-0.66806793
1434411812.719,-0.568985
1434411812.734,-0.25112152
1434411812.75,0.43878937
1434411812.766,1.5506744
1434411812.781,2.981514
1434411812.797,4.5880966
1434411812.812,6.2734375
1434411812.828,7.9852753
1434411812.844,9.743629
1434411812.859,11.580116
1434411812.875,13.4902115
1434411812.891,15.424606
1434411812.906,17.261894
1434411812.922,18.842293
1434411812.937,19.97144
1434411812.953,20.481441
1434411812.969,20.230625
1434411812.984,19.110096
1434411813,17.111534
1434411813.016,14.353397
1434411813.031,11.103703
1434411813.047,7.6996193
1434411813.062,4.55299
1434411813.078,1.9249611
1434411813.094,-0.07399368
1434411813.109,-1.5261803
1434411813.125,-2.6070747
1434411813.141,-3.4556808
1434411813.156,-4.1464157
1434411813.172,-4.6904793
1434411813.187,-5.1445313
1434411813.203,-5.6016045
1434411813.219,-6.186508
1434411813.234,-6.992077
1434411813.25,-8.016666
1434411813.266,-9.191563
1434411813.281,-10.43214
1434411813.297,-11.67345
1434411813.312,-12.87207
1434411813.328,-13.942829
1434411813.344,-14.74144
1434411813.359,-15.107445
1434411813.375,-14.947138
1434411813.391,-14.298534
1434411813.406,-13.365345
1434411813.422,-12.393375
1434411813.437,-11.566994
1434411813.453,-10.937695
1434411813.469,-10.418844
1434411813.484,-9.907013
1434411813.5,-9.273083
1434411813.516,-8.41778
1434411813.531,-7.205721
1434411813.547,-5.570015
1434411813.562,-3.5304146
1434411813.578,-1.2582588
1434411813.594,0.96289825
1434411813.609,2.8650818
1434411813.625,4.3145075
1434411813.641,5.3901157
1434411813.656,6.3479395
1434411813.672,7.5005484
1434411813.687,9.074386
1434411813.703,11.2035475
1434411813.719,13.822024
1434411813.734,16.667288
1434411813.75,19.31086
1434411813.766,21.196007
1434411813.781,21.810326
1434411813.797,20.848719
1434411813.812,18.381979
1434411813.828,14.766968
1434411813.844,10.568425
1434411813.859,6.298727
1434411813.875,2.3122878
1434411813.891,-1.1579614
1434411813.906,-3.9702306
1434411813.922,-6.023958
1434411813.937,-7.277448
1434411813.953,-7.832483
1434411813.969,-7.971588
1434411813.984,-8.081924
1434411814,-8.4710245
1434411814.016,-9.286661
1434411814.031,-10.417421
1434411814.047,-11.637936
1434411814.062,-12.687371
1434411814.078,-13.385535
1434411814.094,-13.648513
1434411814.109,-13.533429
1434411814.125,-13.18686
1434411814.141,-12.832811
1434411814.156,-12.683998
1434411814.172,-12.865774
1434411814.187,-13.302721
1434411814.203,-13.810465
1434411814.219,-14.089104
1434411814.234,-13.95557
1434411814.25,-13.369337
1434411814.266,-12.412411
1434411814.281,-11.218662
1434411814.297,-9.904634
1434411814.312,-8.5165825
1434411814.328,-7.0857983
1434411814.344,-5.665226
1434411814.359,-4.3249435
1434411814.375,-3.1101322
1434411814.391,-2.017641
1434411814.406,-0.94340515
1434411814.422,0.18725777
1434411814.437,1.4342365
1434411814.453,2.808794
1434411814.469,4.303526
1434411814.484,5.9069653
1434411814.5,7.6629715
1434411814.516,9.6531315
1434411814.531,11.984249
1434411814.547,14.699032
1434411814.562,17.735653
1434411814.578,20.784492
1434411814.594,23.354023
1434411814.609,24.851345
1434411814.625,24.79609
1434411814.641,23.058975
1434411814.656,19.924088
1434411814.672,15.996231
1434411814.687,11.951275
1434411814.703,8.260254
1434411814.719,5.060055
1434411814.734,2.2322235
1434411814.75,-0.458004
1434411814.766,-3.1344147
1434411814.781,-5.744911
1434411814.797,-8.12093
1434411814.812,-10.080231
1434411814.828,-11.537502
1434411814.844,-12.505947
1434411814.859,-13.121048
1434411814.875,-13.556553
1434411814.891,-13.993774
1434411814.906,-14.535904
1434411814.922,-15.21838
1434411814.937,-15.987549
1434411814.953,-16.754581
1434411814.969,-17.434921
1434411814.984,-17.980103
1434411815,-18.374214
1434411815.016,-18.565819
1434411815.031,-18.459011
1434411815.047,-17.947662
1434411815.062,-16.945393
1434411815.078,-15.503265
1434411815.094,-13.786331
1434411815.109,-12.04464
1434411815.125,-10.490692
1434411815.141,-9.255428
1434411815.156,-8.321396
1434411815.172,-7.596588
1434411815.188,-6.929741
1434411815.203,-6.152706
1434411815.219,-5.1235504
1434411815.234,-3.7556458
1434411815.25,-2.0627937
1434411815.266,-0.15331268
1434411815.281,1.763977
1434411815.297,3.4995804
1434411815.313,4.963009
1434411815.328,6.213722
1434411815.344,7.4559517
1434411815.359,8.933556
1434411815.375,10.830078
1434411815.391,13.182789
1434411815.406,15.899296
1434411815.422,18.727055
1434411815.438,21.3312
1434411815.453,23.299232
1434411815.469,24.215797
1434411815.484,23.735432
1434411815.5,21.72931
1434411815.516,18.360744
1434411815.531,14.090652
1434411815.547,9.559921
1434411815.563,5.4083176
1434411815.578,2.0977478
1434411815.594,-0.21168518
1434411815.609,-1.6961327
1434411815.625,-2.7438622
1434411815.641,-3.822609
1434411815.656,-5.2922363
1434411815.672,-7.27977
1434411815.688,-9.63612
1434411815.703,-12.06155
1434411815.719,-14.184483
1434411815.734,-15.771885
1434411815.75,-16.745487
1434411815.766,-17.152935
1434411815.781,-17.106327
1434411815.797,-16.728672
1434411815.813,-16.143856
1434411815.828,-15.511715
1434411815.844,-15.042332
1434411815.859,-14.904812
1434411815.875,-15.119289
1434411815.891,-15.53368
1434411815.906,-15.825264
1434411815.922,-15.673458
1434411815.938,-14.906727
1434411815.953,-13.538139
1434411815.969,-11.753963
1434411815.984,-9.847271
1434411816,-8.08651
1434411816.016,-6.6793747
1434411816.031,-5.744526
1434411816.047,-5.2971153
1434411816.063,-5.234539
1434411816.078,-5.3855095
1434411816.094,-5.47398
1434411816.109,-5.241005
1434411816.125,-4.495838
1434411816.141,-3.13665
1434411816.156,-1.2100067
1434411816.172,1.091198
1434411816.188,3.4861908
1434411816.203,5.6561356
1434411816.219,7.369343
1434411816.234,8.561104
1434411816.25,9.4439125
1434411816.266,10.397774
1434411816.281,11.862305
1434411816.297,14.050819
1434411816.313,16.866783
1434411816.328,19.874111
1434411816.344,22.477573
1434411816.359,24.084099
1434411816.375,24.325138
1434411816.391,23.114079
1434411816.406,20.6545
1434411816.422,17.337107
1434411816.438,13.603306
1434411816.453,9.838373
1434411816.469,6.32164
1434411816.484,3.193739
1434411816.5,0.5054302
1434411816.516,-1.712431
1434411816.531,-3.4397984
1434411816.547,-4.69816
1434411816.563,-5.5656643
1434411816.578,-6.2024193
1434411816.594,-6.8215427
1434411816.609,-7.597624
1434411816.625,-8.589207
1434411816.641,-9.7342415
1434411816.656,-10.858219
1434411816.672,-11.837578
1434411816.688,-12.628483
1434411816.703,-13.244261
1434411816.719,-13.731766
1434411816.734,-14.11614
1434411816.75,-14.355637
1434411816.766,-14.421202
1434411816.781,-14.294243
1434411816.797,-14.010735
1434411816.813,-13.599831
1434411816.828,-13.082502
1434411816.844,-12.405537
1434411816.859,-11.504501
1434411816.875,-10.345854
1434411816.891,-8.9367485
1434411816.906,-7.369458
1434411816.922,-5.801626
1434411816.938,-4.380005
1434411816.953,-3.2069778
1434411816.969,-2.278654
1434411816.984,-1.5031548
1434411817,-0.74226284
1434411817.016,0.096019745
1434411817.031,1.046732
1434411817.047,2.010973
1434411817.063,2.8733687
1434411817.078,3.5927734
1434411817.094,4.2548265
1434411817.109,5.041889
1434411817.125,6.1502213
1434411817.141,7.666337
1434411817.156,9.529951
1434411817.172,11.551658
1434411817.188,13.500916
1434411817.203,15.171525
1434411817.219,16.403177
1434411817.234,17.053598
1434411817.25,17.003845
1434411817.266,16.18601
1434411817.281,14.653362
1434411817.297,12.531989
1434411817.313,10.084953
1434411817.328,7.580045
1434411817.344,5.2502184
1434411817.359,3.2427425
1434411817.375,1.6134539
1434411817.391,0.32819748
1434411817.406,-0.68389034
1434411817.422,-1.5347204
1434411817.438,-2.3212585
1434411817.453,-3.1070929
1434411817.469,-3.8935013
1434411817.484,-4.666212
1434411817.5,-5.394351
1434411817.516,-6.1024637
1434411817.531,-6.81907
1434411817.547,-7.6185856
1434411817.563,-8.513744
1434411817.578,-9.4674835
1434411817.594,-10.363819
1434411817.609,-11.082075
1434411817.625,-11.498554
1434411817.641,-11.545258
1434411817.656,-11.216486
1434411817.672,-10.543354
1434411817.688,-9.631109
1434411817.703,-8.601742
1434411817.719,-7.5796165
1434411817.734,-6.6854935
1434411817.75,-5.947361
1434411817.766,-5.3843327
1434411817.781,-4.9773426
1434411817.797,-4.7002945
1434411817.813,-4.4942074
1434411817.828,-4.201912
1434411817.844,-3.619276
1434411817.86,-2.5594444
1434411817.875,-0.9767914
1434411817.891,0.9888611
1434411817.906,3.0387955
1434411817.922,4.8367233
1434411817.938,6.2001915
1434411817.953,7.148342
1434411817.969,7.926174
1434411817.984,8.831772
1434411818,10.13681
1434411818.016,11.975101
1434411818.031,14.330708
1434411818.047,16.95969
1434411818.063,19.44862
1434411818.078,21.2672
1434411818.094,21.918549
1434411818.11,21.076828
1434411818.125,18.79401
1434411818.141,15.48642
1434411818.156,11.751221
1434411818.172,8.210026
1434411818.188,5.2394447
1434411818.203,2.9705086
1434411818.219,1.3450928
1434411818.235,0.16228104
1434411818.25,-0.7377281
1434411818.266,-1.5047569
1434411818.281,-2.2655334
1434411818.297,-3.1216965
1434411818.313,-4.1156654
1434411818.328,-5.228035
1434411818.344,-6.3674736
1434411818.36,-7.423622
1434411818.375,-8.327602
1434411818.391,-9.030315
1434411818.406,-9.517834
1434411818.422,-9.81139
1434411818.438,-9.9377365
1434411818.453,-9.964996
1434411818.469,-9.948551
1434411818.485,-9.949837
1434411818.5,-9.926716
1434411818.516,-9.79636
1434411818.531,-9.399834
1434411818.547,-8.633968
1434411818.563,-7.477932
1434411818.578,-6.0375023
1434411818.594,-4.5148354
1434411818.61,-3.133995
1434411818.625,-2.0679092
1434411818.641,-1.3564606
1434411818.656,-0.9463043
1434411818.672,-0.67609406
1434411818.688,-0.384964
1434411818.703,0.044181824
1434411818.719,0.66368103
1434411818.735,1.428627
1434411818.75,2.3035126
1434411818.766,3.2705383
1434411818.781,4.3842087
1434411818.797,5.7218018
1434411818.813,7.373581
1434411818.828,9.355469
1434411818.844,11.62986
1434411818.86,14.066772
1434411818.875,16.444008
1434411818.891,18.477715
1434411818.906,19.85711
1434411818.922,20.296432
1434411818.938,19.671219
1434411818.953,18.055023
1434411818.969,15.737991
1434411818.985,13.08519
1434411819,10.44471
1434411819.016,8.022354
1434411819.031,5.9016724
1434411819.047,4.051178
1434411819.063,2.4337387
1434411819.078,1.0188522
1434411819.094,-0.18609619
1434411819.11,-1.2200623
1434411819.125,-2.1247482
1434411819.141,-2.9362106
1434411819.156,-3.6823578
1434411819.172,-4.3706207
1434411819.188,-4.992462
1434411819.203,-5.5609894
1434411819.219,-6.0937195
1434411819.235,-6.6419983
1434411819.25,-7.2289734
1434411819.266,-7.8857193
1434411819.281,-8.629074
1434411819.297,-9.447266
1434411819.313,-10.259102
1434411819.328,-10.91629
1434411819.344,-11.207359
1434411819.36,-10.96666
1434411819.375,-10.1182785
1434411819.391,-8.715836
1434411819.406,-6.9282074
1434411819.422,-5.0097885
1434411819.438,-3.1981812
1434411819.453,-1.7085342
1434411819.469,-0.66851807
1434411819.485,-0.09793854
1434411819.5,0.123161316
1434411819.516,0.23243713
1434411819.531,0.52347565
1434411819.547,1.1902466
1434411819.563,2.249092
1434411819.578,3.5017395
1434411819.594,4.650154
1434411819.61,5.4360504
1434411819.625,5.835289
1434411819.641,6.0201263
1434411819.656,6.3109436
1434411819.672,7.016632
1434411819.688,8.332687
1434411819.703,10.2864685
1434411819.719,12.73214
1434411819.735,15.378891
1434411819.75,17.783318
1434411819.766,19.461586
1434411819.781,20.005157
1434411819.797,19.20707
1434411819.813,17.20729
1434411819.828,14.395287
1434411819.844,11.301392
1434411819.86,8.36438
1434411819.875,5.8192444
1434411819.891,3.724205
1434411819.906,2.0263138
1434411819.922,0.6437912
1434411819.938,-0.5085907
1434411819.953,-1.5285187
1434411819.969,-2.5574722
1434411819.985,-3.7210999
1434411820,-5.046646
1434411820.016,-6.457817
1434411820.031,-7.7607193
1434411820.047,-8.791595
1434411820.063,-9.470215
1434411820.078,-9.804878
1434411820.094,-9.874374
1434411820.11,-9.7669525
1434411820.125,-9.577019
1434411820.141,-9.38485
1434411820.156,-9.326485
1434411820.172,-9.497971
1434411820.188,-9.913284
1434411820.203,-10.468552
1434411820.219,-10.953552
1434411820.235,-11.150734
1434411820.25,-10.900406
1434411820.266,-10.1201935
1434411820.281,-8.799416
1434411820.297,-7.0356216
1434411820.313,-4.997429
1434411820.328,-3.0000458
1434411820.344,-1.3410339
1434411820.36,-0.23714447
1434411820.375,0.3508377
1434411820.391,0.65774536
1434411820.406,1.047409
1434411820.422,1.7826996
1434411820.438,2.8578644
1434411820.453,4.0906754
1434411820.469,5.252472
1434411820.485,6.266426
1434411820.5,7.31427
1434411820.516,8.724571
1434411820.532,10.761543
1434411820.547,13.440781
1434411820.563,16.489014
1434411820.578,19.383057
1434411820.594,21.576714
1434411820.61,22.629791
1434411820.625,22.362526
1434411820.641,20.880264
1434411820.656,18.497375
1434411820.672,15.611641
1434411820.688,12.576431
1434411820.703,9.622353
1434411820.719,6.8383636
1434411820.735,4.255394
1434411820.75,1.9187012
1434411820.766,-0.12017822
1434411820.782,-1.8180618
1434411820.797,-3.18042
1434411820.813,-4.2426453
1434411820.828,-5.0081406
1434411820.844,-5.4319305
1434411820.86,-5.470047
1434411820.875,-5.14196
1434411820.891,-4.6514664
1434411820.907,-4.312004
1434411820.922,-4.4431686
1434411820.938,-5.1765976
1434411820.953,-6.3719254
1434411820.969,-7.6908646
1434411820.985,-8.778145
1434411821,-9.417458
1434411821.016,-9.579063
1434411821.032,-9.365562
1434411821.047,-8.888062
1434411821.063,-8.19146
1434411821.078,-7.2469864
1434411821.094,-6.036751
1434411821.11,-4.629944
1434411821.125,-3.1525116
1434411821.141,-1.7892685
1434411821.157,-0.70314026
1434411821.172,0.029129028
1434411821.188,0.43682098
1434411821.203,0.7372055
1434411821.219,1.1859436
1434411821.235,1.98909
1434411821.25,3.1749268
1434411821.266,4.581642
1434411821.282,5.9085083
1434411821.297,6.956749
1434411821.313,7.6835556
1434411821.328,8.278397
1434411821.344,9.058678
1434411821.36,10.280426
1434411821.375,11.990677
1434411821.391,14.043625
1434411821.407,16.134003
1434411821.422,17.923264
1434411821.438,19.0876
1434411821.453,19.392197
1434411821.469,18.679024
1434411821.485,16.930092
1434411821.5,14.288567
1434411821.516,11.050034
1434411821.532,7.579834
1434411821.547,4.2267303
1434411821.563,1.219635
1434411821.578,-1.2417221
1434411821.594,-3.049965
1434411821.61,-4.1735687
1434411821.625,-4.6491547
1434411821.641,-4.668167
1434411821.657,-4.539749
1434411821.672,-4.5999985
1434411821.688,-5.1033936
1434411821.703,-6.0873184
1434411821.719,-7.381798
1434411821.735,-8.692093
1434411821.75,-9.729485
1434411821.766,-10.30006
1434411821.782,-10.383167
1434411821.797,-10.089527
1434411821.813,-9.629402
1434411821.828,-9.221245
1434411821.844,-9.02874
1434411821.86,-9.082096
1434411821.875,-9.295536
1434411821.891,-9.508549
1434411821.907,-9.574028
1434411821.922,-9.415176
1434411821.938,-9.050869
1434411821.953,-8.479401
1434411821.969,-7.6784935
1434411821.985,-6.558468
1434411822,-5.0666924
1434411822.016,-3.2353172
1434411822.032,-1.2496872
1434411822.047,0.64847565
1434411822.063,2.2322845
1434411822.078,3.4047852
1434411822.094,4.222271
1434411822.11,4.8393974
1434411822.125,5.437439
1434411822.141,6.2317696
1434411822.157,7.4079056
1434411822.172,9.083862
1434411822.188,11.265579
1434411822.203,13.77758
1434411822.219,16.23389
1434411822.235,18.16882
1434411822.25,19.108006
1434411822.266,18.8026
1434411822.282,17.255135
1434411822.297,14.739254
1434411822.313,11.667156
1434411822.328,8.559078
1434411822.344,5.8338184
1434411822.36,3.7563515
1434411822.375,2.3525772
1434411822.391,1.4644184
1434411822.407,0.7618809
1434411822.422,-0.04349327
1434411822.438,-1.1222973
1434411822.453,-2.4593925
1434411822.469,-3.9172897
1434411822.485,-5.333025
1434411822.5,-6.620331
1434411822.516,-7.7233353
1434411822.532,-8.616161
1434411822.547,-9.253233
1434411822.563,-9.594006
1434411822.578,-9.662609
1434411822.594,-9.6062565
1434411822.61,-9.633762
1434411822.625,-9.948785
1434411822.641,-10.60523
1434411822.657,-11.483198
1434411822.672,-12.304508
1434411822.688,-12.799893
1434411822.703,-12.737541
1434411822.719,-12.079838
1434411822.735,-10.930392
1434411822.75,-9.519993
1434411822.766,-8.070916
1434411822.782,-6.8094893
1434411822.797,-5.82806
1434411822.813,-5.1140113
1434411822.828,-4.544112
1434411822.844,-3.9714942
1434411822.86,-3.2576528
1434411822.875,-2.3680084
1434411822.891,-1.2827208
1434411822.907,-0.009194851
1434411822.922,1.4400733
1434411822.938,3.0306716
1434411822.953,4.7124195
1434411822.969,6.396617
1434411822.985,8.069415
1434411823,9.824453
1434411823.016,11.830787
1434411823.032,14.218827
1434411823.047,16.933235
1434411823.063,19.638882
1434411823.078,21.817562
1434411823.094,22.947527
1434411823.11,22.703304
1434411823.125,21.070591
1434411823.141,18.359806
1434411823.157,14.976138
1434411823.172,11.359113
1434411823.188,7.8148584
1434411823.203,4.5375023
1434411823.219,1.628725
1434411823.235,-0.84472847
1434411823.25,-2.8708363
1434411823.266,-4.41263
1434411823.282,-5.474016
1434411823.297,-6.116314
1434411823.313,-6.490999
1434411823.328,-6.7933865
1434411823.344,-7.2799683
1434411823.36,-8.110586
1434411823.375,-9.318968
1434411823.391,-10.747793
1434411823.407,-12.158726
1434411823.422,-13.319748
1434411823.438,-14.149967
1434411823.454,-14.661751
1434411823.469,-14.962454
1434411823.485,-15.1418705
1434411823.5,-15.249231
1434411823.516,-15.229677
1434411823.532,-15.043339
1434411823.547,-14.644978
1434411823.563,-14.066793
1434411823.579,-13.401741
1434411823.594,-12.766462
1434411823.61,-12.237045
1434411823.625,-11.811325
1434411823.641,-11.296032
1434411823.657,-10.408485
1434411823.672,-8.874027
1434411823.688,-6.603428
1434411823.704,-3.7688599
1434411823.719,-0.81653595
1434411823.735,1.7717972
1434411823.75,3.668064
1434411823.766,4.8369827
1434411823.782,5.5384903
1434411823.797,6.1788254
1434411823.813,7.1365623
1434411823.829,8.670948
1434411823.844,10.897232
1434411823.86,13.750904
1434411823.875,16.993507
1434411823.891,20.252296
1434411823.907,23.007202
1434411823.922,24.724197
1434411823.938,24.994759
1434411823.954,23.65644
1434411823.969,20.850048
1434411823.985,16.996616
1434411824,12.613476
1434411824.016,8.300198
1434411824.032,4.532383
1434411824.047,1.6128998
1434411824.063,-0.4172554
1434411824.079,-1.7587662
1434411824.094,-2.7785149
1434411824.11,-3.8467216
1434411824.125,-5.1743317
1434411824.141,-6.763237
1434411824.157,-8.43803
1434411824.172,-9.996204
1434411824.188,-11.319981
1434411824.204,-12.369797
1434411824.219,-13.19809
1434411824.235,-13.83337
1434411824.25,-14.269253
1434411824.266,-14.458469
1434411824.282,-14.443954
1434411824.297,-14.315479
1434411824.313,-14.216877
1434411824.329,-14.268322
1434411824.344,-14.498413
1434411824.36,-14.808331
1434411824.375,-15.0204735
1434411824.391,-14.885078
1434411824.407,-14.201332
1434411824.422,-12.910362
1434411824.438,-11.157528
1434411824.454,-9.22805
1434411824.469,-7.5075226
1434411824.485,-6.234329
1434411824.5,-5.439026
1434411824.516,-4.9112396
1434411824.532,-4.334141
1434411824.547,-3.4489212
1434411824.563,-2.187992
1434411824.579,-0.6186905
1434411824.594,1.1130104
1434411824.61,2.91568
1434411824.625,4.7724724
1434411824.641,6.7168617
1434411824.657,8.7732315
1434411824.672,10.89925
1434411824.688,13.011108
1434411824.704,15.027229
1434411824.719,16.856743
1434411824.735,18.376
1434411824.75,19.36885
1434411824.766,19.637482
1434411824.782,18.990662
1434411824.797,17.36081
1434411824.813,14.818954
1434411824.829,11.621933
1434411824.844,8.082718
1434411824.86,4.547676
1434411824.875,1.2893829
1434411824.891,-1.5118484
1434411824.907,-3.824463
1434411824.922,-5.705696
1434411824.938,-7.287079
1434411824.954,-8.612984
1434411824.969,-9.68734
1434411824.985,-10.454636
1434411825,-10.921173
1434411825.016,-11.195122
1434411825.032,-11.501564
1434411825.047,-12.063011
1434411825.063,-12.980591
1434411825.079,-14.168953
1434411825.094,-15.400322
1434411825.11,-16.429703
1434411825.125,-17.076996
1434411825.141,-17.265846
1434411825.157,-16.998665
1434411825.172,-16.293526
1434411825.188,-15.180496
1434411825.204,-13.720955
1434411825.219,-12.05941
1434411825.235,-10.368866
1434411825.25,-8.852234
1434411825.266,-7.6140366
1434411825.282,-6.6666107
1434411825.297,-5.9024887
1434411825.313,-5.1836853
1434411825.329,-4.3288193
1434411825.344,-3.1789246
1434411825.36,-1.6528931
1434411825.375,0.21863556
1434411825.391,2.2593307
1434411825.407,4.1960297
1434411825.422,5.778366
1434411825.438,6.860573
1434411825.454,7.4841995
1434411825.469,7.84103
1434411825.485,8.22282
1434411825.5,8.888935
1434411825.516,10.074375
1434411825.532,11.910263
1434411825.547,14.36528
1434411825.563,17.178566
1434411825.579,19.87775
1434411825.594,21.826496
1434411825.61,22.460827
1434411825.625,21.452644
1434411825.641,18.849834
1434411825.657,15.061253
1434411825.672,10.704918
1434411825.688,6.381256
1434411825.704,2.570324
1434411825.719,-0.47486115
1434411825.735,-2.7159958
1434411825.75,-4.2899704
1434411825.766,-5.425152
1434411825.782,-6.397129
1434411825.797,-7.3961143
1434411825.813,-8.482742
1434411825.829,-9.5928
1434411825.844,-10.592869
1434411825.86,-11.364212
1434411825.875,-11.902702
1434411825.891,-12.205727
1434411825.907,-12.312286
1434411825.922,-12.222889
1434411825.938,-11.96389
1434411825.954,-11.614353
1434411825.969,-11.344376
1434411825.985,-11.307659
1434411826,-11.573925
1434411826.016,-12.053371
1434411826.032,-12.514187
1434411826.047,-12.682049
1434411826.063,-12.364063
1434411826.079,-11.453491
1434411826.094,-10.0151825
1434411826.11,-8.19532
1434411826.126,-6.255806
1434411826.141,-4.492237
1434411826.157,-3.1808624
1434411826.172,-2.4925728
1434411826.188,-2.3936272
1434411826.204,-2.6508675
1434411826.219,-2.9263496
1434411826.235,-2.9041328
1434411826.251,-2.4244194
1434411826.266,-1.4602623
1434411826.282,-0.10928726
1434411826.297,1.5257225
1434411826.313,3.3418732
1434411826.329,5.2452393
1434411826.344,7.1264763
1434411826.36,8.943771
1434411826.376,10.697937
1434411826.391,12.529999
1434411826.407,14.572224
1434411826.422,16.851677
1434411826.438,19.151367
1434411826.454,21.089722
1434411826.469,22.183666
1434411826.485,22.074223
1434411826.501,20.608421
1434411826.516,17.95528
1434411826.532,14.461506
1434411826.547,10.615665
1434411826.563,6.883045
1434411826.579,3.6283836
1434411826.594,1.0488472
1434411826.61,-0.8624954
1434411826.626,-2.2747154
1434411826.641,-3.380005
1434411826.657,-4.300686
1434411826.672,-5.0570564
1434411826.688,-5.6295013
1434411826.704,-6.0255127
1434411826.719,-6.3940773
1434411826.735,-6.9219017
1434411826.751,-7.7645493
1434411826.766,-8.882946
1434411826.782,-10.066538
1434411826.797,-11.031321
1434411826.813,-11.600456
1434411826.829,-11.740715
1434411826.844,-11.58293
1434411826.86,-11.289547
1434411826.876,-10.978798
1434411826.891,-10.666258
1434411826.907,-10.303431
1434411826.922,-9.8337
1434411826.938,-9.2436695
1434411826.954,-8.547323
1434411826.969,-7.7772026
1434411826.985,-6.954937
1434411827.001,-6.1109047
1434411827.016,-5.21574
1434411827.032,-4.2522583
1434411827.047,-3.170454
1434411827.063,-1.9492874
1434411827.079,-0.6162529
1434411827.094,0.7383671
1434411827.11,1.9937286
1434411827.126,3.0324726
1434411827.141,3.8134098
1434411827.157,4.358679
1434411827.172,4.756998
1434411827.188,5.1288624
1434411827.204,5.626789
1434411827.219,6.3862457
1434411827.235,7.515335
1434411827.251,9.087814
1434411827.266,11.064882
1434411827.282,13.294164
1434411827.297,15.510705
1434411827.313,17.367271
1434411827.329,18.530506
1434411827.344,18.733307
1434411827.36,17.869694
1434411827.376,15.977303
1434411827.391,13.313782
1434411827.407,10.238172
1434411827.422,7.1430397
1434411827.438,4.3285685
1434411827.454,1.9569168
1434411827.469,0.031770706
1434411827.485,-1.5052557
1434411827.501,-2.7341518
1434411827.516,-3.703456
1434411827.532,-4.451329
1434411827.547,-5.044119
1434411827.563,-5.6160483
1434411827.579,-6.2630854
1434411827.594,-7.02756
1434411827.61,-7.810186
1434411827.626,-8.466364
1434411827.641,-8.820713
1434411827.657,-8.851863
1434411827.672,-8.641948
1434411827.688,-8.40353
1434411827.704,-8.330458
1434411827.719,-8.557315
1434411827.735,-9.069147
1434411827.751,-9.716271
1434411827.766,-10.2365265
1434411827.782,-10.348032
1434411827.797,-9.874479
1434411827.813,-8.819324
1434411827.829,-7.378884
1434411827.844,-5.898143
1434411827.86,-4.6737647
1434411827.876,-3.8585134
1434411827.891,-3.3686671
1434411827.907,-2.975094
1434411827.922,-2.4309027
1434411827.938,-1.5970354
1434411827.954,-0.4239714
1434411827.969,1.0446706
1434411827.985,2.777159
1434411828.001,4.703437
1434411828.016,6.74594
1434411828.032,8.727678
1434411828.047,10.447037
1434411828.063,11.760113
1434411828.079,12.681999
1434411828.094,13.39983
1434411828.11,14.200561
1434411828.126,15.272104
1434411828.141,16.637508
1434411828.157,18.08037
1434411828.172,19.218502
1434411828.188,19.63483
1434411828.204,19.017626
1434411828.219,17.203327
1434411828.235,14.289094
1434411828.251,10.615914
1434411828.266,6.73304
1434411828.282,3.2537136
1434411828.297,0.66519356
1434411828.313,-0.8551121
1434411828.329,-1.4577894
1434411828.344,-1.5476665
1434411828.36,-1.5445805
1434411828.376,-1.7145786
1434411828.391,-2.0967035
1434411828.407,-2.5735989
1434411828.422,-3.0555038
1434411828.438,-3.580639
1434411828.454,-4.287957
1434411828.469,-5.306327
1434411828.485,-6.595874
1434411828.501,-7.944954
1434411828.516,-9.005124
1434411828.532,-9.523101
1434411828.547,-9.440633
1434411828.563,-8.954925
1434411828.579,-8.381102
1434411828.594,-7.993371
1434411828.61,-7.873992
1434411828.626,-7.904868
1434411828.641,-7.8449335
1434411828.657,-7.488428
1434411828.672,-6.7596273
1434411828.688,-5.765785
1434411828.704,-4.663927
1434411828.719,-3.6383104
1434411828.735,-2.7499933
1434411828.751,-1.9692659
1434411828.766,-1.1694202
1434411828.782,-0.24747372
1434411828.798,0.8597708
1434411828.813,2.1364288
1434411828.829,3.4779062
1434411828.844,4.756318
1434411828.86,5.9113255
1434411828.876,6.928314
1434411828.891,7.928337
1434411828.907,9.085882
1434411828.922,10.562778
1434411828.938,12.412881
1434411828.954,14.56238
1434411828.969,16.77272
1434411828.985,18.741741
1434411829.001,20.118776
1434411829.016,20.610504
1434411829.032,20.018116
1434411829.048,18.314228
1434411829.063,15.63059
1434411829.079,12.334448
1434411829.094,8.892997
1434411829.11,5.7746344
1434411829.126,3.25799
1434411829.141,1.399044
1434411829.157,0.021595001
1434411829.173,-1.1171503
1434411829.188,-2.2275867
1434411829.204,-3.3754578
1434411829.219,-4.527175
1434411829.235,-5.588047
1434411829.251,-6.530985
1434411829.266,-7.3486185
1434411829.282,-8.05188
1434411829.298,-8.647929
1434411829.313,-9.1224985
1434411829.329,-9.478619
1434411829.344,-9.779449
1434411829.36,-10.083755
1434411829.376,-10.46022
1434411829.391,-10.915558
1434411829.407,-11.383395
1434411829.423,-11.729284
1434411829.438,-11.81428
1434411829.454,-11.499386
1434411829.469,-10.732487
1434411829.485,-9.55633
1434411829.501,-8.12051
1434411829.516,-6.614954
1434411829.532,-5.2685757
1434411829.548,-4.214003
1434411829.563,-3.5142336
1434411829.579,-3.078721
1434411829.594,-2.7408733
1434411829.61,-2.2922378
1434411829.626,-1.580728
1434411829.641,-0.5294337
1434411829.657,0.82768106
1434411829.673,2.3948069
1434411829.688,4.0410895
1434411829.704,5.6575904
1434411829.719,7.1845064
1434411829.735,8.651531
1434411829.751,10.169152
1434411829.766,11.885543
1434411829.782,13.901388
1434411829.798,16.198038
1434411829.813,18.603443
1434411829.829,20.84315
1434411829.844,22.557337
1434411829.86,23.412317
1434411829.876,23.14936
1434411829.891,21.674103
1434411829.907,19.103582
1434411829.923,15.730739
1434411829.938,11.975072
1434411829.954,8.256887
1434411829.969,4.904671
1434411829.985,2.0724616
1434411830.001,-0.25136328
1434411830.016,-2.1429064
1434411830.032,-3.7130926
1434411830.048,-5.01768
1434411830.063,-6.132311
1434411830.079,-7.1122365
1434411830.094,-8.060938
1434411830.11,-9.0329075
1434411830.126,-10.045048
1434411830.141,-10.987116
1434411830.157,-11.702646
1434411830.173,-12.041954
1434411830.188,-11.978624
1434411830.204,-11.590715
1434411830.219,-11.045096
1434411830.235,-10.519038
1434411830.251,-10.1139
1434411830.266,-9.809006
1434411830.282,-9.554546
1434411830.298,-9.256613
1434411830.313,-8.86865
1434411830.329,-8.378841
1434411830.344,-7.8296413
1434411830.36,-7.228716
1434411830.376,-6.587373
1434411830.391,-5.880168
1434411830.407,-5.0904865
1434411830.423,-4.204485
1434411830.438,-3.2355566
1434411830.454,-2.2060623
1434411830.469,-1.1573181
1434411830.485,-0.124549866
1434411830.501,0.8268814
1434411830.516,1.6578712
1434411830.532,2.3480778
1434411830.548,2.9745731
1434411830.563,3.66959
1434411830.579,4.6520596
1434411830.594,6.1007957
1434411830.61,8.1161175
1434411830.626,10.64241
1434411830.641,13.505117
1434411830.657,16.392574
1434411830.673,18.95545
1434411830.688,20.819603
1434411830.704,21.682522
1434411830.719,21.328465
1434411830.735,19.735186
1434411830.751,17.055065
1434411830.766,13.663601
1434411830.782,9.994282
1434411830.798,6.471714
1434411830.813,3.3547497
1434411830.829,0.745018
1434411830.844,-1.4118614
1434411830.86,-3.1880875
1434411830.876,-4.6532936
1434411830.891,-5.8433113
1434411830.907,-6.787071
1434411830.923,-7.548668
1434411830.938,-8.201332
1434411830.954,-8.791939
1434411830.969,-9.358259
1434411830.985,-9.914282
1434411831.001,-10.488131
1434411831.016,-11.104546
1434411831.032,-11.791048
1434411831.048,-12.512333
1434411831.063,-13.175301
1434411831.079,-13.673214
1434411831.094,-13.930626
1434411831.11,-13.96336
1434411831.126,-13.845184
1434411831.141,-13.64838
1434411831.157,-13.385269
1434411831.173,-13.01022
1434411831.188,-12.4902115
1434411831.204,-11.836571
1434411831.219,-11.175785
1434411831.235,-10.6356125
1434411831.251,-10.299725
1434411831.266,-10.118156
1434411831.282,-9.951637
1434411831.298,-9.593224
1434411831.313,-8.885307
1434411831.329,-7.733917
1434411831.344,-6.131649
1434411831.36,-4.1364937
1434411831.376,-1.9188423
1434411831.391,0.33681488
1434411831.407,2.4243393
1434411831.423,4.1992645
1434411831.438,5.6168785
1434411831.454,6.762825
1434411831.47,7.8268585
1434411831.485,9.04393
1434411831.501,10.633457
1434411831.516,12.726341
1434411831.532,15.293354
1434411831.548,18.090958
1434411831.563,20.676796
1434411831.579,22.518265
1434411831.594,23.118462
1434411831.61,22.21524
1434411831.626,19.84005
1434411831.641,16.336231
1434411831.657,12.214531
1434411831.673,8.01363
1434411831.688,4.1720314
1434411831.704,1.0005798
1434411831.72,-1.3926239
1434411831.735,-3.0279617
1434411831.751,-4.075897
1434411831.766,-4.7645454
1434411831.782,-5.3194313
1434411831.798,-5.883644
1434411831.813,-6.48888
1434411831.829,-7.0918465
1434411831.845,-7.658928
1434411831.86,-8.197758
1434411831.876,-8.778847
1434411831.891,-9.448643
1434411831.907,-10.195366
1434411831.923,-10.891968
1434411831.938,-11.420872
1434411831.954,-11.703686
1434411831.97,-11.792263
1434411831.985,-11.785042
1434411832.001,-11.782223
1434411832.016,-11.780361
1434411832.032,-11.690964
1434411832.048,-11.355068
1434411832.063,-10.689365
1434411832.079,-9.687798
1434411832.095,-8.475571
1434411832.11,-7.225506
1434411832.126,-6.096691
1434411832.141,-5.174423
1434411832.157,-4.426342
1434411832.173,-3.7429848
1434411832.188,-2.9759789
1434411832.204,-2.0225563
1434411832.22,-0.8995018
1434411832.235,0.3180771
1434411832.251,1.5296669
1434411832.266,2.7362099
1434411832.282,4.032734
1434411832.298,5.60157
1434411832.313,7.540558
1434411832.329,9.83527
1434411832.345,12.322323
1434411832.36,14.800987
1434411832.376,17.131763
1434411832.391,19.244625
1434411832.407,21.063671
1434411832.423,22.437454
1434411832.438,23.066833
1434411832.454,22.618591
1434411832.47,20.87984
1434411832.485,17.915329
1434411832.501,14.087875
1434411832.516,9.975124
1434411832.532,6.1624565
1434411832.548,3.058075
1434411832.563,0.78985596
1434411832.579,-0.73560333
1434411832.595,-1.8004608
1434411832.61,-2.6478462
1434411832.626,-3.442173
1434411832.641,-4.175434
1434411832.657,-4.766838
1434411832.673,-5.175888
1434411832.688,-5.483177
1434411832.704,-5.876171
1434411832.72,-6.613018
1434411832.735,-7.8328285
1434411832.751,-9.484833
1434411832.766,-11.314522
1434411832.782,-12.988895
1434411832.798,-14.215763
1434411832.813,-14.842285
1434411832.829,-14.838688
1434411832.845,-14.283352
1434411832.86,-13.293972
1434411832.876,-12.0236435
1434411832.891,-10.608597
1434411832.907,-9.225578
1434411832.923,-7.991104
1434411832.938,-6.9802704
1434411832.954,-6.1974983
1434411832.97,-5.590412
1434411832.985,-5.0814514
1434411833.001,-4.585285
1434411833.016,-3.9984016
1434411833.032,-3.2260818
1434411833.048,-2.2176666
1434411833.063,-1.0231056
1434411833.079,0.25161362
1434411833.095,1.4456139
1434411833.11,2.4563026
1434411833.126,3.2819138
1434411833.141,4.069294
1434411833.157,5.0319824
1434411833.173,6.412918
1434411833.188,8.354412
1434411833.204,10.862553
1434411833.22,13.744427
1434411833.235,16.600883
1434411833.251,18.907688
1434411833.266,20.15295
1434411833.282,19.989727
1434411833.298,18.39484
1434411833.313,15.682613
1434411833.329,12.390411
1434411833.345,9.082169
1434411833.36,6.1617813
1434411833.376,3.768547
1434411833.391,1.9045868
1434411833.407,0.4594612
1434411833.423,-0.63928604
1434411833.438,-1.4726524
1434411833.454,-2.1011086
1434411833.47,-2.6320343
1434411833.485,-3.1708183
1434411833.501,-3.7933617
1434411833.516,-4.498871
1434411833.532,-5.252556
1434411833.548,-5.998554
1434411833.563,-6.7110977
1434411833.579,-7.3838577
1434411833.595,-7.9805794
1434411833.61,-8.4044075
1434411833.626,-8.542782
1434411833.641,-8.318996
1434411833.657,-7.790169
1434411833.673,-7.108555
1434411833.688,-6.4767494
1434411833.704,-6.029587
1434411833.72,-5.762768
1434411833.735,-5.541771
1434411833.751,-5.1975327
1434411833.766,-4.5596123
1434411833.782,-3.588684
1434411833.798,-2.3339233
1434411833.813,-0.9355316
1434411833.829,0.4669037
1434411833.845,1.7776184
1434411833.86,2.9856834
1434411833.876,4.150131
1434411833.891,5.384407
1434411833.907,6.7762833
1434411833.923,8.391666
1434411833.938,10.21537
1434411833.954,12.233986
1434411833.97,14.359592
1434411833.985,16.439575
1434411834.001,18.184784
1434411834.016,19.244835
1434411834.032,19.228775
1434411834.048,17.925194
1434411834.063,15.357929
1434411834.079,11.83736
1434411834.095,7.8040314
1434411834.11,3.7247314
1434411834.126,-0.045646667
1434411834.141,-3.2718163
1434411834.157,-5.8261986
1434411834.173,-7.6383286
1434411834.188,-8.693165
1434411834.204,-9.070263
1434411834.22,-8.947395
1434411834.235,-8.5610695
1434411834.251,-8.166046
1434411834.266,-7.917961
1434411834.282,-7.9144096
1434411834.298,-8.145012
1434411834.313,-8.571846
1434411834.329,-9.068192
1434411834.345,-9.471622
1434411834.36,-9.597057
1434411834.376,-9.309689
1434411834.392,-8.587082
1434411834.407,-7.578861
1434411834.423,-6.5173416
1434411834.438,-5.6198883
1434411834.454,-4.965168
1434411834.47,-4.4671593
1434411834.485,-3.9153633
1434411834.501,-3.1005402
1434411834.517,-1.8963356
1434411834.532,-0.3275032
1434411834.548,1.4854126
1434411834.563,3.3394394
1434411834.579,5.106636
1434411834.595,6.689102
1434411834.61,8.098469
1434411834.626,9.395592
1434411834.642,10.684845
1434411834.657,12.016949
1434411834.673,13.395676
1434411834.688,14.722992
1434411834.704,15.826092
1434411834.72,16.471508
1434411834.735,16.438854
1434411834.751,15.570423
1434411834.767,13.861851
1434411834.782,11.431637
1434411834.798,8.5308
1434411834.813,5.441208
1434411834.829,2.4306717
1434411834.845,-0.30594635
1434411834.86,-2.6233292
1434411834.876,-4.424263
1434411834.892,-5.6170883
1434411834.907,-6.1714783
1434411834.923,-6.1537323
1434411834.938,-5.811157
1434411834.954,-5.458351
1434411834.97,-5.413788
1434411834.985,-5.8242493
1434411835.001,-6.6294327
1434411835.017,-7.607788
1434411835.032,-8.502388
1434411835.048,-9.136124
1434411835.063,-9.483406
1434411835.079,-9.547478
1434411835.095,-9.34584
1434411835.11,-8.851311
1434411835.126,-8.010933
1434411835.142,-6.7997055
1434411835.157,-5.302498
1434411835.173,-3.6660385
1434411835.188,-2.0541687
1434411835.204,-0.597435
1434411835.22,0.6368866
1434411835.235,1.6552353
1434411835.251,2.494484
1434411835.267,3.3000488
1434411835.282,4.2492676
1434411835.298,5.5628204
1434411835.313,7.4081345
1434411835.329,9.822456
1434411835.345,12.620232
1434411835.36,15.462471
1434411835.376,17.881996
1434411835.392,19.421738
1434411835.407,19.729706
1434411835.423,18.647865
1434411835.438,16.234367
1434411835.454,12.804947
1434411835.47,8.819778
1434411835.485,4.7872543
1434411835.501,1.111908
1434411835.517,-1.958168
1434411835.532,-4.3694687
1434411835.548,-6.1649323
1434411835.563,-7.443985
1434411835.579,-8.297256
1434411835.595,-8.797409
1434411835.61,-9.038002
1434411835.626,-9.13662
1434411835.642,-9.169159
1434411835.657,-9.204369
1434411835.673,-9.254097
1434411835.688,-9.31678
1434411835.704,-9.373421
1434411835.72,-9.440117
1434411835.735,-9.546326
1434411835.751,-9.729683
1434411835.767,-9.986801
1434411835.782,-10.263939
1434411835.798,-10.459221
1434411835.813,-10.418701
1434411835.829,-9.9528885
1434411835.845,-8.926514
1434411835.86,-7.3097076
1434411835.876,-5.2529755
1434411835.892,-3.0226517
1434411835.907,-0.9255142
1434411835.923,0.85975647
1434411835.938,2.3120193
1434411835.954,3.5891037
1434411835.97,4.917122
1434411835.985,6.509796
1434411836.001,8.492989
1434411836.017,10.912361
1434411836.032,13.695656
1434411836.048,16.617004
1434411836.063,19.259033
1434411836.079,21.074142
1434411836.095,21.52848
1434411836.11,20.333138
1434411836.126,17.563232
1434411836.142,13.66243
1434411836.157,9.262611
1434411836.173,4.9748383
1434411836.188,1.1582031
1434411836.204,-2.0760345
1434411836.22,-4.7848053
1434411836.235,-7.05249
1434411836.251,-8.921921
1434411836.267,-10.345657
1434411836.282,-11.30101
1434411836.298,-11.823517
1434411836.313,-12.082062
1434411836.329,-12.324554
1434411836.345,-12.811226
1434411836.36,-13.687462
1434411836.376,-14.926201
1434411836.392,-16.27861
1434411836.407,-17.403282
1434411836.423,-18.0065
1434411836.438,-17.999641
1434411836.454,-17.513794
1434411836.47,-16.842804
1434411836.485,-16.242111
1434411836.501,-15.805618
1434411836.517,-15.406082
1434411836.532,-14.81514
1434411836.548,-13.7999115
1434411836.563,-12.272064
1434411836.579,-10.27475
1434411836.595,-7.992401
1434411836.61,-5.6284637
1434411836.626,-3.3859558
1434411836.642,-1.3923645
1434411836.657,0.2750244
1434411836.673,1.6106415
1434411836.688,2.680191
1434411836.704,3.611435
1434411836.72,4.5850983
1434411836.735,5.850937
1434411836.751,7.6582184
1434411836.767,10.1931
1434411836.782,13.435181
1434411836.798,17.074066
1434411836.813,20.470749
1434411836.829,22.883774
1434411836.845,23.66507
1434411836.86,22.580078
1434411836.876,19.852676
1434411836.892,16.091446
1434411836.907,11.980225
1434411836.923,8.044113
1434411836.938,4.522278
1434411836.954,1.4505005
1434411836.97,-1.2261353
1434411836.985,-3.546463
1434411837.001,-5.516693
1434411837.017,-7.167572
1434411837.032,-8.587189
1434411837.048,-9.881317
1434411837.064,-11.134567
1434411837.079,-12.347824
1434411837.095,-13.480255
1434411837.11,-14.487991
1434411837.126,-15.392014
1434411837.142,-16.243149
1434411837.157,-17.090332
1434411837.173,-17.919052
1434411837.189,-18.665207
1434411837.204,-19.226784
1434411837.22,-19.536911
1434411837.235,-19.57051
1434411837.251,-19.331871
1434411837.267,-18.84172
1434411837.282,-18.115387
1434411837.298,-17.158257
1434411837.314,-16.013184
1434411837.329,-14.71077
1434411837.345,-13.303368
1434411837.36,-11.831261
1434411837.376,-10.3598175
1434411837.392,-8.92614
1434411837.407,-7.5974884
1434411837.423,-6.401169
1434411837.439,-5.330818
1434411837.454,-4.3347626
1434411837.47,-3.327362
1434411837.485,-2.2093124
1434411837.501,-0.9020233
1434411837.517,0.6466751
1434411837.532,2.4569626
1434411837.548,4.506958
1434411837.564,6.732033
1434411837.579,9.048965
1434411837.595,11.404022
1434411837.61,13.821083
1434411837.626,16.395325
1434411837.642,19.248741
1434411837.657,22.395203
1434411837.673,25.644402
1434411837.689,28.578613
1434411837.704,30.6734
1434411837.72,31.433868
1434411837.735,30.588829
1434411837.751,28.174278
1434411837.767,24.509575
1434411837.782,20.08474
1434411837.798,15.415657
1434411837.814,10.913788
1434411837.829,6.7986984
1434411837.845,3.107254
1434411837.86,-0.24258423
1434411837.876,-3.3826828
1434411837.892,-6.3560333
1434411837.907,-9.127762
1434411837.923,-11.57563
1434411837.939,-13.57859
1434411837.954,-15.088486
1434411837.97,-16.160614
1434411837.985,-16.908318
1434411838.001,-17.460709
1434411838.017,-17.900764
1434411838.032,-18.29737
1434411838.048,-18.690178
1434411838.064,-19.110664
1434411838.079,-19.526093
1434411838.095,-19.846893
1434411838.11,-19.929565
1434411838.126,-19.670357
1434411838.142,-19.057838
1434411838.157,-18.21453
1434411838.173,-17.329567
1434411838.189,-16.577354
1434411838.204,-15.9944
1434411838.22,-15.515335
1434411838.235,-14.969185
1434411838.251,-14.186127
1434411838.267,-13.046944
1434411838.282,-11.535728
1434411838.298,-9.697929
1434411838.314,-7.6642838
1434411838.329,-5.5797195
1434411838.345,-3.6151276
1434411838.36,-1.911583
1434411838.376,-0.55342865
1434411838.392,0.47261047
1434411838.407,1.2756195
1434411838.423,2.0265121
1434411838.439,2.8930435
1434411838.454,4.008133
1434411838.47,5.4079094
1434411838.485,7.044098
1434411838.501,8.79332
1434411838.517,10.550884
1434411838.532,12.2230835
1434411838.548,13.834133
1434411838.564,15.469143
1434411838.579,17.280994
1434411838.595,19.393032
1434411838.61,21.817303
1434411838.626,24.395138
1434411838.642,26.803658
1434411838.657,28.574654
1434411838.673,29.22839
1434411838.689,28.4146
1434411838.704,26.047108
1434411838.72,22.365314
1434411838.735,17.90453
1434411838.751,13.322834
1434411838.767,9.221111
1434411838.782,5.9346313
1434411838.798,3.496624
1434411838.814,1.6620522
1434411838.829,0.12731934
1434411838.845,-1.3892288
1434411838.86,-2.971161
1434411838.876,-4.5926704
1434411838.892,-6.1461716
1434411838.907,-7.5364685
1434411838.923,-8.74295
1434411838.939,-9.794899
1434411838.954,-10.740255
1434411838.97,-11.625666
1434411838.985,-12.466635
1434411839.001,-13.2528
1434411839.017,-13.936668
1434411839.032,-14.47592
1434411839.048,-14.84267
1434411839.064,-15.038763
1434411839.079,-15.070009
1434411839.095,-14.972601
1434411839.11,-14.74955
1434411839.126,-14.39772
1434411839.142,-13.918188
1434411839.157,-13.329123
1434411839.173,-12.68992
1434411839.189,-12.058756
1434411839.204,-11.461139
1434411839.22,-10.891023
1434411839.235,-10.279222
1434411839.251,-9.572812
1434411839.267,-8.7227545
1434411839.282,-7.7332134
1434411839.298,-6.632966
1434411839.314,-5.489524
1434411839.329,-4.3597775
1434411839.345,-3.3112025
1434411839.36,-2.3704076
1434411839.376,-1.5246464
1434411839.392,-0.6529427
1434411839.407,0.3896507
1434411839.423,1.7602742
1434411839.439,3.5162382
1434411839.454,5.587159
1434411839.47,7.7834215
1434411839.485,9.896744
1434411839.501,11.80917
1434411839.517,13.549675
1434411839.532,15.280847
1434411839.548,17.228155
1434411839.564,19.581726
1434411839.579,22.420158
1434411839.595,25.617565
1434411839.61,28.855099
1434411839.626,31.63496
1434411839.642,33.407776
1434411839.657,33.70555
1434411839.673,32.30631
1434411839.689,29.29264
1434411839.704,25.059109
1434411839.72,20.164904
1434411839.736,15.215078
1434411839.751,10.694679
1434411839.767,6.947464
1434411839.782,4.1015186
1434411839.798,2.1130219
1434411839.814,0.7643528
1434411839.829,-0.23900414
1434411839.845,-1.2159309
1434411839.861,-2.3649082
1434411839.876,-3.7963562
1434411839.892,-5.458065
1434411839.907,-7.246067
1434411839.923,-9.015585
1434411839.939,-10.631754
1434411839.954,-11.953684
1434411839.97,-12.866173
1434411839.986,-13.308605
1434411840.001,-13.375206
1434411840.017,-13.2534485
1434411840.032,-13.161152
1434411840.048,-13.198414
1434411840.064,-13.306358
1434411840.079,-13.263153
1434411840.095,-12.892075
1434411840.111,-12.145641
1434411840.126,-11.205032
1434411840.142,-10.3195
1434411840.157,-9.680653
1434411840.173,-9.305119
1434411840.189,-9.086002
1434411840.204,-8.887562
1434411840.22,-8.655857
1434411840.236,-8.412022
1434411840.251,-8.167995
1434411840.267,-7.8179817
1434411840.282,-7.1712685
1434411840.298,-6.036972
1434411840.314,-4.3851013
1434411840.329,-2.3383408
1434411840.345,-0.15881729
1434411840.361,1.9395103
1434411840.376,3.8123817
1434411840.392,5.455448
1434411840.407,6.904999
1434411840.423,8.207523
1434411840.439,9.378365
1434411840.454,10.459232
1434411840.47,11.537342
1434411840.486,12.766132
1434411840.501,14.299961
1434411840.517,16.292488
1434411840.532,18.806484
1434411840.548,21.811573
1434411840.564,25.105179
1434411840.579,28.353214
1434411840.595,31.05605
1434411840.611,32.704945
1434411840.626,32.89793
1434411840.642,31.497288
1434411840.657,28.68163
1434411840.673,24.902077
1434411840.689,20.695107
1434411840.704,16.520405
1434411840.72,12.6703415
1434411840.736,9.241276
1434411840.751,6.215431
1434411840.767,3.5422401
1434411840.782,1.1758957
1434411840.798,-0.91215134
1434411840.814,-2.7832832
1434411840.829,-4.494747
1434411840.845,-6.0900307
1434411840.861,-7.5382957
1434411840.876,-8.7843895
1434411840.892,-9.717731
1434411840.907,-10.279221
1434411840.923,-10.501297
1434411840.939,-10.538219
1434411840.954,-10.590008
1434411840.97,-10.861843
1434411840.986,-11.422382
1434411841.001,-12.198513
1434411841.017,-13.002209
1434411841.032,-13.623085
1434411841.048,-13.926216
1434411841.064,-13.894508
1434411841.079,-13.585396
1434411841.095,-13.081867
1434411841.111,-12.42823
1434411841.126,-11.64946
1434411841.142,-10.742241
1434411841.157,-9.752995
1434411841.173,-8.751369
1434411841.189,-7.8197174
1434411841.204,-7.009617
1434411841.22,-6.326889
1434411841.236,-5.7273483
1434411841.251,-5.170681
1434411841.267,-4.6058464
1434411841.282,-4.006233
1434411841.298,-3.3164215
1434411841.314,-2.4882736
1434411841.329,-1.452877
1434411841.345,-0.17765808
1434411841.361,1.3607712
1434411841.376,3.1307678
1434411841.392,5.0786743
1434411841.407,7.114151
1434411841.423,9.138905
1434411841.439,11.048885
1434411841.454,12.829983
1434411841.47,14.5423355
1434411841.486,16.333954
1434411841.501,18.374584
1434411841.517,20.77848
1434411841.532,23.488445
1434411841.548,26.246841
1434411841.564,28.648804
1434411841.579,30.220524
1434411841.595,30.589104
1434411841.611,29.58179
1434411841.626,27.254257
1434411841.642,23.924538
1434411841.657,20.041954
1434411841.673,16.091576
1434411841.689,12.412472
1434411841.704,9.204929
1434411841.72,6.466427
1434411841.736,4.1160507
1434411841.751,2.0400543
1434411841.767,0.1864624
1434411841.782,-1.4648895
1434411841.798,-2.9052048
1434411841.814,-4.165264
1434411841.829,-5.287506
1434411841.845,-6.3303185
1434411841.861,-7.322445
1434411841.876,-8.279896
1434411841.892,-9.215378
1434411841.907,-10.17712
1434411841.923,-11.243412
1434411841.939,-12.481987
1434411841.954,-13.874187
1434411841.97,-15.286896
1434411841.986,-16.495373
1434411842.001,-17.279781
1434411842.017,-17.49143
1434411842.032,-17.134165
1434411842.048,-16.323109
1434411842.064,-15.267803
1434411842.079,-14.15148
1434411842.095,-13.1137085
1434411842.111,-12.182325
1434411842.126,-11.327564
1434411842.142,-10.478373
1434411842.157,-9.583778
1434411842.173,-8.644041
1434411842.189,-7.7310085
1434411842.204,-6.8988533
1434411842.22,-6.1446133
1434411842.236,-5.3941746
1434411842.251,-4.51672
1434411842.267,-3.3899574
1434411842.282,-1.9567013
1434411842.298,-0.24972534
1434411842.314,1.6174889
1434411842.329,3.538824
1434411842.345,5.3858624
1434411842.361,7.0995502
1434411842.376,8.647116
1434411842.392,10.069925
1434411842.408,11.4518585
1434411842.423,12.971132
1434411842.439,14.819392
1434411842.454,17.14928
1434411842.47,19.948809
1434411842.486,22.985931
1434411842.501,25.822395
1434411842.517,27.918047
1434411842.532,28.77201
1434411842.548,28.097599
1434411842.564,25.872784
1434411842.579,22.389534
1434411842.595,18.112057
1434411842.611,13.614787
1434411842.626,9.391442
1434411842.642,5.795952
1434411842.658,2.963604
1434411842.673,0.8466344
1434411842.689,-0.74296093
1434411842.704,-2.0262704
1434411842.72,-3.1949608
1434411842.736,-4.365495
1434411842.751,-5.60548
1434411842.767,-6.914238
1434411842.783,-8.269352
1434411842.798,-9.646424
1434411842.814,-11.020475
1434411842.829,-12.351284
1434411842.845,-13.628769
1434411842.861,-14.824731
1434411842.876,-15.942436
1434411842.892,-16.943962
1434411842.908,-17.791803
1434411842.923,-18.386507
1434411842.939,-18.653828
1434411842.954,-18.520456
1434411842.97,-18.010471
1434411842.986,-17.20676
1434411843.001,-16.263485
1434411843.017,-15.279559
1434411843.033,-14.294089
1434411843.048,-13.254577
1434411843.064,-12.075228
1434411843.079,-10.716211
1434411843.095,-9.217752
1434411843.111,-7.700142
1434411843.126,-6.296013
1434411843.142,-5.0710163
1434411843.158,-4.0000973
1434411843.173,-2.961729
1434411843.189,-1.8551674
1434411843.204,-0.5988827
1434411843.22,0.78084755
1434411843.236,2.2200203
1434411843.251,3.633194
1434411843.267,4.996092
1434411843.283,6.351162
1434411843.298,7.8163986
1434411843.314,9.535704
1434411843.329,11.683905
1434411843.345,14.368029
1434411843.361,17.596481
1434411843.376,21.22158
1434411843.392,24.927126
1434411843.408,28.247257
1434411843.423,30.655933
1434411843.439,31.650265
1434411843.454,30.930016
1434411843.47,28.436441
1434411843.486,24.467934
1434411843.501,19.540497
1434411843.517,14.339256
1434411843.533,9.494419
1434411843.548,5.454357
1434411843.564,2.3809052
1434411843.579,0.17277527
1434411843.595,-1.4301834
1434411843.611,-2.7041473
1434411843.626,-3.856308
1434411843.642,-5.0223045
1434411843.658,-6.2543945
1434411843.673,-7.6167793
1434411843.689,-9.182003
1434411843.704,-10.944111
1434411843.72,-12.870544
1434411843.736,-14.849644
1434411843.751,-16.745457
1434411843.767,-18.398895
1434411843.783,-19.65427
1434411843.798,-20.367287
1434411843.814,-20.504833
1434411843.829,-20.142124
1434411843.845,-19.500889
1434411843.861,-18.85685
1434411843.876,-18.437813
1434411843.892,-18.292847
1434411843.908,-18.27763
1434411843.923,-18.142841
1434411843.939,-17.666462
1434411843.954,-16.755447
1434411843.97,-15.5011215
1434411843.986,-14.049591
1434411844.001,-12.563511
1434411844.017,-11.092323
1434411844.033,-9.62442
1434411844.048,-8.106152
1434411844.064,-6.5306435
1434411844.079,-4.9061775
1434411844.095,-3.2416725
1434411844.111,-1.5313568
1434411844.126,0.24840546
1434411844.142,2.0930443
1434411844.158,4.0201797
1434411844.173,6.0172157
1434411844.189,8.066376
1434411844.204,10.14122
1434411844.22,12.225296
1434411844.236,14.348351
1434411844.251,16.616028
1434411844.267,19.237389
1434411844.283,22.400406
1434411844.298,26.160194
1434411844.314,30.207016
1434411844.329,33.88762
1434411844.345,36.313026
1434411844.361,36.69825
1434411844.376,34.640076
1434411844.392,30.318314
1434411844.408,24.42308
1434411844.423,17.906082
1434411844.439,11.655525
1434411844.454,6.273445
1434411844.47,1.9883652
1434411844.486,-1.2416916
1434411844.501,-3.6124268
1434411844.517,-5.321289
1434411844.533,-6.545624
1434411844.548,-7.414963
1434411844.564,-8.071648
1434411844.579,-8.656906
1434411844.595,-9.323074
1434411844.611,-10.18058
1434411844.626,-11.282135
1434411844.642,-12.601807
1434411844.658,-14.0609665
1434411844.673,-15.568344
1434411844.689,-17.051682
1434411844.704,-18.493095
1434411844.72,-19.898254
1434411844.736,-21.246384
1434411844.751,-22.460014
1434411844.767,-23.422218
1434411844.783,-24.045418
1434411844.798,-24.260445
1434411844.814,-24.079758
1434411844.829,-23.508728
1434411844.845,-22.544823
1434411844.861,-21.174362
1434411844.876,-19.444443
1434411844.892,-17.462463
1434411844.908,-15.422203
1434411844.923,-13.519737
1434411844.939,-11.851486
1434411844.954,-10.372025
1434411844.97,-8.94297
1434411844.986,-7.40934
1434411845.001,-5.7097626
1434411845.017,-3.860138
1434411845.033,-1.9203949
1434411845.048,0.103782654
1434411845.064,2.255188
1434411845.079,4.5987854
1434411845.095,7.1258698
1434411845.111,9.730049
1434411845.126,12.239342
1434411845.142,14.5731125
1434411845.158,16.786766
1434411845.173,19.113853
1434411845.189,21.820374
1434411845.204,25.036964
1434411845.22,28.619225
1434411845.236,32.091553
1434411845.251,34.76764
1434411845.267,35.97766
1434411845.283,35.255074
1434411845.298,32.514915
1434411845.314,28.044922
1434411845.33,22.429642
1434411845.345,16.382553
1434411845.361,10.560394
1434411845.376,5.401726
1434411845.392,1.1274643
1434411845.408,-2.2828598
1434411845.423,-4.962143
1434411845.439,-7.092453
1434411845.455,-8.782036
1434411845.47,-10.126282
1434411845.486,-11.189049
1434411845.501,-12.076363
1434411845.517,-12.90757
1434411845.533,-13.825378
1434411845.548,-14.895447
1434411845.564,-16.137527
1434411845.58,-17.50753
1434411845.595,-18.930908
1434411845.611,-20.34314
1434411845.626,-21.674614
1434411845.642,-22.839218
1434411845.658,-23.745811
1434411845.673,-24.269547
1434411845.689,-24.327583
1434411845.705,-23.889534
1434411845.72,-23.00129
1434411845.736,-21.730598
1434411845.751,-20.185577
1434411845.767,-18.419281
1434411845.783,-16.493568
1434411845.798,-14.446289
1434411845.814,-12.344765
1434411845.83,-10.272133
1434411845.845,-8.308678
1434411845.861,-6.4907227
1434411845.876,-4.8352814
1434411845.892,-3.3088226
1434411845.908,-1.8482437
1434411845.923,-0.3913269
1434411845.939,1.0991821
1434411845.955,2.6739502
1434411845.97,4.3309784
1434411845.986,6.07209
1434411846.001,7.870247
1434411846.017,9.729485
1434411846.033,11.639885
1434411846.048,13.641006
1434411846.064,15.75531
1434411846.08,18.049553
1434411846.095,20.588676
1434411846.111,23.398834
1434411846.126,26.40728
1434411846.142,29.390648
1434411846.158,31.926102
1434411846.173,33.48709
1434411846.189,33.54667
1434411846.205,31.729927
1434411846.22,27.97538
1434411846.236,22.614975
1434411846.251,16.299072
1434411846.267,9.87677
1434411846.283,4.1314697
1434411846.298,-0.4188614
1434411846.314,-3.6324234
1434411846.33,-5.6980667
1434411846.345,-7.013199
1434411846.361,-7.9409256
1434411846.376,-8.742882
1434411846.392,-9.498314
1434411846.408,-10.195656
1434411846.423,-10.81562
1434411846.439,-11.4399185
1434411846.455,-12.185822
1434411846.47,-13.160835
1434411846.486,-14.331192
1434411846.501,-15.547775
1434411846.517,-16.568443
1434411846.533,-17.2248
1434411846.548,-17.480118
1434411846.564,-17.444977
1434411846.58,-17.308983
1434411846.595,-17.2154
1434411846.611,-17.165993
1434411846.626,-17.043884
1434411846.642,-16.647621
1434411846.658,-15.837975
1434411846.673,-14.597496
1434411846.689,-13.051155
1434411846.705,-11.405975
1434411846.72,-9.883026
1434411846.736,-8.571594
1434411846.751,-7.457054
1434411846.767,-6.4104233
1434411846.783,-5.2989426
1434411846.798,-4.039665
1434411846.814,-2.6444626
1434411846.83,-1.1615677
1434411846.845,0.33655548
1434411846.861,1.8367538
1434411846.876,3.3491516
1434411846.892,4.9092407
1434411846.908,6.495529
1434411846.923,8.048546
1434411846.939,9.509666
1434411846.955,10.89283
1434411846.97,12.331116
1434411846.986,14.065544
1434411847.001,16.327744
1434411847.017,19.22052
1434411847.033,22.585785
1434411847.048,25.99382
1434411847.064,28.843834
1434411847.08,30.514343
1434411847.095,30.543419
1434411847.111,28.7659
1434411847.126,25.312622
1434411847.142,20.619125
1434411847.158,15.249207
1434411847.173,9.7990265
1434411847.189,4.745865
1434411847.205,0.39369965
1434411847.22,-3.1505432
1434411847.236,-5.907318
1434411847.251,-7.986328
1434411847.267,-9.494926
1434411847.283,-10.542625
1434411847.298,-11.242035
1434411847.314,-11.755478
1434411847.33,-12.268715
1434411847.345,-12.97921
1434411847.361,-14.01123
1434411847.376,-15.390175
1434411847.392,-16.987251
1434411847.408,-18.596146
1434411847.423,-20.000435
1434411847.439,-21.036789
1434411847.455,-21.632393
1434411847.47,-21.806694
1434411847.486,-21.633377
1434411847.501,-21.182907
1434411847.517,-20.447403
1434411847.533,-19.336906
1434411847.548,-17.736473
1434411847.564,-15.610817
1434411847.58,-13.076233
1434411847.595,-10.425125
1434411847.611,-7.9889603
1434411847.626,-6.058899
1434411847.642,-4.678253
1434411847.658,-3.7036057
1434411847.673,-2.8416061
1434411847.689,-1.8355179
1434411847.705,-0.5565872
1434411847.72,0.9716339
1434411847.736,2.6510239
1434411847.751,4.403946
1434411847.767,6.2002487
1434411847.783,8.050377
1434411847.798,9.923798
1434411847.814,11.754494
1434411847.83,13.440483
1434411847.845,14.956223
1434411847.861,16.402092
1434411847.876,17.99578
1434411847.892,20.009888
1434411847.908,22.635338
1434411847.923,25.850586
1434411847.939,29.318352
1434411847.955,32.441345
1434411847.97,34.461456
1434411847.986,34.705055
1434411848.002,32.79609
1434411848.017,28.815582
1434411848.033,23.290588
1434411848.048,17.034424
1434411848.064,10.884781
1434411848.08,5.471245
1434411848.095,1.0723343
1434411848.111,-2.331047
1434411848.127,-4.9365845
1434411848.142,-6.9590683
1434411848.158,-8.560547
1434411848.173,-9.847275
1434411848.189,-10.935493
1434411848.205,-11.975067
1434411848.22,-13.155197
1434411848.236,-14.609833
1434411848.252,-16.348175
1434411848.267,-18.205002
1434411848.283,-19.878174
1434411848.298,-21.072342
1434411848.314,-21.613235
1434411848.33,-21.556633
1434411848.345,-21.149574
1434411848.361,-20.683823
1434411848.377,-20.379143
1434411848.392,-20.238121
1434411848.408,-20.113472
1434411848.423,-19.789742
1434411848.439,-19.1221
1434411848.455,-18.090233
1434411848.47,-16.788902
1434411848.486,-15.324852
1434411848.502,-13.778984
1434411848.517,-12.152153
1434411848.533,-10.43959
1434411848.548,-8.659172
1434411848.564,-6.8833084
1434411848.58,-5.2107773
1434411848.595,-3.7248154
1434411848.611,-2.441887
1434411848.627,-1.3059311
1434411848.642,-0.17841339
1434411848.658,1.0902557
1434411848.673,2.607216
1434411848.689,4.370823
1434411848.705,6.2903023
1434411848.72,8.203281
1434411848.736,9.983364
1434411848.752,11.603363
1434411848.767,13.153595
1434411848.783,14.811352
1434411848.798,16.766563
1434411848.814,19.157322
1434411848.83,22.052795
1434411848.845,25.39714
1434411848.861,29.007545
1434411848.877,32.502697
1434411848.892,35.32512
1434411848.908,36.852066
1434411848.923,36.55621
1434411848.939,34.195065
1434411848.955,29.942917
1434411848.97,24.319504
1434411848.986,18.06707
1434411849.002,11.917377
1434411849.017,6.416889
1434411849.033,1.8615532
1434411849.048,-1.6928711
1434411849.064,-4.3657036
1434411849.08,-6.3776627
1434411849.095,-7.9611588
1434411849.111,-9.273193
1434411849.127,-10.411243
1434411849.142,-11.377682
1434411849.158,-12.179932
1434411849.173,-12.84676
1434411849.189,-13.485653
1434411849.205,-14.214664
1434411849.22,-15.120579
1434411849.236,-16.182312
1434411849.252,-17.288815
1434411849.267,-18.284954
1434411849.283,-19.028538
1434411849.298,-19.460045
1434411849.314,-19.59489
1434411849.33,-19.489864
1434411849.345,-19.192585
1434411849.361,-18.723648
1434411849.377,-18.057186
1434411849.392,-17.174107
1434411849.408,-16.058094
1434411849.423,-14.704311
1434411849.439,-13.156311
1434411849.455,-11.451096
1434411849.47,-9.65163
1434411849.486,-7.801773
1434411849.502,-5.960079
1434411849.517,-4.1620445
1434411849.533,-2.4844093
1434411849.548,-1.0058212
1434411849.564,0.22514725
1434411849.58,1.2241516
1434411849.595,2.111847
1434411849.611,3.0951653
1434411849.627,4.3629417
1434411849.642,6.01313
1434411849.658,7.962078
1434411849.673,9.996536
1434411849.689,11.863831
1434411849.705,13.441929
1434411849.72,14.781689
1434411849.736,16.1138
1434411849.752,17.70694
1434411849.767,19.787273
1434411849.783,22.413258
1434411849.798,25.445797
1434411849.814,28.548992
1434411849.83,31.238525
1434411849.845,32.96192
1434411849.861,33.215385
1434411849.877,31.684174
1434411849.892,28.353489
1434411849.908,23.5256
1434411849.923,17.7808
1434411849.939,11.790028
1434411849.955,6.183899
1434411849.97,1.3814926
1434411849.986,-2.415886
1434411850.002,-5.2259674
1434411850.017,-7.1763763
1434411850.033,-8.456608
1434411850.048,-9.252701
1434411850.064,-9.734375
1434411850.08,-10.052006
1434411850.095,-10.357407
1434411850.111,-10.774693
1434411850.127,-11.4072
1434411850.142,-12.278797
1434411850.158,-13.346462
1434411850.173,-14.485413
1434411850.189,-15.575371
1434411850.205,-16.519722
1434411850.22,-17.292484
1434411850.236,-17.904934
1434411850.252,-18.38755
1434411850.267,-18.684658
1434411850.283,-18.707863
1434411850.298,-18.337814
1434411850.314,-17.515457
1434411850.33,-16.283733
1434411850.345,-14.791195
1434411850.361,-13.218422
1434411850.377,-11.747379
1434411850.392,-10.472116
1434411850.408,-9.416706
1434411850.423,-8.52013
1434411850.439,-7.705826
1434411850.455,-6.887331
1434411850.47,-6.012663
1434411850.486,-5.0357
1434411850.502,-3.9187546
1434411850.517,-2.6079044
1434411850.533,-1.056818
1434411850.548,0.79509354
1434411850.564,2.9311676
1434411850.58,5.2782593
1434411850.595,7.6935596
1434411850.611,10.014639
1434411850.627,12.11898
1434411850.642,14.009724
1434411850.658,15.7876835
1434411850.674,17.676779
1434411850.689,19.907425
1434411850.705,22.655636
1434411850.72,25.927887
1434411850.736,29.510803
1434411850.752,32.930313
1434411850.767,35.548782
1434411850.783,36.720085
1434411850.799,35.993027
1434411850.814,33.267864
1434411850.83,28.868443
1434411850.845,23.398193
1434411850.861,17.570732
1434411850.877,11.98332
1434411850.892,7.000984
1434411850.908,2.746544
1434411850.924,-0.77529716
1434411850.939,-3.607689
1434411850.955,-5.761631
1434411850.97,-7.2627373
1434411850.986,-8.188204
1434411851.002,-8.702076
1434411851.017,-9.036602
1434411851.033,-9.438938
1434411851.049,-10.088055
1434411851.064,-11.033701
1434411851.08,-12.229261
1434411851.095,-13.5663185
1434411851.111,-14.924454
1434411851.127,-16.239183
1434411851.142,-17.460464
1434411851.158,-18.553288
1434411851.174,-19.43235
1434411851.189,-19.992014
1434411851.205,-20.110868
1434411851.22,-19.76158
1434411851.236,-18.998844
1434411851.252,-17.982859
1434411851.267,-16.866302
1434411851.283,-15.736694
1434411851.299,-14.565226
1434411851.314,-13.264572
1434411851.33,-11.764326
1434411851.345,-10.078552
1434411851.361,-8.298033
1434411851.377,-6.539217
1434411851.392,-4.82942
1434411851.408,-3.1208801
1434411851.424,-1.2807083
1434411851.439,0.7651348
1434411851.455,3.0136185
1434411851.47,5.3408184
1434411851.486,7.5856667
1434411851.502,9.632242
1434411851.517,11.472557
1434411851.533,13.262312
1434411851.549,15.218092
1434411851.564,17.550024
1434411851.58,20.390493
1434411851.595,23.713343
1434411851.611,27.345253
1434411851.627,30.973225
1434411851.642,34.214085
1434411851.658,36.60935
1434411851.674,37.731956
1434411851.689,37.21291
1434411851.705,34.859367
1434411851.72,30.68744
1434411851.736,25.026402
1434411851.752,18.452374
1434411851.767,11.703287
1434411851.783,5.494301
1434411851.799,0.3228569
1434411851.814,-3.6208725
1434411851.83,-6.430958
1434411851.845,-8.377174
1434411851.861,-9.744011
1434411851.877,-10.755623
1434411851.892,-11.5262375
1434411851.908,-12.117123
1434411851.924,-12.5901985
1434411851.939,-13.075874
1434411851.955,-13.716545
1434411851.97,-14.663116
1434411851.986,-15.976826
1434411852.002,-17.599716
1434411852.017,-19.322186
1434411852.033,-20.844364
1434411852.049,-21.860683
1434411852.064,-22.182941
1434411852.08,-21.818256
1434411852.095,-20.950737
1434411852.111,-19.859669
1434411852.127,-18.805763
1434411852.142,-17.902325
1434411852.158,-17.137466
1434411852.174,-16.397575
1434411852.189,-15.579102
1434411852.205,-14.644451
1434411852.22,-13.654835
1434411852.236,-12.628937
1434411852.252,-11.531567
1434411852.267,-10.215786
1434411852.283,-8.488075
1434411852.299,-6.227028
1434411852.314,-3.507824
1434411852.33,-0.5754738
1434411852.345,2.2171936
1434411852.361,4.5891266
1434411852.377,6.4148865
1434411852.392,7.7809143
1434411852.408,8.922455
1434411852.424,10.118755
1434411852.439,11.55526
1434411852.455,13.300064
1434411852.47,15.341278
1434411852.486,17.652302
1434411852.502,20.266659
1434411852.517,23.255825
1434411852.533,26.621342
1434411852.549,30.1726
1434411852.564,33.45616
1434411852.58,35.82345
1434411852.595,36.57733
1434411852.611,35.265297
1434411852.627,31.840622
1434411852.642,26.761925
1434411852.658,20.786964
1434411852.674,14.739544
1434411852.689,9.204205
1434411852.705,4.419636
1434411852.72,0.28097534
1434411852.736,-3.3909378
1434411852.752,-6.7083626
1434411852.767,-9.591831
1434411852.783,-11.841862
1434411852.799,-13.304134
1434411852.814,-14.030983
1434411852.83,-14.314095
1434411852.845,-14.574722
1434411852.861,-15.160072
1434411852.877,-16.226982
1434411852.892,-17.65363
1434411852.908,-19.183918
1434411852.924,-20.560318
1434411852.939,-21.653194
1434411852.955,-22.45697
1434411852.97,-22.991455
1434411852.986,-23.232395
1434411853.002,-23.113918
1434411853.017,-22.556984
1434411853.033,-21.565315
1434411853.049,-20.23133
1434411853.064,-18.699764
1434411853.08,-17.083385
1434411853.095,-15.429771
1434411853.111,-13.736519
1434411853.127,-12.029396
1434411853.142,-10.376686
1434411853.158,-8.883366
1434411853.174,-7.601944
1434411853.189,-6.483143
1434411853.205,-5.380871
1434411853.22,-4.115345
1434411853.236,-2.5596695
1434411853.252,-0.71196747
1434411853.267,1.3241882
1434411853.283,3.357418
1434411853.299,5.216198
1434411853.314,6.8104477
1434411853.33,8.176643
1434411853.346,9.482994
1434411853.361,11.002415
1434411853.377,13.005581
1434411853.392,15.665409
1434411853.408,19.010063
1434411853.424,22.873669
1434411853.439,26.892181
1434411853.455,30.562778
1434411853.47,33.256554
1434411853.486,34.38812
1434411853.502,33.54074
1434411853.517,30.681492
1434411853.533,26.204502
1434411853.549,20.87815
1434411853.564,15.5328865
1434411853.58,10.772533
1434411853.596,6.809757
1434411853.611,3.476139
1434411853.627,0.4703598
1434411853.642,-2.372219
1434411853.658,-4.9750404
1434411853.674,-7.0936317
1434411853.689,-8.521286
1434411853.705,-9.288162
1434411853.721,-9.664055
1434411853.736,-10.041199
1434411853.752,-10.750652
1434411853.767,-11.871407
1434411853.783,-13.274532
1434411853.799,-14.705097
1434411853.814,-15.972637
1434411853.83,-17.017601
1434411853.846,-17.9431
1434411853.861,-18.875381
1434411853.877,-19.844643
1434411853.892,-20.70493
1434411853.908,-21.123844
1434411853.924,-20.735386
1434411853.939,-19.355648
1434411853.955,-17.078636
1434411853.971,-14.3112755
1434411853.986,-11.591934
1434411854.002,-9.355637
1434411854.017,-7.719284
1434411854.033,-6.469307
1434411854.049,-5.178379
1434411854.064,-3.479168
1434411854.08,-1.2252502
1434411854.096,1.4189415
1434411854.111,4.1363487
1434411854.127,6.586361
1434411854.142,8.601765
1434411854.158,10.20961
1434411854.174,11.582027
1434411854.189,12.936241
1434411854.205,14.4665985
1434411854.221,16.30574
1434411854.236,18.52237
1434411854.252,21.082882
1434411854.267,23.844913
1434411854.283,26.47984
1434411854.299,28.514011
1434411854.314,29.36039
1434411854.33,28.530792
1434411854.346,25.806416
1434411854.361,21.368336
1434411854.377,15.759518
1434411854.392,9.788891
1434411854.408,4.195862
1434411854.424,-0.49590683
1434411854.439,-4.11084
1434411854.455,-6.6866302
1434411854.471,-8.36507
1434411854.486,-9.23745
1434411854.502,-9.361301
1434411854.517,-8.837452
1434411854.533,-7.9252396
1434411854.549,-7.020733
1434411854.564,-6.5669518
1434411854.58,-6.8471947
1434411854.596,-7.8631935
1434411854.611,-9.354336
1434411854.627,-10.939083
1434411854.642,-12.27409
1434411854.658,-13.183926
1434411854.674,-13.633152
1434411854.689,-13.707527
1434411854.705,-13.4818
1434411854.721,-13.016933
1434411854.736,-12.31715
1434411854.752,-11.387806
1434411854.767,-10.186279
1434411854.783,-8.68745
1434411854.799,-6.8822517
1434411854.814,-4.841877
1434411854.83,-2.7183304
1434411854.846,-0.68598175
1434411854.861,1.1183205
1434411854.877,2.6763496
1434411854.892,4.1199265
1434411854.908,5.651924
1434411854.924,7.482895
1434411854.939,9.716179
1434411854.955,12.360153
1434411854.971,15.272499
1434411854.986,18.234932
1434411855.002,20.921276
1434411855.017,22.940647
1434411855.033,23.872513
1434411855.049,23.388332
1434411855.064,21.32949
1434411855.08,17.832981
1434411855.096,13.289276
1434411855.111,8.270714
1434411855.127,3.3788033
1434411855.142,-0.8923836
1434411855.158,-4.260193
1434411855.174,-6.6096916
1434411855.189,-7.9826508
1434411855.205,-8.504665
1434411855.221,-8.37252
1434411855.236,-7.819893
1434411855.252,-7.135208
1434411855.267,-6.6035004
1434411855.283,-6.4552956
1434411855.299,-6.79504
1434411855.314,-7.582958
1434411855.33,-8.636608
1434411855.346,-9.757858
1434411855.361,-10.798187
1434411855.377,-11.727825
1434411855.392,-12.578461
1434411855.408,-13.395233
1434411855.424,-14.1083145
1434411855.439,-14.535946
1434411855.455,-14.388359
1434411855.471,-13.425926
1434411855.486,-11.547646
1434411855.502,-8.862423
1434411855.517,-5.6699677
1434411855.533,-2.3713531
1434411855.549,0.65667725
1434411855.564,3.1613846
1434411855.58,5.1287994
1434411855.596,6.765335
1434411855.611,8.420509
1434411855.627,10.459648
1434411855.642,13.105835
1434411855.658,16.278534
1434411855.674,19.591507
1434411855.689,22.420845
1434411855.705,24.110413
1434411855.721,24.158691
1434411855.736,22.368935
1434411855.752,18.900726
1434411855.767,14.201172
1434411855.783,8.88282
1434411855.799,3.5886154
1434411855.814,-1.1525269
1434411855.83,-5.005951
1434411855.846,-7.8541718
1434411855.861,-9.766846
1434411855.877,-10.956619
1434411855.892,-11.657387
1434411855.908,-12.081955
1434411855.924,-12.361717
1434411855.939,-12.571686
1434411855.955,-12.740196
1434411855.971,-12.903427
1434411855.986,-13.084488
1434411856.002,-13.316414
1434411856.017,-13.581001
1434411856.033,-13.819977
1434411856.049,-13.935768
1434411856.064,-13.859985
1434411856.08,-13.561607
1434411856.096,-13.056656
1434411856.111,-12.373474
1434411856.127,-11.508026
1434411856.142,-10.387047
1434411856.158,-8.884659
1434411856.174,-6.90609
1434411856.189,-4.466408
1434411856.205,-1.7315445
1434411856.221,1.0159531
1434411856.236,3.5111923
1434411856.252,5.6110992
1434411856.268,7.415863
1434411856.283,9.189735
1434411856.299,11.295731
1434411856.314,14.017639
1434411856.33,17.432304
1434411856.346,21.323341
1434411856.361,25.23964
1434411856.377,28.537865
1434411856.393,30.540428
1434411856.408,30.725113
1434411856.424,28.837624
1434411856.439,25.002365
1434411856.455,19.694519
1434411856.471,13.599747
1434411856.486,7.420662
1434411856.502,1.6813431
1434411856.518,-3.2904205
1434411856.533,-7.372101
1434411856.549,-10.517601
1434411856.564,-12.766487
1434411856.58,-14.213806
1434411856.596,-15.052177
1434411856.611,-15.566391
1434411856.627,-16.027672
1434411856.643,-16.593674
1434411856.658,-17.272682
1434411856.674,-17.94654
1434411856.689,-18.513885
1434411856.705,-18.96914
1434411856.721,-19.436935
1434411856.736,-20.056168
1434411856.752,-20.885788
1434411856.768,-21.789398
1434411856.783,-22.50624
1434411856.799,-22.74572
1434411856.814,-22.35817
1434411856.83,-21.368347
1434411856.846,-19.963158
1434411856.861,-18.34105
1434411856.877,-16.635742
1434411856.893,-14.889931
1434411856.908,-13.054863
1434411856.924,-11.091942
1434411856.939,-9.017212
1434411856.955,-6.8675537
1434411856.971,-4.682007
1434411856.986,-2.4552078
1434411857.002,-0.13599396
1434411857.018,2.3210297
1434411857.033,4.936531
1434411857.049,7.6691055
1434411857.064,10.435867
1434411857.08,13.188438
1434411857.096,15.936211
1434411857.111,18.774048
1434411857.127,21.79676
1434411857.143,25.051178
1434411857.158,28.389702
1434411857.174,31.45633
1434411857.189,33.70565
1434411857.205,34.538113
1434411857.221,33.48982
1434411857.236,30.44875
1434411857.252,25.73145
1434411857.268,20.005585
1434411857.283,14.090599
1434411857.299,8.69112
1434411857.314,4.1895447
1434411857.33,0.60144806
1434411857.346,-2.3017082
1434411857.361,-4.809654
1434411857.377,-7.1216583
1434411857.393,-9.293407
1434411857.408,-11.309994
1434411857.424,-13.155052
1434411857.439,-14.8778305
1434411857.455,-16.53402
1434411857.471,-18.152954
1434411857.486,-19.681553
1434411857.502,-20.982307
1434411857.518,-21.91615
1434411857.533,-22.416946
1434411857.549,-22.539581
1434411857.564,-22.431885
1434411857.58,-22.267979
1434411857.596,-22.164429
1434411857.611,-22.120495
1434411857.627,-22.039097
1434411857.643,-21.770802
1434411857.658,-21.206596
1434411857.674,-20.314003
1434411857.689,-19.153202
1434411857.705,-17.830238
1434411857.721,-16.469887
1434411857.736,-15.148785
1434411857.752,-13.902798
1434411857.768,-12.71603
1434411857.783,-11.559246
1434411857.799,-10.38015
1434411857.814,-9.133602
1434411857.83,-7.7742043
1434411857.846,-6.2361374
1434411857.861,-4.4750366
1434411857.877,-2.4848022
1434411857.893,-0.30491257
1434411857.908,1.9612484
1434411857.924,4.199545
1434411857.939,6.2776985
1434411857.955,8.142157
1434411857.971,9.800182
1434411857.986,11.3488865
1434411858.002,12.937103
