1435708011.597,0.0
1435708011.613,0.0
1435708011.628,0.0
1435708011.644,0.0
1435708011.66,0.0
1435708011.675,0.0
1435708011.691,0.0
1435708011.706,0.0
1435708011.722,0.0
1435708011.738,0.0022315353
1435708011.753,-0.0045169927
1435708011.769,-0.011265522
1435708011.785,-0.011383951
1435708011.8,0.0011864507
1435708011.816,0.025910312
1435708011.831,0.050634187
1435708011.847,0.051362894
1435708011.863,-0.0014929791
1435708011.878,-0.1302426
1435708011.894,-0.35562757
1435708011.91,-0.6591247
1435708011.925,-1.0095103
1435708011.941,-1.3709826
1435708011.956,-1.7197359
1435708011.972,-2.0551105
1435708011.988,-2.39945
1435708012.003,-2.7866635
1435708012.019,-3.2399073
1435708012.035,-3.796012
1435708012.05,-4.418684
1435708012.066,-5.0592937
1435708012.081,-5.6644096
1435708012.097,-6.2021537
1435708012.113,-6.6808796
1435708012.128,-7.149598
1435708012.144,-7.6782336
1435708012.16,-8.310739
1435708012.175,-9.143657
1435708012.191,-10.089731
1435708012.206,-11.041313
1435708012.222,-11.8842125
1435708012.238,-12.564316
1435708012.253,-13.13563
1435708012.269,-13.760044
1435708012.285,-14.65232
1435708012.3,-15.962056
1435708012.316,-17.914436
1435708012.331,-20.317284
1435708012.347,-22.903818
1435708012.363,-25.379456
1435708012.378,-27.578257
1435708012.394,-29.573265
1435708012.41,-31.67675
1435708012.425,-34.31985
1435708012.441,-37.815052
1435708012.456,-42.54051
1435708012.472,-48.142685
1435708012.488,-54.100033
1435708012.503,-59.832367
1435708012.519,-64.982414
1435708012.535,-69.60757
1435708012.55,-74.17772
1435708012.566,-79.37098
1435708012.581,-85.69601
1435708012.597,-93.68063
1435708012.613,-102.821686
1435708012.628,-112.34032
1435708012.644,-121.36783
1435708012.66,-129.35052
1435708012.675,-136.31729
1435708012.691,-142.87285
1435708012.706,-150.31674
1435708012.722,-157.31981
1435708012.738,-166.12791
1435708012.753,-177.3399
1435708012.769,-191.0811
1435708012.785,-206.17621
1435708012.8,-219.73334
1435708012.816,-227.41524
1435708012.831,-224.54955
1435708012.847,-207.71553
1435708012.863,-175.98431
1435708012.878,-131.72244
1435708012.894,-78.78905
1435708012.91,-21.573486
1435708012.925,36.618958
1435708012.941,94.18799
1435708012.956,150.88315
1435708012.972,206.89716
1435708012.988,262.06165
1435708013.003,315.6422
1435708013.019,366.21664
1435708013.035,412.80038
1435708013.05,454.5407
1435708013.066,490.66754
1435708013.081,520.17615
1435708013.097,541.6774
1435708013.113,553.5693
1435708013.128,554.3386
1435708013.144,543.13403
1435708013.16,519.83044
1435708013.175,485.5356
1435708013.191,442.08746
1435708013.206,391.77545
1435708013.222,336.9825
1435708013.238,279.93762
1435708013.253,222.59702
1435708013.269,166.62982
1435708013.285,113.46518
1435708013.3,64.156494
1435708013.316,19.564667
1435708013.331,-19.83194
1435708013.347,-53.86743
1435708013.363,-82.62906
1435708013.378,-106.34924
1435708013.394,-125.30992
1435708013.41,-139.80605
1435708013.425,-150.07692
1435708013.441,-156.31767
1435708013.456,-158.59882
1435708013.472,-157.1175
1435708013.488,-152.48782
1435708013.503,-146.02736
1435708013.519,-139.7582
1435708013.535,-135.94452
1435708013.55,-136.26823
1435708013.566,-141.02682
1435708013.581,-148.83664
1435708013.597,-157.07486
1435708013.613,-162.93732
1435708013.628,-164.5343
1435708013.644,-161.49486
1435708013.66,-154.77905
1435708013.675,-145.97435
1435708013.691,-136.49057
1435708013.706,-127.14162
1435708013.722,-118.18326
1435708013.738,-109.65959
1435708013.753,-101.70248
1435708013.769,-94.52892
1435708013.785,-88.20894
1435708013.8,-82.496445
1435708013.816,-76.8682
1435708013.832,-70.76211
1435708013.847,-63.84353
1435708013.863,-56.324543
1435708013.878,-48.611298
1435708013.894,-41.292282
1435708013.91,-34.924187
1435708013.925,-29.845884
1435708013.941,-26.099846
1435708013.956,-23.460377
1435708013.972,-21.494526
1435708013.988,-19.712082
1435708014.003,-17.708405
1435708014.019,-15.291576
1435708014.035,-12.578369
1435708014.05,-9.872398
1435708014.066,-7.4859505
1435708014.082,-5.540203
1435708014.097,-3.8992233
1435708014.113,-2.2795944
1435708014.128,-0.48877716
1435708014.144,1.3862076
1435708014.16,3.0382118
1435708014.175,4.0944824
1435708014.191,4.4122925
1435708014.207,4.1647644
1435708014.222,3.7892342
1435708014.238,3.7104797
1435708014.253,4.118416
1435708014.269,4.865036
1435708014.285,5.62175
1435708014.3,6.091259
1435708014.316,6.170616
1435708014.332,5.9820824
1435708014.347,5.76445
1435708014.363,5.6641464
1435708014.378,5.693577
1435708014.394,5.7447968
1435708014.41,5.735279
1435708014.425,5.649147
1435708014.441,5.555958
1435708014.457,5.4435883
1435708014.472,5.1812706
1435708014.488,4.5124817
1435708014.503,3.209072
1435708014.519,1.2341232
1435708014.535,-1.1250839
1435708014.55,-3.3451042
1435708014.566,-4.8493385
1435708014.582,-5.277233
1435708014.597,-4.6252937
1435708014.613,-3.262867
1435708014.628,-1.7021065
1435708014.644,-0.39347458
1435708014.66,0.4474678
1435708014.675,0.88479614
1435708014.691,1.1455994
1435708014.707,1.403513
1435708014.722,1.7342873
1435708014.738,2.0370827
1435708014.753,2.1577187
1435708014.769,1.9664383
1435708014.785,1.4951706
1435708014.8,0.8873558
1435708014.816,0.37423325
1435708014.832,0.13345337
1435708014.847,0.22790527
1435708014.863,0.5704708
1435708014.878,1.0111504
1435708014.894,1.3804932
1435708014.91,1.6051922
1435708014.925,1.6814995
1435708014.941,1.6838474
1435708014.957,1.6729202
1435708014.972,1.7101536
1435708014.988,1.8242168
1435708015.003,2.032673
1435708015.019,2.299162
1435708015.035,2.6044102
1435708015.05,2.8737335
1435708015.066,3.0603867
1435708015.082,3.093151
1435708015.097,2.9437275
1435708015.113,2.634224
1435708015.128,2.2166996
1435708015.144,1.7954521
1435708015.16,1.4889812
1435708015.175,1.4402027
1435708015.191,1.7867908
1435708015.207,2.5598774
1435708015.222,3.647173
1435708015.238,4.716482
1435708015.253,5.30381
1435708015.269,4.9465218
1435708015.285,3.4125404
1435708015.3,0.85484314
1435708015.316,-2.1677246
1435708015.332,-4.8983707
1435708015.347,-6.6548233
1435708015.363,-7.109997
1435708015.378,-6.360018
1435708015.394,-4.876301
1435708015.41,-3.222149
1435708015.425,-1.8445759
1435708015.441,-0.923769
1435708015.457,-0.4047699
1435708015.472,-0.103975296
1435708015.488,0.14320374
1435708015.503,0.40756035
1435708015.519,0.6343193
1435708015.535,0.77830124
1435708015.55,0.81118584
1435708015.566,0.8132191
1435708015.582,0.89043236
1435708015.597,1.1117935
1435708015.613,1.4728775
1435708015.628,1.8782387
1435708015.644,2.1835022
1435708015.66,2.3196373
1435708015.675,2.2990131
1435708015.691,2.2282104
1435708015.707,2.235609
1435708015.722,2.4023666
1435708015.738,2.7034454
1435708015.753,3.079483
1435708015.769,3.4633236
1435708015.785,3.8342133
1435708015.8,4.216406
1435708015.816,4.6198254
1435708015.832,5.0262623
1435708015.847,5.3521137
1435708015.863,5.5209217
1435708015.878,5.5122395
1435708015.894,5.349636
1435708015.91,5.146559
1435708015.925,4.9845657
1435708015.941,4.9323425
1435708015.957,4.9568634
1435708015.972,5.010103
1435708015.988,5.028467
1435708016.003,4.974331
1435708016.019,4.7469616
1435708016.035,4.2022305
1435708016.05,3.1301136
1435708016.066,1.3436031
1435708016.082,-1.1961212
1435708016.097,-4.301138
1435708016.113,-7.5634823
1435708016.128,-10.422153
1435708016.144,-12.406113
1435708016.16,-13.24379
1435708016.175,-13.023319
1435708016.191,-12.095123
1435708016.207,-10.972357
1435708016.222,-10.068445
1435708016.238,-9.624964
1435708016.253,-9.608219
1435708016.269,-9.848343
1435708016.285,-10.116972
1435708016.3,-10.268402
1435708016.316,-10.31097
1435708016.332,-10.3299885
1435708016.347,-10.439375
1435708016.363,-10.678814
1435708016.378,-10.979332
1435708016.394,-11.233406
1435708016.41,-11.281469
1435708016.425,-11.032082
1435708016.441,-10.391279
1435708016.457,-9.380768
1435708016.472,-8.033623
1435708016.488,-6.455968
1435708016.503,-4.760687
1435708016.519,-2.9539118
1435708016.535,-1.0152702
1435708016.55,1.078681
1435708016.566,3.2887
1435708016.582,5.5060825
1435708016.597,7.535944
1435708016.613,9.178914
1435708016.628,10.317227
1435708016.644,10.941747
1435708016.66,11.16525
1435708016.675,11.095685
1435708016.691,10.869273
1435708016.707,10.546471
1435708016.722,10.228649
1435708016.738,9.9848795
1435708016.754,9.919731
1435708016.769,10.036461
1435708016.785,10.217695
1435708016.8,10.198576
1435708016.816,9.648701
1435708016.832,8.3303795
1435708016.847,6.2193894
1435708016.863,3.5734487
1435708016.879,0.8645601
1435708016.894,-1.3943696
1435708016.91,-2.7863493
1435708016.925,-3.1815453
1435708016.941,-2.7053385
1435708016.957,-1.738641
1435708016.972,-0.6537075
1435708016.988,0.23625731
1435708017.004,0.8248689
1435708017.019,1.1378016
1435708017.035,1.2670379
1435708017.05,1.2884784
1435708017.066,1.2581137
1435708017.082,1.1817037
1435708017.097,1.0920026
1435708017.113,1.0004767
1435708017.129,0.903521
1435708017.144,0.7638514
1435708017.16,0.5780937
1435708017.175,0.35683206
1435708017.191,0.19212025
1435708017.207,0.18264568
1435708017.222,0.40981203
1435708017.238,0.8451006
1435708017.254,1.3827405
1435708017.269,1.8683108
1435708017.285,2.2169018
1435708017.3,2.4577663
1435708017.316,2.7285576
1435708017.332,3.1502619
1435708017.347,3.7652419
1435708017.363,4.4725304
1435708017.379,5.1069236
1435708017.394,5.505122
1435708017.41,5.624383
1435708017.425,5.540822
1435708017.441,5.4606423
1435708017.457,5.6054983
1435708017.472,6.191669
1435708017.488,7.39028
1435708017.504,9.163804
1435708017.519,11.432522
1435708017.535,13.972591
1435708017.55,16.374016
1435708017.566,18.07735
1435708017.582,18.449444
1435708017.597,17.010057
1435708017.613,13.599945
1435708017.629,8.537944
1435708017.644,2.5242138
1435708017.66,-3.4761786
1435708017.675,-8.57905
1435708017.691,-12.2212105
1435708017.707,-14.291159
1435708017.722,-15.055096
1435708017.738,-15.010436
1435708017.754,-14.6416855
1435708017.769,-14.278586
1435708017.785,-14.048275
1435708017.8,-13.891633
1435708017.816,-13.687831
1435708017.832,-13.370732
1435708017.847,-12.937383
1435708017.863,-12.44949
1435708017.879,-11.98113
1435708017.894,-11.525451
1435708017.91,-11.045692
1435708017.925,-10.507764
1435708017.941,-9.908406
1435708017.957,-9.319363
1435708017.972,-8.839628
1435708017.988,-8.505055
1435708018.004,-8.194632
1435708018.019,-7.6372585
1435708018.035,-6.499877
1435708018.05,-4.5655193
1435708018.066,-1.8685417
1435708018.082,1.2558899
1435708018.097,4.348296
1435708018.113,6.974615
1435708018.129,8.934906
1435708018.144,10.286181
1435708018.16,11.291224
1435708018.175,12.253837
1435708018.191,13.456684
1435708018.207,15.099106
1435708018.222,17.321693
1435708018.238,20.124313
1435708018.254,23.285984
1435708018.269,26.273369
1435708018.285,28.292406
1435708018.3,28.5229
1435708018.316,26.438427
1435708018.332,22.0956
1435708018.347,16.144981
1435708018.363,9.603527
1435708018.379,3.4566698
1435708018.394,-1.649909
1435708018.41,-5.52192
1435708018.425,-8.314402
1435708018.441,-10.274418
1435708018.457,-11.612882
1435708018.472,-12.415373
1435708018.488,-12.743654
1435708018.504,-12.696959
1435708018.519,-12.462196
1435708018.535,-12.235872
1435708018.55,-12.154934
1435708018.566,-12.206642
1435708018.582,-12.285065
1435708018.597,-12.2224865
1435708018.613,-11.923655
1435708018.629,-11.39493
1435708018.644,-10.750004
1435708018.66,-10.113596
1435708018.675,-9.566521
1435708018.691,-9.063665
1435708018.707,-8.464575
1435708018.722,-7.5711765
1435708018.738,-6.2112026
1435708018.754,-4.3259773
1435708018.769,-2.0198364
1435708018.785,0.48342896
1435708018.8,2.9006824
1435708018.816,5.012598
1435708018.832,6.7375565
1435708018.847,8.170139
1435708018.863,9.519022
1435708018.879,11.06419
1435708018.894,13.061176
1435708018.91,15.670486
1435708018.925,18.855314
1435708018.941,22.3067
1435708018.957,25.41635
1435708018.972,27.380919
1435708018.988,27.417053
1435708019.004,25.082191
1435708019.019,20.470343
1435708019.035,14.252787
1435708019.05,7.461092
1435708019.066,1.1312656
1435708019.082,-4.0375805
1435708019.097,-7.8294373
1435708019.113,-10.4499
1435708019.129,-12.261669
1435708019.144,-13.589245
1435708019.16,-14.575075
1435708019.175,-15.226553
1435708019.191,-15.519657
1435708019.207,-15.511665
1435708019.222,-15.330761
1435708019.238,-15.148567
1435708019.254,-15.075024
1435708019.269,-15.099106
1435708019.285,-15.095936
1435708019.3,-14.899063
1435708019.316,-14.389713
1435708019.332,-13.583488
1435708019.347,-12.61343
1435708019.363,-11.695679
1435708019.379,-10.984119
1435708019.394,-10.517212
1435708019.41,-10.12524
1435708019.426,-9.516346
1435708019.441,-8.380974
1435708019.457,-6.556034
1435708019.472,-4.0968285
1435708019.488,-1.3265266
1435708019.504,1.3374825
1435708019.519,3.524681
1435708019.535,5.1008263
1435708019.551,6.2439957
1435708019.566,7.3790054
1435708019.582,8.993641
1435708019.597,11.451725
1435708019.613,14.754154
1435708019.629,18.489132
1435708019.644,21.89233
1435708019.66,24.082249
1435708019.676,24.316364
1435708019.691,22.268364
1435708019.707,18.134972
1435708019.722,12.608051
1435708019.738,6.622383
1435708019.754,1.062767
1435708019.769,-3.5064583
1435708019.785,-6.9494934
1435708019.801,-9.481461
1435708019.816,-11.453564
1435708019.832,-13.159943
1435708019.847,-14.702152
1435708019.863,-16.005268
1435708019.879,-16.897274
1435708019.894,-17.272999
1435708019.91,-17.139511
1435708019.926,-16.658703
1435708019.941,-16.050533
1435708019.957,-15.531376
1435708019.972,-15.186481
1435708019.988,-14.986671
1435708020.004,-14.795475
1435708020.019,-14.487602
1435708020.035,-14.017097
1435708020.051,-13.42799
1435708020.066,-12.809597
1435708020.082,-12.245979
1435708020.097,-11.692745
1435708020.113,-11.027489
1435708020.129,-10.087078
1435708020.144,-8.755329
1435708020.16,-7.0107346
1435708020.176,-4.951517
1435708020.191,-2.7222195
1435708020.207,-0.49611473
1435708020.222,1.5960732
1435708020.238,3.4568005
1435708020.254,5.0563164
1435708020.269,6.4240284
1435708020.285,7.6725044
1435708020.301,8.953682
1435708020.316,10.477978
1435708020.332,12.433472
1435708020.347,14.925476
1435708020.363,17.8727
1435708020.379,20.968359
1435708020.394,23.66824
1435708020.41,25.31047
1435708020.426,25.319845
1435708020.441,23.406096
1435708020.457,19.704859
1435708020.472,14.74852
1435708020.488,9.268215
1435708020.504,3.9672852
1435708020.519,-0.698349
1435708020.535,-4.554346
1435708020.551,-7.6454086
1435708020.566,-10.06374
1435708020.582,-11.905329
1435708020.597,-13.218206
1435708020.613,-14.089104
1435708020.629,-14.649099
1435708020.644,-15.059865
1435708020.66,-15.424299
1435708020.676,-15.756524
1435708020.691,-15.9457
1435708020.707,-15.866749
1435708020.722,-15.471073
1435708020.738,-14.853454
1435708020.754,-14.213334
1435708020.769,-13.753402
1435708020.785,-13.577765
1435708020.801,-13.6417055
1435708020.816,-13.777102
1435708020.832,-13.775801
1435708020.847,-13.462482
1435708020.863,-12.76951
1435708020.879,-11.7017
1435708020.894,-10.350951
1435708020.91,-8.841595
1435708020.926,-7.2989182
1435708020.941,-5.7875447
1435708020.957,-4.318813
1435708020.972,-2.826845
1435708020.988,-1.2269793
1435708021.004,0.5448537
1435708021.019,2.4441686
1435708021.035,4.352701
1435708021.051,6.0904975
1435708021.066,7.5237317
1435708021.082,8.609905
1435708021.097,9.444454
1435708021.113,10.213084
1435708021.129,11.177368
1435708021.144,12.583776
1435708021.16,14.626249
1435708021.176,17.338928
1435708021.191,20.520344
1435708021.207,23.70085
1435708021.222,26.163969
1435708021.238,27.128988
1435708021.254,26.01337
1435708021.269,22.678566
1435708021.285,17.552439
1435708021.301,11.506292
1435708021.316,5.5934677
1435708021.332,0.67302704
1435708021.347,-2.8443966
1435708021.363,-5.072748
1435708021.379,-6.4561005
1435708021.394,-7.5180054
1435708021.41,-8.568718
1435708021.426,-9.653477
1435708021.441,-10.590742
1435708021.457,-11.19046
1435708021.472,-11.387205
1435708021.488,-11.29504
1435708021.504,-11.1138115
1435708021.519,-11.018669
1435708021.535,-11.060959
1435708021.551,-11.147797
1435708021.566,-11.1359215
1435708021.582,-10.951427
1435708021.597,-10.626804
1435708021.613,-10.31728
1435708021.629,-10.175346
1435708021.644,-10.269543
1435708021.66,-10.487175
1435708021.676,-10.619736
1435708021.691,-10.400364
1435708021.707,-9.64558
1435708021.722,-8.327335
1435708021.738,-6.60009
1435708021.754,-4.7230873
1435708021.769,-2.983017
1435708021.785,-1.5442085
1435708021.801,-0.44028473
1435708021.816,0.45463943
1435708021.832,1.3400612
1435708021.847,2.4023132
1435708021.863,3.722355
1435708021.879,5.283581
1435708021.894,6.930599
1435708021.91,8.477848
1435708021.926,9.75404
1435708021.941,10.719559
1435708021.957,11.452126
1435708021.972,12.157524
1435708021.988,13.091148
1435708022.004,14.47477
1435708022.019,16.392159
1435708022.035,18.742233
1435708022.051,21.195274
1435708022.066,23.243935
1435708022.082,24.296951
1435708022.098,23.871521
1435708022.113,21.712456
1435708022.129,17.940094
1435708022.144,13.03775
1435708022.16,7.772293
1435708022.176,2.9293594
1435708022.191,-0.9037552
1435708022.207,-3.5217285
1435708022.223,-5.09079
1435708022.238,-6.023529
1435708022.254,-6.7362823
1435708022.269,-7.4767227
1435708022.285,-8.248169
1435708022.301,-8.908653
1435708022.316,-9.301994
1435708022.332,-9.409538
1435708022.348,-9.339455
1435708022.363,-9.278435
1435708022.379,-9.350838
1435708022.394,-9.561333
1435708022.41,-9.797806
1435708022.426,-9.931908
1435708022.441,-9.886314
1435708022.457,-9.711174
1435708022.473,-9.528885
1435708022.488,-9.450516
1435708022.504,-9.466324
1435708022.519,-9.448387
1435708022.535,-9.145988
1435708022.551,-8.336266
1435708022.566,-6.9312744
1435708022.582,-5.0781555
1435708022.598,-3.1061096
1435708022.613,-1.420166
1435708022.629,-0.28591156
1435708022.644,0.2783203
1435708022.66,0.5245209
1435708022.676,0.8247299
1435708022.691,1.4898376
1435708022.707,2.5965805
1435708022.723,4.006439
1435708022.738,5.456032
1435708022.754,6.738701
1435708022.769,7.8084793
1435708022.785,8.798332
1435708022.801,9.905045
1435708022.816,11.330132
1435708022.832,13.159943
1435708022.848,15.35788
1435708022.863,17.747742
1435708022.879,20.029945
1435708022.894,21.78926
1435708022.91,22.574654
1435708022.926,21.993599
1435708022.941,19.881912
1435708022.957,16.384743
1435708022.973,11.968788
1435708022.988,7.2873993
1435708023.004,3.019333
1435708023.019,-0.3548584
1435708023.035,-2.6451645
1435708023.051,-3.964119
1435708023.066,-4.620064
1435708023.082,-4.9762497
1435708023.098,-5.3048553
1435708023.113,-5.7246857
1435708023.129,-6.1920547
1435708023.144,-6.586403
1435708023.16,-6.7834167
1435708023.176,-6.7455444
1435708023.191,-6.5233536
1435708023.207,-6.2384186
1435708023.223,-6.0113297
1435708023.238,-5.936676
1435708023.254,-6.0258636
1435708023.269,-6.2471924
1435708023.285,-6.4862976
1435708023.301,-6.6601563
1435708023.316,-6.6836243
1435708023.332,-6.5206223
1435708023.348,-6.167656
1435708023.363,-5.6280594
1435708023.379,-4.8868866
1435708023.394,-3.9531708
1435708023.41,-2.8522644
1435708023.426,-1.6687775
1435708023.441,-0.51247406
1435708023.457,0.5190201
1435708023.473,1.415741
1435708023.488,2.238678
1435708023.504,3.1133041
1435708023.519,4.121475
1435708023.535,5.29126
1435708023.551,6.573181
1435708023.566,7.8878555
1435708023.582,9.16803
1435708023.598,10.401291
1435708023.613,11.602539
1435708023.629,12.854706
1435708023.644,14.248093
1435708023.66,15.907715
1435708023.676,17.87857
1435708023.691,20.047348
1435708023.707,22.052399
1435708023.723,23.31894
1435708023.738,23.220474
1435708023.754,21.376831
1435708023.769,17.84105
1435708023.785,13.16835
1435708023.801,8.191772
1435708023.816,3.7402802
1435708023.832,0.33389282
1435708023.848,-1.9175873
1435708023.863,-3.2520142
1435708023.879,-4.044983
1435708023.894,-4.6258087
1435708023.91,-5.15477
1435708023.926,-5.6552277
1435708023.941,-6.066696
1435708023.957,-6.3696747
1435708023.973,-6.582245
1435708023.988,-6.7622986
1435708024.004,-6.9351807
1435708024.019,-7.1018066
1435708024.035,-7.2039185
1435708024.051,-7.2213135
1435708024.066,-7.1677094
1435708024.082,-7.1261597
1435708024.098,-7.184639
1435708024.113,-7.397171
1435708024.129,-7.692276
1435708024.144,-7.9070663
1435708024.16,-7.8426056
1435708024.176,-7.359642
1435708024.191,-6.444519
1435708024.207,-5.221794
1435708024.223,-3.8435898
1435708024.238,-2.4301834
1435708024.254,-1.0207062
1435708024.269,0.41563416
1435708024.285,1.9158173
1435708024.301,3.4656067
1435708024.316,5.016739
1435708024.332,6.479439
1435708024.348,7.774231
1435708024.363,8.847633
1435708024.379,9.717926
1435708024.394,10.45858
1435708024.41,11.228188
1435708024.426,12.214729
1435708024.441,13.633438
1435708024.457,15.61261
1435708024.473,18.146126
1435708024.488,21.00615
1435708024.504,23.749908
1435708024.519,25.79618
1435708024.535,26.575119
1435708024.551,25.670258
1435708024.566,22.981071
1435708024.582,18.76606
1435708024.598,13.630066
1435708024.613,8.335007
1435708024.629,3.640091
1435708024.644,0.029144287
1435708024.66,-2.36969
1435708024.676,-3.803749
1435708024.691,-4.6969147
1435708024.707,-5.468109
1435708024.723,-6.313545
1435708024.738,-7.2029037
1435708024.754,-7.943596
1435708024.77,-8.356026
1435708024.785,-8.391777
1435708024.801,-8.205994
1435708024.816,-8.037033
1435708024.832,-8.096611
1435708024.848,-8.424965
1435708024.863,-8.903107
1435708024.879,-9.320915
1435708024.894,-9.513145
1435708024.91,-9.436935
1435708024.926,-9.189774
1435708024.941,-8.911392
1435708024.957,-8.722382
1435708024.973,-8.594131
1435708024.988,-8.394386
1435708025.004,-7.9103317
1435708025.02,-6.9692993
1435708025.035,-5.50898
1435708025.051,-3.6116486
1435708025.066,-1.4827499
1435708025.082,0.60330963
1435708025.098,2.4267502
1435708025.113,3.8716736
1435708025.129,4.9787903
1435708025.145,5.911598
1435708025.16,6.9021835
1435708025.176,8.155014
1435708025.191,9.82605
1435708025.207,11.981911
1435708025.223,14.608055
1435708025.238,17.546951
1435708025.254,20.481316
1435708025.27,22.883904
1435708025.285,24.136734
1435708025.301,23.674736
1435708025.316,21.25341
1435708025.332,17.0793
1435708025.348,11.822487
1435708025.363,6.3799286
1435708025.379,1.5854568
1435708025.395,-2.0778732
1435708025.41,-4.563629
1435708025.426,-6.161354
1435708025.441,-7.239441
1435708025.457,-8.070797
1435708025.473,-8.725296
1435708025.488,-9.152588
1435708025.504,-9.293514
1435708025.52,-9.196163
1435708025.535,-9.028912
1435708025.551,-9.01656
1435708025.566,-9.306786
1435708025.582,-9.9360695
1435708025.598,-10.777393
1435708025.613,-11.640545
1435708025.629,-12.318123
1435708025.645,-12.688152
1435708025.66,-12.728535
1435708025.676,-12.515842
1435708025.691,-12.16016
1435708025.707,-11.745491
1435708025.723,-11.271183
1435708025.738,-10.669006
1435708025.754,-9.81258
1435708025.77,-8.589043
1435708025.785,-6.9425926
1435708025.801,-4.8935356
1435708025.816,-2.5295792
1435708025.832,0.0038223267
1435708025.848,2.5447693
1435708025.863,4.8975124
1435708025.879,6.9071407
1435708025.895,8.519421
1435708025.91,9.852823
1435708025.926,11.208887
1435708025.941,12.970396
1435708025.957,15.444717
1435708025.973,18.673407
1435708025.988,22.351234
1435708026.004,25.888111
1435708026.02,28.558731
1435708026.035,29.728405
1435708026.051,28.997343
1435708026.066,26.297215
1435708026.082,21.861269
1435708026.098,16.198177
1435708026.113,9.945594
1435708026.129,3.7988014
1435708026.145,-1.6301727
1435708026.16,-5.9431725
1435708026.176,-9.036156
1435708026.191,-11.045858
1435708026.207,-12.274004
1435708026.223,-13.026794
1435708026.238,-13.518236
1435708026.254,-13.834864
1435708026.27,-14.016259
1435708026.285,-14.081471
1435708026.301,-14.130927
1435708026.316,-14.260676
1435708026.332,-14.567895
1435708026.348,-15.026878
1435708026.363,-15.537983
1435708026.379,-15.919936
1435708026.395,-16.023806
1435708026.41,-15.802498
1435708026.426,-15.295622
1435708026.441,-14.618318
1435708026.457,-13.869745
1435708026.473,-13.078082
1435708026.488,-12.183444
1435708026.504,-11.044601
1435708026.52,-9.513615
1435708026.535,-7.494793
1435708026.551,-5.032215
1435708026.566,-2.297514
1435708026.582,0.43325043
1435708026.598,2.918293
1435708026.613,5.0174656
1435708026.629,6.764286
1435708026.645,8.335485
1435708026.66,9.990524
1435708026.676,11.961851
1435708026.691,14.412487
1435708026.707,17.383207
1435708026.723,20.756062
1435708026.738,24.206081
1435708026.754,27.200191
1435708026.77,29.046055
1435708026.785,29.073902
1435708026.801,26.871067
1435708026.816,22.505524
1435708026.832,16.548664
1435708026.848,9.916222
1435708026.863,3.537754
1435708026.879,-1.9090576
1435708026.895,-6.172161
1435708026.91,-9.330154
1435708026.926,-11.630161
1435708026.941,-13.302456
1435708026.957,-14.498768
1435708026.973,-15.297115
1435708026.988,-15.786629
1435708027.004,-16.066849
1435708027.02,-16.246456
1435708027.035,-16.38552
1435708027.051,-16.472057
1435708027.066,-16.465199
1435708027.082,-16.348259
1435708027.098,-16.17767
1435708027.113,-16.049171
1435708027.129,-16.039452
1435708027.145,-16.15408
1435708027.16,-16.298481
1435708027.176,-16.33973
1435708027.191,-16.141655
1435708027.207,-15.597946
1435708027.223,-14.631508
1435708027.238,-13.224091
1435708027.254,-11.364151
1435708027.27,-9.127731
1435708027.285,-6.663971
1435708027.301,-4.2132187
1435708027.316,-2.0239105
1435708027.332,-0.27881622
1435708027.348,1.0218277
1435708027.363,2.0956497
1435708027.379,3.339157
1435708027.395,5.188225
1435708027.41,7.9616013
1435708027.426,11.693726
1435708027.441,16.050072
1435708027.457,20.321053
1435708027.473,23.567894
1435708027.488,24.878082
1435708027.504,23.674858
1435708027.52,19.897934
1435708027.535,14.099815
1435708027.551,7.2508163
1435708027.566,0.4535141
1435708027.582,-5.422104
1435708027.598,-9.921074
1435708027.613,-13.065727
1435708027.629,-15.182068
1435708027.645,-16.660591
1435708027.66,-17.745392
1435708027.676,-18.481682
1435708027.692,-18.785545
1435708027.707,-18.595795
1435708027.723,-17.982498
1435708027.738,-17.17852
1435708027.754,-16.462906
1435708027.77,-16.05642
1435708027.785,-16.022057
1435708027.801,-16.256592
1435708027.817,-16.552681
1435708027.832,-16.715836
1435708027.848,-16.620583
1435708027.863,-16.256851
1435708027.879,-15.668922
1435708027.895,-14.945763
1435708027.91,-14.138054
1435708027.926,-13.26001
1435708027.942,-12.255646
1435708027.957,-11.024887
1435708027.973,-9.431473
1435708027.988,-7.3942947
1435708028.004,-4.9280014
1435708028.02,-2.1996384
1435708028.035,0.52290344
1435708028.051,2.964676
1435708028.067,4.9711227
1435708028.082,6.574875
1435708028.098,7.994713
1435708028.113,9.52932
1435708028.129,11.4622345
1435708028.145,13.949715
1435708028.16,16.986305
1435708028.176,20.354584
1435708028.192,23.653091
1435708028.207,26.304436
1435708028.223,27.661041
1435708028.238,27.147957
1435708028.254,24.4917
1435708028.27,19.85305
1435708028.285,13.844208
1435708028.301,7.372864
1435708028.317,1.3527756
1435708028.332,-3.5816803
1435708028.348,-7.2122345
1435708028.363,-9.715263
1435708028.379,-11.469971
1435708028.395,-12.81942
1435708028.41,-13.92527
1435708028.426,-14.751434
1435708028.442,-15.193871
1435708028.457,-15.240814
1435708028.473,-15.015839
1435708028.488,-14.779198
1435708028.504,-14.75
1435708028.52,-15.008728
1435708028.535,-15.420471
1435708028.551,-15.748894
1435708028.567,-15.756298
1435708028.582,-15.3568535
1435708028.598,-14.605663
1435708028.613,-13.681915
1435708028.629,-12.733093
1435708028.645,-11.826912
1435708028.66,-10.917892
1435708028.676,-9.904221
1435708028.692,-8.664978
1435708028.707,-7.12389
1435708028.723,-5.244873
1435708028.738,-3.0590858
1435708028.754,-0.6588173
1435708028.77,1.7775841
1435708028.785,4.0623436
1435708028.801,6.048172
1435708028.817,7.701992
1435708028.832,9.122341
1435708028.848,10.514797
1435708028.863,12.111542
1435708028.879,14.111507
1435708028.895,16.610394
1435708028.91,19.57077
1435708028.926,22.738636
1435708028.942,25.659359
1435708028.957,27.689037
1435708028.973,28.17799
1435708028.988,26.655712
1435708029.004,23.066383
1435708029.02,17.845016
1435708029.035,11.824707
1435708029.051,5.9584656
1435708029.067,1.0135612
1435708029.082,-2.6770859
1435708029.098,-5.2148438
1435708029.113,-6.9864655
1435708029.129,-8.391434
1435708029.145,-9.671799
1435708029.16,-10.816998
1435708029.176,-11.691204
1435708029.192,-12.150715
1435708029.207,-12.190815
1435708029.223,-11.9306755
1435708029.238,-11.601318
1435708029.254,-11.391373
1435708029.27,-11.375633
1435708029.285,-11.469646
1435708029.301,-11.5155525
1435708029.317,-11.364853
1435708029.332,-11.001133
1435708029.348,-10.517498
1435708029.363,-10.074734
1435708029.379,-9.776787
1435708029.395,-9.598995
1435708029.41,-9.350754
1435708029.426,-8.789
1435708029.442,-7.7081833
1435708029.457,-6.0609016
1435708029.473,-3.9525414
1435708029.488,-1.6095791
1435708029.504,0.7384987
1435708029.52,2.917263
1435708029.535,4.844595
1435708029.551,6.4957466
1435708029.567,7.895933
1435708029.582,9.084808
1435708029.598,10.141392
1435708029.613,11.186348
1435708029.629,12.389957
1435708029.645,13.923765
1435708029.66,15.916826
1435708029.676,18.342957
1435708029.692,20.983873
1435708029.707,23.352566
1435708029.723,24.808224
1435708029.738,24.708607
1435708029.754,22.6718
1435708029.77,18.744442
1435708029.785,13.462343
1435708029.801,7.6792603
1435708029.817,2.2774258
1435708029.832,-2.1285152
1435708029.848,-5.3348274
1435708029.863,-7.5029182
1435708029.879,-8.95241
1435708029.895,-9.955202
1435708029.91,-10.613793
1435708029.926,-10.94513
1435708029.942,-10.955281
1435708029.957,-10.787594
1435708029.973,-10.670232
1435708029.988,-10.839253
1435708030.004,-11.366131
1435708030.02,-12.121146
1435708030.035,-12.830325
1435708030.051,-13.224791
1435708030.067,-13.17568
1435708030.082,-12.763765
1435708030.098,-12.198632
1435708030.113,-11.714033
1435708030.129,-11.411562
1435708030.145,-11.245625
1435708030.16,-11.042595
1435708030.176,-10.609083
1435708030.192,-9.784246
1435708030.207,-8.526707
1435708030.223,-6.8754654
1435708030.238,-4.9524126
1435708030.254,-2.8986986
1435708030.27,-0.8746238
1435708030.285,0.98558354
1435708030.301,2.5606925
1435708030.317,3.799959
1435708030.332,4.750708
1435708030.348,5.569066
1435708030.364,6.5158787
1435708030.379,7.87778
1435708030.395,9.863735
1435708030.41,12.495966
1435708030.426,15.508734
1435708030.442,18.369343
1435708030.457,20.37487
1435708030.473,20.88215
1435708030.489,19.49731
1435708030.504,16.270123
1435708030.52,11.686156
1435708030.535,6.534979
1435708030.551,1.6339703
1435708030.567,-2.392603
1435708030.582,-5.28794
1435708030.598,-7.141409
1435708030.614,-8.266596
1435708030.629,-8.990238
1435708030.645,-9.5230465
1435708030.66,-9.91436
1435708030.676,-10.141554
1435708030.692,-10.190191
1435708030.707,-10.126698
1435708030.723,-10.063633
1435708030.739,-10.101297
1435708030.754,-10.2534485
1435708030.77,-10.454523
1435708030.785,-10.577955
1435708030.801,-10.555651
1435708030.817,-10.380573
1435708030.832,-10.118719
1435708030.848,-9.836298
1435708030.864,-9.558443
1435708030.879,-9.247583
1435708030.895,-8.827402
1435708030.91,-8.218586
1435708030.926,-7.3863373
1435708030.942,-6.335884
1435708030.957,-5.0893517
1435708030.973,-3.6670494
1435708030.989,-2.0632248
1435708031.004,-0.27132797
1435708031.02,1.6762543
1435708031.035,3.7037468
1435708031.051,5.6554947
1435708031.067,7.390484
1435708031.082,8.803036
1435708031.098,9.891052
1435708031.114,10.758656
1435708031.129,11.602516
1435708031.145,12.630421
1435708031.16,14.047459
1435708031.176,15.954079
1435708031.192,18.307453
1435708031.207,20.854935
1435708031.223,23.153751
1435708031.239,24.61435
1435708031.254,24.666271
1435708031.27,22.947933
1435708031.285,19.484276
1435708031.301,14.727291
1435708031.317,9.430916
1435708031.332,4.4146767
1435708031.348,0.2981758
1435708031.364,-2.659832
1435708031.379,-4.552456
1435708031.395,-5.684376
1435708031.41,-6.379421
1435708031.426,-6.865078
1435708031.442,-7.2225113
1435708031.457,-7.453888
1435708031.473,-7.5428734
1435708031.489,-7.504219
1435708031.504,-7.3658752
1435708031.52,-7.1788177
1435708031.535,-6.973465
1435708031.551,-6.7821884
1435708031.567,-6.641243
1435708031.582,-6.60186
1435708031.598,-6.6878967
1435708031.614,-6.891365
1435708031.629,-7.124466
1435708031.645,-7.270462
1435708031.66,-7.1892548
1435708031.676,-6.7882996
1435708031.692,-6.030205
1435708031.707,-4.9650345
1435708031.723,-3.6964645
1435708031.739,-2.3424225
1435708031.754,-1.0108185
1435708031.77,0.23355103
1435708031.785,1.4081955
1435708031.801,2.5730743
1435708031.817,3.8060608
1435708031.832,5.132477
1435708031.848,6.53701
1435708031.864,7.939804
1435708031.879,9.27536
1435708031.895,10.5047
1435708031.91,11.646187
1435708031.926,12.750954
1435708031.942,13.903763
1435708031.957,15.196617
1435708031.973,16.747627
1435708031.989,18.64936
1435708032.004,20.891945
1435708032.02,23.253166
1435708032.035,25.273346
1435708032.051,26.31102
1435708032.067,25.792992
1435708032.082,23.419556
1435708032.098,19.382607
1435708032.114,14.294968
1435708032.129,9.02549
1435708032.145,4.360588
1435708032.16,0.77841187
1435708032.176,-1.669342
1435708032.192,-3.2370605
1435708032.207,-4.303673
1435708032.223,-5.172386
1435708032.239,-5.9622498
1435708032.254,-6.621193
1435708032.27,-7.043724
1435708032.285,-7.1608124
1435708032.301,-7.0135803
1435708032.317,-6.739685
1435708032.332,-6.5241623
1435708032.348,-6.497284
1435708032.364,-6.737999
1435708032.379,-7.222603
1435708032.395,-7.8824387
1435708032.41,-8.566063
1435708032.426,-9.117279
1435708032.442,-9.365166
1435708032.457,-9.215004
1435708032.473,-8.649612
1435708032.489,-7.755249
1435708032.504,-6.674965
1435708032.52,-5.532135
1435708032.535,-4.372925
1435708032.551,-3.1802292
1435708032.567,-1.8822098
1435708032.582,-0.47018433
1435708032.598,0.99570465
1435708032.614,2.3817215
1435708032.629,3.5875015
1435708032.645,4.5830383
1435708032.66,5.4631805
1435708032.676,6.3638306
1435708032.692,7.406067
1435708032.707,8.636597
1435708032.723,10.050064
1435708032.739,11.639519
1435708032.754,13.430328
1435708032.77,15.436928
1435708032.785,17.552826
1435708032.801,19.430305
1435708032.817,20.510788
1435708032.832,20.165306
1435708032.848,17.972435
1435708032.864,13.935982
1435708032.879,8.568672
1435708032.895,2.7160034
1435708032.91,-2.7070694
1435708032.926,-7.023567
1435708032.942,-9.956604
1435708032.957,-11.607483
1435708032.973,-12.311844
1435708032.989,-12.443771
1435708033.004,-12.282501
1435708033.02,-11.979614
1435708033.036,-11.582703
1435708033.051,-11.121239
1435708033.067,-10.634155
1435708033.082,-10.2099
1435708033.098,-9.936417
1435708033.114,-9.870506
1435708033.129,-9.964355
1435708033.145,-10.101471
1435708033.161,-10.113808
1435708033.176,-9.890488
1435708033.192,-9.411163
1435708033.207,-8.779121
1435708033.223,-8.121498
1435708033.239,-7.5426483
1435708033.254,-7.0349884
1435708033.27,-6.491623
1435708033.286,-5.752289
1435708033.301,-4.6761475
1435708033.317,-3.2098618
1435708033.332,-1.3952293
1435708033.348,0.6457138
1435708033.364,2.7450752
1435708033.379,4.7712746
1435708033.395,6.61351
1435708033.411,8.250301
1435708033.426,9.714943
1435708033.442,11.0904045
1435708033.457,12.485844
1435708033.473,13.99435
1435708033.489,15.71838
1435708033.504,17.758015
1435708033.52,20.149845
1435708033.536,22.828762
1435708033.551,25.516094
1435708033.567,27.724483
1435708033.582,28.835133
1435708033.598,28.340889
1435708033.614,26.032593
1435708033.629,22.16087
1435708033.645,17.357727
1435708033.661,12.437393
1435708033.676,8.070686
1435708033.692,4.6110725
1435708033.707,2.0130768
1435708033.723,0.008872986
1435708033.739,-1.7293091
1435708033.754,-3.3844795
1435708033.77,-4.992466
1435708033.786,-6.486431
1435708033.801,-7.8242683
1435708033.817,-9.045219
1435708033.832,-10.268341
1435708033.848,-11.6157
1435708033.864,-13.148224
1435708033.879,-14.782383
1435708033.895,-16.35165
1435708033.911,-17.655918
1435708033.926,-18.57325
1435708033.942,-19.111797
1435708033.957,-19.414925
1435708033.973,-19.671299
1435708033.989,-20.007832
1435708034.004,-20.385624
1435708034.02,-20.603928
1435708034.036,-20.364029
1435708034.051,-19.389431
1435708034.067,-17.548271
1435708034.082,-14.915432
1435708034.098,-11.66721
1435708034.114,-8.051788
1435708034.129,-4.2515526
1435708034.145,-0.39630127
1435708034.161,3.4445477
1435708034.176,7.1688023
1435708034.192,10.693756
1435708034.207,13.948662
1435708034.223,16.974625
1435708034.239,19.927597
1435708034.254,23.016634
1435708034.27,26.34304
1435708034.286,29.741264
1435708034.301,32.7184
1435708034.317,34.55118
1435708034.332,34.520554
1435708034.348,32.242928
1435708034.364,27.830027
1435708034.379,21.935575
1435708034.395,15.519091
1435708034.411,9.514822
1435708034.426,4.543455
1435708034.442,0.7864876
1435708034.457,-1.9490738
1435708034.473,-4.0052834
1435708034.489,-5.655367
1435708034.504,-6.985731
1435708034.52,-7.953988
1435708034.536,-8.491601
1435708034.551,-8.642675
1435708034.567,-8.5732765
1435708034.582,-8.524432
1435708034.598,-8.665005
1435708034.614,-9.030133
1435708034.629,-9.496033
1435708034.645,-9.862002
1435708034.661,-9.945408
1435708034.676,-9.7068
1435708034.692,-9.238034
1435708034.707,-8.748461
1435708034.723,-8.439749
1435708034.739,-8.402928
1435708034.754,-8.534928
1435708034.77,-8.571268
1435708034.786,-8.151745
1435708034.801,-6.9919677
1435708034.817,-4.988546
1435708034.832,-2.3032732
1435708034.848,0.72946167
1435708034.864,3.6954365
1435708034.879,6.2719383
1435708034.895,8.316802
1435708034.911,9.898276
1435708034.926,11.25037
1435708034.942,12.704357
1435708034.957,14.592463
1435708034.973,17.164173
1435708034.989,20.467672
1435708035.004,24.277328
1435708035.02,28.042185
1435708035.036,30.99774
1435708035.051,32.31221
1435708035.067,31.385008
1435708035.082,28.030285
1435708035.098,22.615505
1435708035.114,15.945408
1435708035.129,9.037628
1435708035.145,2.7849007
1435708035.161,-2.2805328
1435708035.176,-6.080757
1435708035.192,-8.8626175
1435708035.207,-10.991745
1435708035.223,-12.702454
1435708035.239,-14.045311
1435708035.254,-14.918648
1435708035.27,-15.284344
1435708035.286,-15.259365
1435708035.301,-15.154865
1435708035.317,-15.302757
1435708035.332,-15.920734
1435708035.348,-16.97012
1435708035.364,-18.20882
1435708035.379,-19.335167
1435708035.395,-20.157284
1435708035.411,-20.64709
1435708035.426,-20.895432
1435708035.442,-20.963547
1435708035.457,-20.796856
1435708035.473,-20.188896
1435708035.489,-18.90754
1435708035.504,-16.792046
1435708035.52,-13.88678
1435708035.536,-10.439713
1435708035.551,-6.829788
1435708035.567,-3.4256897
1435708035.582,-0.48083496
1435708035.598,1.9987411
1435708035.614,4.2154617
1435708035.629,6.512436
1435708035.645,9.248344
1435708035.661,12.649773
1435708035.676,16.70491
1435708035.692,21.12838
1435708035.708,25.336418
1435708035.723,28.57209
1435708035.739,30.036865
1435708035.754,29.160965
1435708035.77,25.74958
1435708035.786,20.14994
1435708035.801,13.147079
1435708035.817,5.76947
1435708035.832,-1.0611496
1435708035.848,-6.771858
1435708035.864,-11.25634
1435708035.879,-14.767876
1435708035.895,-17.673767
1435708035.911,-20.235191
1435708035.926,-22.506973
1435708035.942,-24.392014
1435708035.958,-25.79921
1435708035.973,-26.75039
1435708035.989,-27.452415
1435708036.004,-28.198357
1435708036.02,-29.299812
1435708036.036,-30.938751
1435708036.051,-33.148758
1435708036.067,-35.78424
1435708036.083,-38.627052
1435708036.098,-41.445793
1435708036.114,-44.084305
1435708036.129,-46.49849
1435708036.145,-48.72338
1435708036.161,-50.79844
1435708036.176,-52.68212
1435708036.192,-54.160767
1435708036.208,-54.873993
1435708036.223,-54.370888
1435708036.239,-52.241806
1435708036.254,-48.22564
1435708036.27,-42.31127
1435708036.286,-34.732147
1435708036.301,-25.903961
1435708036.317,-16.30307
1435708036.333,-6.3959885
1435708036.348,3.4721756
1435708036.364,13.048317
1435708036.379,22.171967
1435708036.395,30.693596
1435708036.411,38.436447
1435708036.426,45.094063
1435708036.442,50.20662
1435708036.458,53.159245
1435708036.473,53.27856
1435708036.489,50.044666
1435708036.504,43.327248
1435708036.52,33.558086
1435708036.536,21.736523
1435708036.551,9.224026
1435708036.567,-2.597458
1435708036.583,-12.67617
1435708036.598,-20.455849
1435708036.614,-25.870281
1435708036.629,-29.115467
1435708036.645,-30.461727
1435708036.661,-30.117697
1435708036.676,-28.278727
1435708036.692,-25.162674
1435708036.708,-21.125399
1435708036.723,-16.579006
1435708036.739,-11.930117
1435708036.754,-7.5059624
1435708036.77,-3.5087814
1435708036.786,-0.038643837
1435708036.801,2.8760624
1435708036.817,5.2708426
1435708036.833,7.216258
1435708036.848,8.792202
1435708036.864,10.063311
1435708036.879,11.084256
1435708036.895,11.879843
1435708036.911,12.542682
1435708036.926,13.222611
1435708036.942,14.1417
1435708036.958,15.487459
1435708036.973,17.363804
1435708036.989,19.68077
1435708037.004,22.222965
1435708037.02,24.695263
1435708037.036,26.85047
1435708037.051,28.569962
1435708037.067,29.8498
1435708037.083,30.766485
1435708037.098,31.46406
1435708037.114,32.129707
1435708037.129,33.00148
1435708037.145,34.34179
1435708037.161,36.340096
1435708037.176,38.94819
1435708037.192,41.82374
1435708037.208,44.278225
1435708037.223,45.463203
1435708037.239,44.587296
1435708037.254,41.24827
1435708037.27,35.561317
1435708037.286,28.212927
1435708037.301,20.191965
1435708037.317,12.520699
1435708037.333,5.931713
1435708037.348,0.73394203
1435708037.364,-3.1686077
1435708037.379,-6.0899677
1435708037.395,-8.383839
1435708037.411,-10.287836
1435708037.426,-11.90872
1435708037.442,-13.2631645
1435708037.458,-14.356949
1435708037.473,-15.207136
1435708037.489,-15.850185
1435708037.504,-16.303432
1435708037.52,-16.608742
1435708037.536,-16.793877
1435708037.551,-16.92558
1435708037.567,-17.058525
1435708037.583,-17.211035
1435708037.598,-17.359474
1435708037.614,-17.43262
1435708037.629,-17.357876
1435708037.645,-17.094744
1435708037.661,-16.640774
1435708037.676,-16.001518
1435708037.692,-15.149006
1435708037.708,-14.02294
1435708037.723,-12.531866
1435708037.739,-10.641978
1435708037.754,-8.413083
1435708037.77,-6.030773
1435708037.786,-3.7243738
1435708037.801,-1.7305117
1435708037.817,-0.14698601
1435708037.833,1.0524664
1435708037.848,2.0414114
1435708037.864,3.0689726
1435708037.879,4.39143
1435708037.895,6.207361
1435708037.911,8.580139
1435708037.926,11.415152
1435708037.942,14.414256
1435708037.958,17.08529
1435708037.973,18.827835
1435708037.989,19.07946
1435708038.004,17.495361
1435708038.02,14.063197
1435708038.036,9.171418
1435708038.051,3.486436
1435708038.067,-2.207386
1435708038.083,-7.252475
1435708038.098,-11.219993
1435708038.114,-14.014615
1435708038.129,-15.778616
1435708038.145,-16.803574
1435708038.161,-17.436426
1435708038.176,-17.96501
1435708038.192,-18.553194
1435708038.208,-19.19806
1435708038.223,-19.707432
1435708038.239,-19.835674
1435708038.254,-19.411625
1435708038.27,-18.46129
1435708038.286,-17.22578
1435708038.301,-16.091063
1435708038.317,-15.379721
1435708038.333,-15.214054
1435708038.348,-15.431612
1435708038.364,-15.694786
1435708038.38,-15.628866
1435708038.395,-15.004635
1435708038.411,-13.805611
1435708038.426,-12.176552
1435708038.442,-10.324272
1435708038.458,-8.430328
1435708038.473,-6.568115
1435708038.489,-4.745529
1435708038.504,-2.9355469
1435708038.52,-1.117054
1435708038.536,0.71489716
1435708038.551,2.5341072
1435708038.567,4.310051
1435708038.583,5.9911423
1435708038.598,7.5737762
1435708038.614,9.045662
1435708038.63,10.431942
1435708038.645,11.770935
1435708038.661,13.127636
1435708038.676,14.596088
1435708038.692,16.296684
1435708038.708,18.33995
1435708038.723,20.75364
1435708038.739,23.39922
1435708038.755,25.89376
1435708038.77,27.642498
1435708038.786,28.016743
1435708038.801,26.536522
1435708038.817,23.131145
1435708038.833,18.190918
1435708038.848,12.51104
1435708038.864,7.0123825
1435708038.88,2.449482
1435708038.895,-0.84742737
1435708038.911,-2.993122
1435708038.926,-4.4080505
1435708038.942,-5.5598526
1435708038.958,-6.745159
1435708038.973,-7.969864
1435708038.989,-9.037422
1435708039.005,-9.724396
1435708039.02,-9.966721
1435708039.036,-9.890823
1435708039.051,-9.776703
1435708039.067,-9.859116
1435708039.083,-10.216072
1435708039.098,-10.749641
1435708039.114,-11.260788
1435708039.13,-11.594536
1435708039.145,-11.701935
1435708039.161,-11.615807
1435708039.176,-11.407326
1435708039.192,-11.077255
1435708039.208,-10.578491
1435708039.223,-9.831696
1435708039.239,-8.80426
1435708039.255,-7.533058
1435708039.27,-6.1308365
1435708039.286,-4.711731
1435708039.301,-3.3500748
1435708039.317,-2.0194016
1435708039.333,-0.65797424
1435708039.348,0.8302841
1435708039.364,2.4797363
1435708039.38,4.2800217
1435708039.395,6.1275024
1435708039.411,7.890915
1435708039.426,9.453735
1435708039.442,10.77018
1435708039.458,11.9226
1435708039.473,13.110695
1435708039.489,14.596741
1435708039.505,16.597366
1435708039.52,19.134216
1435708039.536,22.013893
1435708039.551,24.75856
1435708039.567,26.7417
1435708039.583,27.333488
1435708039.598,26.143028
1435708039.614,23.148666
1435708039.63,18.738678
1435708039.645,13.577904
1435708039.661,8.417633
1435708039.676,3.8538208
1435708039.692,0.21440887
1435708039.708,-2.4522476
1435708039.723,-4.2652054
1435708039.739,-5.4326477
1435708039.755,-6.1388474
1435708039.77,-6.548996
1435708039.786,-6.81102
1435708039.801,-7.0830765
1435708039.817,-7.4730606
1435708039.833,-8.01413
1435708039.848,-8.609116
1435708039.864,-9.109924
1435708039.88,-9.36248
1435708039.895,-9.328461
1435708039.911,-9.08522
1435708039.926,-8.807625
1435708039.942,-8.641914
1435708039.958,-8.633545
1435708039.973,-8.675835
1435708039.989,-8.592155
1435708040.005,-8.205765
1435708040.02,-7.4769363
1435708040.036,-6.4894714
1435708040.051,-5.4096603
1435708040.067,-4.376297
1435708040.083,-3.4406738
1435708040.098,-2.5144882
1435708040.114,-1.4868393
1435708040.13,-0.2602539
1435708040.145,1.1543274
1435708040.161,2.6567383
1435708040.176,4.0966034
1435708040.192,5.370598
1435708040.208,6.434883
1435708040.223,7.336708
1435708040.239,8.163666
1435708040.255,9.035614
1435708040.27,10.05603
1435708040.286,11.35701
1435708040.301,13.045128
1435708040.317,15.184395
1435708040.333,17.694458
1435708040.348,20.302582
1435708040.364,22.487862
1435708040.38,23.626785
1435708040.395,23.155212
1435708040.411,20.827744
1435708040.426,16.839874
1435708040.442,11.804443
1435708040.458,6.5542984
1435708040.473,1.8808517
1435708040.489,-1.7336578
1435708040.505,-4.1950073
1435708040.52,-5.7484283
1435708040.536,-6.7753677
1435708040.551,-7.607071
1435708040.567,-8.376854
1435708040.583,-9.053345
1435708040.598,-9.518494
1435708040.614,-9.707756
1435708040.63,-9.659729
1435708040.645,-9.5203705
1435708040.661,-9.436783
1435708040.676,-9.524536
1435708040.692,-9.772461
1435708040.708,-10.116425
1435708040.723,-10.44606
1435708040.739,-10.686707
1435708040.755,-10.772385
1435708040.77,-10.663109
1435708040.786,-10.3244705
1435708040.801,-9.743713
1435708040.817,-8.943703
1435708040.833,-8.002289
1435708040.848,-6.981537
1435708040.864,-5.9048004
1435708040.88,-4.727463
1435708040.895,-3.3908844
1435708040.911,-1.8632355
1435708040.926,-0.2339859
1435708040.942,1.349678
1435708040.958,2.7153244
1435708040.973,3.8023605
1435708040.989,4.677841
1435708041.005,5.544594
1435708041.02,6.620262
1435708041.036,8.073074
1435708041.051,9.950371
1435708041.067,12.1983185
1435708041.083,14.667725
1435708041.098,17.131035
1435708041.114,19.254951
1435708041.13,20.624008
1435708041.145,20.77945
1435708041.161,19.389961
1435708041.176,16.377022
1435708041.192,12.07077
1435708041.208,7.1291885
1435708041.223,2.4080353
1435708041.239,-1.3519363
1435708041.255,-3.7549896
1435708041.27,-4.8734055
1435708041.286,-5.137726
1435708041.302,-5.1268387
1435708041.317,-5.282776
1435708041.333,-5.773407
1435708041.348,-6.5035706
1435708041.364,-7.2600403
1435708041.38,-7.866005
1435708041.395,-8.27858
1435708041.411,-8.5484085
1435708041.427,-8.763519
1435708041.442,-8.935608
1435708041.458,-9.027252
1435708041.473,-8.948067
1435708041.489,-8.68029
1435708041.505,-8.266945
1435708041.52,-7.8198166
1435708041.536,-7.46286
1435708041.552,-7.2653427
1435708041.567,-7.1918335
1435708041.583,-7.113167
1435708041.598,-6.8206177
1435708041.614,-6.1080017
1435708041.63,-4.8364487
1435708041.645,-3.0251694
1435708041.661,-0.82437134
1435708041.677,1.486969
1435708041.692,3.6349487
1435708041.708,5.4260406
1435708041.723,6.7864532
1435708041.739,7.7813797
1435708041.755,8.584824
1435708041.77,9.409187
1435708041.786,10.505386
1435708041.802,12.091316
1435708041.817,14.313286
1435708041.833,17.133827
1435708041.848,20.316902
1435708041.864,23.35785
1435708041.88,25.609375
1435708041.895,26.420265
1435708041.911,25.340363
1435708041.927,22.288246
1435708041.942,17.621147
1435708041.958,12.0425415
1435708041.973,6.442955
1435708041.989,1.6093216
1435708042.005,-1.9816742
1435708042.02,-4.275055
1435708042.036,-5.5513077
1435708042.052,-6.2608337
1435708042.067,-6.7717743
1435708042.083,-7.273941
1435708042.098,-7.7743683
1435708042.114,-8.202545
1435708042.13,-8.511116
1435708042.145,-8.732483
1435708042.161,-8.91082
1435708042.177,-9.060532
1435708042.192,-9.145142
1435708042.208,-9.096481
1435708042.223,-8.896446
1435708042.239,-8.587044
1435708042.255,-8.247978
1435708042.27,-7.9442215
1435708042.286,-7.6823273
1435708042.302,-7.4221344
1435708042.317,-7.102844
1435708042.333,-6.717621
1435708042.348,-6.2420883
1435708042.364,-5.6709366
1435708042.38,-4.930176
1435708042.395,-3.9237976
1435708042.411,-2.5671387
1435708042.427,-0.8462906
1435708042.442,1.1646042
1435708042.458,3.3181686
1435708042.473,5.4430923
1435708042.489,7.415573
1435708042.505,9.194878
1435708042.52,10.807266
1435708042.536,12.365547
1435708042.552,14.004425
1435708042.567,15.879059
1435708042.583,18.0877
1435708042.598,20.67183
1435708042.614,23.494926
1435708042.63,26.249313
1435708042.645,28.433891
1435708042.661,29.449928
1435708042.677,28.771439
1435708042.692,26.147766
1435708042.708,21.746758
1435708042.723,16.1679
1435708042.739,10.256615
1435708042.755,4.8251724
1435708042.77,0.37526703
1435708042.786,-3.003502
1435708042.802,-5.545021
1435708042.817,-7.563324
1435708042.833,-9.254997
1435708042.848,-10.601334
1435708042.864,-11.4932785
1435708042.88,-11.866806
1435708042.895,-11.845398
1435708042.911,-11.685486
1435708042.927,-11.67664
1435708042.942,-11.960556
1435708042.958,-12.472984
1435708042.973,-13.00972
1435708042.989,-13.341759
1435708043.005,-13.349468
1435708043.02,-13.089863
1435708043.036,-12.738518
1435708043.052,-12.485867
1435708043.067,-12.421738
1435708043.083,-12.486259
1435708043.098,-12.442184
1435708043.114,-12.055565
1435708043.13,-11.14838
1435708043.145,-9.722153
1435708043.161,-7.934292
1435708043.177,-6.019596
1435708043.192,-4.149933
1435708043.208,-2.3962479
1435708043.223,-0.7080841
1435708043.239,0.9850197
1435708043.255,2.7308617
1435708043.27,4.529827
1435708043.286,6.4024696
1435708043.302,8.435722
1435708043.317,10.782532
1435708043.333,13.551239
1435708043.348,16.661724
1435708043.364,19.713932
1435708043.38,22.056278
1435708043.395,22.95465
1435708043.411,21.877522
1435708043.427,18.705833
1435708043.442,13.812229
1435708043.458,7.913521
1435708043.473,1.8726826
1435708043.489,-3.586092
1435708043.505,-8.004179
1435708043.52,-11.239944
1435708043.536,-13.366304
1435708043.552,-14.595648
1435708043.567,-15.143717
1435708043.583,-15.238611
1435708043.598,-15.0729885
1435708043.614,-14.8368
1435708043.63,-14.67882
1435708043.645,-14.686184
1435708043.661,-14.870417
1435708043.677,-15.175037
1435708043.692,-15.47102
1435708043.708,-15.612589
1435708043.723,-15.446426
1435708043.739,-14.906191
1435708043.755,-14.003042
1435708043.77,-12.884174
1435708043.786,-11.767181
1435708043.802,-10.857435
1435708043.817,-10.2312355
1435708043.833,-9.7996025
1435708043.848,-9.292866
1435708043.864,-8.389763
1435708043.88,-6.834055
1435708043.895,-4.5600605
1435708043.911,-1.7409725
1435708043.927,1.2960043
1435708043.942,4.187271
1435708043.958,6.6474123
1435708043.974,8.58821
1435708043.989,10.121533
1435708044.005,11.52061
1435708044.02,13.12306
1435708044.036,15.262856
1435708044.052,18.086214
1435708044.067,21.503677
1435708044.083,25.074768
1435708044.099,28.101334
1435708044.114,29.767355
1435708044.13,29.409733
1435708044.145,26.725916
1435708044.161,21.914867
1435708044.177,15.626607
1435708044.192,8.773239
1435708044.208,2.2603483
1435708044.224,-3.191401
1435708044.239,-7.2277217
1435708044.255,-9.8190155
1435708044.27,-11.230879
1435708044.286,-11.856087
1435708044.302,-12.126989
1435708044.317,-12.347118
1435708044.333,-12.657852
1435708044.349,-13.026026
1435708044.364,-13.344595
1435708044.38,-13.530119
1435708044.395,-13.598062
1435708044.411,-13.647447
1435708044.427,-13.775568
1435708044.442,-13.967059
1435708044.458,-14.084181
1435708044.474,-13.923512
1435708044.489,-13.377936
1435708044.505,-12.500897
1435708044.52,-11.5332775
1435708044.536,-10.73718
1435708044.552,-10.237349
1435708044.567,-9.881474
1435708044.583,-9.33968
1435708044.599,-8.198193
1435708044.614,-6.243626
1435708044.63,-3.590851
1435708044.645,-0.6855242
1435708044.661,1.9256947
1435708044.677,3.8340888
1435708044.692,4.9863935
1435708044.708,5.693544
1435708044.724,6.4718733
1435708044.739,7.793934
1435708044.755,9.899107
1435708044.77,12.743996
1435708044.786,16.069447
1435708044.802,19.470854
1435708044.817,22.476788
1435708044.833,24.553148
1435708044.849,25.154808
1435708044.864,23.824291
1435708044.88,20.395756
1435708044.895,15.080694
1435708044.911,8.532726
1435708044.927,1.6316013
1435708044.942,-4.7779617
1435708044.958,-10.1691265
1435708044.974,-14.3839245
1435708044.989,-17.578909
1435708045.005,-19.986908
1435708045.02,-21.769377
1435708045.036,-22.934313
1435708045.052,-23.413208
1435708045.067,-23.137459
1435708045.083,-22.169926
1435708045.099,-20.68213
1435708045.114,-18.942911
1435708045.13,-17.201078
1435708045.145,-15.661552
1435708045.161,-14.385824
1435708045.177,-13.341854
1435708045.192,-12.421699
1435708045.208,-11.515845
1435708045.224,-10.563574
1435708045.239,-9.5613785
1435708045.255,-8.549038
1435708045.27,-7.5427003
1435708045.286,-6.480374
1435708045.302,-5.2333307
1435708045.317,-3.6126866
1435708045.333,-1.4538713
1435708045.349,1.3252454
1435708045.364,4.6524987
1435708045.38,8.340117
1435708045.395,12.095902
1435708045.411,15.649126
1435708045.427,18.803284
1435708045.442,21.508072
1435708045.458,23.846853
1435708045.474,26.015223
1435708045.489,28.22184
1435708045.505,30.63293
1435708045.52,33.311317
1435708045.536,36.189796
1435708045.552,39.043953
1435708045.567,41.510014
1435708045.583,43.083935
1435708045.599,43.238655
1435708045.614,41.53823
1435708045.63,37.844505
1435708045.645,32.381653
1435708045.661,25.755898
1435708045.677,18.780954
1435708045.692,12.263975
1435708045.708,6.7834606
1435708045.724,2.6186905
1435708045.739,-0.25967598
1435708045.755,-2.0549335
1435708045.77,-3.0532513
1435708045.786,-3.5234623
1435708045.802,-3.700451
1435708045.817,-3.7799263
1435708045.833,-3.9340935
1435708045.849,-4.2947197
1435708045.864,-4.935932
1435708045.88,-5.86454
1435708045.895,-7.0159073
1435708045.911,-8.246788
1435708045.927,-9.375423
1435708045.942,-10.18
1435708045.958,-10.516979
1435708045.974,-10.316563
1435708045.989,-9.6671715
1435708046.005,-8.7276535
1435708046.02,-7.653034
1435708046.036,-6.487789
1435708046.052,-5.1496925
1435708046.067,-3.4648361
1435708046.083,-1.3223076
1435708046.099,1.2754478
1435708046.114,4.1228294
1435708046.13,6.895767
1435708046.145,9.292786
1435708046.161,11.16716
1435708046.177,12.583656
1435708046.192,13.818817
1435708046.208,15.225815
1435708046.224,17.102211
1435708046.239,19.558128
1435708046.255,22.433044
1435708046.27,25.27684
1435708046.286,27.463524
1435708046.302,28.33564
1435708046.317,27.450401
1435708046.333,24.707062
1435708046.349,20.431747
1435708046.364,15.2508545
1435708046.38,9.918053
1435708046.395,5.0747986
1435708046.411,1.1363525
1435708046.427,-1.7587967
1435708046.442,-3.6856613
1435708046.458,-4.8869324
1435708046.474,-5.663574
1435708046.489,-6.378853
1435708046.505,-7.386299
1435708046.52,-8.949814
1435708046.536,-11.173584
1435708046.552,-13.961746
1435708046.567,-17.080963
1435708046.583,-20.31485
1435708046.599,-23.533936
1435708046.614,-26.757828
1435708046.63,-30.030823
1435708046.646,-33.31833
1435708046.661,-36.374496
1435708046.677,-38.832626
1435708046.692,-40.34163
1435708046.708,-40.772537
1435708046.724,-40.277115
1435708046.739,-39.235382
1435708046.755,-38.04309
1435708046.77,-36.93402
1435708046.786,-35.934265
1435708046.802,-34.925552
1435708046.817,-33.80272
1435708046.833,-32.579926
1435708046.849,-31.39038
1435708046.864,-30.39209
1435708046.88,-29.610565
1435708046.896,-28.874832
1435708046.911,-27.82608
1435708046.927,-26.072891
1435708046.942,-23.346512
1435708046.958,-19.707535
1435708046.974,-15.524094
1435708046.989,-11.399673
1435708047.005,-7.9280853
1435708047.021,-5.484787
1435708047.036,-4.0619354
1435708047.052,-3.3020477
1435708047.067,-2.6636505
1435708047.083,-1.669754
1435708047.099,-0.072280884
1435708047.114,2.0931854
1435708047.13,4.6242065
1435708047.146,7.294342
1435708047.161,9.965775
1435708047.177,12.586731
1435708047.192,15.133621
1435708047.208,17.520935
1435708047.224,19.63713
1435708047.239,21.291458
1435708047.255,22.292068
1435708047.271,22.44075
1435708047.286,21.55983
1435708047.302,19.535492
1435708047.317,16.39209
1435708047.333,12.353226
1435708047.349,7.7963867
1435708047.364,3.1700592
1435708047.38,-1.2099762
1435708047.396,-5.2482147
1435708047.411,-9.056152
1435708047.427,-12.830612
1435708047.442,-16.647995
1435708047.458,-20.403915
1435708047.474,-23.787552
1435708047.489,-26.466171
1435708047.505,-28.174088
1435708047.521,-28.82875
1435708047.536,-28.47245
1435708047.552,-27.209137
1435708047.567,-25.143974
1435708047.583,-22.368317
1435708047.599,-18.941505
1435708047.614,-15.002174
1435708047.63,-10.787811
1435708047.646,-6.661583
1435708047.661,-3.0745392
1435708047.677,-0.4961548
1435708047.692,0.7341385
1435708047.708,0.47060394
1435708047.724,-1.141983
1435708047.739,-3.7063217
1435708047.755,-6.652977
1435708047.771,-9.377678
1435708047.786,-11.351746
1435708047.802,-12.254845
1435708047.817,-12.018234
1435708047.833,-10.81459
1435708047.849,-8.949654
1435708047.864,-6.759987
1435708047.88,-4.491066
1435708047.896,-2.2642136
1435708047.911,-0.10870361
1435708047.927,1.9396744
1435708047.942,3.794716
1435708047.958,5.2838287
1435708047.974,6.258713
1435708047.989,6.649414
1435708048.005,6.5414352
1435708048.021,6.139801
1435708048.036,5.7042007
1435708048.052,5.4536896
1435708048.067,5.498802
1435708048.083,5.796585
1435708048.099,6.187866
1435708048.114,6.4702835
1435708048.13,6.4848366
1435708048.146,6.202862
1435708048.161,5.8054543
1435708048.177,5.580662
1435708048.192,5.837246
1435708048.208,6.7234077
1435708048.224,8.163582
1435708048.239,9.884735
1435708048.255,11.573181
1435708048.271,12.992901
1435708048.286,14.081875
1435708048.302,14.954094
1435708048.317,15.804234
1435708048.333,16.81784
1435708048.349,18.153423
1435708048.364,19.89484
1435708048.38,22.05553
1435708048.396,24.511139
1435708048.411,26.971462
1435708048.427,28.951603
1435708048.442,29.85413
1435708048.458,29.117756
1435708048.474,26.439716
1435708048.489,21.911705
1435708048.505,16.057451
1435708048.521,9.686216
1435708048.536,3.6707878
1435708048.552,-1.3188667
1435708048.567,-4.9623394
1435708048.583,-7.324539
1435708048.599,-8.709162
1435708048.614,-9.507128
1435708048.63,-10.017782
1435708048.646,-10.39102
1435708048.661,-10.642401
1435708048.677,-10.744869
1435708048.692,-10.663921
1435708048.708,-10.430456
1435708048.724,-10.100481
1435708048.739,-9.760054
1435708048.755,-9.483288
1435708048.771,-9.340183
1435708048.786,-9.336187
1435708048.802,-9.413677
1435708048.817,-9.46093
1435708048.833,-9.350713
1435708048.849,-8.995853
1435708048.864,-8.414685
1435708048.88,-7.6984606
1435708048.896,-6.977871
1435708048.911,-6.318451
1435708048.927,-5.683035
1435708048.942,-4.911254
1435708048.958,-3.8063345
1435708048.974,-2.213294
1435708048.989,-0.11050129
1435708049.005,2.3862448
1435708049.021,5.063754
1435708049.036,7.681038
1435708049.052,10.040155
1435708049.067,12.036554
1435708049.083,13.642191
1435708049.099,14.943411
1435708049.114,16.08743
1435708049.13,17.310215
1435708049.146,18.833086
1435708049.161,20.837109
1435708049.177,23.305351
1435708049.192,25.968597
1435708049.208,28.275019
1435708049.224,29.52369
1435708049.239,29.046368
1435708049.255,26.484118
1435708049.271,21.919205
1435708049.286,15.921249
1435708049.302,9.377805
1435708049.318,3.2185712
1435708049.333,-1.8724773
1435708049.349,-5.5636425
1435708049.364,-7.939931
1435708049.38,-9.328654
1435708049.396,-10.132861
1435708049.411,-10.691671
1435708049.427,-11.180957
1435708049.442,-11.610914
1435708049.458,-11.88911
1435708049.474,-11.871178
1435708049.489,-11.484981
1435708049.505,-10.766429
1435708049.521,-9.922495
1435708049.536,-9.231252
1435708049.552,-8.960478
1435708049.568,-9.199122
1435708049.583,-9.822881
1435708049.599,-10.513753
1435708049.614,-10.925471
1435708049.63,-10.804118
1435708049.646,-10.1398325
1435708049.661,-9.102935
1435708049.677,-7.943661
1435708049.693,-6.854294
1435708049.708,-5.8816752
1435708049.724,-4.9168234
1435708049.739,-3.7953827
1435708049.755,-2.3640924
1435708049.771,-0.6030822
1435708049.786,1.3988731
1435708049.802,3.46398
1435708049.818,5.429922
1435708049.833,7.186223
1435708049.849,8.749392
1435708049.864,10.191555
1435708049.88,11.626186
1435708049.896,13.160963
1435708049.911,14.915209
1435708049.927,17.000286
1435708049.943,19.498028
1435708049.958,22.338505
1435708049.974,25.204739
1435708049.989,27.47776
1435708050.005,28.395218
1435708050.021,27.272549
1435708050.036,23.84516
1435708050.052,18.404129
1435708050.068,11.7622
1435708050.083,4.970384
1435708050.099,-1.0179563
1435708050.114,-5.6451874
1435708050.13,-8.810087
1435708050.146,-10.777674
1435708050.161,-11.942255
1435708050.177,-12.643131
1435708050.193,-13.039387
1435708050.208,-13.174156
1435708050.224,-13.020257
1435708050.239,-12.633089
1435708050.255,-12.147072
1435708050.271,-11.777056
1435708050.286,-11.68432
1435708050.302,-11.926931
1435708050.318,-12.399959
1435708050.333,-12.920407
1435708050.349,-13.291869
1435708050.364,-13.425469
1435708050.38,-13.33503
1435708050.396,-13.11958
1435708050.411,-12.8526745
1435708050.427,-12.545013
1435708050.443,-12.111537
1435708050.458,-11.425383
1435708050.474,-10.356203
1435708050.489,-8.829882
1435708050.505,-6.843738
1435708050.521,-4.483554
1435708050.536,-1.8865831
1435708050.552,0.74823
1435708050.568,3.213947
1435708050.583,5.3340387
1435708050.599,7.0376353
1435708050.614,8.3758
1435708050.63,9.545004
1435708050.646,10.805708
1435708050.661,12.444025
1435708050.677,14.654751
1435708050.693,17.481493
1435708050.708,20.71388
1435708050.724,23.899984
1435708050.739,26.354168
1435708050.755,27.32508
1435708050.771,26.206167
1435708050.786,22.794079
1435708050.802,17.398125
1435708050.818,10.820684
1435708050.833,4.096355
1435708050.849,-1.8178458
1435708050.864,-6.3575063
1435708050.88,-9.403755
1435708050.896,-11.222961
1435708050.911,-12.221863
1435708050.927,-12.739611
1435708050.943,-12.937725
1435708050.958,-12.836835
1435708050.974,-12.393455
1435708050.989,-11.634857
1435708051.005,-10.678727
1435708051.021,-9.748184
1435708051.036,-9.0745325
1435708051.052,-8.832396
1435708051.068,-9.057241
1435708051.083,-9.655588
1435708051.099,-10.441929
1435708051.114,-11.2093315
1435708051.13,-11.772234
1435708051.146,-12.026987
1435708051.161,-11.906973
1435708051.177,-11.402512
1435708051.193,-10.533894
1435708051.208,-9.371372
1435708051.224,-7.9997396
1435708051.239,-6.5007963
1435708051.255,-4.9225044
1435708051.271,-3.2665863
1435708051.286,-1.4949083
1435708051.302,0.41261578
1435708051.318,2.452932
1435708051.333,4.5648
1435708051.349,6.6870146
1435708051.364,8.740099
1435708051.38,10.678699
1435708051.396,12.503079
1435708051.411,14.276015
1435708051.427,16.141438
1435708051.443,18.276001
1435708051.458,20.805553
1435708051.474,23.677544
1435708051.489,26.543144
1435708051.505,28.784979
1435708051.521,29.64196
1435708051.536,28.532305
1435708051.552,25.254929
1435708051.568,20.13768
1435708051.583,13.900147
1435708051.599,7.4279737
1435708051.614,1.4671855
1435708051.63,-3.5018024
1435708051.646,-7.3434706
1435708051.661,-10.121996
1435708051.677,-11.9941845
1435708051.693,-13.096575
1435708051.708,-13.5366125
1435708051.724,-13.397358
1435708051.739,-12.812424
1435708051.755,-11.97772
1435708051.771,-11.160746
1435708051.786,-10.584858
1435708051.802,-10.386175
1435708051.818,-10.53367
1435708051.833,-10.895101
1435708051.849,-11.262702
1435708051.864,-11.502235
1435708051.88,-11.56452
1435708051.896,-11.490291
1435708051.911,-11.314909
1435708051.927,-11.034771
1435708051.943,-10.583681
1435708051.958,-9.882147
1435708051.974,-8.886198
1435708051.989,-7.6146812
1435708052.005,-6.1088324
1435708052.021,-4.393065
1435708052.036,-2.4511738
1435708052.052,-0.26759338
1435708052.068,2.1046038
1435708052.083,4.5184875
1435708052.099,6.7799945
1435708052.114,8.712603
1435708052.13,10.2595005
1435708052.146,11.508365
1435708052.161,12.633049
1435708052.177,13.842494
1435708052.193,15.330331
1435708052.208,17.225454
1435708052.224,19.596748
1435708052.24,22.3932
1435708052.255,25.39226
1435708052.271,28.134708
1435708052.286,29.99379
1435708052.302,30.299755
1435708052.318,28.587584
1435708052.333,24.75482
1435708052.349,19.166042
1435708052.365,12.556498
1435708052.38,5.8237267
1435708052.396,-0.22241402
1435708052.411,-5.0516043
1435708052.427,-8.471632
1435708052.443,-10.5776
1435708052.458,-11.639368
1435708052.474,-11.970127
1435708052.49,-11.859669
1435708052.505,-11.539065
1435708052.521,-11.196496
1435708052.536,-10.94145
1435708052.552,-10.829788
1435708052.568,-10.859094
1435708052.583,-10.984219
1435708052.599,-11.137133
1435708052.615,-11.2744465
1435708052.63,-11.36834
1435708052.646,-11.390712
1435708052.661,-11.298154
1435708052.677,-11.0339775
1435708052.693,-10.532694
1435708052.708,-9.779557
1435708052.724,-8.823129
1435708052.74,-7.7783766
1435708052.755,-6.764907
1435708052.771,-5.8225975
1435708052.786,-4.885809
1435708052.802,-3.8216047
1435708052.818,-2.4841785
1435708052.833,-0.81975937
1435708052.849,1.1268082
1435708052.865,3.2106323
1435708052.88,5.269785
1435708052.896,7.1580257
1435708052.911,8.838211
1435708052.927,10.373049
1435708052.943,11.926193
1435708052.958,13.72212
1435708052.974,15.97847
1435708052.99,18.80233
1435708053.005,22.10614
1435708053.021,25.535454
1435708053.036,28.511717
1435708053.052,30.357416
1435708053.068,30.471985
1435708053.083,28.511072
1435708053.099,24.516874
1435708053.115,18.891758
1435708053.13,12.332174
1435708053.146,5.643553
1435708053.161,-0.426548
1435708053.177,-5.36845
1435708053.193,-8.9621315
1435708053.208,-11.280823
1435708053.224,-12.561928
1435708053.24,-13.09848
1435708053.255,-13.129944
1435708053.271,-12.8403015
1435708053.286,-12.361698
1435708053.302,-11.831985
1435708053.318,-11.368919
1435708053.333,-11.064194
1435708053.349,-10.934902
1435708053.365,-10.945023
1435708053.38,-11.017445
1435708053.396,-11.106865
1435708053.411,-11.193779
1435708053.427,-11.297817
1435708053.443,-11.422646
1435708053.458,-11.560307
1435708053.474,-11.656769
1435708053.49,-11.641224
1435708053.505,-11.392185
1435708053.521,-10.769901
1435708053.536,-9.635067
1435708053.552,-7.907524
1435708053.568,-5.6260414
1435708053.583,-2.9997597
1435708053.599,-0.33922577
1435708053.615,2.0122414
1435708053.63,3.841877
1435708053.646,5.1273346
1435708053.661,6.064911
1435708053.677,7.0114937
1435708053.693,8.367149
1435708053.708,10.429665
1435708053.724,13.276726
1435708053.74,16.66034
1435708053.755,20.005905
1435708053.771,22.491768
1435708053.786,23.294495
1435708053.802,21.827011
1435708053.818,17.999733
1435708053.833,12.2475815
1435708053.849,5.4495926
1435708053.865,-1.3817215
1435708053.88,-7.3642654
1435708053.896,-11.973694
1435708053.911,-15.074287
1435708053.927,-16.828041
1435708053.943,-17.545067
1435708053.958,-17.5402
1435708053.974,-17.056786
1435708053.99,-16.28801
1435708054.005,-15.390266
1435708054.021,-14.512901
1435708054.036,-13.780312
1435708054.052,-13.243584
1435708054.068,-12.869255
1435708054.083,-12.577415
1435708054.099,-12.290543
1435708054.115,-11.997795
1435708054.13,-11.746834
1435708054.146,-11.648552
1435708054.161,-11.763557
1435708054.177,-12.08989
1435708054.193,-12.473129
1435708054.208,-12.667076
1435708054.224,-12.370087
1435708054.24,-11.325264
1435708054.255,-9.433487
1435708054.271,-6.805603
1435708054.286,-3.7293015
1435708054.302,-0.6143646
1435708054.318,2.1691742
1435708054.333,4.3833313
1435708054.349,6.036789
1435708054.365,7.344818
1435708054.38,8.697952
1435708054.396,10.486252
1435708054.411,12.994133
1435708054.427,16.25985
1435708054.443,19.982727
1435708054.458,23.526848
1435708054.474,26.048752
1435708054.49,26.712784
1435708054.505,24.984406
1435708054.521,20.830849
1435708054.536,14.784393
1435708054.552,7.776024
1435708054.568,0.85951996
1435708054.583,-5.124611
1435708054.599,-9.71949
1435708054.615,-12.905327
1435708054.63,-14.932472
1435708054.646,-16.150574
1435708054.661,-16.8162
1435708054.677,-17.045845
1435708054.693,-16.834435
1435708054.708,-16.17575
1435708054.724,-15.130379
1435708054.74,-13.886978
1435708054.755,-12.715775
1435708054.771,-11.87104
1435708054.786,-11.489571
1435708054.802,-11.5355
1435708054.818,-11.836754
1435708054.833,-12.175972
1435708054.849,-12.394646
1435708054.865,-12.467255
1435708054.88,-12.442352
1435708054.896,-12.370987
1435708054.912,-12.201988
1435708054.927,-11.757828
1435708054.943,-10.80101
1435708054.958,-9.161194
1435708054.974,-6.809181
1435708054.99,-3.913437
1435708055.005,-0.762619
1435708055.021,2.3155441
1435708055.037,5.0739136
1435708055.052,7.3858566
1435708055.068,9.293533
1435708055.083,10.952446
1435708055.099,12.619354
1435708055.115,14.566772
1435708055.13,17.004707
1435708055.146,20.005974
1435708055.162,23.446854
1435708055.177,26.9842
1435708055.193,30.084312
1435708055.208,32.066917
1435708055.224,32.280838
1435708055.24,30.286499
1435708055.255,26.029083
1435708055.271,19.935722
1435708055.287,12.849815
1435708055.302,5.774597
1435708055.318,-0.4143753
1435708055.333,-5.234665
1435708055.349,-8.688416
1435708055.365,-11.119759
1435708055.38,-12.979095
1435708055.396,-14.562775
1435708055.412,-15.897972
1435708055.427,-16.835838
1435708055.443,-17.195923
1435708055.458,-16.987755
1435708055.474,-16.40055
1435708055.49,-15.778877
1435708055.505,-15.419167
1435708055.521,-15.462578
1435708055.537,-15.80426
1435708055.552,-16.2024
1435708055.568,-16.376396
1435708055.583,-16.17482
1435708055.599,-15.610725
1435708055.615,-14.840561
1435708055.63,-14.05249
1435708055.646,-13.357567
1435708055.662,-12.74453
1435708055.677,-12.080795
1435708055.693,-11.185356
1435708055.708,-9.893822
1435708055.724,-8.0918045
1435708055.74,-5.7585373
1435708055.755,-2.9745255
1435708055.771,0.07136536
1435708055.787,3.152893
1435708055.802,6.0384903
1435708055.818,8.57695
1435708055.833,10.721153
1435708055.849,12.541763
1435708055.865,14.1772
1435708055.88,15.823532
1435708055.896,17.70211
1435708055.912,20.039589
1435708055.927,22.978798
1435708055.943,26.460167
1435708055.958,30.102379
1435708055.974,33.161972
1435708055.99,34.71811
1435708056.005,33.95385
1435708056.021,30.475426
1435708056.037,24.548615
1435708056.052,16.999596
1435708056.068,8.974052
1435708056.083,1.5306473
1435708056.099,-4.5870514
1435708056.115,-9.097137
1435708056.13,-12.075874
1435708056.146,-13.83403
1435708056.162,-14.749191
1435708056.177,-15.170231
1435708056.193,-15.34227
1435708056.208,-15.416267
1435708056.224,-15.420204
1435708056.24,-15.320587
1435708056.255,-15.084465
1435708056.271,-14.732464
1435708056.287,-14.336739
1435708056.302,-14.003826
1435708056.318,-13.778057
1435708056.333,-13.680168
1435708056.349,-13.67165
1435708056.365,-13.712223
1435708056.38,-13.7572365
1435708056.396,-13.74128
1435708056.412,-13.522911
1435708056.427,-12.924206
1435708056.443,-11.794884
1435708056.458,-10.129826
1435708056.474,-8.105133
1435708056.49,-5.99609
1435708056.505,-4.020302
1435708056.521,-2.2297554
1435708056.537,-0.48205185
1435708056.552,1.4216461
1435708056.568,3.6068268
1435708056.583,6.0068665
1435708056.599,8.43417
1435708056.615,10.680496
1435708056.63,12.635288
1435708056.646,14.314411
1435708056.662,15.859283
1435708056.677,17.443836
1435708056.693,19.291866
1435708056.708,21.58992
1435708056.724,24.466484
1435708056.74,27.849346
1435708056.755,31.371346
1435708056.771,34.341534
1435708056.787,35.912823
1435708056.802,35.323162
1435708056.818,32.195087
1435708056.833,26.702145
1435708056.849,19.51649
1435708056.865,11.604454
1435708056.88,3.9517403
1435708056.896,-2.655552
1435708056.912,-7.776375
1435708056.927,-11.305752
1435708056.943,-13.419453
1435708056.958,-14.4580345
1435708056.974,-14.782223
1435708056.99,-14.715466
1435708057.005,-14.450352
1435708057.021,-14.100872
1435708057.037,-13.69759
1435708057.052,-13.298042
1435708057.068,-12.985847
1435708057.083,-12.884293
1435708057.099,-13.113396
1435708057.115,-13.728764
1435708057.13,-14.666298
1435708057.146,-15.73933
1435708057.162,-16.673298
1435708057.177,-17.206577
1435708057.193,-17.174957
1435708057.208,-16.583221
1435708057.224,-15.55254
1435708057.24,-14.273884
1435708057.255,-12.876602
1435708057.271,-11.399418
1435708057.287,-9.766739
1435708057.302,-7.8925896
1435708057.318,-5.758095
1435708057.333,-3.4480858
1435708057.349,-1.1275978
1435708057.365,1.0302467
1435708057.38,2.9194336
1435708057.396,4.5160255
1435708057.412,5.904236
1435708057.427,7.19162
1435708057.443,8.504993
1435708057.458,9.967854
1435708057.474,11.713135
1435708057.49,13.860371
1435708057.505,16.461643
1435708057.521,19.37576
1435708057.537,22.245102
1435708057.552,24.449638
1435708057.568,25.27169
1435708057.584,24.099533
1435708057.599,20.699318
1435708057.615,15.311623
1435708057.63,8.651123
1435708057.646,1.6713104
1435708057.662,-4.711029
1435708057.677,-9.851574
1435708057.693,-13.496178
1435708057.708,-15.725559
1435708057.724,-16.804474
1435708057.74,-17.058937
1435708057.755,-16.755127
1435708057.771,-16.118683
1435708057.787,-15.304806
1435708057.802,-14.456882
1435708057.818,-13.684807
1435708057.834,-13.108284
1435708057.849,-12.820255
1435708057.865,-12.888004
1435708057.88,-13.299828
1435708057.896,-13.960087
1435708057.912,-14.654278
1435708057.927,-15.132648
1435708057.943,-15.167786
1435708057.959,-14.682964
1435708057.974,-13.757427
1435708057.99,-12.595032
1435708058.005,-11.39732
1435708058.021,-10.279083
1435708058.037,-9.171776
1435708058.052,-7.927433
1435708058.068,-6.3826637
1435708058.084,-4.4886246
1435708058.099,-2.3180122
1435708058.115,-0.05747986
1435708058.13,2.093689
1435708058.146,3.9811058
1435708058.162,5.5606956
1435708058.177,6.885784
1435708058.193,8.080677
1435708058.209,9.296314
1435708058.224,10.688576
1435708058.24,12.3956375
1435708058.255,14.5434
1435708058.271,17.182808
1435708058.287,20.25867
1435708058.302,23.523209
1435708058.318,26.53239
1435708058.334,28.667381
1435708058.349,29.297054
1435708058.365,27.940754
1435708058.38,24.45308
1435708058.396,19.095272
1435708058.412,12.50975
1435708058.427,5.530384
1435708058.443,-1.013588
1435708058.459,-6.5155067
1435708058.474,-10.678719
1435708058.49,-13.51899
1435708058.505,-15.245411
1435708058.521,-16.17194
1435708058.537,-16.547722
1435708058.552,-16.548485
1435708058.568,-16.266924
1435708058.584,-15.768377
1435708058.599,-15.153152
1435708058.615,-14.582809
1435708058.63,-14.219757
1435708058.646,-14.157263
1435708058.662,-14.337986
1435708058.677,-14.572451
1435708058.693,-14.640606
1435708058.709,-14.430119
1435708058.724,-13.9719715
1435708058.74,-13.423786
1435708058.755,-12.940868
1435708058.771,-12.54726
1435708058.787,-12.096197
1435708058.802,-11.347965
1435708058.818,-10.120098
1435708058.834,-8.429344
1435708058.849,-6.4691143
1435708058.865,-4.5035973
1435708058.88,-2.7075396
1435708058.896,-1.0698862
1435708058.912,0.60843945
1435708058.927,2.5475245
1435708058.943,4.8371763
1435708058.959,7.349534
1435708058.974,9.778059
1435708058.99,11.796865
1435708059.005,13.251304
1435708059.021,14.240466
1435708059.037,15.141167
1435708059.052,16.425066
1435708059.068,18.468626
1435708059.084,21.35022
1435708059.099,24.82599
1435708059.115,28.327618
1435708059.13,31.14297
1435708059.146,32.569996
1435708059.162,32.076546
1435708059.177,29.418653
1435708059.193,24.72448
1435708059.209,18.500767
1435708059.224,11.555963
1435708059.24,4.82461
1435708059.255,-0.8763015
1435708059.271,-5.0723586
1435708059.287,-7.7035637
1435708059.302,-9.082186
1435708059.318,-9.687216
1435708059.334,-9.978606
1435708059.349,-10.228238
1435708059.365,-10.518797
1435708059.38,-10.795998
1435708059.396,-11.000114
1435708059.412,-11.065954
1435708059.427,-11.00672
1435708059.443,-10.853096
1435708059.459,-10.658707
1435708059.474,-10.467107
1435708059.49,-10.336051
1435708059.505,-10.301166
1435708059.521,-10.373284
1435708059.537,-10.5265
1435708059.552,-10.673404
1435708059.568,-10.690993
1435708059.584,-10.470054
1435708059.599,-9.888538
1435708059.615,-8.898835
1435708059.63,-7.5093584
1435708059.646,-5.798338
1435708059.662,-3.870265
1435708059.677,-1.8481102
1435708059.693,0.188591
1435708059.709,2.1890364
1435708059.724,4.1445227
1435708059.74,6.052224
1435708059.755,7.9215755
1435708059.771,9.719168
1435708059.787,11.429316
1435708059.802,13.022385
1435708059.818,14.474291
1435708059.834,15.759033
1435708059.849,16.92297
1435708059.865,18.103949
1435708059.88,19.53927
1435708059.896,21.459282
1435708059.912,23.942108
1435708059.927,26.737394
1435708059.943,29.228243
1435708059.959,30.56073
1435708059.974,29.954062
1435708059.99,26.997984
1435708060.005,21.877514
1435708060.021,15.316042
1435708060.037,8.332098
1435708060.052,1.9030323
1435708060.068,-3.3213024
1435708060.084,-7.1238613
1435708060.099,-9.636688
1435708060.115,-11.160234
1435708060.13,-11.9742775
1435708060.146,-12.254742
1435708060.162,-12.071053
1435708060.177,-11.498856
1435708060.193,-10.646866
1435708060.209,-9.725973
1435708060.224,-8.956055
1435708060.24,-8.504408
1435708060.256,-8.39249
1435708060.271,-8.532661
1435708060.287,-8.78721
1435708060.302,-9.048876
1435708060.318,-9.275053
1435708060.334,-9.48761
1435708060.349,-9.698391
1435708060.365,-9.882281
1435708060.38,-9.945247
1435708060.396,-9.783247
1435708060.412,-9.290738
1435708060.427,-8.398376
1435708060.443,-7.081769
1435708060.459,-5.3926373
1435708060.474,-3.4387798
1435708060.49,-1.3755245
1435708060.506,0.6346407
1435708060.521,2.4729462
1435708060.537,4.1200933
1435708060.552,5.6010246
1435708060.568,6.958267
1435708060.584,8.18777
1435708060.599,9.279512
1435708060.615,10.255561
1435708060.631,11.245831
1435708060.646,12.469787
1435708060.662,14.169875
1435708060.677,16.424236
1435708060.693,19.052977
1435708060.709,21.594099
1435708060.724,23.428871
1435708060.74,23.941135
1435708060.756,22.71764
1435708060.771,19.65612
1435708060.787,14.9987955
1435708060.802,9.278267
1435708060.818,3.1875334
1435708060.834,-2.5873775
1435708060.849,-7.4993696
1435708060.865,-11.248575
1435708060.881,-13.768168
1435708060.896,-15.169183
1435708060.912,-15.630103
1435708060.927,-15.320912
1435708060.943,-14.381695
1435708060.959,-12.961402
1435708060.974,-11.24913
1435708060.99,-9.500658
1435708061.006,-8.001956
1435708061.021,-7.0119553
1435708061.037,-6.666844
1435708061.052,-6.9624314
1435708061.068,-7.7339683
1435708061.084,-8.746634
1435708061.099,-9.709099
1435708061.115,-10.387741
1435708061.131,-10.646901
1435708061.146,-10.4953375
1435708061.162,-10.007209
1435708061.177,-9.304829
1435708061.193,-8.423836
1435708061.209,-7.315886
1435708061.224,-5.874378
1435708061.24,-4.0283775
1435708061.256,-1.8170991
1435708061.271,0.5938859
1435708061.287,2.9813218
1435708061.302,5.1465907
1435708061.318,6.9957924
1435708061.334,8.52414
1435708061.349,9.836948
1435708061.365,11.078823
1435708061.381,12.426016
1435708061.396,14.031843
1435708061.412,15.986528
1435708061.427,18.179907
1435708061.443,20.283468
1435708061.459,21.735111
1435708061.474,21.93954
1435708061.49,20.453743
1435708061.506,17.215504
1435708061.521,12.550232
1435708061.537,7.1072793
1435708061.552,1.6020068
1435708061.568,-3.3803673
1435708061.584,-7.5009184
1435708061.599,-10.658474
1435708061.615,-12.90587
1435708061.631,-14.33191
1435708061.646,-15.013456
1435708061.662,-14.9825115
1435708061.677,-14.29955
1435708061.693,-13.094705
1435708061.709,-11.617317
1435708061.724,-10.16595
1435708061.74,-9.049988
1435708061.756,-8.429932
1435708061.771,-8.311537
1435708061.787,-8.540639
1435708061.802,-8.917683
1435708061.818,-9.274606
1435708061.834,-9.564625
1435708061.849,-9.781955
1435708061.865,-9.936253
1435708061.881,-9.944692
1435708061.896,-9.656147
1435708061.912,-8.877007
1435708061.927,-7.4918895
1435708061.943,-5.4872417
1435708061.959,-3.0141082
1435708061.974,-0.30265832
1435708061.99,2.3633413
1435708062.006,4.751257
1435708062.021,6.728775
1435708062.037,8.346966
1435708062.052,9.804337
1435708062.068,11.41108
1435708062.084,13.440855
1435708062.099,16.072899
1435708062.115,19.231155
1435708062.131,22.597166
1435708062.146,25.617693
1435708062.162,27.620796
1435708062.177,27.996527
1435708062.193,26.3444
1435708062.209,22.616238
1435708062.224,17.178246
1435708062.24,10.731077
1435708062.256,4.1355433
1435708062.271,-1.8321109
1435708062.287,-6.646618
1435708062.302,-10.13765
1435708062.318,-12.421794
1435708062.334,-13.794849
1435708062.349,-14.545401
1435708062.365,-14.885602
1435708062.381,-14.924881
1435708062.396,-14.704291
1435708062.412,-14.214665
1435708062.427,-13.490297
1435708062.443,-12.612375
1435708062.459,-11.733948
1435708062.474,-11.013707
1435708062.49,-10.5753145
1435708062.506,-10.425667
1435708062.521,-10.460259
1435708062.537,-10.505539
1435708062.552,-10.426898
1435708062.568,-10.201172
1435708062.584,-9.917945
1435708062.599,-9.649794
1435708062.615,-9.380497
1435708062.631,-8.925842
1435708062.646,-8.027812
1435708062.662,-6.462785
1435708062.677,-4.1877174
1435708062.693,-1.3612804
1435708062.709,1.6759005
1435708062.724,4.562993
1435708062.74,7.0213785
1435708062.756,8.984756
1435708062.771,10.563432
1435708062.787,12.035391
1435708062.802,13.744402
1435708062.818,15.97946
1435708062.834,18.89146
1435708062.849,22.374718
1435708062.865,26.055227
1435708062.881,29.311668
1435708062.896,31.404045
1435708062.912,31.653145
1435708062.927,29.610338
1435708062.943,25.250725
1435708062.959,18.977428
1435708062.974,11.593528
1435708062.99,4.0586014
1435708063.006,-2.7055244
1435708063.021,-8.095922
1435708063.037,-11.908659
1435708063.052,-14.304647
1435708063.068,-15.669542
1435708063.084,-16.410315
1435708063.099,-16.804829
1435708063.115,-16.970339
1435708063.131,-16.880777
1435708063.146,-16.495787
1435708063.162,-15.814503
1435708063.178,-14.95208
1435708063.193,-14.096825
1435708063.209,-13.437376
1435708063.224,-13.087231
1435708063.24,-13.0370865
1435708063.256,-13.157108
1435708063.271,-13.29689
1435708063.287,-13.337027
1435708063.303,-13.245668
1435708063.318,-13.0588665
1435708063.334,-12.789379
1435708063.349,-12.362246
1435708063.365,-11.614082
1435708063.381,-10.360571
1435708063.396,-8.512371
1435708063.412,-6.1112766
1435708063.428,-3.354433
1435708063.443,-0.47479248
1435708063.459,2.316513
1435708063.474,4.9156685
1435708063.49,7.28257
1435708063.506,9.453344
1435708063.521,11.465704
1435708063.537,13.411503
1435708063.553,15.4384575
1435708063.568,17.765556
1435708063.584,20.601181
1435708063.599,24.033457
1435708063.615,27.870073
1435708063.631,31.597422
1435708063.646,34.434082
1435708063.662,35.551025
1435708063.678,34.326595
1435708063.693,30.578346
1435708063.709,24.642883
1435708063.724,17.310312
1435708063.74,9.570387
1435708063.756,2.3591995
1435708063.771,-3.689066
1435708063.787,-8.323694
1435708063.803,-11.640615
1435708063.818,-13.9114895
1435708063.834,-15.44598
1435708063.849,-16.465616
1435708063.865,-17.06846
1435708063.881,-17.268711
1435708063.896,-17.081108
1435708063.912,-16.550709
1435708063.928,-15.813593
1435708063.943,-15.071735
1435708063.959,-14.559437
1435708063.974,-14.426453
1435708063.99,-14.717043
1435708064.006,-15.288404
1435708064.021,-15.892475
1435708064.037,-16.23142
1435708064.053,-16.09972
1435708064.068,-15.434034
1435708064.084,-14.340582
1435708064.099,-13.002867
1435708064.115,-11.587275
1435708064.131,-10.164757
1435708064.146,-8.698067
1435708064.162,-7.0668106
1435708064.178,-5.142782
1435708064.193,-2.8761368
1435708064.209,-0.32739258
1435708064.224,2.3443565
1435708064.24,4.9340897
1435708064.256,7.2852554
1435708064.271,9.352604
1435708064.287,11.192379
1435708064.303,12.940308
1435708064.318,14.725826
1435708064.334,16.636852
1435708064.349,18.742119
1435708064.365,21.107285
1435708064.381,23.826763
1435708064.396,26.906239
1435708064.412,30.165813
1435708064.428,33.10652
1435708064.443,34.935143
1435708064.459,34.78309
1435708064.474,32.064785
1435708064.49,26.752388
1435708064.506,19.472485
1435708064.521,11.309444
1435708064.537,3.4557114
1435708064.553,-3.1920242
1435708064.568,-8.212738
1435708064.584,-11.664158
1435708064.599,-13.858585
1435708064.615,-15.1587105
1435708064.631,-15.816521
1435708064.646,-15.973881
1435708064.662,-15.711651
1435708064.678,-15.1553
1435708064.693,-14.493576
1435708064.709,-13.955338
1435708064.724,-13.711147
1435708064.74,-13.813065
1435708064.756,-14.183495
1435708064.771,-14.647579
1435708064.787,-15.005032
1435708064.803,-15.124973
1435708064.818,-14.969677
1435708064.834,-14.59306
1435708064.849,-14.078514
1435708064.865,-13.513748
1435708064.881,-12.909229
1435708064.896,-12.245262
1435708064.912,-11.468143
1435708064.928,-10.490875
1435708064.943,-9.222904
1435708064.959,-7.5947113
1435708064.974,-5.5669136
1435708064.99,-3.18507
1435708065.006,-0.5760231
1435708065.021,2.0617943
1435708065.037,4.5276756
1435708065.053,6.6727753
1435708065.068,8.463783
1435708065.084,9.980431
1435708065.099,11.423882
1435708065.115,13.053612
1435708065.131,15.123657
1435708065.146,17.772495
1435708065.162,20.935287
1435708065.178,24.237152
1435708065.193,27.051723
1435708065.209,28.584145
1435708065.224,28.164913
1435708065.24,25.440388
1435708065.256,20.536308
1435708065.271,14.029659
1435708065.287,6.7886467
1435708065.303,-0.28572464
1435708065.318,-6.477947
1435708065.334,-11.369709
1435708065.349,-14.841633
1435708065.365,-16.991482
1435708065.381,-18.015263
1435708065.396,-18.129372
1435708065.412,-17.555622
1435708065.428,-16.542694
1435708065.443,-15.353249
1435708065.459,-14.267811
1435708065.474,-13.506832
1435708065.49,-13.18898
1435708065.506,-13.282627
1435708065.521,-13.633331
1435708065.537,-14.048477
1435708065.553,-14.364517
1435708065.568,-14.530346
1435708065.584,-14.585606
1435708065.599,-14.609249
1435708065.615,-14.632885
1435708065.631,-14.575367
1435708065.646,-14.258686
1435708065.662,-13.445225
1435708065.678,-11.939938
1435708065.693,-9.66423
1435708065.709,-6.738327
1435708065.724,-3.4293213
1435708065.74,-0.115875244
1435708065.756,2.8493538
1435708065.771,5.248684
1435708065.787,7.0766563
1435708065.803,8.530693
1435708065.818,9.938843
1435708065.834,11.667606
1435708065.85,13.994572
1435708065.865,17.025158
1435708065.881,20.598
1435708065.896,24.230995
1435708065.912,27.192524
1435708065.928,28.639347
1435708065.943,27.892982
1435708065.959,24.653961
1435708065.975,19.193954
1435708065.99,12.24548
1435708066.006,4.8434563
1435708066.021,-2.0428734
1435708066.037,-7.7364273
1435708066.053,-11.968929
1435708066.068,-14.8010025
1435708066.084,-16.47556
1435708066.1,-17.25581
1435708066.115,-17.343922
1435708066.131,-16.904217
1435708066.146,-16.092815
1435708066.162,-15.097332
1435708066.178,-14.154991
1435708066.193,-13.480686
1435708066.209,-13.233818
1435708066.225,-13.451271
1435708066.24,-14.02692
1435708066.256,-14.73777
1435708066.271,-15.340153
1435708066.287,-15.636055
1435708066.303,-15.575985
1435708066.318,-15.231281
1435708066.334,-14.767334
1435708066.35,-14.288197
1435708066.365,-13.780754
1435708066.381,-13.06287
1435708066.396,-11.876423
1435708066.412,-9.99144
1435708066.428,-7.3315353
1435708066.443,-4.022644
1435708066.459,-0.34671783
1435708066.475,3.3736572
1435708066.49,6.8765297
1435708066.506,10.05949
1435708066.521,12.947521
1435708066.537,15.698994
1435708066.553,18.472855
1435708066.568,21.431572
1435708066.584,24.655014
1435708066.6,28.13242
1435708066.615,31.684822
1435708066.631,34.93526
1435708066.646,37.29673
1435708066.662,38.087936
1435708066.678,36.695766
1435708066.693,32.823174
1435708066.709,26.6614
1435708066.725,18.915897
1435708066.74,10.625893
1435708066.756,2.8777046
1435708066.771,-3.51503
1435708066.787,-8.216324
1435708066.803,-11.360291
1435708066.818,-13.355213
1435708066.834,-14.662308
1435708066.85,-15.558231
1435708066.865,-16.128315
1435708066.881,-16.325058
1435708066.896,-16.149239
1435708066.912,-15.720306
1435708066.928,-15.271439
1435708066.943,-15.035732
1435708066.959,-15.098034
1435708066.975,-15.3363495
1435708066.99,-15.456318
1435708067.006,-15.151314
1435708067.021,-14.275288
1435708067.037,-12.91436
1435708067.053,-11.383797
1435708067.068,-10.049568
1435708067.084,-9.131485
1435708067.1,-8.56229
1435708067.115,-8.028019
1435708067.131,-7.0620728
1435708067.146,-5.3383026
1435708067.162,-2.7843437
1435708067.178,0.33478928
1435708067.193,3.5719376
1435708067.209,6.489212
1435708067.225,8.8604965
1435708067.24,10.741245
1435708067.256,12.394417
1435708067.271,14.1872635
1435708067.287,16.442509
1435708067.303,19.326984
1435708067.318,22.826263
1435708067.334,26.69205
1435708067.35,30.441395
1435708067.365,33.388813
1435708067.381,34.764194
1435708067.396,33.907692
1435708067.412,30.501472
1435708067.428,24.743282
1435708067.443,17.334332
1435708067.459,9.29929
1435708067.475,1.713253
1435708067.49,-4.609524
1435708067.506,-9.272343
1435708067.521,-12.320354
1435708067.537,-14.0893135
1435708067.553,-15.023846
1435708067.568,-15.498585
1435708067.584,-15.748867
1435708067.6,-15.862778
1435708067.615,-15.857796
1435708067.631,-15.725388
1435708067.646,-15.493214
1435708067.662,-15.206207
1435708067.678,-14.924141
1435708067.693,-14.67487
1435708067.709,-14.44611
1435708067.725,-14.178932
1435708067.74,-13.777397
1435708067.756,-13.166912
1435708067.771,-12.347744
1435708067.787,-11.394684
1435708067.803,-10.435757
1435708067.818,-9.538624
1435708067.834,-8.667095
1435708067.85,-7.624977
1435708067.865,-6.171852
1435708067.881,-4.123268
1435708067.896,-1.4931908
1435708067.912,1.4963608
1435708067.928,4.495163
1435708067.943,7.1596756
1435708067.959,9.289875
1435708067.975,10.878788
1435708067.99,12.114075
1435708068.006,13.301151
1435708068.021,14.781197
1435708068.037,16.869888
1435708068.053,19.69701
1435708068.068,23.127491
1435708068.084,26.671055
1435708068.1,29.55875
1435708068.115,30.922764
1435708068.131,30.102142
1435708068.146,26.859966
1435708068.162,21.485882
1435708068.178,14.681904
1435708068.193,7.362854
1435708068.209,0.36795044
1435708068.225,-5.6851196
1435708068.24,-10.494068
1435708068.256,-14.018356
1435708068.271,-16.424171
1435708068.287,-17.961147
1435708068.303,-18.89655
1435708068.318,-19.42974
1435708068.334,-19.695591
1435708068.35,-19.756355
1435708068.365,-19.674255
1435708068.381,-19.533161
1435708068.396,-19.429276
1435708068.412,-19.419033
1435708068.428,-19.472736
1435708068.443,-19.484848
1435708068.459,-19.340256
1435708068.475,-18.95472
1435708068.49,-18.346664
1435708068.506,-17.5957
1435708068.522,-16.785927
1435708068.537,-15.956642
1435708068.553,-15.074135
1435708068.568,-14.054226
1435708068.584,-12.800198
1435708068.6,-11.213234
1435708068.615,-9.216927
1435708068.631,-6.7745132
1435708068.647,-3.9702873
1435708068.662,-0.99474335
1435708068.678,1.8610611
1435708068.693,4.334553
1435708068.709,6.2831535
1435708068.725,7.780369
1435708068.74,9.070499
1435708068.756,10.499203
1435708068.772,12.371136
1435708068.787,14.885399
1435708068.803,18.050419
1435708068.818,21.678825
1435708068.834,25.345222
1435708068.85,28.428596
1435708068.865,30.23489
1435708068.881,30.140347
1435708068.897,27.77766
1435708068.912,23.203201
1435708068.928,16.878235
1435708068.943,9.603699
1435708068.959,2.2887268
1435708068.975,-4.2345085
1435708068.99,-9.42474
1435708069.006,-13.068672
1435708069.022,-15.3116
1435708069.037,-16.513172
1435708069.053,-17.081959
1435708069.068,-17.350597
1435708069.084,-17.513601
1435708069.1,-17.623466
1435708069.115,-17.68551
1435708069.131,-17.703058
1435708069.147,-17.734463
1435708069.162,-17.849903
1435708069.178,-18.106247
1435708069.193,-18.503616
1435708069.209,-19.020536
1435708069.225,-19.60886
1435708069.24,-20.233425
1435708069.256,-20.810444
1435708069.272,-21.206583
1435708069.287,-21.216986
1435708069.303,-20.629715
1435708069.318,-19.249525
1435708069.334,-16.980595
1435708069.35,-13.866407
1435708069.365,-10.084042
1435708069.381,-5.913006
1435708069.397,-1.6981478
1435708069.412,2.2524004
1435708069.428,5.714841
1435708069.443,8.6261
1435708069.459,11.060583
1435708069.475,13.175854
1435708069.49,15.08702
1435708069.506,16.83551
1435708069.522,18.338316
1435708069.537,19.48985
1435708069.553,20.249237
1435708069.568,20.716198
1435708069.584,21.140423
1435708069.6,21.863964
1435708069.615,23.208336
1435708069.631,25.35882
1435708069.647,28.264334
1435708069.662,31.566738
1435708069.678,34.623203
1435708069.693,36.63777
1435708069.709,36.839806
1435708069.725,34.776657
1435708069.74,30.437382
1435708069.756,24.308228
1435708069.772,17.207315
1435708069.787,10.043295
1435708069.803,3.5455275
1435708069.818,-1.8586597
1435708069.834,-6.0539403
1435708069.85,-9.135694
1435708069.865,-11.293802
1435708069.881,-12.742203
1435708069.897,-13.695104
1435708069.912,-14.358959
1435708069.928,-14.934397
1435708069.943,-15.564281
1435708069.959,-16.345074
1435708069.975,-17.273897
1435708069.99,-18.301369
1435708070.006,-19.328981
1435708070.022,-20.25177
1435708070.037,-20.983345
1435708070.053,-21.46008
1435708070.068,-21.657787
1435708070.084,-21.591778
1435708070.1,-21.276043
1435708070.115,-20.705828
1435708070.131,-19.82621
1435708070.147,-18.5471
1435708070.162,-16.772034
1435708070.178,-14.467133
1435708070.193,-11.684151
1435708070.209,-8.61923
1435708070.225,-5.544201
1435708070.24,-2.75214
1435708070.256,-0.42926407
1435708070.272,1.417656
1435708070.287,2.9617977
1435708070.303,4.447397
1435708070.318,6.0908527
1435708070.334,7.9474945
1435708070.35,9.938526
1435708070.365,11.88393
1435708070.381,13.636845
1435708070.397,15.139784
1435708070.412,16.444849
1435708070.428,17.66978
1435708070.443,18.95139
1435708070.459,20.406334
1435708070.475,22.16876
1435708070.49,24.320637
1435708070.506,26.830544
1435708070.522,29.42248
1435708070.537,31.556353
1435708070.553,32.493828
1435708070.568,31.54622
1435708070.584,28.342043
1435708070.6,23.023344
1435708070.615,16.257723
1435708070.631,9.015776
1435708070.647,2.2716599
1435708070.662,-3.2730713
1435708070.678,-7.356846
1435708070.693,-10.0970955
1435708070.709,-11.818199
1435708070.725,-12.828121
1435708070.74,-13.324356
1435708070.756,-13.362179
1435708070.772,-12.986797
1435708070.787,-12.328476
1435708070.803,-11.65509
1435708070.818,-11.265064
1435708070.834,-11.390652
1435708070.85,-12.024574
1435708070.865,-12.935684
1435708070.881,-13.782589
1435708070.897,-14.314285
1435708070.912,-14.461159
1435708070.928,-14.367775
1435708070.943,-14.248367
1435708070.959,-14.250626
1435708070.975,-14.354179
1435708070.99,-14.371437
1435708071.006,-14.0623665
1435708071.022,-13.254509
1435708071.037,-11.892883
1435708071.053,-10.081356
1435708071.068,-8.019638
1435708071.084,-5.934826
1435708071.1,-3.987053
1435708071.115,-2.231266
1435708071.131,-0.6083298
1435708071.147,0.9901695
1435708071.162,2.6563148
1435708071.178,4.382759
1435708071.194,6.0579185
1435708071.209,7.539074
1435708071.225,8.801292
1435708071.24,9.966152
1435708071.256,11.321819
1435708071.272,13.174438
1435708071.287,15.687183
1435708071.303,18.746624
1435708071.318,21.961056
1435708071.334,24.70855
1435708071.35,26.3093
1435708071.365,26.213043
1435708071.381,24.143265
1435708071.397,20.171215
1435708071.412,14.745892
1435708071.428,8.563107
1435708071.444,2.4217453
1435708071.459,-2.9865265
1435708071.475,-7.2127304
1435708071.49,-10.12775
1435708071.506,-11.865223
1435708071.522,-12.7275505
1435708071.537,-13.065052
1435708071.553,-13.172401
1435708071.569,-13.2102165
1435708071.584,-13.23587
1435708071.6,-13.191673
1435708071.615,-13.004543
1435708071.631,-12.64135
1435708071.647,-12.153915
1435708071.662,-11.676712
1435708071.678,-11.352699
1435708071.694,-11.273659
1435708071.709,-11.437241
1435708071.725,-11.736351
1435708071.74,-12.021709
1435708071.756,-12.127098
1435708071.772,-11.944393
1435708071.787,-11.390675
1435708071.803,-10.462315
1435708071.819,-9.195606
1435708071.834,-7.6957207
1435708071.85,-6.080223
1435708071.865,-4.462616
1435708071.881,-2.893776
1435708071.897,-1.3510742
1435708071.912,0.23430634
1435708071.928,1.9182663
1435708071.944,3.7161484
1435708071.959,5.5854034
1435708071.975,7.456497
1435708071.99,9.251251
1435708072.006,10.901466
1435708072.022,12.365822
1435708072.037,13.635544
1435708072.053,14.764114
1435708072.069,15.922928
1435708072.084,17.356201
1435708072.1,19.325066
1435708072.115,21.93142
1435708072.131,24.97496
1435708072.147,27.893745
1435708072.162,29.911095
1435708072.178,30.273071
1435708072.194,28.541481
1435708072.209,24.757896
1435708072.225,19.436615
1435708072.24,13.358475
1435708072.256,7.3339233
1435708072.272,1.9550705
1435708072.287,-2.479248
1435708072.303,-5.9202576
1435708072.319,-8.453491
1435708072.334,-10.200699
1435708072.35,-11.227394
1435708072.365,-11.61512
1435708072.381,-11.476753
1435708072.397,-11.0048065
1435708072.412,-10.385933
1435708072.428,-9.789551
1435708072.444,-9.287827
1435708072.459,-8.876472
1435708072.475,-8.510666
1435708072.49,-8.1705475
1435708072.506,-7.8675537
1435708072.522,-7.658272
1435708072.537,-7.5562286
1435708072.553,-7.524872
1435708072.569,-7.451584
1435708072.584,-7.2380295
1435708072.6,-6.792671
1435708072.615,-6.095619
1435708072.631,-5.155411
1435708072.647,-4.0041504
1435708072.662,-2.645073
1435708072.678,-1.0783157
1435708072.694,0.68964386
1435708072.709,2.6137085
1435708072.725,4.64624
1435708072.74,6.721321
1435708072.756,8.77021
1435708072.772,10.714462
1435708072.787,12.49601
1435708072.803,14.068871
1435708072.819,15.480896
1435708072.834,16.848862
1435708072.85,18.384659
1435708072.865,20.302116
1435708072.881,22.72506
1435708072.897,25.557846
1435708072.912,28.47882
1435708072.928,30.926575
1435708072.944,32.25553
1435708072.959,31.88034
1435708072.975,29.506485
1435708072.99,25.222313
1435708073.006,19.539803
1435708073.022,13.215332
1435708073.037,7.0321503
1435708073.053,1.57061
1435708073.069,-2.8920898
1435708073.084,-6.3430862
1435708073.1,-8.867149
1435708073.115,-10.564415
1435708073.131,-11.472084
1435708073.147,-11.667404
1435708073.162,-11.328205
1435708073.178,-10.752621
1435708073.194,-10.257439
1435708073.209,-10.067299
1435708073.225,-10.212116
1435708073.24,-10.558636
1435708073.256,-10.917095
1435708073.272,-11.162033
1435708073.287,-11.246174
1435708073.303,-11.222248
1435708073.319,-11.124287
1435708073.334,-10.98251
1435708073.35,-10.784267
1435708073.365,-10.496117
1435708073.381,-10.056698
1435708073.397,-9.38636
1435708073.412,-8.38084
1435708073.428,-6.9769707
1435708073.444,-5.16201
1435708073.459,-3.0207329
1435708073.475,-0.6835213
1435708073.49,1.6704788
1435708073.506,3.8932533
1435708073.522,5.871052
1435708073.537,7.569908
1435708073.553,9.038685
1435708073.569,10.427422
1435708073.584,11.973518
1435708073.6,13.94783
1435708073.615,16.516533
1435708073.631,19.625244
1435708073.647,22.920105
1435708073.662,25.770908
1435708073.678,27.395933
1435708073.694,27.127087
1435708073.709,24.59468
1435708073.725,19.910847
1435708073.74,13.622833
1435708073.756,6.6142673
1435708073.772,-0.20688438
1435708073.787,-6.0932293
1435708073.803,-10.650478
1435708073.819,-13.827698
1435708073.834,-15.799694
1435708073.85,-16.790182
1435708073.865,-16.983131
1435708073.881,-16.510525
1435708073.897,-15.555445
1435708073.912,-14.379204
1435708073.928,-13.327059
1435708073.944,-12.686042
1435708073.959,-12.568669
1435708073.975,-12.828447
1435708073.99,-13.177404
1435708074.006,-13.327993
1435708074.022,-13.161421
1435708074.037,-12.748354
1435708074.053,-12.316781
1435708074.069,-12.070134
1435708074.084,-12.077822
1435708074.1,-12.1972065
1435708074.116,-12.1391945
1435708074.131,-11.580665
1435708074.147,-10.300094
1435708074.162,-8.253462
1435708074.178,-5.5707417
1435708074.194,-2.5000305
1435708074.209,0.6780976
1435708074.225,3.7339244
1435708074.241,6.5178866
1435708074.256,9.012601
1435708074.272,11.270618
1435708074.287,13.445765
1435708074.303,15.741915
1435708074.319,18.38903
1435708074.334,21.51521
1435708074.35,25.023716
1435708074.366,28.486446
1435708074.381,31.181187
1435708074.397,32.24865
1435708074.412,31.017307
1435708074.428,27.265018
1435708074.444,21.351685
1435708074.459,14.125571
1435708074.475,6.6579475
1435708074.491,-0.09363747
1435708074.506,-5.533716
1435708074.522,-9.522194
1435708074.537,-12.281082
1435708074.553,-14.192362
1435708074.569,-15.582651
1435708074.584,-16.622086
1435708074.6,-17.286354
1435708074.616,-17.511871
1435708074.631,-17.31283
1435708074.647,-16.874537
1435708074.662,-16.466286
1435708074.678,-16.317148
1435708074.694,-16.451004
1435708074.709,-16.664055
1435708074.725,-16.649984
1435708074.741,-16.19684
1435708074.756,-15.316206
1435708074.772,-14.255461
1435708074.787,-13.300459
1435708074.803,-12.609959
1435708074.819,-12.076614
1435708074.834,-11.407864
1435708074.85,-10.258072
1435708074.866,-8.435848
1435708074.881,-5.976471
1435708074.897,-3.1298866
1435708074.912,-0.23630142
1435708074.928,2.3946075
1435708074.944,4.611183
1435708074.959,6.4395065
1435708074.975,8.100281
1435708074.991,9.902977
1435708075.006,12.166462
1435708075.022,15.094994
1435708075.037,18.717
1435708075.053,22.818085
1435708075.069,26.930408
1435708075.084,30.375954
1435708075.1,32.376495
1435708075.116,32.222706
1435708075.131,29.516815
1435708075.147,24.333206
1435708075.162,17.299747
1435708075.178,9.424919
1435708075.194,1.8059464
1435708075.209,-4.7093964
1435708075.225,-9.751694
1435708075.241,-13.41724
1435708075.256,-16.082458
1435708075.272,-18.133213
1435708075.287,-19.773659
1435708075.303,-20.994064
1435708075.319,-21.662937
1435708075.334,-21.73199
1435708075.35,-21.298225
1435708075.366,-20.636944
1435708075.381,-20.056873
1435708075.397,-19.784153
1435708075.412,-19.836166
1435708075.428,-20.045998
1435708075.444,-20.13636
1435708075.459,-19.889809
1435708075.475,-19.254978
1435708075.491,-18.365566
1435708075.506,-17.443455
1435708075.522,-16.672043
1435708075.537,-16.018456
1435708075.553,-15.238819
1435708075.569,-13.977882
1435708075.584,-11.947647
1435708075.6,-9.085175
1435708075.616,-5.6239967
1435708075.631,-1.9848022
1435708075.647,1.3659668
1435708075.662,4.114067
1435708075.678,6.19331
1435708075.694,7.8053055
1435708075.709,9.323978
1435708075.725,11.175987
1435708075.741,13.696835
1435708075.756,17.015053
1435708075.772,20.979202
1435708075.787,25.131119
1435708075.803,28.746338
1435708075.819,31.016129
1435708075.834,31.22874
1435708075.85,29.01308
1435708075.866,24.448967
1435708075.881,18.07808
1435708075.897,10.74781
1435708075.912,3.4135895
1435708075.928,-3.1210442
1435708075.944,-8.357895
1435708075.959,-12.160984
1435708075.975,-14.708801
1435708075.991,-16.32389
1435708076.006,-17.33826
1435708076.022,-17.984035
1435708076.037,-18.373535
1435708076.053,-18.538277
1435708076.069,-18.500187
1435708076.084,-18.311096
1435708076.1,-18.024818
1435708076.116,-17.698349
1435708076.131,-17.336544
1435708076.147,-16.944294
1435708076.162,-16.528458
1435708076.178,-16.142887
1435708076.194,-15.820866
1435708076.209,-15.566338
1435708076.225,-15.290394
1435708076.241,-14.839478
1435708076.256,-14.055996
1435708076.272,-12.844891
1435708076.287,-11.183308
1435708076.303,-9.121979
1435708076.319,-6.747967
1435708076.334,-4.17255
1435708076.35,-1.5015564
1435708076.366,1.1540298
1435708076.381,3.741085
1435708076.397,6.3122406
1435708076.412,9.031189
1435708076.428,12.123859
1435708076.444,15.805286
1435708076.459,20.166805
1435708076.475,25.120728
1435708076.491,30.352406
1435708076.506,35.31105
1435708076.522,39.262646
1435708076.537,41.431118
1435708076.553,41.174892
1435708076.569,38.243855
1435708076.584,32.90101
1435708076.6,25.92271
1435708076.616,18.328945
1435708076.631,11.088871
1435708076.647,4.8025475
1435708076.662,-0.36907578
1435708076.678,-4.6147385
1435708076.694,-8.209347
1435708076.709,-11.355679
1435708076.725,-14.059868
1435708076.741,-16.209309
1435708076.756,-17.662716
1435708076.772,-18.387772
1435708076.788,-18.496792
1435708076.803,-18.22393
1435708076.819,-17.873878
1435708076.834,-17.713318
1435708076.85,-17.86171
1435708076.866,-18.289871
1435708076.881,-18.831448
1435708076.897,-19.284088
1435708076.913,-19.455956
1435708076.928,-19.22377
1435708076.944,-18.513054
1435708076.959,-17.33051
1435708076.975,-15.734753
1435708076.991,-13.875938
1435708077.006,-11.953499
1435708077.022,-10.172695
1435708077.038,-8.6205635
1435708077.053,-7.244957
1435708077.069,-5.8549843
1435708077.084,-4.2520638
1435708077.1,-2.3274078
1435708077.116,-0.12955856
1435708077.131,2.1939697
1435708077.147,4.4663734
1435708077.163,6.5834694
1435708077.178,8.525467
1435708077.194,10.352722
1435708077.209,12.165588
1435708077.225,14.1119995
1435708077.241,16.342361
1435708077.256,18.9763
1435708077.272,21.949837
1435708077.288,24.934166
1435708077.303,27.348251
1435708077.319,28.495338
1435708077.334,27.797298
1435708077.35,25.036194
1435708077.366,20.425243
1435708077.381,14.541565
1435708077.397,8.130142
1435708077.413,1.9251442
1435708077.428,-3.526619
1435708077.444,-7.8716087
1435708077.459,-10.963772
1435708077.475,-12.830364
1435708077.491,-13.654427
1435708077.506,-13.730843
1435708077.522,-13.43549
1435708077.538,-13.122864
1435708077.553,-13.024143
1435708077.569,-13.1967125
1435708077.584,-13.551975
1435708077.6,-13.905109
1435708077.616,-14.115524
1435708077.631,-14.125668
1435708077.647,-14.012371
1435708077.663,-13.889324
1435708077.678,-13.858612
1435708077.694,-13.900715
1435708077.709,-13.887619
1435708077.725,-13.628811
1435708077.741,-12.967594
1435708077.756,-11.86755
1435708077.772,-10.432049
1435708077.788,-8.818817
1435708077.803,-7.1844215
1435708077.819,-5.5885277
1435708077.834,-4.0157166
1435708077.85,-2.3918114
1435708077.866,-0.6924019
1435708077.881,1.0426693
1435708077.897,2.701212
1435708077.913,4.1685505
1435708077.928,5.3726826
1435708077.944,6.326832
1435708077.959,7.120346
1435708077.975,7.879389
1435708077.991,8.71962
1435708078.006,9.736357
1435708078.022,11.017601
1435708078.038,12.649782
1435708078.053,14.702648
1435708078.069,17.15651
1435708078.084,19.783205
1435708078.1,22.124744
1435708078.116,23.513205
1435708078.131,23.289515
1435708078.147,21.035282
1435708078.163,16.812962
1435708078.178,11.166094
1435708078.194,4.9992504
1435708078.209,-0.7518692
1435708078.225,-5.4074516
1435708078.241,-8.706499
1435708078.256,-10.781487
1435708078.272,-11.994899
1435708078.288,-12.720533
1435708078.303,-13.183551
1435708078.319,-13.438896
1435708078.334,-13.424217
1435708078.35,-13.080906
1435708078.366,-12.45663
1435708078.381,-11.741895
1435708078.397,-11.194015
1435708078.413,-11.026283
1435708078.428,-11.31272
1435708078.444,-11.89886
1435708078.459,-12.523428
1435708078.475,-12.912636
1435708078.491,-12.924622
1435708078.506,-12.610612
1435708078.522,-12.137684
1435708078.538,-11.645005
1435708078.553,-11.155102
1435708078.569,-10.546565
1435708078.584,-9.639476
1435708078.6,-8.3088665
1435708078.616,-6.566732
1435708078.631,-4.551881
1435708078.647,-2.4672036
1435708078.663,-0.47960854
1435708078.678,1.3005567
1435708078.694,2.8484578
1435708078.709,4.161557
1435708078.725,5.279686
1435708078.741,6.242546
1435708078.756,7.1349516
1435708078.772,8.0573845
1435708078.788,9.125969
1435708078.803,10.447567
1435708078.819,12.119045
1435708078.834,14.188328
1435708078.85,16.631884
1435708078.866,19.277563
1435708078.881,21.738853
1435708078.897,23.458174
1435708078.913,23.840918
1435708078.928,22.44438
1435708078.944,19.177757
1435708078.959,14.381964
1435708078.975,8.746386
1435708078.991,3.0923367
1435708079.006,-1.8870564
1435708079.022,-5.8128624
1435708079.038,-8.632109
1435708079.053,-10.535574
1435708079.069,-11.772814
1435708079.084,-12.546463
1435708079.1,-12.952644
1435708079.116,-13.034641
1435708079.131,-12.851128
1435708079.147,-12.514034
1435708079.163,-12.164963
1435708079.178,-11.947742
1435708079.194,-11.927635
1435708079.209,-12.096462
1435708079.225,-12.3564
1435708079.241,-12.597752
1435708079.256,-12.697369
1435708079.272,-12.598705
1435708079.288,-12.279457
1435708079.303,-11.793251
1435708079.319,-11.194199
1435708079.334,-10.545132
1435708079.35,-9.857536
1435708079.366,-9.08894
1435708079.381,-8.161507
1435708079.397,-7.0058594
1435708079.413,-5.639923
1435708079.428,-4.1636887
1435708079.444,-2.7238235
1435708079.46,-1.4509239
1435708079.475,-0.34192657
1435708079.491,0.6999054
1435708079.506,1.8751526
1435708079.522,3.3378792
1435708079.538,5.1494827
1435708079.553,7.2144165
1435708079.569,9.335426
1435708079.585,11.257286
1435708079.6,12.792328
1435708079.616,13.8656845
1435708079.631,14.571243
1435708079.647,15.153656
1435708079.663,15.95266
1435708079.678,17.277985
1435708079.694,19.298393
1435708079.71,21.917763
1435708079.725,24.77462
1435708079.741,27.278992
1435708079.756,28.770485
1435708079.772,28.689735
1435708079.788,26.746124
1435708079.803,22.991241
1435708079.819,17.853996
1435708079.835,12.0160675
1435708079.85,6.2743454
1435708079.866,1.3043137
1435708079.881,-2.4877625
1435708079.897,-5.0359955
1435708079.913,-6.5517426
1435708079.928,-7.3772964
1435708079.944,-7.8278046
1435708079.96,-8.105057
1435708079.975,-8.296692
1435708079.991,-8.459473
1435708080.006,-8.651123
1435708080.022,-8.955338
1435708080.038,-9.404236
1435708080.053,-9.97934
1435708080.069,-10.539978
1435708080.085,-10.940971
1435708080.1,-11.058525
1435708080.116,-10.884705
1435708080.131,-10.515495
1435708080.147,-10.10408
1435708080.163,-9.775734
1435708080.178,-9.57254
1435708080.194,-9.428162
1435708080.21,-9.190277
1435708080.225,-8.660233
1435708080.241,-7.699051
1435708080.256,-6.2551956
1435708080.272,-4.4274063
1435708080.288,-2.4152985
1435708080.303,-0.46884918
1435708080.319,1.2206345
1435708080.335,2.5456543
1435708080.35,3.5387878
1435708080.366,4.3168793
1435708080.381,5.0595856
1435708080.397,5.9480133
1435708080.413,7.143982
1435708080.428,8.714302
1435708080.444,10.6451645
1435708080.46,12.797287
1435708080.475,14.96154
1435708080.491,16.91285
1435708080.506,18.521553
1435708080.522,19.788773
1435708080.538,20.901283
1435708080.553,22.121483
1435708080.569,23.70105
1435708080.585,25.724152
1435708080.6,28.060577
1435708080.616,30.313835
1435708080.631,31.917732
1435708080.647,32.24504
1435708080.663,30.823647
1435708080.678,27.514923
1435708080.694,22.616516
1435708080.71,16.779335
1435708080.725,10.826958
1435708080.741,5.470154
1435708080.756,1.128952
1435708080.772,-2.1342392
1435708080.788,-4.4698486
1435708080.803,-6.1137466
1435708080.819,-7.2329025
1435708080.835,-7.9176865
1435708080.85,-8.224358
1435708080.866,-8.258888
1435708080.881,-8.184013
1435708080.897,-8.197441
1435708080.913,-8.433449
1435708080.928,-8.93457
1435708080.944,-9.628105
1435708080.96,-10.391281
1435708080.975,-11.06929
1435708080.991,-11.565697
1435708081.006,-11.8293
1435708081.022,-11.880066
1435708081.038,-11.772247
1435708081.053,-11.565086
1435708081.069,-11.2686615
1435708081.085,-10.83709
1435708081.1,-10.174614
1435708081.116,-9.207832
1435708081.131,-7.918091
1435708081.147,-6.393791
1435708081.163,-4.7752304
1435708081.178,-3.2274246
1435708081.194,-1.8347855
1435708081.21,-0.58914185
1435708081.225,0.6221161
1435708081.241,1.9435577
1435708081.256,3.503746
1435708081.272,5.296501
1435708081.288,7.2046585
1435708081.303,9.018341
1435708081.319,10.536011
1435708081.335,11.65934
1435708081.35,12.448769
1435708081.366,13.107201
1435708081.381,13.917923
1435708081.397,15.167084
1435708081.413,17.052467
1435708081.428,19.61203
1435708081.444,22.641953
1435708081.46,25.648422
1435708081.475,27.913895
1435708081.491,28.636719
1435708081.506,27.231834
1435708081.522,23.52494
1435708081.538,17.908958
1435708081.553,11.19677
1435708081.569,4.3748245
1435708081.585,-1.742775
1435708081.6,-6.6869965
1435708081.616,-10.370621
1435708081.631,-12.948074
1435708081.647,-14.655327
1435708081.663,-15.666733
1435708081.678,-16.11676
1435708081.694,-16.113113
1435708081.71,-15.799088
1435708081.725,-15.357643
1435708081.741,-14.984016
1435708081.756,-14.807762
1435708081.772,-14.875092
1435708081.788,-15.124062
1435708081.803,-15.438103
1435708081.819,-15.688736
1435708081.835,-15.8066635
1435708081.85,-15.803123
1435708081.866,-15.745155
1435708081.881,-15.691399
1435708081.897,-15.609146
1435708081.913,-15.3433
1435708081.928,-14.6661415
1435708081.944,-13.398312
1435708081.96,-11.528851
1435708081.975,-9.220028
1435708081.991,-6.7737236
1435708082.006,-4.4780655
1435708082.022,-2.493969
1435708082.038,-0.7920227
1435708082.053,0.78793716
1435708082.069,2.4429207
1435708082.085,4.27013
1435708082.1,6.2252426
1435708082.116,8.137253
1435708082.132,9.812019
1435708082.147,11.135662
1435708082.163,12.189854
1435708082.178,13.2226715
1435708082.194,14.625172
1435708082.21,16.74068
1435708082.225,19.74076
1435708082.241,23.438187
1435708082.256,27.27219
1435708082.272,30.398296
1435708082.288,31.923782
1435708082.303,31.188812
1435708082.319,28.00742
1435708082.335,22.721107
1435708082.35,16.10828
1435708082.366,9.148018
1435708082.382,2.7111206
1435708082.397,-2.6454315
1435708082.413,-6.739502
1435708082.428,-9.676029
1435708082.444,-11.692493
1435708082.46,-13.047958
1435708082.475,-13.90263
1435708082.491,-14.371365
1435708082.507,-14.545746
1435708082.522,-14.5502205
1435708082.538,-14.500698
1435708082.553,-14.484856
1435708082.569,-14.50206
1435708082.585,-14.488369
1435708082.6,-14.366322
1435708082.616,-14.115112
1435708082.632,-13.797745
1435708082.647,-13.566505
1435708082.663,-13.543583
1435708082.678,-13.77244
1435708082.694,-14.146133
1435708082.71,-14.438082
1435708082.725,-14.364948
1435708082.741,-13.720829
1435708082.757,-12.421455
1435708082.772,-10.578726
1435708082.788,-8.42367
1435708082.803,-6.2168884
1435708082.819,-4.122715
1435708082.835,-2.1629639
1435708082.85,-0.22467041
1435708082.866,1.8315163
1435708082.882,4.0696144
1435708082.897,6.4155006
1435708082.913,8.691233
1435708082.928,10.714329
1435708082.944,12.395191
1435708082.96,13.75255
1435708082.975,14.916307
1435708082.991,16.08174
1435708083.007,17.48743
1435708083.022,19.357637
1435708083.038,21.89688
1435708083.053,25.107443
1435708083.069,28.695946
1435708083.085,31.974617
1435708083.1,34.005272
1435708083.116,33.86805
1435708083.132,31.050003
1435708083.147,25.644024
1435708083.163,18.383133
1435708083.178,10.391238
1435708083.194,2.806178
1435708083.21,-3.5286694
1435708083.225,-8.222431
1435708083.241,-11.330874
1435708083.257,-13.174873
1435708083.272,-14.173383
1435708083.288,-14.671289
1435708083.303,-14.9025755
1435708083.319,-14.959716
1435708083.335,-14.891018
1435708083.35,-14.7222595
1435708083.366,-14.528821
1435708083.382,-14.407382
1435708083.397,-14.457523
1435708083.413,-14.71014
1435708083.428,-15.136072
1435708083.444,-15.637829
1435708083.46,-16.116182
1435708083.475,-16.483353
1435708083.491,-16.65612
1435708083.507,-16.537682
1435708083.522,-16.04074
1435708083.538,-15.111286
1435708083.553,-13.7875185
1435708083.569,-12.174875
1435708083.585,-10.437379
1435708083.6,-8.696619
1435708083.616,-7.0157003
1435708083.632,-5.3638973
1435708083.647,-3.6653605
1435708083.663,-1.8311691
1435708083.678,0.19839096
1435708083.694,2.442707
1435708083.71,4.862589
1435708083.725,7.355768
1435708083.741,9.776558
1435708083.757,11.965696
1435708083.772,13.828264
1435708083.788,15.4363785
1435708083.803,17.005575
1435708083.819,18.878527
1435708083.835,21.332563
1435708083.85,24.440603
1435708083.866,27.9423
1435708083.882,31.238232
1435708083.897,33.488083
1435708083.913,33.862953
1435708083.928,31.775143
1435708083.944,27.111902
1435708083.96,20.302887
1435708083.975,12.235271
1435708083.991,3.9824905
1435708084.007,-3.4686928
1435708084.022,-9.4746895
1435708084.038,-13.817261
1435708084.053,-16.65224
1435708084.069,-18.316822
1435708084.085,-19.170654
1435708084.1,-19.466572
1435708084.116,-19.348927
1435708084.132,-18.899742
1435708084.147,-18.232899
1435708084.163,-17.51902
1435708084.178,-16.977497
1435708084.194,-16.789017
1435708084.21,-17.01152
1435708084.225,-17.56184
1435708084.241,-18.230728
1435708084.257,-18.776554
1435708084.272,-19.029705
1435708084.288,-18.906326
1435708084.303,-18.468105
1435708084.319,-17.815884
1435708084.335,-17.067394
1435708084.35,-16.277988
1435708084.366,-15.432201
1435708084.382,-14.449242
1435708084.397,-13.208363
1435708084.413,-11.568283
1435708084.428,-9.444962
1435708084.444,-6.8324203
1435708084.46,-3.876896
1435708084.475,-0.81902695
1435708084.491,2.0759964
1435708084.507,4.6231194
1435708084.522,6.7980194
1435708084.538,8.74625
1435708084.553,10.698494
1435708084.569,12.8896675
1435708084.585,15.486858
1435708084.6,18.54517
1435708084.616,21.976677
1435708084.632,25.501144
1435708084.647,28.621891
1435708084.663,30.669468
1435708084.678,30.920914
1435708084.694,28.833038
1435708084.71,24.244583
1435708084.725,17.519749
1435708084.741,9.499279
1435708084.757,1.2916145
1435708084.772,-6.0683746
1435708084.788,-11.856728
1435708084.804,-15.81992
1435708084.819,-18.114532
1435708084.835,-19.180023
1435708084.85,-19.50626
1435708084.866,-19.474884
1435708084.882,-19.296227
1435708084.897,-19.03701
1435708084.913,-18.665878
1435708084.928,-18.174858
1435708084.944,-17.624939
1435708084.96,-17.15384
1435708084.975,-16.913433
1435708084.991,-16.978905
1435708085.007,-17.29618
1435708085.022,-17.714672
1435708085.038,-18.012253
1435708085.054,-18.027748
1435708085.069,-17.696316
1435708085.085,-17.07452
1435708085.1,-16.27029
1435708085.116,-15.381268
1435708085.132,-14.417107
1435708085.147,-13.278763
1435708085.163,-11.793861
1435708085.179,-9.821556
1435708085.194,-7.300499
1435708085.21,-4.333256
1435708085.225,-1.1526527
1435708085.241,1.972023
1435708085.257,4.832077
1435708085.272,7.3220406
1435708085.288,9.475292
1435708085.304,11.381084
1435708085.319,13.158371
1435708085.335,14.91608
1435708085.35,16.788677
1435708085.366,18.969418
1435708085.382,21.675613
1435708085.397,25.011913
1435708085.413,28.81203
1435708085.429,32.533024
1435708085.444,35.31738
1435708085.46,36.207012
1435708085.475,34.5228
1435708085.491,30.097916
1435708085.507,23.404064
1435708085.522,15.3750725
1435708085.538,7.1565437
1435708085.554,-0.2733078
1435708085.569,-6.269909
1435708085.585,-10.641239
1435708085.6,-13.512779
1435708085.616,-15.193306
1435708085.632,-16.023258
1435708085.647,-16.279045
1435708085.663,-16.141014
1435708085.679,-15.731796
1435708085.694,-15.16156
1435708085.71,-14.5654335
1435708085.725,-14.087536
1435708085.741,-13.852634
1435708085.757,-13.887547
1435708085.772,-14.131733
1435708085.788,-14.449028
1435708085.804,-14.70723
1435708085.819,-14.835587
1435708085.835,-14.83614
1435708085.85,-14.733799
1435708085.866,-14.525269
1435708085.882,-14.128311
1435708085.897,-13.410511
1435708085.913,-12.248398
1435708085.929,-10.599571
1435708085.944,-8.536121
1435708085.96,-6.2301445
1435708085.975,-3.8626747
1435708085.991,-1.5421219
1435708086.007,0.7333603
1435708086.022,3.040329
1435708086.038,5.461769
1435708086.054,7.9650536
1435708086.069,10.414753
1435708086.085,12.595757
1435708086.1,14.364525
1435708086.116,15.755829
