1433892488.604,0.0
1433892488.62,0.0
1433892488.636,0.0
1433892488.651,0.0
1433892488.667,0.0
1433892488.683,0.0
1433892488.698,0.0
1433892488.714,0.0
1433892488.729,0.0
1433892488.745,0.0022315353
1433892488.761,-0.0045169927
1433892488.776,-0.011265522
1433892488.792,-0.011383951
1433892488.808,0.0011864507
1433892488.823,0.025910312
1433892488.839,0.050634187
1433892488.854,0.051362894
1433892488.87,-0.0014929791
1433892488.886,-0.1302426
1433892488.901,-0.35562757
1433892488.917,-0.6591247
1433892488.933,-1.0095103
1433892488.948,-1.3709826
1433892488.964,-1.7197359
1433892488.979,-2.0551105
1433892488.995,-2.39945
1433892489.011,-2.7866635
1433892489.026,-3.2399073
1433892489.042,-3.796012
1433892489.058,-4.418684
1433892489.073,-5.0592937
1433892489.089,-5.6644096
1433892489.104,-6.2021537
1433892489.12,-6.6808796
1433892489.136,-7.149598
1433892489.151,-7.6782336
1433892489.167,-8.310739
1433892489.183,-9.143657
1433892489.198,-10.089731
1433892489.214,-11.041313
1433892489.23,-11.8842125
1433892489.245,-12.564316
1433892489.261,-13.13563
1433892489.276,-13.760044
1433892489.292,-14.65232
1433892489.308,-15.962056
1433892489.323,-17.914442
1433892489.339,-20.317299
1433892489.355,-22.903854
1433892489.37,-25.37947
1433892489.386,-27.578028
1433892489.401,-29.57246
1433892489.417,-31.675173
1433892489.433,-34.3178
1433892489.448,-37.813618
1433892489.464,-42.541233
1433892489.48,-48.1463
1433892489.495,-54.104755
1433892489.511,-59.83309
1433892489.526,-64.972374
1433892489.542,-69.58293
1433892489.558,-74.14353
1433892489.573,-79.344986
1433892489.589,-85.70726
1433892489.605,-93.76193
1433892489.62,-102.99779
1433892489.636,-112.61757
1433892489.651,-121.73034
1433892489.667,-129.76602
1433892489.683,-136.75102
1433892489.698,-143.30344
1433892489.714,-150.74623
1433892489.73,-157.77356
1433892489.745,-166.64323
1433892489.761,-177.94798
1433892489.776,-191.79102
1433892489.792,-206.96808
1433892489.808,-220.56592
1433892489.823,-228.24644
1433892489.839,-225.36154
1433892489.855,-208.53198
1433892489.87,-176.87024
1433892489.886,-132.76222
1433892489.901,-80.04997
1433892489.917,-23.069275
1433892489.933,34.94339
1433892489.948,92.43695
1433892489.964,149.15695
1433892489.98,205.22772
1433892489.995,260.36963
1433892490.011,313.74133
1433892490.026,363.87396
1433892490.042,409.83353
1433892490.058,450.90775
1433892490.073,486.50244
1433892490.089,515.73865
1433892490.105,537.2274
1433892490.12,549.22
1433892490.136,549.9613
1433892490.151,538.367
1433892490.167,514.2055
1433892490.183,478.674
1433892490.198,433.87952
1433892490.214,382.45126
1433892490.23,327.02106
1433892490.245,269.84186
1433892490.261,212.63379
1433892490.276,156.6594
1433892490.292,102.95233
1433892490.308,52.373596
1433892490.323,5.9046936
1433892490.339,-35.580414
1433892490.355,-71.42584
1433892490.37,-101.35184
1433892490.386,-125.50113
1433892490.401,-144.3797
1433892490.417,-158.69403
1433892490.433,-169.15071
1433892490.448,-176.3711
1433892490.464,-180.75139
1433892490.48,-182.57419
1433892490.495,-182.06863
1433892490.511,-179.5066
1433892490.526,-175.23325
1433892490.542,-169.65286
1433892490.558,-163.17691
1433892490.573,-156.14568
1433892490.589,-148.80681
1433892490.605,-141.29686
1433892490.62,-133.68983
1433892490.636,-126.01962
1433892490.651,-118.33268
1433892490.667,-110.68864
1433892490.683,-103.15572
1433892490.698,-95.80455
1433892490.714,-88.684166
1433892490.73,-81.82744
1433892490.745,-75.24594
1433892490.761,-68.9526
1433892490.776,-62.949085
1433892490.792,-57.247494
1433892490.808,-51.857185
1433892490.823,-46.78282
1433892490.839,-42.02776
1433892490.855,-37.58521
1433892490.87,-33.451748
1433892490.886,-29.613855
1433892490.901,-26.070963
1433892490.917,-22.808779
1433892490.933,-19.824995
1433892490.948,-17.113392
1433892490.964,-14.666497
1433892490.98,-12.47932
1433892490.995,-10.538469
1433892491.011,-8.833674
1433892491.026,-7.3478527
1433892491.042,-6.067689
1433892491.058,-4.9734235
1433892491.073,-4.046258
1433892491.089,-3.2673752
1433892491.105,-2.6211367
1433892491.12,-2.088365
1433892491.136,-1.6507506
1433892491.151,-1.2976913
1433892491.167,-1.0147024
1433892491.183,-0.79105926
1433892491.198,-0.6133206
1433892491.214,-0.47516227
1433892491.23,-0.3684653
1433892491.245,-0.28461677
1433892491.261,-0.22397345
1433892491.276,-0.17647654
1433892491.292,-0.14055526
1433892491.308,-0.11251485
1433892491.323,-0.0926249
1433892491.339,-0.07977182
1433892491.355,-0.06783539
1433892491.37,-0.05929327
1433892491.386,-0.052183747
1433892491.401,-0.046860814
1433892491.417,-0.044131815
1433892491.433,-0.040358156
1433892491.448,-0.03916228
1433892491.464,-0.034258246
1433892491.48,-0.03493768
1433892491.495,-0.031381547
1433892491.511,-0.030015051
1433892491.526,-0.027041465
1433892491.542,-0.028029859
1433892491.558,-0.026276141
1433892491.573,-0.025600433
1433892491.589,-0.02510485
1433892491.605,-0.027475715
1433892491.62,-0.03191352
1433892491.636,-0.03972715
1433892491.651,-0.049247295
1433892491.667,-0.0629119
1433892491.683,-0.0798856
1433892491.698,-0.100753546
1433892491.714,-0.12619019
1433892491.73,-0.15279666
1433892491.745,-0.18346944
1433892491.761,-0.21811464
1433892491.776,-0.2536591
1433892491.792,-0.29181492
1433892491.808,-0.32677662
1433892491.823,-0.36922675
1433892491.839,-0.4097525
1433892491.855,-0.45324886
1433892491.87,-0.49344802
1433892491.886,-0.5418502
1433892491.902,-0.5896554
1433892491.917,-0.6420727
1433892491.933,-0.69861233
1433892491.948,-0.76074314
1433892491.964,-0.8278667
1433892491.98,-0.8997724
1433892491.995,-0.9829838
1433892492.011,-1.0749221
1433892492.026,-1.1757112
1433892492.042,-1.2946393
1433892492.058,-1.42048
1433892492.073,-1.5646658
1433892492.089,-1.7233353
1433892492.105,-1.9025311
1433892492.12,-2.0975106
1433892492.136,-2.3201756
1433892492.152,-2.5563257
1433892492.167,-2.8217688
1433892492.183,-3.1134102
1433892492.198,-3.4313736
1433892492.214,-3.7778897
1433892492.23,-4.154185
1433892492.245,-4.5662184
1433892492.261,-4.998652
1433892492.277,-5.474274
1433892492.292,-5.9782352
1433892492.308,-6.5259533
1433892492.323,-7.108488
1433892492.339,-7.7243743
1433892492.355,-8.380779
1433892492.37,-9.0796995
1433892492.386,-9.811718
1433892492.402,-10.585159
1433892492.417,-11.396834
1433892492.433,-12.261158
1433892492.448,-13.173846
1433892492.464,-14.142419
1433892492.48,-15.161004
1433892492.495,-16.218378
1433892492.511,-17.297117
1433892492.527,-18.371834
1433892492.542,-19.374537
1433892492.558,-20.230015
1433892492.573,-20.8283
1433892492.589,-21.055168
1433892492.605,-20.798416
1433892492.62,-19.961052
1433892492.636,-18.506165
1433892492.652,-16.444101
1433892492.667,-13.814194
1433892492.683,-10.714405
1433892492.698,-7.2287636
1433892492.714,-3.4891052
1433892492.73,0.3544426
1433892492.745,4.154785
1433892492.761,7.7493668
1433892492.777,11.000027
1433892492.792,13.74659
1433892492.808,15.893436
1433892492.823,17.402374
1433892492.839,18.28432
1433892492.855,18.630714
1433892492.87,18.57294
1433892492.886,18.241852
1433892492.902,17.756474
1433892492.917,17.16135
1433892492.933,16.4445
1433892492.948,15.561043
1433892492.964,14.504723
1433892492.98,13.305794
1433892492.995,12.105392
1433892493.011,11.066891
1433892493.027,10.340881
1433892493.042,9.971413
1433892493.058,9.881203
1433892493.073,9.854095
1433892493.089,9.660534
1433892493.105,9.144367
1433892493.12,8.322357
1433892493.136,7.4293976
1433892493.152,6.778366
1433892493.167,6.6671753
1433892493.183,7.206505
1433892493.198,8.24427
1433892493.214,9.3940735
1433892493.23,10.223274
1433892493.245,10.448677
1433892493.261,10.125984
1433892493.277,9.642067
1433892493.292,9.585083
1433892493.308,10.453827
1433892493.323,12.4435425
1433892493.339,15.316841
1433892493.355,18.458351
1433892493.37,21.208275
1433892493.386,23.078804
1433892493.402,23.992775
1433892493.417,24.313675
1433892493.433,24.647118
1433892493.448,25.658234
1433892493.464,28.01957
1433892493.48,32.24123
1433892493.495,38.451946
1433892493.511,46.032677
1433892493.527,53.354637
1433892493.542,57.966694
1433892493.558,57.327972
1433892493.573,49.85962
1433892493.589,35.845802
1433892493.605,17.54977
1433892493.62,-1.5102348
1433892493.636,-17.920963
1433892493.652,-29.581215
1433892493.667,-36.12617
1433892493.683,-38.47391
1433892493.698,-38.157818
1433892493.714,-36.234394
1433892493.73,-33.30448
1433892493.745,-29.559074
1433892493.761,-25.099579
1433892493.777,-20.164654
1433892493.792,-15.153225
1433892493.808,-10.43235
1433892493.823,-6.1165752
1433892493.839,-2.077156
1433892493.855,1.8989944
1433892493.87,5.904457
1433892493.886,9.758387
1433892493.902,12.986256
1433892493.917,14.968746
1433892493.933,15.137608
1433892493.948,13.168249
1433892493.964,9.125334
1433892493.98,3.469469
1433892493.995,-2.9685688
1433892494.011,-9.273668
1433892494.027,-14.6344795
1433892494.042,-18.658905
1433892494.058,-21.45696
1433892494.073,-23.581062
1433892494.089,-25.769302
1433892494.105,-28.605751
1433892494.12,-32.23281
1433892494.136,-36.34478
1433892494.152,-40.317608
1433892494.167,-43.510803
1433892494.183,-45.55721
1433892494.198,-46.477028
1433892494.214,-46.592896
1433892494.23,-46.348396
1433892494.245,-46.094357
1433892494.261,-45.996174
1433892494.277,-46.002853
1433892494.292,-45.972862
1433892494.308,-45.674118
1433892494.323,-44.942738
1433892494.339,-43.6531
1433892494.355,-41.771523
1433892494.37,-39.350143
1433892494.386,-36.519543
1433892494.402,-33.465866
1433892494.417,-30.417242
1433892494.433,-27.560593
1433892494.448,-25.024506
1433892494.464,-22.79179
1433892494.48,-20.701382
1433892494.495,-18.417183
1433892494.511,-15.535999
1433892494.527,-11.724953
1433892494.542,-6.841625
1433892494.558,-1.0375862
1433892494.573,5.27676
1433892494.589,11.580883
1433892494.605,17.424648
1433892494.62,22.617992
1433892494.636,27.238754
1433892494.652,31.542747
1433892494.667,35.71853
1433892494.683,39.734665
1433892494.698,43.242485
1433892494.714,45.721275
1433892494.73,46.712082
1433892494.745,46.06202
1433892494.761,44.01513
1433892494.777,41.116295
1433892494.792,38.008514
1433892494.808,35.18154
1433892494.824,32.850494
1433892494.839,30.956055
1433892494.855,29.365631
1433892494.87,28.029953
1433892494.886,27.005257
1433892494.902,26.4264
1433892494.917,26.281242
1433892494.933,26.337807
1433892494.949,26.10347
1433892494.964,25.05983
1433892494.98,22.790367
1433892494.995,19.225029
1433892495.011,14.603928
1433892495.027,9.388092
1433892495.042,4.009117
1433892495.058,-1.233551
1433892495.074,-6.27137
1433892495.089,-11.12542
1433892495.105,-15.852951
1433892495.12,-20.412888
1433892495.136,-24.661888
1433892495.152,-28.390366
1433892495.167,-31.38932
1433892495.183,-33.503258
1433892495.199,-34.66623
1433892495.214,-34.895805
1433892495.23,-34.321533
1433892495.245,-33.170265
1433892495.261,-31.720718
1433892495.277,-30.256897
1433892495.292,-29.035736
1433892495.308,-28.182838
1433892495.324,-27.667381
1433892495.339,-27.285843
1433892495.355,-26.727722
1433892495.37,-25.608704
1433892495.386,-23.585663
1433892495.402,-20.49356
1433892495.417,-16.424454
1433892495.433,-11.821304
1433892495.449,-7.4203644
1433892495.464,-4.0765533
1433892495.48,-2.4879913
1433892495.495,-2.9108887
1433892495.511,-4.9994965
1433892495.527,-7.843384
1433892495.542,-10.313736
1433892495.558,-11.435272
1433892495.574,-10.814453
1433892495.589,-8.688309
1433892495.605,-5.7630005
1433892495.62,-2.781067
1433892495.636,-0.24389648
1433892495.652,1.7514038
1433892495.667,3.3368073
1433892495.683,4.6319885
1433892495.699,5.564987
1433892495.714,5.942383
1433892495.73,5.696457
1433892495.745,5.056671
1433892495.761,4.625534
1433892495.777,5.1540527
1433892495.792,7.201935
1433892495.808,10.832123
1433892495.824,15.518997
1433892495.839,20.338654
1433892495.855,24.27507
1433892495.87,26.578934
1433892495.886,26.96431
1433892495.902,25.640228
1433892495.917,23.215103
1433892495.933,20.504227
1433892495.949,18.277908
1433892495.964,17.089905
1433892495.98,17.127136
1433892495.995,18.221283
1433892496.011,19.89943
1433892496.027,21.620758
1433892496.042,22.934479
1433892496.058,23.676636
1433892496.074,23.91867
1433892496.089,23.97464
1433892496.105,24.15062
1433892496.12,24.61119
1433892496.136,25.251404
1433892496.152,25.783096
1433892496.167,25.753693
1433892496.183,24.796158
1433892496.199,22.78061
1433892496.214,19.937698
1433892496.23,16.857025
1433892496.245,14.345001
1433892496.261,13.112595
1433892496.277,13.568863
1433892496.292,15.68158
1433892496.308,19.026825
1433892496.324,23.006561
1433892496.339,27.029083
1433892496.355,30.607162
1433892496.37,33.423187
1433892496.386,35.246902
1433892496.402,35.897873
1433892496.417,35.30873
1433892496.433,33.571365
1433892496.449,30.959747
1433892496.464,27.89244
1433892496.48,24.820877
1433892496.495,22.071167
1433892496.511,19.676193
1433892496.527,17.351563
1433892496.542,14.533554
1433892496.558,10.673172
1433892496.574,5.433548
1433892496.589,-0.9492035
1433892496.605,-7.695053
1433892496.62,-13.705292
1433892496.636,-18.051926
1433892496.652,-20.355347
1433892496.667,-20.942657
1433892496.683,-20.607529
1433892496.699,-20.18805
1433892496.714,-20.155792
1433892496.73,-20.46286
1433892496.745,-20.575867
1433892496.761,-19.826065
1433892496.777,-17.728378
1433892496.792,-14.293762
1433892496.808,-10.089722
1433892496.824,-6.1326294
1433892496.839,-3.537262
1433892496.855,-3.1404114
1433892496.87,-5.1730804
1433892496.886,-9.146896
1433892496.902,-14.115875
1433892496.917,-19.036133
1433892496.933,-23.138657
1433892496.949,-26.178772
1433892496.964,-28.257538
1433892496.98,-29.671844
1433892496.995,-30.657425
1433892497.011,-31.334091
1433892497.027,-31.711868
1433892497.042,-31.873093
1433892497.058,-31.84227
1433892497.074,-31.523209
1433892497.089,-30.651352
1433892497.105,-28.93393
1433892497.12,-26.213455
1433892497.136,-22.67749
1433892497.152,-18.83081
1433892497.167,-15.3736725
1433892497.183,-12.905563
1433892497.199,-11.766647
1433892497.214,-11.893082
1433892497.23,-12.907349
1433892497.245,-14.196274
1433892497.261,-15.177567
1433892497.277,-15.342041
1433892497.292,-14.506348
1433892497.308,-12.798996
1433892497.324,-10.611481
1433892497.339,-8.462616
1433892497.355,-6.7712555
1433892497.37,-5.6489716
1433892497.386,-4.834778
1433892497.402,-3.8137817
1433892497.417,-2.136917
1433892497.433,0.3040619
1433892497.449,3.0855255
1433892497.464,5.7334137
1433892497.48,7.93309
1433892497.496,9.839478
1433892497.511,11.830826
1433892497.527,14.177963
1433892497.542,16.611053
1433892497.558,18.382141
1433892497.574,18.66011
1433892497.589,17.21463
1433892497.605,14.656982
1433892497.621,12.222351
1433892497.636,11.01178
1433892497.652,11.43428
1433892497.667,12.959366
1433892497.683,14.731308
1433892497.699,16.226868
1433892497.714,17.677032
1433892497.73,19.730392
1433892497.746,22.85559
1433892497.761,26.680328
1433892497.777,30.185379
1433892497.792,32.27565
1433892497.808,32.606262
1433892497.824,31.840637
1433892497.839,31.240326
1433892497.855,31.69815
1433892497.871,33.18544
1433892497.886,34.58313
1433892497.902,34.47415
1433892497.917,31.955627
1433892497.933,27.435501
1433892497.949,22.350906
1433892497.964,18.450073
1433892497.98,16.744278
1433892497.996,16.91478
1433892498.011,17.561874
1433892498.027,16.990234
1433892498.042,14.076324
1433892498.058,8.994339
1433892498.074,2.9431458
1433892498.089,-2.369278
1433892498.105,-5.6496124
1433892498.121,-6.403824
1433892498.136,-5.076935
1433892498.152,-2.5267334
1433892498.167,0.37789917
1433892498.183,3.1453705
1433892498.199,5.6054077
1433892498.214,7.694992
1433892498.23,9.153152
1433892498.246,9.614655
1433892498.261,8.818314
1433892498.277,6.923218
1433892498.292,4.5638275
1433892498.308,2.6145935
1433892498.324,1.6373291
1433892498.339,1.6200409
1433892498.355,1.7682648
1433892498.371,0.9993286
1433892498.386,-1.5310516
1433892498.402,-5.8269196
1433892498.417,-11.0563965
1433892498.433,-15.817062
1433892498.449,-18.788239
1433892498.464,-19.280136
1433892498.48,-17.262192
1433892498.496,-13.266785
1433892498.511,-8.087128
1433892498.527,-2.536728
1433892498.542,2.5062408
1433892498.558,6.360092
1433892498.574,8.576721
1433892498.589,9.148331
1433892498.605,8.48378
1433892498.621,7.366638
1433892498.636,6.489624
1433892498.652,6.2892456
1433892498.667,6.8230286
1433892498.683,7.927719
1433892498.699,9.46051
1433892498.714,11.485046
1433892498.73,14.193237
1433892498.746,17.626526
1433892498.761,21.42929
1433892498.777,24.766174
1433892498.792,26.648651
1433892498.808,26.544342
1433892498.824,24.67572
1433892498.839,22.244194
1433892498.855,20.888924
1433892498.871,22.02436
1433892498.886,26.151047
1433892498.902,32.62635
1433892498.917,39.84516
1433892498.933,45.97207
1433892498.949,49.544357
1433892498.964,49.845024
1433892498.98,46.97048
1433892498.996,41.656143
1433892499.011,34.962494
1433892499.027,27.929443
1433892499.042,21.23275
1433892499.058,14.979172
1433892499.074,8.747009
1433892499.089,1.8681946
1433892499.105,-6.1191635
1433892499.121,-14.926201
1433892499.136,-23.556545
1433892499.152,-30.681038
1433892499.167,-35.26498
1433892499.183,-37.047848
1433892499.199,-36.69822
1433892499.214,-35.268578
1433892499.23,-33.61789
1433892499.246,-31.916962
1433892499.261,-29.83275
1433892499.277,-26.932909
1433892499.292,-23.190193
1433892499.308,-19.097591
1433892499.324,-15.461927
1433892499.339,-12.945283
1433892499.355,-11.686844
1433892499.371,-11.171913
1433892499.386,-10.567969
1433892499.402,-9.111101
1433892499.417,-6.559868
1433892499.433,-3.2150211
1433892499.449,0.35240936
1433892499.464,3.7374802
1433892499.48,6.942459
1433892499.496,10.343983
1433892499.511,14.199291
1433892499.527,18.37616
1433892499.542,22.094887
1433892499.558,24.291512
1433892499.574,24.112255
1433892499.589,21.353916
1433892499.605,16.505058
1433892499.621,10.574326
1433892499.636,4.660858
1433892499.652,-0.4251709
1433892499.667,-4.409523
1433892499.683,-7.3872604
1433892499.699,-9.739983
1433892499.714,-11.972153
1433892499.73,-14.572945
1433892499.746,-17.699272
1433892499.761,-21.243973
1433892499.777,-24.629105
1433892499.792,-27.089813
1433892499.808,-27.87101
1433892499.824,-26.560684
1433892499.839,-23.254692
1433892499.855,-18.502563
1433892499.871,-13.092316
1433892499.886,-7.800064
1433892499.902,-3.1601868
1433892499.917,0.5825348
1433892499.933,3.4585266
1433892499.949,5.662018
1433892499.964,7.53067
1433892499.98,9.428329
1433892499.996,11.712173
1433892500.011,14.590393
1433892500.027,18.157715
1433892500.042,22.283066
1433892500.058,26.636795
1433892500.074,30.744095
1433892500.089,34.11345
1433892500.105,36.3282
1433892500.121,37.194946
1433892500.136,36.698624
1433892500.152,34.983673
1433892500.168,32.104233
1433892500.183,27.93634
1433892500.199,22.175247
1433892500.214,14.507538
1433892500.23,4.7911377
1433892500.246,-6.680374
1433892500.261,-19.163528
1433892500.277,-31.517227
1433892500.293,-42.513794
1433892500.308,-51.141434
1433892500.324,-56.896347
1433892500.339,-59.91014
1433892500.355,-60.787796
1433892500.371,-60.284866
1433892500.386,-59.020416
1433892500.402,-57.223633
1433892500.418,-54.852875
1433892500.433,-51.740295
1433892500.449,-47.885468
1433892500.464,-43.487366
1433892500.48,-38.908783
1433892500.496,-34.4487
1433892500.511,-30.256592
1433892500.527,-26.351746
1433892500.543,-22.732422
1433892500.558,-19.434814
1433892500.574,-16.50998
1433892500.589,-13.86554
1433892500.605,-11.190582
1433892500.621,-8.000427
1433892500.636,-3.861786
1433892500.652,1.4266052
1433892500.668,7.6466675
1433892500.683,14.266541
1433892500.699,20.557678
1433892500.714,25.88321
1433892500.73,29.803009
1433892500.746,32.203033
1433892500.761,33.300995
1433892500.777,33.611206
1433892500.793,33.70294
1433892500.808,33.93979
1433892500.824,34.22995
1433892500.839,33.97711
1433892500.855,32.233734
1433892500.871,28.136383
1433892500.886,21.258453
1433892500.902,11.893768
1433892500.918,0.9283447
1433892500.933,-10.357269
1433892500.949,-20.703735
1433892500.964,-29.013885
1433892500.98,-34.46335
1433892500.996,-36.4292
1433892501.011,-34.563995
1433892501.027,-28.94281
1433892501.043,-20.3125
1433892501.058,-10.129547
1433892501.074,-0.30633545
1433892501.089,7.3456116
1433892501.105,11.784912
1433892501.121,13.0833435
1433892501.136,12.350555
1433892501.152,11.208649
1433892501.168,11.067261
1433892501.183,12.572937
1433892501.199,15.424896
1433892501.214,18.685944
1433892501.23,21.22647
1433892501.246,22.24408
1433892501.261,21.403442
1433892501.277,18.84201
1433892501.293,14.974091
1433892501.308,10.386627
1433892501.324,5.700348
1433892501.339,1.5994263
1433892501.355,-1.2843628
1433892501.371,-2.4815369
1433892501.386,-1.8057556
1433892501.402,0.51397705
1433892501.418,3.824768
1433892501.433,7.1848145
1433892501.449,9.498962
1433892501.464,9.712494
1433892501.48,6.94635
1433892501.496,0.7006531
1433892501.511,-9.011017
1433892501.527,-21.45813
1433892501.543,-35.223663
1433892501.558,-48.416504
1433892501.574,-59.141144
1433892501.589,-66.07236
1433892501.605,-68.876434
1433892501.621,-68.2605
1433892501.636,-65.656006
1433892501.652,-62.60492
1433892501.668,-60.2153
1433892501.683,-58.81006
1433892501.699,-57.98471
1433892501.714,-56.96469
1433892501.73,-55.07373
1433892501.746,-52.10321
1433892501.761,-48.44034
1433892501.777,-44.75934
1433892501.793,-41.650726
1433892501.808,-39.198822
1433892501.824,-36.93112
1433892501.839,-34.079803
1433892501.855,-30.148438
1433892501.871,-25.344055
1433892501.886,-20.568665
1433892501.902,-16.98822
1433892501.918,-15.370728
1433892501.933,-15.574036
1433892501.949,-16.647797
1433892501.964,-17.306946
1433892501.98,-16.640503
1433892501.996,-14.520905
1433892502.011,-11.520081
1433892502.027,-8.453583
1433892502.043,-5.88443
1433892502.058,-3.918274
1433892502.074,-2.3433228
1433892502.089,-0.9392395
1433892502.105,0.26229858
1433892502.121,0.95947266
1433892502.136,0.7850952
1433892502.152,-0.45996094
1433892502.168,-2.6600342
1433892502.183,-5.3541565
1433892502.199,-7.9609375
1433892502.214,-9.973816
1433892502.23,-11.149689
1433892502.246,-11.50946
1433892502.261,-11.278198
1433892502.277,-10.755249
1433892502.293,-10.183441
1433892502.308,-9.718933
1433892502.324,-9.474609
1433892502.339,-9.515564
1433892502.355,-9.918152
1433892502.371,-10.624603
1433892502.386,-11.477814
1433892502.402,-12.209442
1433892502.418,-12.534271
1433892502.433,-12.244843
1433892502.449,-11.33786
1433892502.464,-9.922424
1433892502.48,-8.135345
1433892502.496,-6.058319
1433892502.511,-3.689148
1433892502.527,-0.9941101
1433892502.543,2.1177979
1433892502.558,5.783966
1433892502.574,10.140106
1433892502.589,15.248138
1433892502.605,20.929382
1433892502.621,26.664856
1433892502.636,31.673187
1433892502.652,35.289337
1433892502.668,37.250458
1433892502.683,37.99716
1433892502.699,38.411285
1433892502.714,39.443054
1433892502.73,41.454346
1433892502.746,44.045013
1433892502.761,46.195282
1433892502.777,46.751404
1433892502.793,44.984375
1433892502.808,40.856873
1433892502.824,34.91971
1433892502.84,27.981812
1433892502.855,20.72879
1433892502.871,13.566406
1433892502.886,6.6224365
1433892502.902,-0.09375
1433892502.918,-6.5535583
1433892502.933,-12.564178
1433892502.949,-17.804749
1433892502.964,-21.846527
1433892502.98,-24.335999
1433892502.996,-25.061615
1433892503.011,-24.178406
1433892503.027,-22.179535
1433892503.043,-19.769012
1433892503.058,-17.626709
1433892503.074,-16.11139
1433892503.09,-15.150864
1433892503.105,-14.287277
1433892503.121,-12.938461
1433892503.136,-10.654953
1433892503.152,-7.2834473
1433892503.168,-3.0010376
1433892503.183,1.7722473
1433892503.199,6.525543
1433892503.215,10.799942
1433892503.23,14.259628
1433892503.246,16.776596
1433892503.261,18.436905
1433892503.277,19.49057
1433892503.293,20.302368
1433892503.308,21.200348
1433892503.324,22.369308
1433892503.34,23.79013
1433892503.355,25.197784
1433892503.371,26.16513
1433892503.386,26.228378
1433892503.402,24.999008
1433892503.418,22.265549
1433892503.433,18.078918
1433892503.449,12.75827
1433892503.465,6.854889
1433892503.48,0.99794006
1433892503.496,-4.2334747
1433892503.511,-8.479111
1433892503.527,-11.624817
1433892503.543,-13.844894
1433892503.558,-15.438705
1433892503.574,-16.751709
1433892503.59,-18.058044
1433892503.605,-19.520401
1433892503.621,-21.172318
1433892503.636,-22.929474
1433892503.652,-24.607208
1433892503.668,-25.88649
1433892503.683,-26.388077
1433892503.699,-25.74443
1433892503.715,-23.700943
1433892503.73,-20.255783
1433892503.746,-15.692627
1433892503.761,-10.510315
1433892503.777,-5.293457
1433892503.793,-0.528656
1433892503.808,3.476715
1433892503.824,6.624649
1433892503.84,9.01944
1433892503.855,10.911118
1433892503.871,12.663727
1433892503.886,14.671738
1433892503.902,17.327148
1433892503.918,20.85672
1433892503.933,25.192474
1433892503.949,29.936584
1433892503.965,34.41153
1433892503.98,37.819138
1433892503.996,39.504288
1433892504.011,39.11914
1433892504.027,36.788895
1433892504.043,33.011368
1433892504.058,28.545898
1433892504.074,24.117065
1433892504.09,20.272446
1433892504.105,17.224869
1433892504.121,14.92363
1433892504.136,13.199463
1433892504.152,11.934586
1433892504.168,11.070435
1433892504.183,10.608322
1433892504.199,10.459457
1433892504.215,10.451508
1433892504.23,10.336441
1433892504.246,9.917267
1433892504.261,9.127502
1433892504.277,8.017502
1433892504.293,6.6661987
1433892504.308,5.120514
1433892504.324,3.3232422
1433892504.34,1.2437592
1433892504.355,-1.0431671
1433892504.371,-3.2546387
1433892504.386,-4.9670258
1433892504.402,-5.7738037
1433892504.418,-5.482422
1433892504.433,-4.187256
1433892504.449,-2.2726288
1433892504.465,-0.21400452
1433892504.48,1.5623474
1433892504.496,2.8742218
1433892504.511,3.7427826
1433892504.527,4.3499603
1433892504.543,4.7935944
1433892504.558,4.93602
1433892504.574,4.331772
1433892504.59,2.4062958
1433892504.605,-1.2770691
1433892504.621,-6.7326508
1433892504.636,-13.466904
1433892504.652,-20.585022
1433892504.668,-27.172424
1433892504.683,-32.53293
1433892504.699,-36.424896
1433892504.715,-38.96689
1433892504.73,-40.501114
1433892504.746,-41.337143
1433892504.761,-41.620636
1433892504.777,-41.287643
1433892504.793,-40.12468
1433892504.808,-37.80368
1433892504.824,-34.075256
1433892504.84,-28.802567
1433892504.855,-22.136002
1433892504.871,-14.516693
1433892504.886,-6.634186
1433892504.902,0.7625122
1433892504.918,7.0639954
1433892504.933,11.997253
1433892504.949,15.651306
1433892504.965,18.366516
1433892504.98,20.548248
1433892504.996,22.517227
1433892505.011,24.386948
1433892505.027,26.137787
1433892505.043,27.712189
1433892505.058,29.071838
1433892505.074,30.205872
1433892505.09,31.082779
1433892505.105,31.59317
1433892505.121,31.64235
1433892505.136,31.246902
1433892505.152,30.634766
1433892505.168,30.17257
1433892505.183,30.18808
1433892505.199,30.662537
1433892505.215,31.060783
1433892505.23,30.475433
1433892505.246,27.95552
1433892505.261,22.977234
1433892505.277,15.744652
1433892505.293,7.0626144
1433892505.308,-1.9684143
1433892505.324,-10.4678955
1433892505.34,-18.00174
1433892505.355,-24.603737
1433892505.371,-30.487183
1433892505.386,-35.82933
1433892505.402,-40.59282
1433892505.418,-44.64524
1433892505.433,-47.933136
1433892505.449,-50.66381
1433892505.465,-53.301407
1433892505.48,-56.43222
1433892505.496,-60.45707
1433892505.511,-65.41132
1433892505.527,-70.85466
1433892505.543,-75.992546
1433892505.558,-79.911385
1433892505.574,-81.896484
1433892505.59,-81.66122
1433892505.605,-79.47563
1433892505.621,-76.05071
1433892505.636,-72.352806
1433892505.652,-69.26899
1433892505.668,-67.39054
1433892505.683,-66.68439
1433892505.699,-66.23663
1433892505.715,-64.10595
1433892505.73,-57.636723
1433892505.746,-44.237324
1433892505.762,-22.593868
1433892505.777,6.470913
1433892505.793,39.749966
1433892505.808,72.550644
1433892505.824,100.20706
1433892505.84,119.72909
1433892505.855,130.55075
1433892505.871,134.28104
1433892505.887,133.53615
1433892505.902,130.66206
1433892505.918,126.93032
1433892505.933,122.62555
1433892505.949,117.517105
1433892505.965,111.53418
1433892505.98,104.93582
1433892505.996,98.188286
1433892506.012,91.56797
1433892506.027,84.95128
1433892506.043,77.80852
1433892506.058,69.52079
1433892506.074,59.68062
1433892506.09,48.3626
1433892506.105,36.082287
1433892506.121,23.626934
1433892506.137,11.733617
1433892506.152,0.8980961
1433892506.168,-8.657416
1433892506.183,-16.924648
1433892506.199,-23.925587
1433892506.215,-29.602201
1433892506.23,-33.7705
1433892506.246,-36.17389
1433892506.262,-36.64415
1433892506.277,-35.237972
1433892506.293,-32.32789
1433892506.308,-28.566515
1433892506.324,-24.770405
1433892506.34,-21.62251
1433892506.355,-19.408445
1433892506.371,-17.873898
1433892506.387,-16.29762
1433892506.402,-13.842161
1433892506.418,-9.934225
1433892506.433,-4.5493927
1433892506.449,1.7933178
1433892506.465,8.284458
1433892506.48,14.106199
1433892506.496,18.683931
1433892506.512,21.695656
1433892506.527,23.058762
1433892506.543,22.76978
1433892506.558,20.986946
1433892506.574,17.994877
1433892506.59,14.194347
1433892506.605,9.971603
1433892506.621,5.5792274
1433892506.637,1.1106453
1433892506.652,-3.3810463
1433892506.668,-7.7145195
1433892506.683,-11.524376
1433892506.699,-14.347725
1433892506.715,-15.927738
1433892506.73,-16.443134
1433892506.746,-16.48071
1433892506.762,-16.83944
1433892506.777,-18.126976
1433892506.793,-20.536865
1433892506.808,-23.853832
1433892506.824,-27.717365
1433892506.84,-31.796932
1433892506.855,-35.864056
1433892506.871,-39.633274
1433892506.887,-42.612965
1433892506.902,-44.123627
1433892506.918,-43.588688
1433892506.933,-40.85636
1433892506.949,-36.397907
1433892506.965,-31.112038
1433892506.98,-25.915138
1433892506.996,-21.346912
1433892507.012,-17.474434
1433892507.027,-13.995567
1433892507.043,-10.630913
1433892507.058,-7.2801323
1433892507.074,-4.042076
1433892507.09,-1.0182953
1433892507.105,1.8342476
1433892507.121,4.6905937
1433892507.137,7.6412315
1433892507.152,10.508781
1433892507.168,12.785179
1433892507.183,13.84119
1433892507.199,13.236149
1433892507.215,11.009602
1433892507.23,7.660099
1433892507.246,3.9724655
1433892507.262,0.6818161
1433892507.277,-1.784523
1433892507.293,-3.3671494
1433892507.308,-4.216305
1433892507.324,-4.552189
1433892507.34,-4.492428
1433892507.355,-4.091133
1433892507.371,-3.3851433
1433892507.387,-2.5463753
1433892507.402,-1.8268814
1433892507.418,-1.5211563
1433892507.433,-1.7811146
1433892507.449,-2.5962887
1433892507.465,-3.7503662
1433892507.48,-4.960932
1433892507.496,-5.9591675
1433892507.512,-6.5588264
1433892507.527,-6.691881
1433892507.543,-6.3721714
1433892507.558,-5.678673
1433892507.574,-4.7942314
1433892507.59,-3.9444733
1433892507.605,-3.414259
1433892507.621,-3.4503164
1433892507.637,-4.1881027
1433892507.652,-5.5678253
1433892507.668,-7.322624
1433892507.683,-8.962915
1433892507.699,-9.976524
1433892507.715,-9.8927765
1433892507.73,-8.500178
1433892507.746,-5.963349
1433892507.762,-2.830092
1433892507.777,0.11441755
1433892507.793,2.0835586
1433892507.808,2.5140724
1433892507.824,1.3106394
1433892507.84,-1.1983824
1433892507.855,-4.438925
1433892507.871,-7.8138103
1433892507.887,-10.8991375
1433892507.902,-13.515635
1433892507.918,-15.633322
1433892507.933,-17.215414
1433892507.949,-18.170753
1433892507.965,-18.348255
1433892507.98,-17.627924
1433892507.996,-16.027498
1433892508.012,-13.6780205
1433892508.027,-10.804863
1433892508.043,-7.6409836
1433892508.058,-4.401535
1433892508.074,-1.2373466
1433892508.09,1.7843246
1433892508.105,4.696068
1433892508.121,7.5943832
1433892508.137,10.534393
1433892508.152,13.408138
1433892508.168,15.859299
1433892508.183,17.396984
1433892508.199,17.598454
1433892508.215,16.37695
1433892508.23,14.050877
1433892508.246,11.301201
1433892508.262,8.8342285
1433892508.277,7.1638184
1433892508.293,6.466614
1433892508.308,6.655319
1433892508.324,7.5496445
1433892508.34,9.054024
1433892508.355,11.100388
1433892508.371,13.562881
1433892508.387,16.144363
1433892508.402,18.372772
1433892508.418,19.770805
1433892508.434,20.031616
1433892508.449,19.082932
1433892508.465,17.098549
1433892508.48,14.370842
1433892508.496,11.242928
1433892508.512,8.053711
1433892508.527,5.1941757
1433892508.543,3.0285416
1433892508.559,1.7444153
1433892508.574,1.2362442
1433892508.59,1.0813904
1433892508.605,0.64068604
1433892508.621,-0.6054611
1433892508.637,-2.8419266
1433892508.652,-5.76313
1433892508.668,-8.738861
1433892508.684,-11.084976
1433892508.699,-12.406136
1433892508.715,-12.718056
1433892508.73,-12.441025
1433892508.746,-12.179588
1433892508.762,-12.445358
1433892508.777,-13.448593
1433892508.793,-15.049919
1433892508.809,-16.812866
1433892508.824,-18.173279
1433892508.84,-18.609573
1433892508.855,-17.796783
1433892508.871,-15.696289
1433892508.887,-12.549805
1433892508.902,-8.8663025
1433892508.918,-5.2857666
1433892508.934,-2.4303894
1433892508.949,-0.737381
1433892508.965,-0.29818726
1433892508.98,-0.81988525
1433892508.996,-1.6843872
1433892509.012,-2.232788
1433892509.027,-1.9673615
1433892509.043,-0.77726746
1433892509.059,1.0723724
1433892509.074,3.0456238
1433892509.09,4.611618
1433892509.105,5.380127
1433892509.121,5.2552795
1433892509.137,4.322937
1433892509.152,2.8505554
1433892509.168,1.1648712
1433892509.184,-0.3620758
1433892509.199,-1.399765
1433892509.215,-1.6585999
1433892509.23,-1.0076294
1433892509.246,0.55010986
1433892509.262,2.814392
1433892509.277,5.5085754
1433892509.293,8.310623
1433892509.309,10.982071
1433892509.324,13.360764
1433892509.34,15.38652
1433892509.355,17.065659
1433892509.371,18.445786
1433892509.387,19.563736
1433892509.402,20.431198
1433892509.418,20.989151
1433892509.434,21.105179
1433892509.449,20.637985
1433892509.465,19.520004
1433892509.48,17.829865
1433892509.496,15.80455
1433892509.512,13.784424
1433892509.527,12.045029
1433892509.543,10.663849
1433892509.559,9.501282
1433892509.574,8.201584
1433892509.59,6.428482
1433892509.605,3.9949188
1433892509.621,1.0340881
1433892509.637,-2.010025
1433892509.652,-4.472397
1433892509.668,-5.7177734
1433892509.684,-5.34079
1433892509.699,-3.366867
1433892509.715,-0.2293396
1433892509.73,3.3702545
1433892509.746,6.7169037
1433892509.762,9.272079
1433892509.777,10.79924
1433892509.793,11.285965
1433892509.809,10.824005
1433892509.824,9.524384
1433892509.84,7.5197906
1433892509.855,5.0194244
1433892509.871,2.399765
1433892509.887,0.07182312
1433892509.902,-1.6417999
1433892509.918,-2.6737366
1433892509.934,-3.230713
1433892509.949,-3.6656342
1433892509.965,-4.1003113
1433892509.98,-4.3207855
1433892509.996,-3.722351
1433892510.012,-1.6506958
1433892510.027,2.241455
1433892510.043,7.6952972
1433892510.059,13.971924
1433892510.074,20.182983
1433892510.09,25.733688
1433892510.105,30.44397
1433892510.121,34.393723
1433892510.137,37.546097
1433892510.152,39.552185
1433892510.168,39.812332
1433892510.184,37.901917
1433892510.199,33.97296
1433892510.215,28.872177
1433892510.23,23.82022
1433892510.246,19.926346
1433892510.262,17.619583
1433892510.277,16.572144
1433892510.293,15.945007
1433892510.309,14.923752
1433892510.324,13.059067
1433892510.34,10.406006
1433892510.355,7.339432
1433892510.371,4.338196
1433892510.387,1.7565308
1433892510.402,-0.1834259
1433892510.418,-1.3827057
1433892510.434,-1.8335571
1433892510.449,-1.6906586
1433892510.465,-1.1854248
1433892510.48,-0.7150116
1433892510.496,-0.6585541
1433892510.512,-1.3285828
1433892510.527,-2.8140106
1433892510.543,-4.9705505
1433892510.559,-7.430893
1433892510.574,-9.7397
1433892510.59,-11.4423065
1433892510.605,-12.201996
1433892510.621,-11.87738
1433892510.637,-10.554794
1433892510.652,-8.52478
1433892510.668,-6.2095337
1433892510.684,-4.029587
1433892510.699,-2.278946
1433892510.715,-1.0548401
1433892510.73,-0.2449646
1433892510.746,0.37135315
1433892510.762,1.0025177
1433892510.777,1.7494202
1433892510.793,2.4760284
1433892510.809,2.8938751
1433892510.824,2.621231
1433892510.84,1.2985687
1433892510.855,-1.2911224
1433892510.871,-5.118973
1433892510.887,-9.924698
1433892510.902,-15.263046
1433892510.918,-20.637161
1433892510.934,-25.562317
1433892510.949,-29.687653
1433892510.965,-32.778793
1433892510.98,-34.727386
1433892510.996,-35.54886
1433892511.012,-35.413254
1433892511.027,-34.659134
1433892511.043,-33.772736
1433892511.059,-33.209198
1433892511.074,-33.223206
1433892511.09,-33.691544
1433892511.106,-34.131165
1433892511.121,-33.885696
1433892511.137,-32.439606
1433892511.152,-29.66243
1433892511.168,-25.936691
1433892511.184,-21.991394
1433892511.199,-18.667572
1433892511.215,-16.576157
1433892511.231,-15.942413
1433892511.246,-16.478928
1433892511.262,-17.596481
1433892511.277,-18.553177
1433892511.293,-18.78569
1433892511.309,-18.097946
1433892511.324,-16.693176
1433892511.34,-15.033859
1433892511.356,-13.571472
1433892511.371,-12.503784
1433892511.387,-11.74498
1433892511.402,-11.026398
1433892511.418,-10.153854
1433892511.434,-9.167511
1433892511.449,-8.321793
1433892511.465,-7.867569
1433892511.481,-7.822586
1433892511.496,-7.8885803
1433892511.512,-7.5742645
1433892511.527,-6.4561157
1433892511.543,-4.4993896
1433892511.559,-2.0338135
1433892511.574,0.274292
1433892511.59,1.8336487
1433892511.606,2.2462769
1433892511.621,1.552948
1433892511.637,0.1539917
1433892511.652,-1.3843079
1433892511.668,-2.5671387
1433892511.684,-3.0873108
1433892511.699,-2.8488464
1433892511.715,-1.8912964
1433892511.731,-0.3086548
1433892511.746,1.7573853
1433892511.762,4.058655
1433892511.777,6.2297974
1433892511.793,7.85907
1433892511.809,8.659302
1433892511.824,8.610321
1433892511.84,8.012421
1433892511.856,7.3200073
1433892511.871,6.920166
1433892511.887,6.9065247
1433892511.902,7.120758
1433892511.918,7.200226
1433892511.934,6.869995
1433892511.949,6.032776
1433892511.965,4.7628784
1433892511.981,3.13266
1433892511.996,1.2224426
1433892512.012,-0.9691162
1433892512.027,-3.2781982
1433892512.043,-5.4395447
1433892512.059,-7.2157593
1433892512.074,-8.5017395
1433892512.09,-9.213959
1433892512.106,-9.351593
1433892512.121,-8.705353
1433892512.137,-6.9682007
1433892512.152,-3.7841797
1433892512.168,1.0302124
1433892512.184,7.3839417
1433892512.199,14.865265
1433892512.215,22.851593
1433892512.231,30.590607
1433892512.246,37.33499
1433892512.262,42.48987
1433892512.277,45.76825
1433892512.293,47.2435
1433892512.309,47.44934
1433892512.324,47.114716
1433892512.34,46.956726
1433892512.356,47.35031
1433892512.371,48.27054
1433892512.387,49.374847
1433892512.402,50.413513
1433892512.418,51.152283
1433892512.434,51.569275
1433892512.449,51.62555
1433892512.465,51.293915
1433892512.481,50.463776
1433892512.496,49.19745
1433892512.512,47.554657
1433892512.527,45.76169
1433892512.543,44.013123
1433892512.559,42.460358
1433892512.574,41.20874
1433892512.59,40.454834
1433892512.606,40.3869
1433892512.621,41.101166
1433892512.637,42.28055
1433892512.652,43.167267
1433892512.668,42.747894
1433892512.684,40.18228
1433892512.699,35.15869
1433892512.715,28.029907
1433892512.731,19.691193
1433892512.746,11.283966
1433892512.762,3.7739563
1433892512.777,-2.1669617
1433892512.793,-6.502136
1433892512.809,-9.568817
1433892512.824,-11.968018
1433892512.84,-14.174347
1433892512.856,-16.346863
1433892512.871,-18.237152
1433892512.887,-19.364563
1433892512.902,-19.176971
1433892512.918,-17.528625
1433892512.934,-14.687866
1433892512.949,-11.390625
1433892512.965,-8.381866
1433892512.981,-6.157135
1433892512.996,-4.650482
1433892513.012,-3.4096985
1433892513.027,-1.8136902
1433892513.043,0.52545166
1433892513.059,3.704956
1433892513.074,7.28537
1433892513.09,10.529205
1433892513.106,12.536362
1433892513.121,12.604935
1433892513.137,10.441696
1433892513.152,6.403061
1433892513.168,1.4283142
1433892513.184,-3.2121277
1433892513.199,-6.427414
1433892513.215,-7.7121277
1433892513.231,-7.380615
1433892513.246,-6.299118
1433892513.262,-5.520157
1433892513.277,-5.613312
1433892513.293,-6.565735
1433892513.309,-7.8025665
1433892513.324,-8.587158
1433892513.34,-8.42189
1433892513.356,-7.2902985
1433892513.371,-5.586975
1433892513.387,-3.9299774
1433892513.402,-2.8184204
1433892513.418,-2.529541
1433892513.434,-2.957718
1433892513.449,-3.8758087
1433892513.465,-5.0350037
1433892513.481,-6.3486786
1433892513.496,-7.865692
1433892513.512,-9.751953
1433892513.527,-12.077179
1433892513.543,-14.766541
1433892513.559,-17.434357
1433892513.574,-19.637772
1433892513.59,-21.005768
1433892513.606,-21.491074
1433892513.621,-21.414658
1433892513.637,-21.33406
1433892513.652,-21.775635
1433892513.668,-22.983307
1433892513.684,-24.79654
1433892513.699,-26.759521
1433892513.715,-28.27858
1433892513.731,-28.917007
1433892513.746,-28.5372
1433892513.762,-27.362068
1433892513.778,-25.824379
1433892513.793,-24.428543
1433892513.809,-23.484573
1433892513.824,-23.03299
1433892513.84,-22.80217
1433892513.856,-22.426132
1433892513.871,-21.582077
1433892513.887,-20.20594
1433892513.902,-18.502625
1433892513.918,-16.854538
1433892513.934,-15.599152
1433892513.949,-14.87085
1433892513.965,-14.536324
1433892513.981,-14.298927
1433892513.996,-13.777054
1433892514.012,-12.649147
1433892514.028,-10.710945
1433892514.043,-7.886551
1433892514.059,-4.231926
1433892514.074,0.007789612
1433892514.09,4.4179306
1433892514.106,8.457756
1433892514.121,11.623817
1433892514.137,13.517769
1433892514.153,14.077866
1433892514.168,13.475494
1433892514.184,12.138115
1433892514.199,10.513039
1433892514.215,8.980705
1433892514.231,7.7529755
1433892514.246,6.862526
1433892514.262,6.206024
1433892514.278,5.590126
1433892514.293,4.777405
1433892514.309,3.5816345
1433892514.324,1.9392548
1433892514.34,-0.045455933
1433892514.356,-2.1163254
1433892514.371,-3.9194107
1433892514.387,-5.175171
1433892514.403,-5.7743073
1433892514.418,-5.806999
1433892514.434,-5.477806
1433892514.449,-5.0540543
1433892514.465,-4.7030106
1433892514.481,-4.5168
1433892514.496,-4.531105
1433892514.512,-4.7549286
1433892514.528,-5.1595917
1433892514.543,-5.6684113
1433892514.559,-6.070526
1433892514.574,-6.0870056
1433892514.59,-5.4770584
1433892514.606,-4.220726
1433892514.621,-2.5511856
1433892514.637,-0.91018677
1433892514.653,0.27626038
1433892514.668,0.767807
1433892514.684,0.7079849
1433892514.699,0.49193573
1433892514.715,0.6101074
1433892514.731,1.4259186
1433892514.746,3.1109238
1433892514.762,5.59478
1433892514.778,8.644112
1433892514.793,11.875549
1433892514.809,14.820122
1433892514.824,16.910454
1433892514.84,17.675446
1433892514.856,16.84639
1433892514.871,14.547333
1433892514.887,11.31044
1433892514.903,7.9422607
1433892514.918,5.27108
1433892514.934,3.8665352
1433892514.949,3.8754082
1433892514.965,5.0323143
1433892514.981,6.776573
1433892514.996,8.523174
1433892515.012,9.811203
1433892515.028,10.451405
1433892515.043,10.432148
1433892515.059,9.913704
1433892515.074,9.056889
1433892515.09,8.05743
1433892515.106,7.020664
1433892515.121,6.0366173
1433892515.137,5.094002
1433892515.153,4.101322
1433892515.168,2.8740044
1433892515.184,1.1958694
1433892515.199,-1.0578575
1433892515.215,-3.869217
1433892515.231,-7.0478477
1433892515.246,-10.273163
1433892515.262,-13.268929
1433892515.278,-15.872681
1433892515.293,-18.064835
1433892515.309,-19.858253
1433892515.324,-21.207218
1433892515.34,-21.93953
1433892515.356,-21.827225
1433892515.371,-20.723042
1433892515.387,-18.709766
1433892515.403,-16.183035
1433892515.418,-13.689386
1433892515.434,-11.737299
1433892515.449,-10.571823
1433892515.465,-9.992487
1433892515.481,-9.474426
1433892515.496,-8.345802
1433892515.512,-6.109968
1433892515.528,-2.6272755
1433892515.543,1.7798252
1433892515.559,6.4195995
1433892515.574,10.387686
1433892515.59,12.818665
1433892515.606,13.07563
1433892515.621,10.942215
1433892515.637,6.7051334
1433892515.653,1.1191063
1433892515.668,-4.8185387
1433892515.684,-10.102079
1433892515.699,-14.07058
1433892515.715,-16.551517
1433892515.731,-17.908203
1433892515.746,-18.761696
1433892515.762,-19.765303
1433892515.778,-21.326017
1433892515.793,-23.494343
1433892515.809,-25.997797
1433892515.824,-28.369335
1433892515.84,-30.079449
1433892515.856,-30.67643
1433892515.871,-29.884348
1433892515.887,-27.752949
1433892515.903,-24.676197
1433892515.918,-21.31989
1433892515.934,-18.429226
1433892515.949,-16.595505
1433892515.965,-16.055294
1433892515.981,-16.67128
1433892515.996,-18.082195
1433892516.012,-19.882523
1433892516.028,-21.716022
1433892516.043,-23.31562
1433892516.059,-24.380096
1433892516.074,-24.584724
1433892516.09,-23.661057
1433892516.106,-21.559559
1433892516.121,-18.570366
1433892516.137,-15.247406
1433892516.153,-12.125122
1433892516.168,-9.509762
1433892516.184,-7.3356743
1433892516.199,-5.3063545
1433892516.215,-3.0865936
1433892516.231,-0.54909134
1433892516.246,2.2929611
1433892516.262,5.3699646
1433892516.278,8.756294
1433892516.293,12.659912
1433892516.309,17.286324
1433892516.324,22.536552
1433892516.34,27.89199
1433892516.356,32.48156
1433892516.371,35.37574
1433892516.387,35.97249
1433892516.403,34.27722
1433892516.418,30.837097
1433892516.434,26.589516
1433892516.45,22.420197
1433892516.465,18.938766
1433892516.481,16.388306
1433892516.496,14.766266
1433892516.512,13.930237
1433892516.528,13.760445
1433892516.543,14.1297
1433892516.559,14.861145
1433892516.574,15.692825
1433892516.59,16.342636
1433892516.606,16.636345
1433892516.621,16.637558
1433892516.637,16.581703
1433892516.653,16.74263
1433892516.668,17.243996
1433892516.684,18.00502
1433892516.7,18.729103
1433892516.715,19.14135
1433892516.731,19.139664
1433892516.746,18.888763
1433892516.762,18.76242
1433892516.778,19.178825
1433892516.793,20.393684
1433892516.809,22.383507
1433892516.825,24.80915
1433892516.84,27.143318
1433892516.856,28.782745
1433892516.871,29.26387
1433892516.887,28.329453
1433892516.903,26.033356
1433892516.918,22.691216
1433892516.934,18.805283
1433892516.95,14.889435
1433892516.965,11.40715
1433892516.981,8.645203
1433892516.996,6.7101364
1433892517.012,5.5694656
1433892517.028,5.0464554
1433892517.043,4.8440933
1433892517.059,4.5839767
1433892517.075,3.8826675
1433892517.09,2.443657
1433892517.106,0.19174957
1433892517.121,-2.688202
1433892517.137,-5.8213654
1433892517.153,-8.692139
1433892517.168,-10.914818
1433892517.184,-12.275642
1433892517.2,-12.815178
1433892517.215,-12.7610855
1433892517.231,-12.397591
1433892517.246,-11.950863
1433892517.262,-11.5446205
1433892517.278,-11.214527
1433892517.293,-10.956055
1433892517.309,-10.807911
1433892517.325,-10.874496
1433892517.34,-11.287235
1433892517.356,-12.141716
1433892517.371,-13.384209
1433892517.387,-14.8288765
1433892517.403,-16.201496
1433892517.418,-17.313797
1433892517.434,-18.10101
1433892517.45,-18.713726
1433892517.465,-19.374714
1433892517.481,-20.309265
1433892517.496,-21.610153
1433892517.512,-23.259575
1433892517.528,-25.140972
1433892517.543,-27.079372
1433892517.559,-28.879906
1433892517.575,-30.333187
1433892517.59,-31.25423
1433892517.606,-31.488113
1433892517.621,-31.01223
1433892517.637,-29.932682
1433892517.653,-28.432682
1433892517.668,-26.727348
1433892517.684,-24.86343
1433892517.7,-22.704906
1433892517.715,-19.871552
1433892517.731,-15.887791
1433892517.746,-10.366119
1433892517.762,-3.2717056
1433892517.778,4.924267
1433892517.793,13.254353
1433892517.809,20.501846
1433892517.825,25.56279
1433892517.84,27.847717
1433892517.856,27.40963
1433892517.871,24.924316
1433892517.887,21.39745
1433892517.903,17.812145
1433892517.918,14.869041
1433892517.934,12.921478
1433892517.95,11.994396
1433892517.965,11.968075
1433892517.981,12.628525
1433892517.996,13.760952
1433892518.012,15.104958
1433892518.028,16.396
1433892518.043,17.393711
1433892518.059,17.925583
1433892518.075,17.916386
1433892518.09,17.36935
1433892518.106,16.35918
1433892518.121,14.999409
1433892518.137,13.398193
1433892518.153,11.659504
1433892518.168,9.840996
1433892518.184,8.050549
1433892518.2,6.389633
1433892518.215,4.9920044
1433892518.231,3.9308777
1433892518.246,3.1868973
1433892518.262,2.549656
1433892518.278,1.7259445
1433892518.293,0.4228897
1433892518.309,-1.4165955
1433892518.325,-3.5662003
1433892518.34,-5.5732117
1433892518.356,-6.987602
1433892518.371,-7.5690575
1433892518.387,-7.3582535
1433892518.403,-6.59132
1433892518.418,-5.492157
1433892518.434,-4.093128
1433892518.45,-2.2411118
1433892518.465,0.28780365
1433892518.481,3.5681381
1433892518.496,7.477844
1433892518.512,11.659363
1433892518.528,15.646801
1433892518.543,18.950115
1433892518.559,21.178658
1433892518.575,22.028526
1433892518.59,21.38691
1433892518.606,19.30767
1433892518.621,16.10102
1433892518.637,12.235195
1433892518.653,8.250618
1433892518.668,4.6405487
1433892518.684,1.7641258
1433892518.7,-0.22423935
1433892518.715,-1.3560753
1433892518.731,-1.8687439
1433892518.746,-2.1067429
1433892518.762,-2.54179
1433892518.778,-3.5772476
1433892518.793,-5.4482193
1433892518.809,-8.140617
1433892518.825,-11.3507595
1433892518.84,-14.644011
1433892518.856,-17.62616
1433892518.871,-20.064602
1433892518.887,-21.942047
1433892518.903,-23.33796
1433892518.918,-24.346098
1433892518.934,-24.938395
1433892518.95,-25.023617
1433892518.965,-24.494335
1433892518.981,-23.357548
1433892518.996,-21.73982
1433892519.012,-19.87798
1433892519.028,-18.033535
1433892519.043,-16.379751
1433892519.059,-14.937412
1433892519.075,-13.586233
1433892519.09,-12.113705
1433892519.106,-10.352522
1433892519.121,-8.199348
1433892519.137,-5.674885
1433892519.153,-2.9321594
1433892519.168,-0.18837929
1433892519.184,2.376215
1433892519.2,4.6259327
1433892519.215,6.5682163
1433892519.231,8.329874
1433892519.246,10.148382
1433892519.262,12.206062
1433892519.278,14.558702
1433892519.293,16.976603
1433892519.309,19.018354
1433892519.325,20.096989
1433892519.34,19.700466
1433892519.356,17.561485
1433892519.372,13.772793
1433892519.387,8.730154
1433892519.403,3.0675182
1433892519.418,-2.5575066
1433892519.434,-7.575159
1433892519.45,-11.617348
1433892519.465,-14.522877
1433892519.481,-16.353243
1433892519.497,-17.292011
1433892519.512,-17.620543
1433892519.528,-17.599607
1433892519.543,-17.449415
1433892519.559,-17.320568
1433892519.575,-17.30961
1433892519.59,-17.43224
1433892519.606,-17.644312
1433892519.622,-17.76035
1433892519.637,-17.555603
1433892519.653,-16.81825
1433892519.668,-15.473797
1433892519.684,-13.637215
1433892519.7,-11.590763
1433892519.715,-9.6116905
1433892519.731,-7.8801346
1433892519.747,-6.3597527
1433892519.762,-4.8670883
1433892519.778,-3.143139
1433892519.793,-1.0809631
1433892519.809,1.2595749
1433892519.825,3.6409607
1433892519.84,5.770603
1433892519.856,7.4234123
1433892519.872,8.575066
1433892519.887,9.344643
1433892519.903,10.006138
1433892519.918,10.771793
1433892519.934,11.80024
1433892519.95,13.139759
1433892519.965,14.739723
1433892519.981,16.528824
1433892519.997,18.49247
1433892520.012,20.65123
1433892520.028,23.024193
1433892520.043,25.55928
1433892520.059,28.12423
1433892520.075,30.471207
1433892520.09,32.3129
1433892520.106,33.330147
1433892520.122,33.26647
1433892520.137,31.916027
1433892520.153,29.201672
1433892520.168,25.226109
1433892520.184,20.339706
1433892520.2,15.005169
1433892520.215,9.748493
1433892520.231,4.991432
1433892520.247,0.94501877
1433892520.262,-2.3732872
1433892520.278,-5.0773315
1433892520.293,-7.288391
1433892520.309,-9.0471115
1433892520.325,-10.358322
1433892520.34,-11.170502
1433892520.356,-11.507141
1433892520.372,-11.428513
1433892520.387,-11.047543
1433892520.403,-10.479561
1433892520.418,-9.864262
1433892520.434,-9.338814
1433892520.45,-9.050854
1433892520.465,-9.118584
1433892520.481,-9.579849
1433892520.497,-10.335693
1433892520.512,-11.171356
1433892520.528,-11.807976
1433892520.543,-12.014549
1433892520.559,-11.684761
1433892520.575,-10.938576
1433892520.59,-10.024517
1433892520.606,-9.255264
1433892520.622,-8.825771
1433892520.637,-8.7687
1433892520.653,-8.92799
1433892520.668,-9.084957
1433892520.684,-9.013134
1433892520.7,-8.654572
1433892520.715,-8.016499
1433892520.731,-7.2224197
1433892520.747,-6.3690147
1433892520.762,-5.4996796
1433892520.778,-4.5915337
1433892520.793,-3.612194
1433892520.809,-2.5335884
1433892520.825,-1.3296432
1433892520.84,0.15132141
1433892520.856,2.0609093
1433892520.872,4.466812
1433892520.887,7.197605
1433892520.903,9.717472
1433892520.918,11.227669
1433892520.934,11.028381
1433892520.95,8.863777
1433892520.965,5.1738205
1433892520.981,0.889122
1433892520.997,-2.9654274
1433892521.012,-5.7691803
1433892521.028,-7.472439
1433892521.043,-8.510258
1433892521.059,-9.381477
1433892521.075,-10.322746
1433892521.09,-11.190033
1433892521.106,-11.647339
1433892521.122,-11.450497
1433892521.137,-10.669613
1433892521.153,-9.650394
1433892521.168,-8.799587
1433892521.184,-8.3607025
1433892521.2,-8.375233
1433892521.215,-8.513779
1433892521.231,-8.506821
1433892521.247,-8.119045
1433892521.262,-7.3352585
1433892521.278,-6.3363113
1433892521.293,-5.3828583
1433892521.309,-4.610031
1433892521.325,-3.946453
1433892521.34,-2.9913445
1433892521.356,-1.3212852
1433892521.372,1.2317123
1433892521.387,4.3530006
1433892521.403,7.2823257
1433892521.418,9.166637
1433892521.434,9.56168
1433892521.45,8.737991
1433892521.465,7.577915
1433892521.481,7.0857162
1433892521.497,7.894905
1433892521.512,9.825123
1433892521.528,12.095833
1433892521.543,13.678146
1433892521.559,13.903133
1433892521.575,12.626041
1433892521.59,10.277878
1433892521.606,7.553669
1433892521.622,5.1962967
1433892521.637,3.7427292
1433892521.653,3.5260277
1433892521.668,4.609047
1433892521.684,6.625881
1433892521.7,8.743397
1433892521.715,9.915527
1433892521.731,9.114281
1433892521.747,5.8103867
1433892521.762,0.26605225
1433892521.778,-6.5031967
1433892521.793,-13.224503
1433892521.809,-18.82132
1433892521.825,-22.861816
1433892521.84,-25.531776
1433892521.856,-27.391586
1433892521.872,-28.900238
1433892521.887,-30.140793
1433892521.903,-30.784363
1433892521.918,-30.394348
1433892521.934,-28.580414
1433892521.95,-25.202995
1433892521.965,-20.407967
1433892521.981,-14.731369
1433892521.997,-8.866013
1433892522.012,-3.6306305
1433892522.028,0.27033997
1433892522.044,2.4951706
1433892522.059,3.3848114
1433892522.075,3.7175827
1433892522.09,4.4988556
1433892522.106,6.2862167
1433892522.122,8.95932
1433892522.137,11.802231
1433892522.153,14.015602
1433892522.169,15.267693
1433892522.184,15.912819
1433892522.2,16.671623
1433892522.215,18.04393
1433892522.231,19.789871
1433892522.247,20.902946
1433892522.262,20.154915
1433892522.278,17.016495
1433892522.294,12.036446
1433892522.309,6.886734
1433892522.325,3.4999466
1433892522.34,3.2966995
1433892522.356,6.3326874
1433892522.372,11.465858
1433892522.387,16.917435
1433892522.403,21.29528
1433892522.419,24.034271
1433892522.434,25.515755
1433892522.45,26.536026
1433892522.465,27.660416
1433892522.481,28.816956
1433892522.497,29.411896
1433892522.512,28.849182
1433892522.528,26.959656
1433892522.544,23.952606
1433892522.559,20.355087
1433892522.575,16.341858
1433892522.59,11.85508
1433892522.606,6.718361
1433892522.622,1.0995255
1433892522.637,-4.3070602
1433892522.653,-8.3463745
1433892522.669,-10.05928
1433892522.684,-9.142494
1433892522.7,-6.2861023
1433892522.715,-2.888237
1433892522.731,-0.45531464
1433892522.747,0.06272888
1433892522.762,-1.39328
1433892522.778,-4.0159683
1433892522.794,-6.5597916
1433892522.809,-7.73999
1433892522.825,-6.792412
1433892522.84,-3.6014938
1433892522.856,1.0251465
1433892522.872,5.7154617
1433892522.887,9.010971
1433892522.903,10.147026
1433892522.919,9.440567
1433892522.934,8.155991
1433892522.95,7.8109665
1433892522.965,9.25869
1433892522.981,12.157181
1433892522.997,15.170464
1433892523.012,16.787056
1433892523.028,16.293121
1433892523.044,14.141052
1433892523.059,11.741577
1433892523.075,10.484039
1433892523.09,10.947098
1433892523.106,12.73214
1433892523.122,14.9774475
1433892523.137,17.000557
1433892523.153,18.90731
1433892523.169,21.17014
1433892523.184,24.214336
1433892523.2,27.85606
1433892523.215,31.28498
1433892523.231,33.39029
1433892523.247,33.45472
1433892523.262,31.385029
1433892523.278,27.77761
1433892523.294,23.427773
1433892523.309,18.95747
1433892523.325,14.404278
1433892523.34,9.423801
1433892523.356,3.6643448
1433892523.372,-2.7299595
1433892523.387,-9.040176
1433892523.403,-14.169617
1433892523.419,-17.229456
1433892523.434,-18.048521
1433892523.45,-17.325668
1433892523.465,-16.285774
1433892523.481,-16.125141
1433892523.497,-17.394388
1433892523.512,-19.812057
1433892523.528,-22.583813
1433892523.544,-24.902267
1433892523.559,-26.383533
1433892523.575,-27.171553
1433892523.59,-27.662535
1433892523.606,-28.14745
1433892523.622,-28.592993
1433892523.637,-28.751389
1433892523.653,-28.301115
1433892523.669,-27.184534
1433892523.684,-25.656555
1433892523.7,-24.15403
1433892523.715,-23.110573
1433892523.731,-22.727175
1433892523.747,-22.833755
1433892523.762,-22.992918
1433892523.778,-22.631756
1433892523.794,-21.401123
1433892523.809,-19.209457
1433892523.825,-16.359362
1433892523.84,-13.363943
1433892523.856,-10.764128
1433892523.872,-8.875717
1433892523.887,-7.7338486
1433892523.903,-7.0697117
1433892523.919,-6.471567
1433892523.934,-5.5262375
1433892523.95,-3.9813728
1433892523.965,-1.8493843
1433892523.981,0.5605316
1433892523.997,2.7872963
1433892524.012,4.301468
1433892524.028,4.74984
1433892524.044,4.0131836
1433892524.059,2.3108711
1433892524.075,0.028961182
1433892524.09,-2.3542671
1433892524.106,-4.4722214
1433892524.122,-6.1448593
1433892524.137,-7.4003296
1433892524.153,-8.424557
1433892524.169,-9.43042
1433892524.184,-10.544239
1433892524.2,-11.743446
1433892524.215,-12.872574
1433892524.231,-13.69532
1433892524.247,-14.06292
1433892524.262,-13.997726
1433892524.278,-13.721882
1433892524.294,-13.604416
1433892524.309,-13.932892
1433892524.325,-14.836899
1433892524.34,-16.123123
1433892524.356,-17.440681
1433892524.372,-18.37714
1433892524.387,-18.66557
1433892524.403,-18.258636
1433892524.419,-17.263664
1433892524.434,-15.829809
1433892524.45,-13.992685
1433892524.465,-11.69029
1433892524.481,-8.8034725
1433892524.497,-5.345972
1433892524.512,-1.4380894
1433892524.528,2.73143
1433892524.544,7.0211124
1433892524.559,11.4617405
1433892524.575,16.139345
1433892524.59,21.099968
1433892524.606,26.125278
1433892524.622,30.820387
1433892524.637,34.635204
1433892524.653,37.169746
1433892524.669,38.30097
1433892524.684,38.25241
1433892524.7,37.499138
1433892524.716,36.60964
1433892524.731,36.195564
1433892524.747,36.744583
1433892524.762,38.495216
1433892524.778,41.230423
1433892524.794,44.207767
1433892524.809,46.287834
1433892524.825,46.24948
1433892524.84,43.33332
1433892524.856,37.561657
1433892524.872,29.841873
1433892524.887,21.566689
1433892524.903,14.15501
1433892524.919,8.478912
1433892524.934,4.712387
1433892524.95,2.3919907
1433892524.966,0.7526474
1433892524.981,-0.8996048
1433892524.997,-2.9683647
1433892525.012,-5.516487
1433892525.028,-8.334255
1433892525.044,-11.121941
1433892525.059,-13.601139
1433892525.075,-15.639603
1433892525.091,-17.189728
1433892525.106,-18.295326
1433892525.122,-18.913857
1433892525.137,-19.011444
1433892525.153,-18.559772
1433892525.169,-17.682636
1433892525.184,-16.623837
1433892525.2,-15.797817
1433892525.216,-15.546902
1433892525.231,-16.0374
1433892525.247,-17.15335
1433892525.262,-18.558517
1433892525.278,-19.85566
1433892525.294,-20.783722
1433892525.309,-21.2984
1433892525.325,-21.523277
1433892525.341,-21.618187
1433892525.356,-21.633667
1433892525.372,-21.46724
1433892525.387,-20.948677
1433892525.403,-19.983414
1433892525.419,-18.703903
1433892525.434,-17.351547
1433892525.45,-16.20317
1433892525.466,-15.318527
1433892525.481,-14.522614
1433892525.497,-13.490173
1433892525.512,-11.959351
1433892525.528,-9.910622
1433892525.544,-7.625679
1433892525.559,-5.4954605
1433892525.575,-3.8324127
1433892525.591,-2.7037506
1433892525.606,-1.9426727
1433892525.622,-1.3111038
1433892525.637,-0.6938782
1433892525.653,-0.1547699
1433892525.669,0.11012268
1433892525.684,-0.0331192
1433892525.7,-0.5374603
1433892525.716,-1.1635666
1433892525.731,-1.5648422
1433892525.747,-1.4324341
1433892525.762,-0.6430359
1433892525.778,0.7342911
1433892525.794,2.447464
1433892525.809,4.1683044
1433892525.825,5.6066437
1433892525.841,6.5804825
1433892525.856,7.05262
1433892525.872,7.1105804
1433892525.887,6.9146576
1433892525.903,6.6061707
1433892525.919,6.2183228
1433892525.934,5.736168
1433892525.95,5.1473007
1433892525.966,4.561592
1433892525.981,4.2021103
1433892525.997,4.374077
1433892526.012,5.2694397
1433892526.028,6.924774
1433892526.044,9.13221
1433892526.059,11.576759
1433892526.075,13.914566
1433892526.091,15.957489
1433892526.106,17.632103
1433892526.122,19.007118
1433892526.137,20.213562
1433892526.153,21.39672
1433892526.169,22.697784
1433892526.184,24.231407
1433892526.2,26.014366
1433892526.216,27.898254
1433892526.231,29.50647
1433892526.247,30.306168
1433892526.262,29.744308
1433892526.278,27.526154
1433892526.294,23.687454
1433892526.309,18.696136
1433892526.325,13.253288
1433892526.341,8.093918
1433892526.356,3.6939316
1433892526.372,0.25691223
1433892526.387,-2.3944626
1433892526.403,-4.550003
1433892526.419,-6.4950027
1433892526.434,-8.344963
1433892526.45,-10.021835
1433892526.466,-11.358688
1433892526.481,-12.188454
1433892526.497,-12.502724
1433892526.512,-12.427254
1433892526.528,-12.170349
1433892526.544,-11.92762
1433892526.559,-11.795906
1433892526.575,-11.774765
1433892526.591,-11.864235
1433892526.606,-12.062424
1433892526.622,-12.403313
1433892526.637,-12.876572
1433892526.653,-13.374374
1433892526.669,-13.690254
1433892526.684,-13.587433
1433892526.7,-12.901459
1433892526.716,-11.620056
1433892526.731,-9.883377
1433892526.747,-7.8641586
1433892526.762,-5.762512
1433892526.778,-3.6925964
1433892526.794,-1.7337952
1433892526.809,0.06913757
1433892526.825,1.6591339
1433892526.841,3.0240784
1433892526.856,4.2040863
1433892526.872,5.3411713
1433892526.887,6.634491
1433892526.903,8.343445
1433892526.919,10.630157
1433892526.934,13.504211
1433892526.95,16.77687
1433892526.966,20.045715
1433892526.981,22.773651
1433892526.997,24.424469
1433892527.012,24.581268
1433892527.028,23.074387
1433892527.044,20.006195
1433892527.059,15.758194
1433892527.075,10.880066
1433892527.091,5.981827
1433892527.106,1.5708618
1433892527.122,-1.9937134
1433892527.137,-4.555832
1433892527.153,-6.081375
1433892527.169,-6.6857758
1433892527.184,-6.5591736
1433892527.2,-5.9449463
1433892527.216,-5.126053
1433892527.231,-4.4056854
1433892527.247,-3.9915314
1433892527.262,-3.9599304
1433892527.278,-4.2069855
1433892527.294,-4.516739
1433892527.309,-4.6628876
1433892527.325,-4.559311
1433892527.341,-4.231415
1433892527.356,-3.8474274
1433892527.372,-3.5399323
1433892527.388,-3.4088135
1433892527.403,-3.4468079
1433892527.419,-3.6529083
1433892527.434,-4.0700836
1433892527.45,-4.783066
1433892527.466,-5.8163147
1433892527.481,-7.08255
1433892527.497,-8.321243
1433892527.512,-9.242035
1433892527.528,-9.6866455
1433892527.544,-9.757416
1433892527.559,-9.787582
1433892527.575,-10.1853485
1433892527.591,-11.184723
1433892527.606,-12.743439
1433892527.622,-14.525116
1433892527.638,-16.051117
1433892527.653,-16.841217
1433892527.669,-16.522888
1433892527.684,-14.901199
1433892527.7,-12.044006
1433892527.716,-8.335999
1433892527.731,-4.5006256
1433892527.747,-1.4786377
1433892527.763,-0.17971802
1433892527.778,-1.1240692
1433892527.794,-4.216614
1433892527.809,-8.73378
1433892527.825,-13.614212
1433892527.841,-17.814041
1433892527.856,-20.688828
1433892527.872,-22.126877
1433892527.888,-22.432587
1433892527.903,-22.039642
1433892527.919,-21.273834
1433892527.934,-20.260864
1433892527.95,-18.964157
1433892527.966,-17.317871
1433892527.981,-15.399521
1433892527.997,-13.356186
1433892528.013,-11.40686
1433892528.028,-9.6671295
1433892528.044,-8.121521
1433892528.059,-6.661789
1433892528.075,-5.2243958
1433892528.091,-3.8592987
1433892528.106,-2.7956085
1433892528.122,-2.283661
1433892528.138,-2.4946747
1433892528.153,-3.3476105
1433892528.169,-4.5499725
1433892528.184,-5.690796
1433892528.2,-6.419464
1433892528.216,-6.5737457
1433892528.231,-6.1888885
1433892528.247,-5.41568
1433892528.263,-4.4318542
1433892528.278,-3.331131
1433892528.294,-2.1483765
1433892528.309,-0.8456421
1433892528.325,0.5668335
1433892528.341,2.0835266
1433892528.356,3.6800385
1433892528.372,5.3933105
1433892528.388,7.3496704
1433892528.403,9.782394
1433892528.419,12.864319
1433892528.434,16.580597
1433892528.45,20.598434
1433892528.466,24.271484
1433892528.481,26.796448
1433892528.497,27.532578
1433892528.513,26.263596
1433892528.528,23.369446
1433892528.544,19.673706
1433892528.559,16.193253
1433892528.575,13.724564
1433892528.591,12.627914
1433892528.606,12.750275
1433892528.622,13.648575
1433892528.638,14.799072
1433892528.653,15.822327
1433892528.669,16.531754
1433892528.684,16.874176
1433892528.7,16.736115
1433892528.716,15.882416
1433892528.731,13.946136
1433892528.747,10.665436
1433892528.763,6.0139465
1433892528.778,0.28720093
1433892528.794,-5.99144
1433892528.809,-12.242767
1433892528.825,-18.065979
1433892528.841,-23.273819
1433892528.856,-27.883194
1433892528.872,-31.941376
1433892528.888,-35.456802
1433892528.903,-38.312195
1433892528.919,-40.357803
1433892528.934,-41.491302
1433892528.95,-41.717117
1433892528.966,-41.146667
1433892528.981,-39.964294
1433892528.997,-38.363434
1433892529.013,-36.532578
1433892529.028,-34.63083
1433892529.044,-32.748108
1433892529.059,-30.895294
1433892529.075,-29.016724
1433892529.091,-26.976028
1433892529.106,-24.677643
1433892529.122,-22.0419
1433892529.138,-19.05539
1433892529.153,-15.774445
1433892529.169,-12.375916
1433892529.184,-9.144333
1433892529.2,-6.503769
1433892529.216,-4.9455414
1433892529.231,-4.8616486
1433892529.247,-6.4361725
1433892529.263,-9.472549
1433892529.278,-13.402847
1433892529.294,-17.504364
1433892529.309,-21.064484
1433892529.325,-23.661514
1433892529.341,-25.245575
1433892529.356,-26.05693
1433892529.372,-26.408203
1433892529.388,-26.514786
1433892529.403,-26.357758
1433892529.419,-25.708359
1433892529.434,-24.279068
1433892529.45,-21.897385
1433892529.466,-18.507858
1433892529.481,-14.210342
1433892529.497,-9.13353
1433892529.513,-3.3717194
1433892529.528,3.0076218
1433892529.544,9.942017
1433892529.559,17.324608
1433892529.575,24.911324
1433892529.591,32.350517
1433892529.606,39.17833
1433892529.622,44.878128
1433892529.638,48.97509
1433892529.653,51.128494
1433892529.669,51.204124
1433892529.684,49.337677
1433892529.7,45.927628
1433892529.716,41.53118
1433892529.731,36.78907
1433892529.747,32.335083
1433892529.763,28.693375
1433892529.778,26.20697
1433892529.794,24.92701
1433892529.809,24.635773
1433892529.825,24.869423
1433892529.841,25.111458
1433892529.856,24.962143
1433892529.872,24.298553
1433892529.888,23.294167
1433892529.903,22.275597
1433892529.919,21.51257
1433892529.934,21.093182
1433892529.95,20.81174
1433892529.966,20.29662
1433892529.981,19.176083
1433892529.997,17.27341
1433892530.013,14.625156
1433892530.028,11.495285
1433892530.044,8.23452
1433892530.059,5.193939
1433892530.075,2.62257
1433892530.091,0.641407
1433892530.106,-0.73295975
1433892530.122,-1.577568
1433892530.138,-2.0036812
1433892530.153,-2.107418
1433892530.169,-1.9786835
1433892530.184,-1.6342201
1433892530.2,-1.0482025
1433892530.216,-0.1187973
1433892530.231,1.2277946
1433892530.247,3.044838
1433892530.263,5.270752
1433892530.278,7.7586174
1433892530.294,10.249531
1433892530.31,12.491745
1433892530.325,14.245609
1433892530.341,15.36512
1433892530.356,15.810455
1433892530.372,15.636448
1433892530.388,15.002605
1433892530.403,14.131634
1433892530.419,13.287144
1433892530.435,12.710857
1433892530.45,12.596512
1433892530.466,13.030472
1433892530.481,13.922455
1433892530.497,15.044697
1433892530.513,16.017448
1433892530.528,16.48315
1433892530.544,16.137783
1433892530.56,14.876633
1433892530.575,12.761509
1433892530.591,10.00676
1433892530.606,6.919945
1433892530.622,3.839798
1433892530.638,1.1030731
1433892530.653,-1.0544281
1433892530.669,-2.6030731
1433892530.685,-3.7706528
1433892530.7,-5.033058
1433892530.716,-6.9338684
1433892530.731,-9.875572
1433892530.747,-13.876724
1433892530.763,-18.499008
1433892530.778,-23.046043
1433892530.794,-26.846016
1433892530.81,-29.535774
1433892530.825,-31.216797
1433892530.841,-32.281097
1433892530.856,-33.202637
1433892530.872,-34.275818
1433892530.888,-35.545326
1433892530.903,-36.8368
1433892530.919,-37.96119
1433892530.935,-38.762093
1433892530.95,-39.134697
1433892530.966,-38.913094
1433892530.981,-37.87024
1433892530.997,-35.7416
1433892531.013,-32.468605
1433892531.028,-28.274895
1433892531.044,-23.709305
1433892531.06,-19.420135
1433892531.075,-15.863533
1433892531.091,-13.120331
1433892531.106,-10.891129
1433892531.122,-8.745644
1433892531.138,-6.390938
1433892531.153,-3.8358536
1433892531.169,-1.3482819
1433892531.185,0.756649
1433892531.2,2.282692
1433892531.216,3.2618027
1433892531.231,3.80336
1433892531.247,4.0591965
1433892531.263,4.0612946
1433892531.278,3.87883
1433892531.294,3.6137543
1433892531.31,3.5285301
1433892531.325,3.8615685
1433892531.341,4.716526
1433892531.356,5.9738846
1433892531.372,7.301735
1433892531.388,8.32386
1433892531.403,8.80291
1433892531.419,8.666626
1433892531.435,8.011967
1433892531.45,6.9387703
1433892531.466,5.5496445
1433892531.481,3.9136906
1433892531.497,2.1784763
1433892531.513,0.53061104
1433892531.528,-0.8083935
1433892531.544,-1.7814903
1433892531.56,-2.5005665
1433892531.575,-3.2017994
1433892531.591,-4.041641
1433892531.606,-4.934904
1433892531.622,-5.545369
1433892531.638,-5.380537
1433892531.653,-4.015958
1433892531.669,-1.3327188
1433892531.685,2.4741116
1433892531.7,6.929015
1433892531.716,11.438936
1433892531.731,15.4355345
1433892531.747,18.514736
1433892531.763,20.469751
1433892531.778,21.34548
1433892531.794,21.388077
1433892531.81,21.012777
1433892531.825,20.681288
1433892531.841,20.766882
1433892531.856,21.445034
1433892531.872,22.69405
1433892531.888,24.290207
1433892531.903,25.956535
1433892531.919,27.458921
1433892531.935,28.690819
1433892531.95,29.550152
1433892531.966,29.918867
1433892531.981,29.54874
1433892531.997,28.13848
1433892532.013,25.435764
1433892532.028,21.426275
1433892532.044,16.403093
1433892532.06,10.916479
1433892532.075,5.616226
1433892532.091,1.028367
1433892532.106,-2.577652
1433892532.122,-5.218169
1433892532.138,-7.141817
1433892532.153,-8.687358
1433892532.169,-10.221141
1433892532.185,-12.025446
1433892532.2,-14.316682
1433892532.216,-17.205479
1433892532.231,-20.645184
1433892532.247,-24.451647
1433892532.263,-28.305975
1433892532.278,-31.81578
1433892532.294,-34.622574
1433892532.31,-36.514404
1433892532.325,-37.493633
1433892532.341,-37.729313
1433892532.356,-37.51848
1433892532.372,-37.076393
1433892532.388,-36.512665
1433892532.403,-35.759438
1433892532.419,-34.667374
1433892532.435,-33.077534
1433892532.45,-30.890472
1433892532.466,-28.039696
1433892532.481,-24.521173
1433892532.497,-20.385141
1433892532.513,-15.795132
1433892532.528,-11.09256
1433892532.544,-6.718376
1433892532.56,-3.0781364
1433892532.575,-0.37971497
1433892532.591,1.4655457
1433892532.606,2.768097
1433892532.622,3.9139214
1433892532.638,5.1610794
1433892532.653,6.597248
1433892532.669,8.129395
1433892532.685,9.671314
1433892532.7,11.138248
1433892532.716,12.475323
1433892532.731,13.596558
1433892532.747,14.387661
1433892532.763,14.723156
1433892532.778,14.61525
1433892532.794,14.258278
1433892532.81,13.969376
1433892532.825,14.044731
1433892532.841,14.598267
1433892532.856,15.468277
1433892532.872,16.267784
1433892532.888,16.53511
1433892532.903,15.916306
1433892532.919,14.270996
1433892532.935,11.774803
1433892532.95,8.790161
1433892532.966,5.8020554
1433892532.982,3.2241898
1433892532.997,1.3062973
1433892533.013,0.053001404
1433892533.028,-0.67123413
1433892533.044,-1.0796738
1433892533.06,-1.2834244
1433892533.075,-1.2646332
1433892533.091,-0.86860657
1433892533.107,0.049217224
1433892533.122,1.5340958
1433892533.138,3.4457016
1433892533.153,5.49559
1433892533.169,7.3540344
1433892533.185,8.765335
1433892533.2,9.629471
1433892533.216,10.003471
1433892533.232,10.031631
1433892533.247,9.908829
1433892533.263,9.8304825
1433892533.278,9.937065
1433892533.294,10.316383
1433892533.31,11.0252075
1433892533.325,12.039551
1433892533.341,13.308151
1433892533.357,14.715706
1433892533.372,16.165543
1433892533.388,17.561691
1433892533.403,18.844482
1433892533.419,19.962814
1433892533.435,20.874672
1433892533.45,21.53196
1433892533.466,21.897095
1433892533.482,21.95665
1433892533.497,21.746513
1433892533.513,21.299019
1433892533.528,20.65429
1433892533.544,19.800453
1433892533.56,18.692665
1433892533.575,17.272736
1433892533.591,15.474571
1433892533.607,13.223938
1433892533.622,10.41748
1433892533.638,6.9395294
1433892533.653,2.6940231
1433892533.669,-2.3259048
1433892533.685,-7.95018
1433892533.7,-13.853111
1433892533.716,-19.587822
1433892533.732,-24.727684
1433892533.747,-28.96762
1433892533.763,-32.21409
1433892533.778,-34.596893
1433892533.794,-36.457054
1433892533.81,-38.15313
1433892533.825,-39.995934
1433892533.841,-42.066826
1433892533.857,-44.160034
1433892533.872,-45.872437
1433892533.888,-46.785812
1433892533.903,-46.611298
1433892533.919,-45.263763
1433892533.935,-42.874527
1433892533.95,-39.693604
1433892533.966,-35.975464
1433892533.982,-32.003296
1433892533.997,-28.031815
1433892534.013,-24.312714
1433892534.028,-20.996063
1433892534.044,-18.063248
1433892534.06,-15.26532
1433892534.075,-12.183273
1433892534.091,-8.387299
1433892534.107,-3.6303406
1433892534.122,2.0206604
1433892534.138,8.184708
1433892534.153,14.339355
1433892534.169,19.997925
1433892534.185,24.832047
1433892534.2,28.706467
1433892534.216,31.601135
1433892534.232,33.489746
1433892534.247,34.368896
1433892534.263,34.21945
1433892534.278,33.169098
1433892534.294,31.5009
1433892534.31,29.692871
1433892534.325,28.264969
1433892534.341,27.705643
1433892534.357,28.290344
1433892534.372,30.022003
1433892534.388,32.582504
1433892534.403,35.367218
1433892534.419,37.59703
1433892534.435,38.468292
1433892534.45,37.39589
1433892534.466,34.242065
1433892534.482,29.297638
1433892534.497,23.302353
1433892534.513,17.009827
1433892534.528,11.014923
1433892534.544,5.593506
1433892534.56,0.7866974
1433892534.575,-3.3809814
1433892534.591,-6.70874
1433892534.607,-8.823273
1433892534.622,-9.3423
1433892534.638,-8.212723
1433892534.653,-5.944763
1433892534.669,-3.539383
1433892534.685,-2.1893768
1433892534.7,-2.7906036
1433892534.716,-5.4226685
1433892534.732,-9.2939
1433892534.747,-12.923126
1433892534.763,-14.845779
1433892534.778,-14.186615
1433892534.794,-11.093414
1433892534.81,-6.6587677
1433892534.825,-2.5271149
1433892534.841,-0.19940186
1433892534.857,-0.49501038
1433892534.872,-3.3793488
1433892534.888,-8.095123
1433892534.903,-13.576782
1433892534.919,-18.796661
1433892534.935,-23.019135
1433892534.95,-25.807983
1433892534.966,-27.050552
1433892534.982,-26.910934
1433892534.997,-25.685242
1433892535.013,-23.800522
1433892535.028,-21.652649
1433892535.044,-19.46576
1433892535.06,-17.242996
1433892535.075,-14.91243
1433892535.091,-12.415405
1433892535.107,-10.0061035
1433892535.122,-8.187912
1433892535.138,-7.589508
1433892535.153,-8.570175
1433892535.169,-10.996094
1433892535.185,-14.185013
1433892535.2,-17.08545
1433892535.216,-18.652573
1433892535.232,-18.225784
1433892535.247,-15.718994
1433892535.263,-11.712555
1433892535.278,-7.228134
1433892535.294,-3.4370575
1433892535.31,-1.1690979
1433892535.325,-0.7435913
1433892535.341,-1.7499084
1433892535.357,-3.2650604
1433892535.372,-4.166519
1433892535.388,-3.4864044
1433892535.403,-0.81877136
1433892535.419,3.6041718
1433892535.435,9.099319
1433892535.45,14.864746
1433892535.466,20.273438
1433892535.482,24.963654
1433892535.497,28.78009
1433892535.513,31.495697
1433892535.528,32.71753
1433892535.544,31.80899
1433892535.56,28.275696
1433892535.575,21.917847
1433892535.591,13.286987
1433892535.607,3.6894836
1433892535.622,-4.950287
1433892535.638,-10.763397
1433892535.654,-12.630829
1433892535.669,-10.686249
1433892535.685,-6.2836
1433892535.7,-1.4929199
1433892535.716,1.8529358
1433892535.732,2.8118286
1433892535.747,1.7151794
1433892535.763,-0.10803223
1433892535.779,-1.0052185
1433892535.794,0.07589722
1433892535.81,3.2470703
1433892535.825,7.5397644
1433892535.841,11.496368
1433892535.857,13.664581
1433892535.872,13.178894
1433892535.888,9.984619
1433892535.904,4.6920166
1433892535.919,-1.6005859
1433892535.935,-7.570587
1433892535.95,-11.95874
1433892535.966,-13.841309
1433892535.982,-12.93689
1433892535.997,-9.611084
1433892536.013,-4.7946777
1433892536.029,0.4711914
1433892536.044,5.187134
1433892536.06,8.83606
1433892536.075,11.271393
1433892536.091,12.657806
1433892536.107,13.194366
1433892536.122,13.024689
1433892536.138,12.206665
1433892536.154,10.751984
1433892536.169,8.611938
1433892536.185,5.8517456
1433892536.2,2.5606995
1433892536.216,-0.9906311
1433892536.232,-4.4009094
1433892536.247,-7.1207886
1433892536.263,-8.781433
1433892536.279,-9.319214
1433892536.294,-9.1901245
1433892536.31,-9.106934
1433892536.325,-9.691956
1433892536.341,-11.046539
1433892536.357,-12.857422
1433892536.372,-14.521332
1433892536.388,-15.650055
1433892536.404,-16.213745
1433892536.419,-16.479736
1433892536.435,-16.639435
1433892536.45,-16.6445
1433892536.466,-16.27945
1433892536.482,-15.515198
1433892536.497,-14.666962
1433892536.513,-14.383942
1433892536.529,-15.151459
1433892536.544,-16.965027
1433892536.56,-19.081848
1433892536.575,-20.348053
1433892536.591,-19.788239
1433892536.607,-17.175201
1433892536.622,-13.187775
1433892536.638,-9.070587
1433892536.654,-5.9012146
1433892536.669,-4.2249146
1433892536.685,-3.773407
1433892536.7,-3.7846985
1433892536.716,-3.4239502
1433892536.732,-2.21109
1433892536.747,0.012664795
1433892536.763,3.133789
1433892536.779,7.1266785
1433892536.794,12.124207
1433892536.81,18.323883
1433892536.825,25.74173
1433892536.841,34.10962
1433892536.857,42.727905
1433892536.872,50.731934
1433892536.888,57.338562
1433892536.904,62.06595
1433892536.919,64.785645
1433892536.935,65.70126
1433892536.95,65.193115
1433892536.966,63.747345
1433892536.982,61.87845
1433892536.997,60.1167
1433892537.013,58.992096
1433892537.029,59.04303
1433892537.044,60.62137
1433892537.06,63.815582
1433892537.075,68.30139
1433892537.091,73.39603
1433892537.107,78.27115
1433892537.122,82.267944
1433892537.138,85.14087
1433892537.154,87.13406
1433892537.169,88.80673
1433892537.185,90.71115
1433892537.2,93.06552
1433892537.216,95.61282
1433892537.232,97.52127
1433892537.247,97.57666
1433892537.263,94.38495
1433892537.279,86.819275
1433892537.294,74.45236
1433892537.31,57.903564
1433892537.325,38.808594
1433892537.341,19.384796
1433892537.357,1.7069092
1433892537.372,-13.002563
1433892537.388,-24.67862
1433892537.404,-33.96472
1433892537.419,-41.657104
1433892537.435,-48.095947
1433892537.45,-53.030853
1433892537.466,-55.942688
1433892537.482,-56.70172
1433892537.497,-55.824707
1433892537.513,-54.53195
1433892537.529,-54.087616
1433892537.544,-55.1799
1433892537.56,-57.486816
1433892537.575,-59.928955
1433892537.591,-61.1593
1433892537.607,-60.48227
1433892537.622,-58.105865
1433892537.638,-54.97119
1433892537.654,-52.044968
1433892537.669,-49.685883
1433892537.685,-47.44751
1433892537.7,-44.528732
1433892537.716,-40.49193
1433892537.732,-35.731277
1433892537.747,-31.307297
1433892537.763,-28.275314
1433892537.779,-26.896378
1433892537.794,-26.414291
1433892537.81,-25.432068
1433892537.825,-22.819016
1433892537.841,-18.343704
1433892537.857,-12.801697
1433892537.872,-7.469864
1433892537.888,-3.5103912
1433892537.904,-1.3395691
1433892537.919,-0.6503296
1433892537.935,-0.60124207
1433892537.95,-0.31956482
1433892537.966,0.96998596
1433892537.982,3.5859222
1433892537.997,7.5967407
1433892538.013,12.697784
1433892538.029,18.41507
1433892538.044,24.112564
1433892538.06,29.140167
1433892538.075,32.769806
1433892538.091,34.555054
1433892538.107,34.15161
1433892538.122,31.609894
1433892538.138,27.321838
1433892538.154,22.1781
1433892538.169,17.250061
1433892538.185,13.628822
1433892538.2,11.88575
1433892538.216,11.856735
1433892538.232,12.556198
1433892538.247,12.692673
1433892538.263,11.232681
1433892538.279,7.8941727
1433892538.294,3.245285
1433892538.31,-1.6093063
1433892538.326,-5.6236877
1433892538.341,-8.370438
1433892538.357,-10.246582
1433892538.372,-12.139015
1433892538.388,-14.820999
1433892538.404,-18.406578
1433892538.419,-22.21595
1433892538.435,-25.00248
1433892538.45,-25.832527
1433892538.466,-24.414726
1433892538.482,-21.56208
1433892538.497,-18.612247
1433892538.513,-16.953785
1433892538.529,-17.169945
1433892538.544,-18.754997
1433892538.56,-20.22039
1433892538.576,-20.040474
1433892538.591,-17.29565
1433892538.607,-12.344276
1433892538.622,-6.499851
1433892538.638,-1.4114609
1433892538.654,1.8875656
1433892538.669,3.2613754
1433892538.685,3.454958
1433892538.701,3.473215
1433892538.716,4.015339
1433892538.732,5.15477
1433892538.747,6.59947
1433892538.763,8.094477
1433892538.779,9.61438
1433892538.794,11.229876
1433892538.81,12.761541
1433892538.826,13.528107
1433892538.841,12.586693
1433892538.857,9.122087
1433892538.872,3.099067
1433892538.888,-4.673059
1433892538.904,-12.803478
1433892538.919,-20.075958
1433892538.935,-25.838125
1433892538.951,-30.323746
1433892538.966,-34.101242
1433892538.982,-37.699104
1433892538.997,-41.166065
1433892539.013,-44.106995
1433892539.029,-45.91438
1433892539.044,-46.108673
1433892539.06,-44.19301
1433892539.076,-39.670094
1433892539.091,-31.922634
1433892539.107,-20.529308
1433892539.122,-5.661129
1433892539.138,11.505119
1433892539.154,28.853779
1433892539.169,43.711613
1433892539.185,53.637955
1433892539.201,57.051006
1433892539.216,53.715153
1433892539.232,44.599792
1433892539.247,31.574749
1433892539.263,16.926353
1433892539.279,2.91296
1433892539.294,-8.679604
1433892539.31,-16.663307
1433892539.326,-20.484146
1433892539.341,-20.077164
1433892539.357,-15.721352
1433892539.372,-7.8657227
1433892539.388,2.7712479
1433892539.404,15.201118
1433892539.419,28.113205
1433892539.435,40.155373
1433892539.451,50.176506
1433892539.466,57.52527
1433892539.482,62.082626
1433892539.497,64.10344
1433892539.513,63.959923
1433892539.529,62.00936
1433892539.544,58.56684
1433892539.56,54.016533
1433892539.576,48.836792
1433892539.591,43.555756
1433892539.607,38.596832
1433892539.622,34.147964
1433892539.638,30.16986
1433892539.654,26.50673
1433892539.669,23.034454
1433892539.685,19.815384
1433892539.701,17.058334
1433892539.716,15.148666
1433892539.732,14.42865
1433892539.747,15.016922
1433892539.763,16.712936
1433892539.779,18.901459
1433892539.794,20.70459
1433892539.81,21.167664
1433892539.826,19.575058
1433892539.841,15.65036
1433892539.857,9.619125
1433892539.872,2.2040253
1433892539.888,-5.6063995
1433892539.904,-12.68927
1433892539.919,-18.09871
1433892539.935,-21.213364
1433892539.951,-21.922394
1433892539.966,-20.570313
1433892539.982,-17.864044
1433892539.997,-14.535126
1433892540.013,-11.145477
1433892540.029,-7.9157104
1433892540.044,-4.782837
1433892540.06,-1.6373901
1433892540.076,1.4259644
1433892540.091,3.9726563
1433892540.107,5.3229675
1433892540.122,4.76178
1433892540.138,1.8998718
1433892540.154,-3.2123108
1433892540.169,-10.112091
1433892540.185,-18.037872
1433892540.201,-26.253082
1433892540.216,-34.124634
1433892540.232,-41.22818
1433892540.247,-47.281494
1433892540.263,-52.137177
1433892540.279,-55.694397
1433892540.294,-57.92694
1433892540.31,-58.86618
1433892540.326,-58.614777
1433892540.341,-57.295776
1433892540.357,-55.07544
1433892540.372,-52.162903
1433892540.388,-48.825653
1433892540.404,-45.35019
1433892540.419,-42.01367
1433892540.435,-39.015686
1433892540.451,-36.449768
1433892540.466,-34.29956
1433892540.482,-32.530792
1433892540.497,-31.103485
1433892540.513,-30.024017
1433892540.529,-29.267212
1433892540.544,-28.753296
1433892540.56,-28.276611
1433892540.576,-27.591492
1433892540.591,-26.42102
1433892540.607,-24.652435
1433892540.622,-22.336487
1433892540.638,-19.737183
1433892540.654,-17.144592
1433892540.669,-14.807068
1433892540.685,-12.731659
1433892540.701,-10.756775
1433892540.716,-8.547363
1433892540.732,-5.7762756
1433892540.747,-2.2979736
1433892540.763,1.7685852
1433892540.779,6.026886
1433892540.794,9.876221
1433892540.81,12.65036
1433892540.826,13.766571
1433892540.841,12.86319
1433892540.857,9.872131
1433892540.872,5.074402
1433892540.888,-0.9769287
1433892540.904,-7.5450745
1433892540.919,-13.880676
1433892540.935,-19.33609
1433892540.951,-23.505981
1433892540.966,-26.196991
1433892540.982,-27.44049
1433892540.997,-27.419037
1433892541.013,-26.440857
1433892541.029,-24.841034
1433892541.044,-22.975677
1433892541.06,-21.123383
1433892541.076,-19.482788
1433892541.091,-18.120483
1433892541.107,-17.001282
1433892541.122,-15.998779
1433892541.138,-15.01059
1433892541.154,-13.945251
1433892541.169,-12.801727
1433892541.185,-11.611572
1433892541.201,-10.451172
1433892541.216,-9.382233
1433892541.232,-8.4305725
1433892541.248,-7.5574646
1433892541.263,-6.7122498
1433892541.279,-5.8206787
1433892541.294,-4.815216
1433892541.31,-3.6847534
1433892541.326,-2.4899902
1433892541.341,-1.3318787
1433892541.357,-0.3336792
1433892541.373,0.43737793
1433892541.388,0.95944214
1433892541.404,1.315094
1433892541.419,1.6368408
1433892541.435,2.1201477
1433892541.451,2.9391174
1433892541.466,4.2456665
1433892541.482,6.0414124
1433892541.498,8.083984
1433892541.513,9.886169
1433892541.529,10.804138
1433892541.544,10.223907
1433892541.56,7.8460693
1433892541.576,3.7705688
1433892541.591,-1.453125
1433892541.607,-7.110199
1433892541.623,-12.499512
1433892541.638,-17.205109
1433892541.654,-21.096954
1433892541.669,-24.286987
1433892541.685,-26.9281
1433892541.701,-29.125977
1433892541.716,-30.906311
1433892541.732,-32.24286
1433892541.748,-33.117126
1433892541.763,-33.554108
1433892541.779,-33.60858
1433892541.794,-33.35489
1433892541.81,-32.81909
1433892541.826,-31.994629
1433892541.841,-30.847717
1433892541.857,-29.407196
1433892541.873,-27.77716
1433892541.888,-26.247986
1433892541.904,-25.188538
1433892541.919,-24.994965
1433892541.935,-25.859314
1433892541.951,-27.681122
1433892541.966,-30.01178
1433892541.982,-32.193207
1433892541.998,-33.595245
1433892542.013,-33.827637
1433892542.029,-32.835083
1433892542.044,-30.902649
1433892542.06,-28.45111
1433892542.076,-25.928894
1433892542.091,-23.646027
1433892542.107,-21.775055
1433892542.123,-20.33014
1433892542.138,-19.18277
1433892542.154,-18.095032
1433892542.169,-16.740234
1433892542.185,-14.832001
1433892542.201,-12.184753
1433892542.216,-8.796082
1433892542.232,-4.839508
1433892542.248,-0.61672974
1433892542.263,3.517212
1433892542.279,7.175476
1433892542.294,9.975372
1433892542.31,11.633575
1433892542.326,12.019562
1433892542.341,11.340515
1433892542.357,10.033661
1433892542.373,8.684448
1433892542.388,7.697998
1433892542.404,7.1576843
1433892542.419,6.776367
1433892542.435,6.13974
1433892542.451,4.9490356
1433892542.466,3.215271
1433892542.482,1.164978
1433892542.498,-0.98236084
1433892542.513,-3.2380981
1433892542.529,-5.881592
1433892542.544,-9.23732
1433892542.56,-13.366257
1433892542.576,-17.869003
1433892542.591,-21.920547
1433892542.607,-24.585266
1433892542.623,-25.198532
1433892542.638,-23.691223
1433892542.654,-20.598175
1433892542.669,-16.86821
1433892542.685,-13.534012
1433892542.701,-11.366013
1433892542.716,-10.673965
1433892542.732,-11.31308
1433892542.748,-12.740967
1433892542.763,-14.205978
1433892542.779,-14.925522
1433892542.794,-14.309479
1433892542.81,-12.066757
1433892542.826,-8.335602
1433892542.841,-3.6081848
1433892542.857,1.4447479
1433892542.873,6.1940536
1433892542.888,10.225449
1433892542.904,13.448235
1433892542.919,15.975899
1433892542.935,18.083923
1433892542.951,20.068665
1433892542.966,22.206291
1433892542.982,24.762589
1433892542.998,27.95913
1433892543.013,31.91468
1433892543.029,36.591396
1433892543.044,41.75329
1433892543.06,46.97076
1433892543.076,51.695244
1433892543.091,55.339756
1433892543.107,57.36716
1433892543.123,57.383854
1433892543.138,55.20649
1433892543.154,50.94841
1433892543.169,45.069298
1433892543.185,38.30919
1433892543.201,31.501667
1433892543.216,25.442831
1433892543.232,20.6419
1433892543.248,17.32269
1433892543.263,15.392318
1433892543.279,14.585756
1433892543.294,14.557486
1433892543.31,14.985224
1433892543.326,15.62414
1433892543.341,16.331991
1433892543.357,17.082748
1433892543.373,17.908707
1433892543.388,18.896996
1433892543.404,20.090015
1433892543.419,21.432644
1433892543.435,22.8102
1433892543.451,24.051033
1433892543.466,25.017044
1433892543.482,25.631466
1433892543.498,25.929428
1433892543.513,25.959053
1433892543.529,25.768436
1433892543.544,25.361805
1433892543.56,24.723892
1433892543.576,23.823013
1433892543.591,22.696548
1433892543.607,21.445686
1433892543.623,20.25853
1433892543.638,19.32779
1433892543.654,18.810745
1433892543.669,18.761414
1433892543.685,19.105316
1433892543.701,19.664581
1433892543.716,20.206284
1433892543.732,20.539528
1433892543.748,20.555557
1433892543.763,20.253777
1433892543.779,19.722725
1433892543.794,19.108856
1433892543.81,18.54927
1433892543.826,18.15158
1433892543.841,17.973434
1433892543.857,17.993423
1433892543.873,18.120026
1433892543.888,18.156746
1433892543.904,17.873413
1433892543.92,16.987854
1433892543.935,15.309853
1433892543.951,12.813927
1433892543.966,9.686195
1433892543.982,6.2819138
1433892543.998,3.0406113
1433892544.013,0.30828857
1433892544.029,-1.7439651
1433892544.045,-3.1793594
1433892544.06,-4.1658173
1433892544.076,-4.91465
1433892544.091,-5.6130447
1433892544.107,-6.3552856
1433892544.123,-7.196289
1433892544.138,-8.183769
1433892544.154,-9.356369
1433892544.17,-10.760376
1433892544.185,-12.365791
1433892544.201,-14.111877
1433892544.216,-15.838036
1433892544.232,-17.353043
1433892544.248,-18.434196
1433892544.263,-18.972328
1433892544.279,-18.95298
1433892544.295,-18.520813
1433892544.31,-17.891281
1433892544.326,-17.337593
1433892544.341,-17.036964
1433892544.357,-17.065308
1433892544.373,-17.373863
1433892544.388,-17.836784
1433892544.404,-18.292542
1433892544.42,-18.597511
1433892544.435,-18.647095
1433892544.451,-18.421448
1433892544.466,-18.041985
1433892544.482,-17.763863
1433892544.498,-17.82631
1433892544.513,-18.306236
1433892544.529,-18.935905
1433892544.545,-19.23008
1433892544.56,-18.76342
1433892544.576,-17.542816
1433892544.591,-16.156792
1433892544.607,-15.583893
1433892544.623,-16.692192
1433892544.638,-19.74997
1433892544.654,-24.297707
1433892544.67,-29.36451
1433892544.685,-34.08184
1433892544.701,-38.174316
1433892544.716,-42.04338
1433892544.732,-46.42543
1433892544.748,-51.841736
1433892544.763,-58.282166
1433892544.779,-65.15442
1433892544.795,-71.747986
1433892544.81,-77.555756
1433892544.826,-82.43677
1433892544.841,-86.408554
1433892544.857,-89.31796
1433892544.873,-90.67677
1433892544.888,-89.922806
1433892544.904,-86.87549
1433892544.92,-82.1772
1433892544.935,-77.227036
1433892544.951,-73.63286
1433892544.966,-72.46648
1433892544.982,-73.859375
1433892544.998,-77.08052
1433892545.013,-81.16261
1433892545.029,-85.48427
1433892545.045,-89.988495
1433892545.06,-94.84604
1433892545.076,-99.95047
1433892545.091,-104.5289
1433892545.107,-107.39154
1433892545.123,-107.328735
1433892545.138,-103.74588
1433892545.154,-96.780914
1433892545.17,-87.19156
1433892545.185,-75.92026
1433892545.201,-63.742706
1433892545.216,-51.130463
1433892545.232,-38.2359
1433892545.248,-24.907074
1433892545.263,-10.835632
1433892545.279,4.3946533
1433892545.295,21.060577
1433892545.31,39.081787
1433892545.326,57.89334
1433892545.341,76.482666
1433892545.357,93.62262
1433892545.373,108.133606
1433892545.388,119.05521
1433892545.404,125.72302
1433892545.42,127.794495
1433892545.435,125.29559
1433892545.451,118.611694
1433892545.466,108.56946
1433892545.482,96.316345
1433892545.498,83.151794
1433892545.513,70.32611
1433892545.529,58.885925
1433892545.545,49.541687
1433892545.56,42.61371
1433892545.576,38.009827
1433892545.591,35.297546
1433892545.607,33.862732
1433892545.623,33.226135
1433892545.638,33.155457
1433892545.654,33.849976
1433892545.67,35.81244
1433892545.685,39.61261
1433892545.701,45.542847
1433892545.716,53.351196
1433892545.732,62.240906
1433892545.748,71.115234
1433892545.763,78.92621
1433892545.779,85.078064
1433892545.795,89.51196
1433892545.81,92.747375
1433892545.826,95.67828
1433892545.841,99.41235
1433892545.857,105.242065
1433892545.873,114.4444
1433892545.888,127.80444
1433892545.904,145.01697
1433892545.92,164.15381
1433892545.935,181.88336
1433892545.951,194.52087
1433892545.966,199.38391
1433892545.982,196.07611
1433892545.998,186.51654
1433892546.013,173.98969
1433892546.029,161.69043
1433892546.045,151.52893
1433892546.06,143.6626
1433892546.076,136.8081
1433892546.091,128.9668
1433892546.107,118.10687
1433892546.123,102.84381
1433892546.138,82.73767
1433892546.154,58.45111
1433892546.17,31.650452
1433892546.185,4.6428223
1433892546.201,-20.258179
1433892546.216,-41.30426
1433892546.232,-57.721313
1433892546.248,-69.627686
1433892546.263,-77.7561
1433892546.279,-83.11572
1433892546.295,-86.98132
1433892546.31,-90.84375
1433892546.326,-96.31726
1433892546.341,-104.64197
1433892546.357,-115.99634
1433892546.373,-129.13953
1433892546.388,-141.66534
1433892546.404,-150.88196
1433892546.42,-154.77936
1433892546.435,-152.72345
1433892546.451,-145.43658
1433892546.466,-134.50696
1433892546.482,-121.479614
1433892546.498,-107.210144
1433892546.513,-91.64697
1433892546.529,-74.17828
1433892546.545,-54.352722
1433892546.56,-32.531067
1433892546.576,-10.206116
1433892546.592,10.404968
1433892546.607,27.026123
1433892546.623,38.21588
1433892546.638,43.773315
1433892546.654,44.84259
1433892546.67,43.470764
1433892546.685,42.009033
1433892546.701,42.551575
1433892546.717,46.328125
1433892546.732,53.087036
1433892546.748,60.72888
1433892546.763,65.57245
1433892546.779,63.44525
1433892546.795,51.40796
1433892546.81,29.303894
1433892546.826,0.2720337
1433892546.842,-30.274231
1433892546.857,-56.76349
1433892546.873,-75.59607
1433892546.888,-86.256165
1433892546.904,-90.7652
1433892546.92,-92.14337
1433892546.935,-92.7417
1433892546.951,-93.51105
1433892546.967,-94.33472
1433892546.982,-94.91565
1433892546.998,-95.42993
1433892547.013,-96.342285
1433892547.029,-97.81598
1433892547.045,-99.118286
1433892547.06,-98.930786
1433892547.076,-96.25867
1433892547.092,-91.24005
1433892547.107,-85.10358
1433892547.123,-79.072205
1433892547.138,-72.91754
1433892547.154,-63.714844
1433892547.17,-46.34308
1433892547.185,-15.394714
1433892547.201,32.08423
1433892547.217,94.59064
1433892547.232,165.85162
1433892547.248,236.54736
1433892547.263,297.20142
1433892547.279,340.97473
1433892547.295,365.27136
1433892547.31,371.81946
1433892547.326,365.6131
1433892547.342,353.3172
1433892547.357,341.74615
1433892547.373,336.61694
1433892547.388,341.3753
1433892547.404,356.33368
1433892547.42,378.34265
1433892547.435,401.24878
1433892547.451,417.28015
1433892547.467,419.0735
1433892547.482,401.56662
1433892547.498,363.18832
1433892547.513,305.74567
1433892547.529,233.48221
1433892547.545,151.91107
1433892547.56,67.119385
1433892547.576,-14.595215
1433892547.592,-86.812195
1433892547.607,-143.60419
1433892547.623,-180.70377
1433892547.638,-197.03473
1433892547.654,-195.41498
1433892547.67,-182.03027
1433892547.685,-164.4277
1433892547.701,-149.09232
1433892547.717,-139.60672
1433892547.732,-136.35059
1433892547.748,-137.49353
1433892547.763,-140.73734
1433892547.779,-144.50427
1433892547.795,-148.32817
1433892547.81,-152.2508
1433892547.826,-156.16399
1433892547.842,-159.51563
1433892547.857,-161.7121
1433892547.873,-162.5696
1433892547.888,-162.56718
1433892547.904,-162.43742
1433892547.92,-162.49438
1433892547.935,-162.2424
1433892547.951,-160.57216
1433892547.967,-156.47716
1433892547.982,-149.85728
1433892547.998,-141.68007
1433892548.013,-133.58945
1433892548.029,-126.972885
1433892548.045,-122.36786
1433892548.06,-119.29782
1433892548.076,-116.70296
1433892548.092,-113.52022
1433892548.107,-109.08623
1433892548.123,-103.110146
1433892548.138,-95.613884
1433892548.154,-86.80292
1433892548.17,-77.194336
1433892548.185,-67.623665
1433892548.201,-59.098152
1433892548.217,-52.420906
1433892548.232,-47.806435
1433892548.248,-44.719078
1433892548.263,-42.05275
1433892548.279,-38.598564
1433892548.295,-33.554367
1433892548.31,-26.793518
1433892548.326,-18.854836
1433892548.342,-10.620384
1433892548.357,-3.0462418
1433892548.373,3.2894974
1433892548.388,8.193237
1433892548.404,11.829422
1433892548.42,14.4270935
1433892548.435,16.14853
1433892548.451,16.87857
1433892548.467,16.335281
1433892548.482,14.1319275
1433892548.498,10.133423
1433892548.513,4.4480743
1433892548.529,-2.4743347
1433892548.545,-9.913101
1433892548.56,-16.869186
1433892548.576,-22.264786
1433892548.592,-25.159256
1433892548.607,-25.1445
1433892548.623,-22.503845
1433892548.638,-18.136566
1433892548.654,-13.14653
1433892548.67,-8.3647
1433892548.685,-4.1822968
1433892548.701,-0.7275238
1433892548.717,1.7253113
1433892548.732,2.6257935
1433892548.748,1.385376
1433892548.763,-2.026764
1433892548.779,-6.631012
1433892548.795,-10.652451
1433892548.81,-12.231796
1433892548.826,-10.400635
1433892548.842,-5.570709
1433892548.857,0.6128998
1433892548.873,6.2424774
1433892548.888,10.044586
1433892548.904,11.941544
1433892548.92,12.730667
1433892548.935,13.496811
1433892548.951,15.018951
1433892548.967,17.524506
1433892548.982,20.711227
1433892548.998,24.132843
1433892549.013,27.401474
1433892549.029,30.273956
1433892549.045,32.498535
1433892549.06,33.84259
1433892549.076,33.92354
1433892549.092,32.384277
1433892549.107,28.991241
1433892549.123,23.932129
1433892549.138,17.868912
1433892549.154,11.788559
1433892549.17,6.669754
1433892549.185,3.0844116
1433892549.201,1.0982208
1433892549.217,0.32008362
1433892549.232,0.2976532
1433892549.248,0.76290894
1433892549.264,1.6650085
1433892549.279,3.0343323
1433892549.295,4.7145844
1433892549.31,6.2881927
1433892549.326,7.20459
1433892549.342,7.1111755
1433892549.357,5.937378
1433892549.373,4.054199
1433892549.388,1.9888458
1433892549.404,0.12945557
1433892549.42,-1.3462982
1433892549.435,-2.5139313
1433892549.451,-3.6264648
1433892549.467,-4.997406
1433892549.482,-6.8898163
1433892549.498,-9.361618
1433892549.514,-12.204193
1433892549.529,-14.766434
1433892549.545,-16.378021
1433892549.56,-16.573212
1433892549.576,-15.456421
1433892549.592,-13.667786
1433892549.607,-12.077988
1433892549.623,-11.268173
1433892549.639,-11.262344
1433892549.654,-11.488434
1433892549.67,-11.148148
1433892549.685,-9.713882
1433892549.701,-7.1597595
1433892549.717,-3.9542084
1433892549.732,-0.8118439
1433892549.748,1.5824738
1433892549.764,2.6582642
1433892549.779,1.9543152
1433892549.795,-0.88308716
1433892549.81,-5.8988495
1433892549.826,-12.743622
1433892549.842,-20.478165
1433892549.857,-27.919724
1433892549.873,-33.922516
1433892549.889,-37.83455
1433892549.904,-39.59546
1433892549.92,-39.538162
1433892549.935,-38.10173
1433892549.951,-35.760773
1433892549.967,-32.98401
1433892549.982,-30.250519
1433892549.998,-27.954086
1433892550.014,-26.215607
1433892550.029,-24.628174
1433892550.045,-22.397446
1433892550.06,-18.71437
1433892550.076,-13.427429
1433892550.092,-7.3372803
1433892550.107,-2.0225983
1433892550.123,0.9506531
1433892550.139,0.73172
1433892550.154,-2.3070068
1433892550.17,-6.737381
1433892550.185,-10.754135
1433892550.201,-12.838989
1433892550.217,-12.211456
1433892550.232,-8.931763
1433892550.248,-3.6847382
1433892550.264,2.455902
1433892550.279,8.252747
1433892550.295,12.576355
1433892550.31,14.762726
1433892550.326,14.754349
1433892550.342,13.0793
1433892550.357,10.633926
1433892550.373,8.358002
1433892550.389,6.775406
1433892550.404,5.8861084
1433892550.42,5.1339417
1433892550.435,3.761795
1433892550.451,1.1240845
1433892550.467,-3.0369873
1433892550.482,-8.380646
1433892550.498,-14.079102
1433892550.514,-19.071182
1433892550.529,-22.48111
1433892550.545,-24.005722
1433892550.56,-23.833038
1433892550.576,-22.480515
1433892550.592,-20.427292
1433892550.607,-17.834503
1433892550.623,-14.48645
1433892550.639,-10.292221
1433892550.654,-5.531067
1433892550.67,-1.055481
1433892550.685,1.9340363
1433892550.701,2.3133698
1433892550.717,-0.33398438
1433892550.732,-5.618973
1433892550.748,-12.341385
1433892550.764,-18.934525
1433892550.779,-23.968811
1433892550.795,-26.588425
1433892550.81,-26.786972
1433892550.826,-25.231216
1433892550.842,-22.967407
1433892550.857,-20.969025
1433892550.873,-19.642761
1433892550.889,-18.9628
1433892550.904,-18.316284
1433892550.92,-17.002274
1433892550.935,-14.257141
1433892550.951,-9.481415
1433892550.967,-2.3552094
1433892550.982,6.996933
1433892550.998,17.833984
1433892551.014,28.697495
1433892551.029,37.67206
1433892551.045,42.827744
1433892551.06,42.989
1433892551.076,38.181793
1433892551.092,29.705673
1433892551.107,19.623672
1433892551.123,10.093918
1433892551.139,2.5319061
1433892551.154,-2.5768738
1433892551.17,-5.5527344
1433892551.185,-7.0331116
1433892551.201,-7.7167664
1433892551.217,-7.943985
1433892551.232,-7.8747253
1433892551.248,-7.533478
1433892551.264,-7.0131836
1433892551.279,-6.4297028
1433892551.295,-5.79158
1433892551.31,-4.9237747
1433892551.326,-3.5100632
1433892551.342,-1.2796249
1433892551.357,1.7617416
1433892551.373,5.319832
1433892551.389,8.82299
1433892551.404,11.81562
1433892551.42,14.05571
1433892551.435,15.637375
1433892551.451,16.803848
1433892551.467,17.758232
1433892551.482,18.523369
1433892551.498,19.090378
1433892551.514,19.563942
1433892551.529,20.2919
1433892551.545,21.805496
1433892551.56,24.573975
1433892551.576,28.684906
1433892551.592,33.703804
1433892551.607,38.74077
1433892551.623,42.80111
1433892551.639,45.05844
1433892551.654,45.12452
1433892551.67,43.097466
1433892551.685,39.49475
1433892551.701,35.037987
1433892551.717,30.5756
1433892551.732,26.803604
1433892551.748,24.20272
1433892551.764,22.765717
1433892551.779,22.065536
1433892551.795,21.349716
1433892551.81,19.887146
1433892551.826,17.336754
1433892551.842,13.89109
1433892551.857,10.249855
1433892551.873,7.1841507
1433892551.889,5.1080017
1433892551.904,3.9285355
1433892551.92,3.1923523
1433892551.935,2.367569
1433892551.951,1.0913696
1433892551.967,-0.7494049
1433892551.982,-3.1577911
1433892551.998,-5.9980927
1433892552.014,-9.006767
1433892552.029,-11.619385
1433892552.045,-13.17746
1433892552.06,-13.000473
1433892552.076,-10.870071
1433892552.092,-7.2117233
1433892552.107,-3.1004715
1433892552.123,0.14064789
1433892552.139,1.5362015
1433892552.154,0.91716766
1433892552.17,-0.9779434
1433892552.186,-2.9035416
1433892552.201,-3.6141129
1433892552.217,-2.4945145
1433892552.232,0.1681366
1433892552.248,3.47995
1433892552.264,6.174408
1433892552.279,7.311943
1433892552.295,6.6184998
1433892552.311,4.5279617
1433892552.326,1.7997055
1433892552.342,-0.8612366
1433892552.357,-3.3584595
1433892552.373,-6.020813
1433892552.389,-9.371155
1433892552.404,-13.655853
1433892552.42,-18.596283
1433892552.436,-23.434387
1433892552.451,-27.187012
1433892552.467,-29.032516
1433892552.482,-28.658096
1433892552.498,-26.324432
1433892552.514,-22.784454
1433892552.529,-18.832626
1433892552.545,-15.194778
1433892552.561,-12.215775
1433892552.576,-9.952545
1433892552.592,-8.262711
1433892552.607,-7.0106964
1433892552.623,-6.132965
1433892552.639,-5.5958405
1433892552.654,-5.2716675
1433892552.67,-4.8506775
1433892552.686,-3.8878174
1433892552.701,-1.9840088
1433892552.717,1.0366058
1433892552.732,4.9045563
1433892552.748,9.113098
1433892552.764,13.002609
1433892552.779,16.038452
1433892552.795,17.857468
1433892552.811,18.242004
1433892552.826,17.06398
1433892552.842,14.518936
1433892552.857,11.120605
1433892552.873,7.6345825
1433892552.889,4.752655
1433892552.904,2.7411041
1433892552.92,1.1894989
1433892552.936,-0.7866974
1433892552.951,-3.9908752
1433892552.967,-8.609497
1433892552.982,-13.941681
1433892552.998,-18.70018
1433892553.014,-21.69667
1433892553.029,-22.446365
1433892553.045,-21.390625
1433892553.061,-19.530502
1433892553.076,-17.839264
1433892553.092,-16.705017
1433892553.107,-15.885345
1433892553.123,-14.818954
1433892553.139,-13.116852
1433892553.154,-10.828827
1433892553.17,-8.440384
1433892553.186,-6.589691
1433892553.201,-5.742447
1433892553.217,-5.902359
1433892553.232,-6.6347046
1433892553.248,-7.1749115
1433892553.264,-6.7952576
1433892553.279,-5.077011
1433892553.295,-2.0790558
1433892553.311,1.7652283
1433892553.326,5.8253326
1433892553.342,9.631302
1433892553.357,12.99472
1433892553.373,15.985046
1433892553.389,18.689438
1433892553.404,20.972473
1433892553.42,22.423843
1433892553.436,22.525146
1433892553.451,20.893356
1433892553.467,17.471527
1433892553.482,12.55426
1433892553.498,6.6705627
1433892553.514,0.3955078
1433892553.529,-5.7088013
1433892553.545,-11.167389
1433892553.561,-15.5056
1433892553.576,-18.320938
1433892553.592,-19.364502
1433892553.607,-18.685287
1433892553.623,-16.59697
1433892553.639,-13.627228
1433892553.654,-10.325043
1433892553.67,-7.167557
1433892553.686,-4.4036407
1433892553.701,-2.2220612
1433892553.717,-0.64759827
1433892553.732,0.42170715
1433892553.748,1.3013611
1433892553.764,2.4651794
1433892553.779,4.3905487
1433892553.795,7.1456757
1433892553.811,10.455215
1433892553.826,13.606522
1433892553.842,15.964523
1433892553.857,17.33342
1433892553.873,18.2128
1433892553.889,19.512665
1433892553.904,22.028168
1433892553.92,25.896149
1433892553.936,30.325592
1433892553.951,33.83766
1433892553.967,34.88707
1433892553.982,32.521286
1433892553.998,26.847275
1433892554.014,18.950806
1433892554.029,10.506744
1433892554.045,3.044342
1433892554.061,-2.528183
1433892554.076,-6.0928497
1433892554.092,-8.0985565
1433892554.107,-9.1754
1433892554.123,-9.659637
1433892554.139,-9.537125
1433892554.154,-8.547775
1433892554.17,-6.778763
1433892554.186,-4.8125153
1433892554.201,-3.7210693
1433892554.217,-4.5272675
1433892554.232,-7.6436005
1433892554.248,-12.435135
1433892554.264,-17.391129
1433892554.279,-20.700256
1433892554.295,-21.202911
1433892554.311,-18.829086
1433892554.326,-14.754395
1433892554.342,-10.682312
1433892554.357,-8.14183
1433892554.373,-7.6551514
1433892554.389,-8.631393
1433892554.404,-9.7608795
1433892554.42,-9.715668
1433892554.436,-7.7326965
1433892554.451,-3.860077
1433892554.467,1.3240814
1433892554.482,6.9596252
1433892554.498,12.250824
1433892554.514,16.526611
1433892554.529,19.250977
1433892554.545,19.945328
1433892554.561,18.488571
1433892554.576,15.171936
1433892554.592,10.883789
1433892554.607,6.6780243
1433892554.623,3.4499664
1433892554.639,1.4186401
1433892554.654,0.26687622
1433892554.67,-0.6054535
1433892554.686,-1.5733032
1433892554.701,-2.5175323
1433892554.717,-2.9450378
1433892554.732,-2.3476868
1433892554.748,-0.5918579
1433892554.764,1.8455048
1433892554.779,4.093384
1433892554.795,5.1967773
1433892554.811,4.6002655
1433892554.826,2.1779175
1433892554.842,-1.5901642
1433892554.858,-6.049469
1433892554.873,-10.619522
1433892554.889,-15.049133
1433892554.904,-19.389633
1433892554.92,-23.692413
1433892554.936,-27.74617
1433892554.951,-30.988373
1433892554.967,-32.58374
1433892554.983,-31.866104
1433892554.998,-28.73668
1433892555.014,-23.772476
1433892555.029,-18.055862
1433892555.045,-12.848663
1433892555.061,-9.007263
1433892555.076,-6.8742065
1433892555.092,-6.2169952
1433892555.108,-6.575577
1433892555.123,-7.3802032
1433892555.139,-8.276825
1433892555.154,-9.081223
1433892555.17,-9.737579
1433892555.186,-10.26738
1433892555.201,-10.608948
1433892555.217,-10.65329
1433892555.233,-10.283112
1433892555.248,-9.45517
1433892555.264,-8.317612
1433892555.279,-7.2035675
1433892555.295,-6.592804
1433892555.311,-6.8059845
1433892555.326,-7.9853363
1433892555.342,-9.981918
1433892555.358,-12.496948
1433892555.373,-15.218803
1433892555.389,-18.016502
1433892555.404,-20.909134
1433892555.42,-24.026009
1433892555.436,-27.474388
1433892555.451,-31.236382
1433892555.467,-35.170456
1433892555.483,-39.03907
1433892555.498,-42.556007
1433892555.514,-45.51712
1433892555.529,-47.827576
1433892555.545,-49.56807
1433892555.561,-51.06241
1433892555.576,-52.82572
1433892555.592,-55.529465
1433892555.608,-59.888355
1433892555.623,-66.503136
1433892555.639,-75.67517
1433892555.654,-87.27324
1433892555.67,-100.71292
1433892555.686,-114.94941
1433892555.701,-128.77454
1433892555.717,-141.10542
1433892555.733,-151.31213
1433892555.748,-159.3798
1433892555.764,-165.87009
1433892555.779,-171.44533
1433892555.795,-176.51944
1433892555.811,-180.92508
1433892555.826,-183.83595
1433892555.842,-184.0679
1433892555.858,-180.45544
1433892555.873,-172.20633
1433892555.889,-159.16649
1433892555.904,-141.85466
1433892555.92,-121.45685
1433892555.936,-99.72366
1433892555.951,-78.70387
1433892555.967,-60.181885
1433892555.983,-45.04419
1433892555.998,-32.716965
1433892556.014,-21.196167
1433892556.029,-7.68367
1433892556.045,10.283386
1433892556.061,33.814423
1433892556.076,62.230957
1433892556.092,93.38553
1433892556.108,124.555176
1433892556.123,153.26083
1433892556.139,177.86404
1433892556.154,197.5654
1433892556.17,212.0683
1433892556.186,221.3565
1433892556.201,225.3941
1433892556.217,224.27231
1433892556.233,218.22986
1433892556.248,207.88394
1433892556.264,194.0954
1433892556.279,178.10797
1433892556.295,161.3201
1433892556.311,145.11365
1433892556.326,130.49219
1433892556.342,117.88403
1433892556.358,107.14664
1433892556.373,97.77783
1433892556.389,89.323
1433892556.404,81.65192
1433892556.42,74.90729
1433892556.436,69.3255
1433892556.451,64.934204
1433892556.467,61.45404
1433892556.483,58.491272
1433892556.498,55.90277
1433892556.514,54.006958
1433892556.529,53.597168
1433892556.545,55.53076
1433892556.561,60.22412
1433892556.576,67.279236
1433892556.592,75.557434
1433892556.608,83.59973
1433892556.623,90.16193
1433892556.639,94.5766
1433892556.654,96.716675
1433892556.67,96.817444
1433892556.686,95.27814
1433892556.701,92.643555
1433892556.717,89.58295
1433892556.733,86.81323
1433892556.748,84.720764
1433892556.764,83.10571
1433892556.779,81.13855
1433892556.795,77.6637
1433892556.811,71.93707
1433892556.826,64.03662
1433892556.842,54.973206
1433892556.858,46.08258
1433892556.873,38.33069
1433892556.889,31.808044
1433892556.904,25.961975
1433892556.92,20.082947
1433892556.936,13.924622
1433892556.951,7.812378
1433892556.967,2.2837524
1433892556.983,-2.3094482
1433892556.998,-6.083008
1433892557.014,-9.402405
1433892557.029,-12.515503
1433892557.045,-15.298645
1433892557.061,-17.22644
1433892557.076,-17.687683
1433892557.092,-16.265594
1433892557.108,-12.991821
1433892557.123,-8.269592
1433892557.139,-2.755005
1433892557.154,2.889923
1433892557.17,8.104858
1433892557.186,12.431824
1433892557.201,15.52887
1433892557.217,17.123474
1433892557.233,17.063538
1433892557.248,15.294983
1433892557.264,11.9809265
1433892557.279,7.431427
1433892557.295,2.064392
1433892557.311,-3.6098022
1433892557.326,-9.126221
1433892557.342,-14.059692
1433892557.358,-18.163239
1433892557.373,-21.371979
1433892557.389,-23.836487
1433892557.404,-25.8479
1433892557.42,-27.781555
1433892557.436,-29.886902
1433892557.451,-32.284515
1433892557.467,-34.839508
1433892557.483,-37.29547
1433892557.498,-39.293854
1433892557.514,-40.61212
1433892557.53,-41.19159
1433892557.545,-41.225586
1433892557.561,-41.07007
1433892557.576,-41.23706
1433892557.592,-42.250183
1433892557.608,-44.591644
1433892557.623,-48.444885
1433892557.639,-53.513916
1433892557.655,-58.87198
1433892557.67,-63.10858
1433892557.686,-64.81973
1433892557.701,-63.308105
1433892557.717,-58.977478
1433892557.733,-53.543365
1433892557.748,-49.556458
1433892557.764,-49.614563
1433892557.78,-55.385345
1433892557.795,-67.142395
1433892557.811,-83.65271
1433892557.826,-102.831635
1433892557.842,-122.38751
1433892557.858,-140.50876
1433892557.873,-155.92746
1433892557.889,-167.69797
1433892557.905,-174.7219
1433892557.92,-175.63086
1433892557.936,-169.0516
1433892557.951,-154.42004
1433892557.967,-132.62115
1433892557.983,-106.290344
1433892557.998,-79.09912
1433892558.014,-54.586853
1433892558.03,-34.91809
1433892558.045,-20.328735
1433892558.061,-9.547424
1433892558.076,-0.7899475
1433892558.092,7.237549
1433892558.108,14.79538
1433892558.123,21.396423
1433892558.139,26.25586
1433892558.155,28.992706
1433892558.17,29.731354
1433892558.186,29.144531
1433892558.201,28.203278
1433892558.217,27.602356
1433892558.233,27.388428
1433892558.248,27.029419
1433892558.264,25.769562
1433892558.28,23.011475
1433892558.295,18.588318
1433892558.311,12.979095
1433892558.326,7.182007
1433892558.342,2.65625
1433892558.358,0.38949585
1433892558.373,0.4085083
1433892558.389,1.8414612
1433892558.405,3.6330261
1433892558.42,5.1549377
1433892558.436,6.55896
1433892558.451,8.513489
1433892558.467,11.786194
1433892558.483,17.284729
1433892558.498,25.003723
1433892558.514,33.861816
1433892558.53,42.55774
1433892558.545,50.651062
1433892558.561,58.911926
1433892558.576,68.80994
1433892558.592,81.44446
1433892558.608,96.61102
1433892558.623,114.092896
1433892558.639,131.8136
1433892558.655,146.00415
1433892558.67,153.02228
1433892558.686,151.59656
1433892558.701,143.15912
1433892558.717,130.73352
1433892558.733,117.327515
1433892558.748,104.921326
1433892558.764,97.529785
1433892558.78,96.48328
1433892558.795,99.03406
1433892558.811,100.09827
1433892558.826,95.846375
1433892558.842,85.24701
1433892558.858,69.52887
1433892558.873,51.148987
1433892558.889,32.95691
1433892558.905,22.921936
1433892558.92,25.753235
1433892558.936,39.48413
1433892558.951,57.56189
1433892558.967,74.17511
1433892558.983,86.574646
1433892558.998,94.53827
1433892559.014,99.298584
1433892559.03,103.17767
1433892559.045,116.47955
1433892559.061,146.64484
1433892559.076,193.11816
1433892559.092,248.80261
1433892559.108,305.92227
1433892559.123,358.7988
1433892559.139,403.72174
1433892559.155,438.5472
1433892559.17,417.45605
1433892559.186,323.1317
1433892559.201,180.71371
1433892559.217,36.947083
1433892559.233,-77.74725
1433892559.248,-157.53937
1433892559.264,-209.06839
1433892559.28,-241.1189
1433892559.295,-260.61197
1433892559.311,-272.1914
1433892559.326,-271.80984
1433892559.342,-257.68478
1433892559.358,-234.68207
1433892559.373,-211.78351
1433892559.389,-195.48477
1433892559.405,-187.38846
1433892559.42,-185.60889
1433892559.436,-187.23152
1433892559.451,-189.70584
1433892559.467,-186.14388
1433892559.483,-173.23012
1433892559.498,-154.00807
1433892559.514,-135.31361
1433892559.53,-122.22293
1433892559.545,-115.90668
1433892559.561,-114.69234
1433892559.576,-116.08986
1433892559.592,-117.90665
1433892559.608,-115.5444
1433892559.623,-106.91139
1433892559.639,-94.086685
1433892559.655,-81.57957
1433892559.67,-72.98089
1433892559.686,-69.49435
1433892559.701,-70.57999
1433892559.717,-74.60851
1433892559.733,-79.242065
1433892559.748,-80.04617
1433892559.764,-73.46393
1433892559.78,-58.58291
1433892559.795,-37.302193
1433892559.811,-13.049721
1433892559.826,10.449173
1433892559.842,30.092163
1433892559.858,44.127174
1433892559.873,52.581444
1433892559.889,57.412277
1433892559.905,60.754944
1433892559.92,63.695633
1433892559.936,66.12721
1433892559.951,67.393684
1433892559.967,67.094
1433892559.983,65.42901
1433892559.998,63.15811
1433892560.014,61.21309
1433892560.03,60.277397
1433892560.045,60.444168
1433892560.061,61.298653
1433892560.076,62.06327
1433892560.092,61.924515
1433892560.108,60.28134
1433892560.123,56.942
1433892560.139,52.04709
1433892560.155,46.05886
1433892560.17,39.67978
1433892560.186,33.21199
1433892560.202,26.354599
1433892560.217,18.88277
1433892560.233,10.646904
1433892560.248,1.7632675
1433892560.264,-7.279415
1433892560.28,-15.6936035
1433892560.295,-22.72351
1433892560.311,-27.902996
1433892560.326,-31.336998
1433892560.342,-33.54372
1433892560.358,-35.220093
1433892560.373,-36.87023
1433892560.389,-38.591206
1433892560.405,-40.09415
1433892560.42,-40.969624
1433892560.436,-40.898163
1433892560.452,-39.886417
1433892560.467,-38.20294
1433892560.483,-36.217167
1433892560.498,-34.172882
1433892560.514,-32.22883
1433892560.53,-30.393372
1433892560.545,-28.627783
1433892560.561,-26.84985
1433892560.577,-25.054533
1433892560.592,-23.235111
1433892560.608,-21.45923
1433892560.623,-19.712881
1433892560.639,-17.966648
1433892560.655,-16.117968
1433892560.67,-14.065527
1433892560.686,-11.746073
1433892560.702,-9.22428
1433892560.717,-6.68396
1433892560.733,-4.360004
1433892560.748,-2.473987
1433892560.764,-1.0859065
1433892560.78,-0.06646776
1433892560.795,0.75610995
1433892560.811,1.4773116
1433892560.827,1.9207246
1433892560.842,1.8171656
1433892560.858,0.88473773
1433892560.873,-0.8945923
1433892560.889,-3.2514825
1433892560.905,-5.658334
1433892560.92,-7.6029067
1433892560.936,-8.813266
1433892560.952,-9.359135
1433892560.967,-9.544066
1433892560.983,-9.735989
1433892560.998,-10.19332
1433892561.014,-10.90454
1433892561.03,-11.675481
1433892561.045,-12.296055
1433892561.061,-12.651654
1433892561.077,-12.744695
1433892561.092,-12.642593
1433892561.108,-12.394417
1433892561.123,-11.952721
1433892561.139,-11.222096
1433892561.155,-10.154284
1433892561.17,-8.804938
1433892561.186,-7.217425
1433892561.202,-5.627825
1433892561.217,-4.226591
1433892561.233,-3.0455647
1433892561.248,-1.9602304
1433892561.264,-0.7796612
1433892561.28,0.59530926
1433892561.295,2.0689507
1433892561.311,3.4750676
1433892561.327,4.6488633
1433892561.342,5.5738263
1433892561.358,6.4056897
1433892561.373,7.3817744
1433892561.389,8.654186
1433892561.405,10.18562
1433892561.42,11.815369
1433892561.436,13.354261
1433892561.452,14.720032
1433892561.467,15.921692
1433892561.483,17.034842
1433892561.498,18.083824
1433892561.514,19.04703
1433892561.53,19.918283
1433892561.545,20.776031
1433892561.561,21.79141
1433892561.577,23.116785
1433892561.592,24.701494
1433892561.608,26.152725
1433892561.623,26.82168
1433892561.639,26.037348
1433892561.655,23.395672
1433892561.67,18.936283
1433892561.686,13.186399
1433892561.702,6.9239874
1433892561.717,0.91013694
1433892561.733,-4.3005385
1433892561.748,-8.483873
1433892561.764,-11.669029
1433892561.78,-13.998569
1433892561.795,-15.613751
1433892561.811,-16.687828
1433892561.827,-17.347187
1433892561.842,-17.747797
1433892561.858,-18.00544
1433892561.873,-18.135624
1433892561.889,-18.064777
1433892561.905,-17.66773
1433892561.92,-16.841478
1433892561.936,-15.598132
1433892561.952,-14.030646
1433892561.967,-12.343096
1433892561.983,-10.736673
1433892561.998,-9.393657
1433892562.014,-8.426912
1433892562.03,-7.8593416
1433892562.045,-7.5537424
1433892562.061,-7.3083887
1433892562.077,-6.8302574
1433892562.092,-5.8983254
1433892562.108,-4.4412365
1433892562.123,-2.6090093
1433892562.139,-0.67685795
1433892562.155,1.0676737
1433892562.17,2.4616098
1433892562.186,3.55367
1433892562.202,4.523181
1433892562.217,5.577411
1433892562.233,6.8410063
1433892562.248,8.318076
1433892562.264,9.9173355
1433892562.28,11.523578
1433892562.295,13.077116
1433892562.311,14.573568
1433892562.327,16.102058
1433892562.342,17.764513
1433892562.358,19.674774
1433892562.373,21.862293
1433892562.389,24.235271
1433892562.405,26.504993
1433892562.42,28.233704
1433892562.436,28.91182
1433892562.452,28.15018
1433892562.467,25.786985
1433892562.483,21.992876
1433892562.498,17.216927
1433892562.514,12.036787
1433892562.53,6.962019
1433892562.545,2.355404
1433892562.561,-1.6623764
1433892562.577,-5.0896187
1433892562.592,-7.997841
1433892562.608,-10.436991
1433892562.623,-12.421801
1433892562.639,-13.925632
1433892562.655,-14.925398
1433892562.67,-15.427813
1433892562.686,-15.444311
1433892562.702,-15.04081
1433892562.717,-14.335564
1433892562.733,-13.484957
1433892562.748,-12.670734
1433892562.764,-12.047737
1433892562.78,-11.712353
1433892562.795,-11.667446
1433892562.811,-11.833153
1433892562.827,-12.074848
1433892562.842,-12.237419
1433892562.858,-12.172634
1433892562.874,-11.748482
1433892562.889,-10.88525
1433892562.905,-9.559189
1433892562.92,-7.847267
1433892562.936,-5.9385757
1433892562.952,-4.0212555
1433892562.967,-2.2749634
1433892562.983,-0.73243713
1433892562.998,0.6722717
1433892563.014,2.1098747
1433892563.03,3.674389
1433892563.045,5.401882
1433892563.061,7.181473
1433892563.077,8.894398
1433892563.092,10.461521
1433892563.108,11.9501915
1433892563.124,13.534046
1433892563.139,15.47113
1433892563.155,17.984406
