1427156713.823,0.0
1427156713.839,0.0
1427156713.854,0.0
1427156713.87,0.0
1427156713.885,0.0
1427156713.901,0.0
1427156713.917,0.0
1427156713.932,0.0
1427156713.948,0.0
1427156713.964,0.0022315353
1427156713.979,-0.0045169927
1427156713.995,-0.011265522
1427156714.01,-0.011383951
1427156714.026,0.0011864507
1427156714.042,0.025910312
1427156714.057,0.050634187
1427156714.073,0.051362894
1427156714.089,-0.0014929791
1427156714.104,-0.1302426
1427156714.12,-0.35562757
1427156714.135,-0.6591247
1427156714.151,-1.0095103
1427156714.167,-1.3709826
1427156714.182,-1.7197359
1427156714.198,-2.0551105
1427156714.214,-2.39945
1427156714.229,-2.7866635
1427156714.245,-3.2399073
1427156714.26,-3.796012
1427156714.276,-4.418684
1427156714.292,-5.0592937
1427156714.307,-5.6644096
1427156714.323,-6.2021537
1427156714.339,-6.6808796
1427156714.354,-7.149598
1427156714.37,-7.6782336
1427156714.385,-8.310739
1427156714.401,-9.143657
1427156714.417,-10.089731
1427156714.432,-11.041313
1427156714.448,-11.8842125
1427156714.464,-12.564316
1427156714.479,-13.13563
1427156714.495,-13.760044
1427156714.51,-14.65232
1427156714.526,-15.962056
1427156714.542,-17.914442
1427156714.557,-20.317299
1427156714.573,-22.903854
1427156714.589,-25.37947
1427156714.604,-27.578028
1427156714.62,-29.57246
1427156714.636,-31.675173
1427156714.651,-34.3178
1427156714.667,-37.813618
1427156714.682,-42.541233
1427156714.698,-48.1463
1427156714.714,-54.104755
1427156714.729,-59.83309
1427156714.745,-64.972374
1427156714.761,-69.58293
1427156714.776,-74.14353
1427156714.792,-79.344986
1427156714.807,-85.70726
1427156714.823,-93.76193
1427156714.839,-102.99779
1427156714.854,-112.61757
1427156714.87,-121.73034
1427156714.886,-129.76602
1427156714.901,-136.75102
1427156714.917,-143.30344
1427156714.932,-150.74623
1427156714.948,-157.77356
1427156714.964,-166.64323
1427156714.979,-177.94798
1427156714.995,-191.79102
1427156715.011,-206.96808
1427156715.026,-220.56592
1427156715.042,-228.24644
1427156715.057,-225.36154
1427156715.073,-208.53198
1427156715.089,-176.87024
1427156715.104,-132.76222
1427156715.12,-80.04997
1427156715.136,-23.069275
1427156715.151,34.94339
1427156715.167,92.43695
1427156715.182,149.15695
1427156715.198,205.22772
1427156715.214,260.36963
1427156715.229,313.74133
1427156715.245,363.87396
1427156715.261,409.83353
1427156715.276,450.90775
1427156715.292,486.50244
1427156715.307,515.73865
1427156715.323,537.2274
1427156715.339,549.22
1427156715.354,549.9613
1427156715.37,538.367
1427156715.386,514.2055
1427156715.401,478.674
1427156715.417,433.87952
1427156715.432,382.45126
1427156715.448,327.02106
1427156715.464,269.84186
1427156715.479,212.63379
1427156715.495,156.6594
1427156715.511,102.95233
1427156715.526,52.373596
1427156715.542,5.9046936
1427156715.557,-35.580414
1427156715.573,-71.42584
1427156715.589,-101.35184
1427156715.604,-125.50113
1427156715.62,-144.3797
1427156715.636,-158.69403
1427156715.651,-169.15071
1427156715.667,-176.3711
1427156715.682,-180.75139
1427156715.698,-182.57419
1427156715.714,-182.06862
1427156715.729,-179.50658
1427156715.745,-175.23329
1427156715.761,-169.65318
1427156715.776,-163.17766
1427156715.792,-156.14677
1427156715.807,-148.80774
1427156715.823,-141.2967
1427156715.839,-133.68788
1427156715.854,-126.016464
1427156715.87,-118.33083
1427156715.886,-110.692154
1427156715.901,-103.167725
1427156715.917,-95.82378
1427156715.932,-88.70228
1427156715.948,-81.82909
1427156715.964,-75.212395
1427156715.979,-68.86852
1427156715.995,-62.808983
1427156716.011,-57.05889
1427156716.026,-51.638138
1427156716.042,-46.554516
1427156716.057,-41.80465
1427156716.073,-37.36844
1427156716.089,-33.227943
1427156716.104,-29.361143
1427156716.12,-25.769346
1427156716.136,-22.45085
1427156716.151,-19.42077
1427156716.167,-16.68721
1427156716.182,-14.245313
1427156716.198,-12.07671
1427156716.214,-10.143702
1427156716.229,-8.409992
1427156716.245,-6.844324
1427156716.261,-5.4408917
1427156716.276,-4.2102227
1427156716.292,-3.1748447
1427156716.307,-2.349019
1427156716.323,-1.7214603
1427156716.339,-1.237839
1427156716.354,-0.816867
1427156716.37,-0.38061965
1427156716.386,0.12282956
1427156716.401,0.68744195
1427156716.417,1.2523654
1427156716.432,1.7206258
1427156716.448,2.0146003
1427156716.464,2.1229053
1427156716.479,2.1142988
1427156716.495,2.13229
1427156716.511,2.3229628
1427156716.526,2.772262
1427156716.542,3.4511945
1427156716.557,4.2177725
1427156716.573,4.879137
1427156716.589,5.2690277
1427156716.604,5.347622
1427156716.62,5.231916
1427156716.636,5.1507397
1427156716.651,5.3549438
1427156716.667,5.9821672
1427156716.682,7.0004
1427156716.698,8.181571
1427156716.714,9.244327
1427156716.729,9.952816
1427156716.745,10.218346
1427156716.761,10.151653
1427156716.776,9.987792
1427156716.792,9.9950905
1427156716.807,10.415911
1427156716.823,11.455178
1427156716.839,13.207526
1427156716.854,15.546348
1427156716.87,17.96009
1427156716.886,19.55236
1427156716.901,19.223526
1427156716.917,16.121822
1427156716.932,10.107959
1427156716.948,2.0027199
1427156716.964,-6.6325016
1427156716.979,-14.040281
1427156716.995,-18.977322
1427156717.011,-21.107609
1427156717.026,-20.997679
1427156717.042,-19.661097
1427156717.057,-18.05171
1427156717.073,-16.644531
1427156717.089,-15.473333
1427156717.104,-14.301592
1427156717.12,-12.955248
1427156717.136,-11.465878
1427156717.151,-10.057137
1427156717.167,-8.966681
1427156717.182,-8.281916
1427156717.198,-7.8964233
1427156717.214,-7.5218925
1427156717.229,-6.8556156
1427156717.245,-5.750742
1427156717.261,-4.2616005
1427156717.276,-2.616846
1427156717.292,-1.0720501
1427156717.308,0.21079636
1427156717.323,1.2017403
1427156717.339,1.8334236
1427156717.354,1.9560509
1427156717.37,1.2196999
1427156717.386,-0.7095566
1427156717.401,-3.9177742
1427156717.417,-8.025589
1427156717.432,-12.218407
1427156717.448,-15.512573
1427156717.464,-17.14352
1427156717.479,-16.879929
1427156717.495,-15.064682
1427156717.511,-12.430481
1427156717.526,-9.756054
1427156717.542,-7.575695
1427156717.558,-6.066265
1427156717.573,-5.0415726
1427156717.589,-4.1716995
1427156717.604,-3.1489182
1427156717.62,-1.8674927
1427156717.636,-0.4091034
1427156717.651,0.93966675
1427156717.667,1.8848572
1427156717.683,2.249096
1427156717.698,2.0974503
1427156717.714,1.6665268
1427156717.729,1.2550926
1427156717.745,1.0860443
1427156717.761,1.2212944
1427156717.776,1.5989113
1427156717.792,2.1080818
1427156717.808,2.6871796
1427156717.823,3.3636322
1427156717.839,4.147793
1427156717.854,5.0319786
1427156717.87,5.903282
1427156717.886,6.6187687
1427156717.901,7.0314865
1427156717.917,7.106552
1427156717.933,6.9234085
1427156717.948,6.6781883
1427156717.964,6.607586
1427156717.979,6.907358
1427156717.995,7.6173573
1427156718.011,8.643019
1427156718.026,9.754507
1427156718.042,10.655163
1427156718.058,11.104664
1427156718.073,10.970135
1427156718.089,10.297237
1427156718.104,9.312298
1427156718.12,8.319958
1427156718.136,7.653515
1427156718.151,7.5491524
1427156718.167,8.0751915
1427156718.183,9.0845375
1427156718.198,10.278603
1427156718.214,11.182358
1427156718.229,11.300915
1427156718.245,10.125843
1427156718.261,7.3435516
1427156718.276,2.8934174
1427156718.292,-2.8798866
1427156718.308,-9.309143
1427156718.323,-15.45929
1427156718.339,-20.451439
1427156718.354,-23.68906
1427156718.37,-25.04385
1427156718.386,-24.868477
1427156718.401,-23.813305
1427156718.417,-22.515388
1427156718.433,-21.414711
1427156718.448,-20.65852
1427156718.464,-20.168991
1427156718.479,-19.765427
1427156718.495,-19.369705
1427156718.511,-18.983704
1427156718.526,-18.748127
1427156718.542,-18.793829
1427156718.558,-19.149517
1427156718.573,-19.648462
1427156718.589,-20.038614
1427156718.604,-20.030478
1427156718.62,-19.444155
1427156718.636,-18.274672
1427156718.651,-16.643166
1427156718.667,-14.675358
1427156718.683,-12.461271
1427156718.698,-9.986809
1427156718.714,-7.0682144
1427156718.729,-3.6555233
1427156718.745,0.16607285
1427156718.761,4.1614475
1427156718.776,7.999363
1427156718.792,11.3896675
1427156718.808,14.142042
1427156718.823,16.181137
1427156718.839,17.52076
1427156718.854,18.253716
1427156718.87,18.511726
1427156718.886,18.481861
1427156718.901,18.358284
1427156718.917,18.291473
1427156718.933,18.297136
1427156718.948,18.269108
1427156718.964,17.986252
1427156718.979,17.298943
1427156718.995,16.181793
1427156719.011,14.835442
1427156719.026,13.538425
1427156719.042,12.609798
1427156719.058,12.2260685
1427156719.073,12.431124
1427156719.089,13.049488
1427156719.104,13.770833
1427156719.12,14.096099
1427156719.136,13.445751
1427156719.151,11.298164
1427156719.167,7.445345
1427156719.183,2.1424243
1427156719.198,-3.8049138
1427156719.214,-9.301679
1427156719.229,-13.331774
1427156719.245,-15.348277
1427156719.261,-15.420159
1427156719.276,-14.1551695
1427156719.292,-12.336512
1427156719.308,-10.621821
1427156719.323,-9.307493
1427156719.339,-8.394281
1427156719.354,-7.7129583
1427156719.37,-7.103192
1427156719.386,-6.520941
1427156719.401,-6.0186586
1427156719.417,-5.6799407
1427156719.433,-5.547224
1427156719.448,-5.6101255
1427156719.464,-5.8079777
1427156719.479,-6.055667
1427156719.495,-6.3043456
1427156719.511,-6.534473
1427156719.526,-6.7786503
1427156719.542,-7.088804
1427156719.558,-7.481899
1427156719.573,-7.863676
1427156719.589,-8.094358
1427156719.604,-8.008606
1427156719.62,-7.540635
1427156719.636,-6.738509
1427156719.651,-5.777603
1427156719.667,-4.781314
1427156719.683,-3.7440186
1427156719.698,-2.7486181
1427156719.714,-1.6671009
1427156719.729,-0.34520626
1427156719.745,1.3052492
1427156719.761,3.236432
1427156719.776,5.2781363
1427156719.792,7.245367
1427156719.808,9.019886
1427156719.823,10.640406
1427156719.839,12.25318
1427156719.854,14.081938
1427156719.87,16.28506
1427156719.886,18.853926
1427156719.901,21.613876
1427156719.917,24.327166
1427156719.933,26.774582
1427156719.948,28.896202
1427156719.964,30.807838
1427156719.98,32.794273
1427156719.995,35.23903
1427156720.011,38.54825
1427156720.026,42.948734
1427156720.042,48.353863
1427156720.058,54.166386
1427156720.073,59.28109
1427156720.089,62.22251
1427156720.104,61.573257
1427156720.12,56.509758
1427156720.136,47.17611
1427156720.151,34.7195
1427156720.167,20.905888
1427156720.183,7.520499
1427156720.198,-4.165435
1427156720.214,-13.661335
1427156720.23,-21.156845
1427156720.245,-27.15751
1427156720.261,-32.115116
1427156720.276,-36.28143
1427156720.292,-39.642307
1427156720.308,-42.125854
1427156720.323,-43.668476
1427156720.339,-44.33967
1427156720.355,-44.332134
1427156720.37,-43.926125
1427156720.386,-43.40221
1427156720.401,-42.953545
1427156720.417,-42.624763
1427156720.433,-42.296352
1427156720.448,-41.78576
1427156720.464,-40.962955
1427156720.48,-39.826824
1427156720.495,-38.49064
1427156720.511,-37.085224
1427156720.526,-35.64361
1427156720.542,-34.06822
1427156720.558,-32.21855
1427156720.573,-29.976433
1427156720.589,-27.334368
1427156720.605,-24.396519
1427156720.62,-21.26456
1427156720.636,-17.983936
1427156720.651,-14.584227
1427156720.667,-11.096809
1427156720.683,-7.6587443
1427156720.698,-4.4707203
1427156720.714,-1.6872201
1427156720.73,0.70075035
1427156720.745,2.9130807
1427156720.761,5.322872
1427156720.776,8.26809
1427156720.792,11.89595
1427156720.808,16.06428
1427156720.823,20.422012
1427156720.839,24.52699
1427156720.855,28.078642
1427156720.87,30.988272
1427156720.886,33.463554
1427156720.901,35.89679
1427156720.917,38.761017
1427156720.933,42.453568
1427156720.948,47.22834
1427156720.964,53.04129
1427156720.98,59.45912
1427156720.995,65.567635
1427156721.011,70.06919
1427156721.026,71.54612
1427156721.042,68.90338
1427156721.058,61.79502
1427156721.073,50.827427
1427156721.089,37.43528
1427156721.105,23.42641
1427156721.12,10.391175
1427156721.136,-0.6997309
1427156721.151,-9.625586
1427156721.167,-16.662863
1427156721.183,-22.268038
1427156721.198,-26.76134
1427156721.214,-30.259438
1427156721.23,-32.757107
1427156721.245,-34.289043
1427156721.261,-35.05352
1427156721.276,-35.3684
1427156721.292,-35.57276
1427156721.308,-35.897606
1427156721.323,-36.361
1427156721.339,-36.778008
1427156721.355,-36.8845
1427156721.37,-36.494595
1427156721.386,-35.602882
1427156721.401,-34.414474
1427156721.417,-33.2266
1427156721.433,-32.27261
1427156721.448,-31.546137
1427156721.464,-30.79359
1427156721.48,-29.56808
1427156721.495,-27.471836
1427156721.511,-24.33168
1427156721.526,-20.336067
1427156721.542,-15.962171
1427156721.558,-11.824686
1427156721.573,-8.410337
1427156721.589,-5.8855286
1427156721.605,-4.0251503
1427156721.62,-2.3046122
1427156721.636,-0.10597229
1427156721.651,2.9851398
1427156721.667,7.040187
1427156721.683,11.73347
1427156721.698,16.501867
1427156721.714,20.79589
1427156721.73,24.290546
1427156721.745,27.018795
1427156721.761,29.349522
1427156721.776,31.816063
1427156721.792,34.97282
1427156721.808,39.22137
1427156721.823,44.6828
1427156721.839,51.100937
1427156721.855,57.751133
1427156721.87,63.479767
1427156721.886,66.894615
1427156721.901,66.75868
1427156721.917,62.364563
1427156721.933,53.875244
1427156721.948,42.303497
1427156721.964,29.207026
1427156721.98,16.21833
1427156721.995,4.563347
1427156722.011,-5.1673737
1427156722.026,-12.964991
1427156722.042,-19.139505
1427156722.058,-24.049906
1427156722.073,-27.89757
1427156722.089,-30.734499
1427156722.105,-32.601887
1427156722.12,-33.624413
1427156722.136,-34.084614
1427156722.151,-34.35984
1427156722.167,-34.780224
1427156722.183,-35.47132
1427156722.198,-36.331276
1427156722.214,-37.06186
1427156722.23,-37.37628
1427156722.245,-37.13346
1427156722.261,-36.408054
1427156722.276,-35.46368
1427156722.292,-34.555923
1427156722.308,-33.803314
1427156722.323,-33.04695
1427156722.339,-31.97454
1427156722.355,-30.198652
1427156722.37,-27.491488
1427156722.386,-23.88272
1427156722.401,-19.67355
1427156722.417,-15.315184
1427156722.433,-11.229673
1427156722.448,-7.6609383
1427156722.464,-4.576502
1427156722.48,-1.7406712
1427156722.495,1.1812172
1427156722.511,4.4712505
1427156722.526,8.220137
1427156722.542,12.331484
1427156722.558,16.553726
1427156722.573,20.616873
1427156722.589,24.302916
1427156722.605,27.583103
1427156722.62,30.613548
1427156722.636,33.738495
1427156722.651,37.413017
1427156722.667,42.099106
1427156722.683,48.074417
1427156722.698,55.22727
1427156722.714,62.891396
1427156722.73,69.81578
1427156722.745,74.4008
1427156722.761,75.163795
1427156722.776,71.236374
1427156722.792,62.745964
1427156722.808,50.787643
1427156722.823,37.09464
1427156722.839,23.415218
1427156722.855,11.007492
1427156722.87,0.39857483
1427156722.886,-8.5262375
1427156722.902,-16.176521
1427156722.917,-22.907196
1427156722.933,-28.834747
1427156722.948,-33.841824
1427156722.964,-37.756218
1427156722.98,-40.476475
1427156722.995,-42.115673
1427156723.011,-42.920288
1427156723.027,-43.202526
1427156723.042,-43.20791
1427156723.058,-43.07799
1427156723.073,-42.82685
1427156723.089,-42.426056
1427156723.105,-41.89065
1427156723.12,-41.299717
1427156723.136,-40.770565
1427156723.152,-40.378902
1427156723.167,-40.064957
1427156723.183,-39.637943
1427156723.198,-38.815678
1427156723.214,-37.371162
1427156723.23,-35.18519
1427156723.245,-32.31198
1427156723.261,-28.892628
1427156723.277,-25.134571
1427156723.292,-21.21363
1427156723.308,-17.287998
1427156723.323,-13.4744835
1427156723.339,-9.904522
1427156723.355,-6.6518173
1427156723.37,-3.742157
1427156723.386,-1.0599518
1427156723.402,1.6395721
1427156723.417,4.6905785
1427156723.433,8.36092
1427156723.448,12.761299
1427156723.464,17.703388
1427156723.48,22.796799
1427156723.495,27.552353
1427156723.511,31.616302
1427156723.527,34.914593
1427156723.542,37.719784
1427156723.558,40.574604
1427156723.573,44.09103
1427156723.589,48.77406
1427156723.605,54.81171
1427156723.62,61.937313
1427156723.636,69.34812
1427156723.652,75.722176
1427156723.667,79.46701
1427156723.683,79.114944
1427156723.698,73.86365
1427156723.714,63.88968
1427156723.73,50.45792
1427156723.745,35.475548
1427156723.761,20.89891
1427156723.777,8.10564
1427156723.792,-2.3979187
1427156723.808,-10.894928
1427156723.823,-18.028683
1427156723.839,-24.386333
1427156723.855,-30.211716
1427156723.87,-35.404163
1427156723.886,-39.711815
1427156723.902,-42.944893
1427156723.917,-45.073994
1427156723.933,-46.242416
1427156723.948,-46.65398
1427156723.964,-46.52041
1427156723.98,-46.005177
1427156723.995,-45.25352
1427156724.011,-44.411137
1427156724.027,-43.62481
1427156724.042,-43.023273
1427156724.058,-42.659378
1427156724.073,-42.46102
1427156724.089,-42.218086
1427156724.105,-41.639736
1427156724.12,-40.43724
1427156724.136,-38.444767
1427156724.152,-35.707527
1427156724.167,-32.43576
1427156724.183,-28.97623
1427156724.198,-25.61544
1427156724.214,-22.508629
1427156724.23,-19.594536
1427156724.245,-16.718285
1427156724.261,-13.702038
1427156724.277,-10.481834
1427156724.292,-7.080303
1427156724.308,-3.5661201
1427156724.323,0.02879715
1427156724.339,3.7135162
1427156724.355,7.5218735
1427156724.37,11.448406
1427156724.386,15.405949
1427156724.402,19.259247
1427156724.417,22.89215
1427156724.433,26.276287
1427156724.448,29.498257
1427156724.464,32.69337
1427156724.48,36.065186
1427156724.495,39.791924
1427156724.511,44.10107
1427156724.527,49.233856
1427156724.542,55.35425
1427156724.558,62.302147
1427156724.573,69.41574
1427156724.589,75.41805
1427156724.605,78.6678
1427156724.62,77.67993
1427156724.636,71.69725
1427156724.652,61.0518
1427156724.667,47.17291
1427156724.683,32.06555
1427156724.698,17.674603
1427156724.714,5.2828293
1427156724.73,-4.72694
1427156724.745,-12.712704
1427156724.761,-19.343185
1427156724.777,-25.181786
1427156724.792,-30.46938
1427156724.808,-35.114223
1427156724.823,-38.861584
1427156724.839,-41.54514
1427156724.855,-43.183758
1427156724.87,-44.030254
1427156724.886,-44.431664
1427156724.902,-44.67138
1427156724.917,-44.867077
1427156724.933,-44.959423
1427156724.948,-44.797653
1427156724.964,-44.320763
1427156724.98,-43.606735
1427156724.995,-42.849575
1427156725.011,-42.203762
1427156725.027,-41.670853
1427156725.042,-41.03059
1427156725.058,-39.966606
1427156725.073,-38.221348
1427156725.089,-35.739277
1427156725.105,-32.669384
1427156725.12,-29.263103
1427156725.136,-25.718327
1427156725.152,-22.12952
1427156725.167,-18.481163
1427156725.183,-14.764351
1427156725.198,-11.017864
1427156725.214,-7.385105
1427156725.23,-4.0033836
1427156725.245,-0.9720268
1427156725.261,1.7611084
1427156725.277,4.35165
1427156725.292,7.039116
1427156725.308,10.01619
1427156725.323,13.384026
1427156725.339,17.0836
1427156725.355,20.93809
1427156725.37,24.713133
1427156725.386,28.232464
1427156725.402,31.434221
1427156725.417,34.41864
1427156725.433,37.43666
1427156725.448,40.86317
1427156725.464,45.0867
1427156725.48,50.39032
1427156725.495,56.777424
1427156725.511,63.79979
1427156725.527,70.39685
1427156725.542,75.07326
1427156725.558,76.21623
1427156725.574,72.67183
1427156725.589,64.23015
1427156725.605,51.80642
1427156725.62,37.18283
1427156725.636,22.403862
1427156725.652,9.123415
1427156725.667,-1.8313541
1427156725.683,-10.46883
1427156725.699,-17.302858
1427156725.714,-22.92899
1427156725.73,-27.669044
1427156725.745,-31.55502
1427156725.761,-34.451515
1427156725.777,-36.314964
1427156725.792,-37.29315
1427156725.808,-37.71565
1427156725.824,-37.92981
1427156725.839,-38.17756
1427156725.855,-38.493324
1427156725.87,-38.77484
1427156725.886,-38.811073
1427156725.902,-38.50595
1427156725.917,-37.85525
1427156725.933,-36.98363
1427156725.949,-36.043343
1427156725.964,-35.12131
1427156725.98,-34.18081
1427156725.995,-33.070717
1427156726.011,-31.587112
1427156726.027,-29.529457
1427156726.042,-26.807981
1427156726.058,-23.460466
1427156726.074,-19.676798
1427156726.089,-15.747851
1427156726.105,-11.987632
1427156726.12,-8.629705
1427156726.136,-5.712079
1427156726.152,-3.081358
1427156726.167,-0.39028025
1427156726.183,2.6750453
1427156726.199,6.315874
1427156726.214,10.464038
1427156726.23,14.82348
1427156726.245,18.989504
1427156726.261,22.628784
1427156726.277,25.613932
1427156726.292,28.072155
1427156726.308,30.375158
1427156726.324,33.000004
1427156726.339,36.4529
1427156726.355,41.099045
1427156726.37,47.050144
1427156726.386,54.03442
1427156726.402,61.286594
1427156726.417,67.64712
1427156726.433,71.684814
1427156726.449,72.106155
1427156726.464,68.10222
1427156726.48,59.705864
1427156726.495,47.81614
1427156726.511,34.00104
1427156726.527,20.023481
1427156726.542,7.3212957
1427156726.558,-3.2994027
1427156726.574,-11.748644
1427156726.589,-18.389095
1427156726.605,-23.679365
1427156726.62,-27.879671
1427156726.636,-30.97798
1427156726.652,-32.837296
1427156726.667,-33.444275
1427156726.683,-33.096706
1427156726.699,-32.35076
1427156726.714,-31.813763
1427156726.73,-31.856272
1427156726.745,-32.47802
1427156726.761,-33.322998
1427156726.777,-33.93474
1427156726.792,-34.00425
1427156726.808,-33.525894
1427156726.824,-32.74975
1427156726.839,-31.987316
1427156726.855,-31.379156
1427156726.87,-30.781744
1427156726.886,-29.796432
1427156726.902,-28.011282
1427156726.917,-25.193638
1427156726.933,-21.483713
1427156726.949,-17.33432
1427156726.964,-13.350654
1427156726.98,-9.9779625
1427156726.995,-7.333887
1427156727.011,-5.1324716
1427156727.027,-2.8449216
1427156727.042,0.071436405
1427156727.058,3.8864222
1427156727.074,8.506807
1427156727.089,13.499756
1427156727.105,18.29312
1427156727.12,22.40462
1427156727.136,25.636503
1427156727.152,28.128555
1427156727.167,30.326984
1427156727.183,32.83213
1427156727.199,36.261333
1427156727.214,41.052273
1427156727.23,47.331955
1427156727.245,54.692642
1427156727.261,62.14177
1427156727.277,68.17342
1427156727.292,71.1386
1427156727.308,69.73048
1427156727.324,63.49397
1427156727.339,53.060436
1427156727.355,39.950428
1427156727.37,26.072752
1427156727.386,13.086478
1427156727.402,1.9314299
1427156727.417,-7.2385826
1427156727.433,-14.797021
1427156727.449,-21.218506
1427156727.464,-26.772446
1427156727.48,-31.42149
1427156727.495,-35.00334
1427156727.511,-37.4021
1427156727.527,-38.75782
1427156727.542,-39.360138
1427156727.558,-39.59289
1427156727.574,-39.725708
1427156727.589,-39.89895
1427156727.605,-40.082428
1427156727.62,-40.172916
1427156727.636,-40.066708
1427156727.652,-39.690025
1427156727.667,-39.036514
1427156727.683,-38.155132
1427156727.699,-37.114708
1427156727.714,-35.97656
1427156727.73,-34.741432
1427156727.745,-33.33732
1427156727.761,-31.624315
1427156727.777,-29.453056
1427156727.792,-26.71672
1427156727.808,-23.4684
1427156727.824,-19.860403
1427156727.839,-16.154877
1427156727.855,-12.574226
1427156727.87,-9.278004
1427156727.886,-6.2644453
1427156727.902,-3.42037
1427156727.917,-0.54150295
1427156727.933,2.5931034
1427156727.949,6.170553
1427156727.964,10.274681
1427156727.98,14.83734
1427156727.995,19.62503
1427156728.011,24.323883
1427156728.027,28.608652
1427156728.042,32.295776
1427156728.058,35.402046
1427156728.074,38.16897
1427156728.089,40.9916
1427156728.105,44.34872
1427156728.12,48.642693
1427156728.136,54.08001
1427156728.152,60.477005
1427156728.167,67.13994
1427156728.183,72.843864
1427156728.199,76.07642
1427156728.214,75.436584
1427156728.23,70.18248
1427156728.246,60.537426
1427156728.261,47.704834
1427156728.277,33.465343
1427156728.292,19.615284
1427156728.308,7.3713264
1427156728.324,-2.7979717
1427156728.339,-11.115278
1427156728.355,-18.075153
1427156728.371,-24.131784
1427156728.386,-29.433313
1427156728.402,-33.90668
1427156728.417,-37.386353
1427156728.433,-39.811234
1427156728.449,-41.27745
1427156728.464,-42.04668
1427156728.48,-42.412132
1427156728.496,-42.62009
1427156728.511,-42.79673
1427156728.527,-42.960472
1427156728.542,-43.03522
1427156728.558,-42.949276
1427156728.574,-42.62441
1427156728.589,-42.053196
1427156728.605,-41.238483
1427156728.621,-40.21522
1427156728.636,-38.96737
1427156728.652,-37.434547
1427156728.667,-35.514187
1427156728.683,-33.1276
1427156728.699,-30.275944
1427156728.714,-27.066776
1427156728.73,-23.659332
1427156728.746,-20.216488
1427156728.761,-16.80043
1427156728.777,-13.398261
1427156728.792,-9.966012
1427156728.808,-6.5234747
1427156728.824,-3.1414423
1427156728.839,0.040201187
1427156728.855,2.9581032
1427156728.871,5.66741
1427156728.886,8.392035
1427156728.902,11.401003
1427156728.917,14.897687
1427156728.933,18.898289
1427156728.949,23.215973
1427156728.964,27.52282
1427156728.98,31.54153
1427156728.996,35.15714
1427156729.011,38.495117
1427156729.027,41.897774
1427156729.042,45.818893
1427156729.058,50.63588
1427156729.074,56.454567
1427156729.089,62.9478
1427156729.105,69.26275
1427156729.121,74.09485
1427156729.136,76.01297
1427156729.152,73.89392
1427156729.167,67.33368
1427156729.183,56.87283
1427156729.199,43.861423
1427156729.214,30.013824
1427156729.23,16.86718
1427156729.246,5.374756
1427156729.261,-4.1994
1427156729.277,-12.075411
1427156729.292,-18.654596
1427156729.308,-24.253448
1427156729.324,-29.027998
1427156729.339,-33.012062
1427156729.355,-36.244003
1427156729.371,-38.80552
1427156729.386,-40.790848
1427156729.402,-42.278996
1427156729.417,-43.28849
1427156729.433,-43.830475
1427156729.449,-43.908432
1427156729.464,-43.6084
1427156729.48,-43.04506
1427156729.496,-42.364143
1427156729.511,-41.655846
1427156729.527,-40.968945
1427156729.542,-40.22454
1427156729.558,-39.299538
1427156729.574,-38.00009
1427156729.589,-36.19172
1427156729.605,-33.82201
1427156729.621,-30.996054
1427156729.636,-27.90527
1427156729.652,-24.773449
1427156729.667,-21.748333
1427156729.683,-18.85009
1427156729.699,-15.98591
1427156729.714,-13.066042
1427156729.73,-10.015411
1427156729.746,-6.88834
1427156729.761,-3.7960358
1427156729.777,-0.85326767
1427156729.792,1.9301186
1427156729.808,4.66873
1427156729.824,7.579571
1427156729.839,10.867182
1427156729.855,14.596989
1427156729.871,18.660654
1427156729.886,22.792747
1427156729.902,26.671959
1427156729.917,30.106619
1427156729.933,33.086212
1427156729.949,35.868973
1427156729.964,38.866554
1427156729.98,42.546417
1427156729.996,47.24935
1427156730.011,53.043755
1427156730.027,59.561966
1427156730.042,65.9772
1427156730.058,71.03556
1427156730.074,73.345764
1427156730.089,71.73274
1427156730.105,65.687325
1427156730.121,55.5848
1427156730.136,42.698658
1427156730.152,28.756527
1427156730.167,15.457127
1427156730.183,3.926567
1427156730.199,-5.4556484
1427156730.214,-12.991236
1427156730.23,-19.253393
1427156730.246,-24.725327
1427156730.261,-29.571854
1427156730.277,-33.670387
1427156730.292,-36.7893
1427156730.308,-38.82749
1427156730.324,-39.907463
1427156730.339,-40.347893
1427156730.355,-40.506577
1427156730.371,-40.64395
1427156730.386,-40.8345
1427156730.402,-40.99292
1427156730.417,-40.96193
1427156730.433,-40.657425
1427156730.449,-40.068275
1427156730.464,-39.307438
1427156730.48,-38.44448
1427156730.496,-37.48329
1427156730.511,-36.289673
1427156730.527,-34.68629
1427156730.542,-32.530373
1427156730.558,-29.827347
1427156730.574,-26.759302
1427156730.589,-23.60064
1427156730.605,-20.586563
1427156730.621,-17.791138
1427156730.636,-15.114428
1427156730.652,-12.370831
1427156730.667,-9.415779
1427156730.683,-6.282465
1427156730.699,-3.1244774
1427156730.714,-0.13114548
1427156730.73,2.6393776
1427156730.746,5.3008766
1427156730.761,8.114262
1427156730.777,11.320271
1427156730.792,15.000278
1427156730.808,18.998749
1427156730.824,22.99442
1427156730.839,26.652573
1427156730.855,29.806858
1427156730.871,32.543682
1427156730.886,35.202248
1427156730.902,38.242718
1427156730.918,42.134403
1427156730.933,47.135902
1427156730.949,53.168148
1427156730.964,59.622463
1427156730.98,65.43596
1427156730.996,69.194176
1427156731.011,69.5697
1427156731.027,65.73685
1427156731.042,57.72327
1427156731.058,46.445095
1427156731.074,33.44391
1427156731.089,20.35434
1427156731.105,8.438423
1427156731.121,-1.6624107
1427156731.136,-9.907261
1427156731.152,-16.558064
1427156731.168,-21.902
1427156731.183,-26.102093
1427156731.199,-29.231804
1427156731.214,-31.390545
1427156731.23,-32.775322
1427156731.246,-33.691757
1427156731.261,-34.40655
1427156731.277,-35.096294
1427156731.293,-35.769737
1427156731.308,-36.313576
1427156731.324,-36.572334
1427156731.339,-36.458424
1427156731.355,-35.9667
1427156731.371,-35.199448
1427156731.386,-34.29942
1427156731.402,-33.406887
1427156731.418,-32.585144
1427156731.433,-31.754425
1427156731.449,-30.730083
1427156731.464,-29.260067
1427156731.48,-27.097794
1427156731.496,-24.172142
1427156731.511,-20.591454
1427156731.527,-16.678146
1427156731.543,-12.829578
1427156731.558,-9.412968
1427156731.574,-6.572159
1427156731.589,-4.215351
1427156731.605,-1.9994354
1427156731.621,0.46218872
1427156731.636,3.4731636
1427156731.652,7.0773277
1427156731.668,11.044487
1427156731.683,14.977543
1427156731.699,18.497787
1427156731.714,21.383274
1427156731.73,23.707088
1427156731.746,25.754078
1427156731.761,27.937569
1427156731.777,30.655827
1427156731.793,34.22437
1427156731.808,38.7993
1427156731.824,44.35434
1427156731.839,50.486534
1427156731.855,56.374676
1427156731.871,60.7556
1427156731.886,62.244286
1427156731.902,59.754265
1427156731.918,52.989483
1427156731.933,42.65152
1427156731.949,30.269493
1427156731.964,17.666515
1427156731.98,6.365402
1427156731.996,-2.8451996
1427156732.011,-9.931969
1427156732.027,-15.342758
1427156732.043,-19.57127
1427156732.058,-22.90097
1427156732.074,-25.350418
1427156732.089,-26.894665
1427156732.105,-27.598728
1427156732.121,-27.733585
1427156732.136,-27.64291
1427156732.152,-27.609459
1427156732.168,-27.748848
1427156732.183,-27.992386
1427156732.199,-28.186367
1427156732.214,-28.233658
1427156732.23,-28.103367
1427156732.246,-27.844643
1427156732.261,-27.467491
1427156732.277,-26.936031
1427156732.293,-26.11583
1427156732.308,-24.871868
1427156732.324,-23.11145
1427156732.339,-20.802608
1427156732.355,-18.008049
1427156732.371,-14.843525
1427156732.386,-11.472092
1427156732.402,-8.053303
1427156732.418,-4.703533
1427156732.433,-1.4456596
1427156732.449,1.8273201
1427156732.464,5.270878
1427156732.48,9.037907
1427156732.496,13.10746
1427156732.511,17.304585
1427156732.527,21.32763
1427156732.543,24.88068
1427156732.558,27.856571
1427156732.574,30.438335
1427156732.589,33.071712
1427156732.605,36.349743
1427156732.621,40.73436
1427156732.636,46.3208
1427156732.652,52.624645
1427156732.668,58.530495
1427156732.683,62.51765
1427156732.699,63.164394
1427156732.714,59.60564
1427156732.73,51.938972
1427156732.746,41.16933
1427156732.761,28.889076
1427156732.777,16.683537
1427156732.793,5.6686172
1427156732.808,-3.7117386
1427156732.824,-11.529812
1427156732.839,-18.070896
1427156732.855,-23.53244
1427156732.871,-27.94365
1427156732.886,-31.2383
1427156732.902,-33.405014
1427156732.918,-34.579952
1427156732.933,-35.07036
1427156732.949,-35.196693
1427156732.964,-35.237343
1427156732.98,-35.29574
1427156732.996,-35.332386
1427156733.011,-35.200596
1427156733.027,-34.79877
1427156733.043,-34.091644
1427156733.058,-33.202473
1427156733.074,-32.332478
1427156733.089,-31.654995
1427156733.105,-31.171127
1427156733.121,-30.676342
1427156733.136,-29.798851
1427156733.152,-28.15427
1427156733.168,-25.53696
1427156733.183,-22.047108
1427156733.199,-18.031044
1427156733.214,-13.975407
1427156733.23,-10.28735
1427156733.246,-7.1443214
1427156733.261,-4.445774
1427156733.277,-1.8787193
1427156733.293,0.93616486
1427156733.308,4.2551575
1427156733.324,8.146973
1427156733.339,12.427158
1427156733.355,16.779213
1427156733.371,20.86438
1427156733.386,24.466576
1427156733.402,27.585922
1427156733.418,30.464478
1427156733.433,33.493416
1427156733.449,37.090923
1427156733.464,41.592518
1427156733.48,47.10492
1427156733.496,53.378452
1427156733.511,59.753468
1427156733.527,65.138245
1427156733.543,68.23689
1427156733.558,67.8931
1427156733.574,63.519875
1427156733.589,55.347702
1427156733.605,44.407463
1427156733.621,32.172695
1427156733.636,20.063524
1427156733.652,9.006315
1427156733.668,-0.6829033
1427156733.683,-9.141762
1427156733.699,-16.615967
1427156733.714,-23.206707
1427156733.73,-28.790764
1427156733.746,-33.180042
1427156733.761,-36.281494
1427156733.777,-38.23342
1427156733.793,-39.325905
1427156733.808,-39.912994
1427156733.824,-40.244995
1427156733.84,-40.41247
1427156733.855,-40.384865
1427156733.871,-40.112118
1427156733.886,-39.55864
1427156733.902,-38.77749
1427156733.918,-37.86431
1427156733.933,-36.92536
1427156733.949,-36.027256
1427156733.965,-35.161335
1427156733.98,-34.221436
1427156733.996,-33.066086
1427156734.011,-31.516962
1427156734.027,-29.432098
1427156734.043,-26.707485
1427156734.058,-23.37693
1427156734.074,-19.589987
1427156734.09,-15.632122
1427156734.105,-11.846121
1427156734.121,-8.5088215
1427156734.136,-5.703596
1427156734.152,-3.2593536
1427156734.168,-0.8031502
1427156734.183,2.0538883
1427156734.199,5.5752926
1427156734.215,9.731966
1427156734.23,14.2380085
1427156734.246,18.66381
1427156734.261,22.644896
1427156734.277,26.01609
1427156734.293,28.906101
1427156734.308,31.633974
1427156734.324,34.62294
1427156734.34,38.259804
1427156734.355,42.835354
1427156734.371,48.4293
1427156734.386,54.810722
1427156734.402,61.319435
1427156734.418,66.87335
1427156734.433,70.157776
1427156734.449,69.97141
1427156734.465,65.65248
1427156734.48,57.379456
1427156734.496,46.142006
1427156734.511,33.436275
1427156734.527,20.767712
1427156734.543,9.248527
1427156734.558,-0.66213703
1427156734.574,-9.029006
1427156734.59,-16.193153
1427156734.605,-22.461914
1427156734.621,-27.947666
1427156734.636,-32.539387
1427156734.652,-36.065666
1427156734.668,-38.414005
1427156734.683,-39.67232
1427156734.699,-40.10993
1427156734.715,-40.120377
1427156734.73,-40.0551
1427156734.746,-40.115044
1427156734.761,-40.28661
1427156734.777,-40.41761
1427156734.793,-40.306335
1427156734.808,-39.866592
1427156734.824,-39.112835
1427156734.84,-38.184597
1427156734.855,-37.19483
1427156734.871,-36.18816
1427156734.886,-35.07174
1427156734.902,-33.678707
1427156734.918,-31.821848
1427156734.933,-29.390331
1427156734.949,-26.379604
1427156734.965,-22.90164
1427156734.98,-19.169312
1427156734.996,-15.443325
1427156735.011,-11.980719
1427156735.027,-8.94025
1427156735.043,-6.3176003
1427156735.058,-3.9520388
1427156735.074,-1.5463495
1427156735.09,1.2038202
1427156735.105,4.5169334
1427156735.121,8.402076
1427156735.136,12.695672
1427156735.152,17.079685
1427156735.168,21.222385
1427156735.183,24.897144
1427156735.199,28.065983
1427156735.215,30.902296
1427156735.23,33.77458
1427156735.246,37.140804
1427156735.261,41.441208
1427156735.277,46.901764
1427156735.293,53.342735
1427156735.308,60.062714
1427156735.324,65.85705
1427156735.34,69.27383
1427156735.355,69.04806
1427156735.371,64.5425
1427156735.386,56.027386
1427156735.402,44.595684
1427156735.418,31.804012
1427156735.433,19.167496
1427156735.449,7.7720366
1427156735.465,-1.908083
1427156735.48,-9.847711
1427156735.496,-16.301983
1427156735.511,-21.504284
1427156735.527,-25.657091
1427156735.543,-28.921139
1427156735.558,-31.470856
1427156735.574,-33.49606
1427156735.59,-35.15223
1427156735.605,-36.484055
1427156735.621,-37.439026
1427156735.636,-37.8979
1427156735.652,-37.77717
1427156735.668,-37.108135
1427156735.683,-36.03014
1427156735.699,-34.763485
1427156735.715,-33.55256
1427156735.73,-32.548172
1427156735.746,-31.77451
1427156735.761,-31.098358
1427156735.777,-30.251957
1427156735.793,-28.923527
1427156735.808,-26.8824
1427156735.824,-24.048843
1427156735.84,-20.578503
1427156735.855,-16.78395
1427156735.871,-13.068363
1427156735.886,-9.734282
1427156735.902,-6.884804
1427156735.918,-4.3517303
1427156735.933,-1.778863
1427156735.949,1.2100439
1427156735.965,4.8353767
1427156735.98,9.031713
1427156735.996,13.480272
1427156736.011,17.762644
1427156736.027,21.53059
1427156736.043,24.701145
1427156736.058,27.432697
1427156736.074,30.12301
1427156736.09,33.20677
1427156736.105,37.08367
1427156736.121,41.934772
1427156736.136,47.67504
1427156736.152,53.793808
1427156736.168,59.382
1427156736.183,63.21837
1427156736.199,64.0963
1427156736.215,61.195663
1427156736.23,54.426888
1427156736.246,44.506195
1427156736.261,32.740368
1427156736.277,20.577295
1427156736.293,9.185525
1427156736.308,-0.80947065
1427156736.324,-9.289692
1427156736.34,-16.438702
1427156736.355,-22.467981
1427156736.371,-27.486408
1427156736.386,-31.475239
1427156736.402,-34.3955
1427156736.418,-36.268444
1427156736.433,-37.249912
1427156736.449,-37.57296
1427156736.465,-37.520733
1427156736.48,-37.337658
1427156736.496,-37.183292
1427156736.512,-37.09179
1427156736.527,-36.996956
1427156736.543,-36.760086
1427156736.558,-36.2565
1427156736.574,-35.431625
1427156736.59,-34.334282
1427156736.605,-33.06077
1427156736.621,-31.708776
1427156736.637,-30.273825
1427156736.652,-28.641008
1427156736.668,-26.593304
1427156736.683,-23.926872
1427156736.699,-20.54811
1427156736.715,-16.581755
1427156736.73,-12.329656
1427156736.746,-8.211999
1427156736.762,-4.552513
1427156736.777,-1.492691
1427156736.793,1.132844
1427156736.808,3.6680512
1427156736.824,6.4997272
1427156736.84,9.83942
1427156736.855,13.643691
1427156736.871,17.612125
1427156736.887,21.375584
1427156736.902,24.673798
1427156736.918,27.484869
1427156736.933,30.062685
1427156736.949,32.82655
1427156736.965,36.224728
1427156736.98,40.599094
1427156736.996,46.069492
1427156737.012,52.416946
1427156737.027,58.998974
1427156737.043,64.7529
1427156737.058,68.372536
1427156737.074,68.62503
1427156737.09,64.74837
1427156737.105,56.797947
1427156737.121,45.650993
1427156737.137,32.8014
1427156737.152,19.849365
1427156737.168,8.040935
1427156737.183,-2.00927
1427156737.199,-10.281922
1427156737.215,-17.123024
1427156737.23,-22.89526
1427156737.246,-27.815657
1427156737.262,-31.89897
1427156737.277,-35.099903
1427156737.293,-37.41213
1427156737.308,-38.97552
1427156737.324,-39.99123
1427156737.34,-40.675476
1427156737.355,-41.148697
1427156737.371,-41.46299
1427156737.387,-41.575886
1427156737.402,-41.465252
1427156737.418,-41.13418
1427156737.433,-40.63148
1427156737.449,-39.98443
1427156737.465,-39.202312
1427156737.48,-38.24413
1427156737.496,-37.018066
1427156737.512,-35.42523
1427156737.527,-33.411964
1427156737.543,-30.956621
1427156737.558,-28.142517
1427156737.574,-25.079603
1427156737.59,-21.888556
1427156737.605,-18.665543
1427156737.621,-15.486813
1427156737.637,-12.378874
1427156737.652,-9.362134
1427156737.668,-6.415886
1427156737.683,-3.4819345
1427156737.699,-0.45716667
1427156737.715,2.7660933
1427156737.73,6.284541
1427156737.746,10.10057
1427156737.762,14.11718
1427156737.777,18.158077
1427156737.793,22.03564
1427156737.808,25.58283
1427156737.824,28.73853
1427156737.84,31.530575
1427156737.855,34.13543
1427156737.871,36.84655
1427156737.887,40.119087
1427156737.902,44.40243
1427156737.918,49.998943
1427156737.933,56.758858
1427156737.949,63.898163
1427156737.965,70.02809
1427156737.98,73.46917
1427156737.996,72.773186
1427156738.012,67.28949
1427156738.027,57.42666
1427156738.043,44.549057
1427156738.058,30.49896
1427156738.074,17.002987
1427156738.09,5.1871643
1427156738.105,-4.558462
1427156738.121,-12.455366
1427156738.137,-18.946484
1427156738.152,-24.427668
1427156738.168,-29.060642
1427156738.183,-32.85083
1427156738.199,-35.740074
1427156738.215,-37.773598
1427156738.23,-39.114132
1427156738.246,-39.976288
1427156738.262,-40.563545
1427156738.277,-40.957306
1427156738.293,-41.1317
1427156738.308,-41.02874
1427156738.324,-40.63394
1427156738.34,-40.050434
1427156738.355,-39.440033
1427156738.371,-38.924713
1427156738.387,-38.46489
1427156738.402,-37.869835
1427156738.418,-36.82294
1427156738.433,-35.10575
1427156738.449,-32.7024
1427156738.465,-29.844038
1427156738.48,-26.90361
1427156738.496,-24.205967
1427156738.512,-21.874279
1427156738.527,-19.799974
1427156738.543,-17.716854
1427156738.558,-15.374468
1427156738.574,-12.644604
1427156738.59,-9.616528
1427156738.605,-6.4756374
1427156738.621,-3.402876
1427156738.637,-0.4247036
1427156738.652,2.5780678
1427156738.668,5.8199043
1427156738.683,9.434795
1427156738.699,13.399467
1427156738.715,17.498928
1427156738.73,21.44822
1427156738.746,25.06229
1427156738.762,28.333897
1427156738.777,31.41605
1427156738.793,34.51215
1427156738.808,37.76561
1427156738.824,41.289074
1427156738.84,45.196896
1427156738.855,49.670048
1427156738.871,54.823814
1427156738.887,60.508312
1427156738.902,66.01926
1427156738.918,70.11302
1427156738.933,71.2843
1427156738.949,68.35026
1427156738.965,60.959213
1427156738.98,49.863594
1427156738.996,36.660572
1427156739.012,23.230259
1427156739.027,11.075615
1427156739.043,0.9322548
1427156739.058,-7.2357826
1427156739.074,-13.88541
1427156739.09,-19.477577
1427156739.105,-24.189754
1427156739.121,-27.861378
1427156739.137,-30.264557
1427156739.152,-31.357094
1427156739.168,-31.441402
1427156739.184,-31.113201
1427156739.199,-30.968227
1427156739.215,-31.370472
1427156739.23,-32.266624
1427156739.246,-33.33037
1427156739.262,-34.12466
1427156739.277,-34.403374
1427156739.293,-34.1573
1427156739.309,-33.594185
1427156739.324,-32.94353
1427156739.34,-32.3046
1427156739.355,-31.579914
1427156739.371,-30.520931
1427156739.387,-28.880245
1427156739.402,-26.495884
1427156739.418,-23.412117
1427156739.434,-19.82993
1427156739.449,-16.049923
1427156739.465,-12.406731
1427156739.48,-9.132271
1427156739.496,-6.3169556
1427156739.512,-3.854721
1427156739.527,-1.5194855
1427156739.543,0.99284744
1427156739.559,3.875702
1427156739.574,7.1914063
1427156739.59,10.824741
1427156739.605,14.547409
1427156739.621,18.091496
1427156739.637,21.25306
1427156739.652,23.97308
1427156739.668,26.389847
1427156739.684,28.830776
1427156739.699,31.744255
1427156739.715,35.53838
1427156739.73,40.462215
1427156739.746,46.366776
1427156739.762,52.67128
1427156739.777,58.34473
1427156739.793,62.132828
1427156739.809,62.834194
1427156739.824,59.70516
1427156739.84,52.696564
1427156739.855,42.508934
1427156739.871,30.42913
1427156739.887,17.921059
1427156739.902,6.232971
1427156739.918,-3.873146
1427156739.934,-12.161499
1427156739.949,-18.77987
1427156739.965,-23.999645
1427156739.98,-27.99047
1427156739.996,-30.842392
1427156740.012,-32.59044
1427156740.027,-33.380463
1427156740.043,-33.471188
1427156740.059,-33.204506
1427156740.074,-32.8783
1427156740.09,-32.66857
1427156740.105,-32.58662
1427156740.121,-32.525406
1427156740.137,-32.35801
1427156740.152,-32.021957
1427156740.168,-31.553165
1427156740.184,-31.08731
1427156740.199,-30.724552
1427156740.215,-30.492096
1427156740.23,-30.234867
1427156740.246,-29.646366
1427156740.262,-28.347733
1427156740.277,-26.056114
1427156740.293,-22.729397
1427156740.309,-18.62413
1427156740.324,-14.228485
1427156740.34,-10.084911
1427156740.355,-6.5662384
1427156740.371,-3.7371902
1427156740.387,-1.3768272
1427156740.402,0.93289185
1427156740.418,3.6268272
1427156740.434,7.008049
1427156740.449,11.155449
1427156740.465,15.853302
1427156740.48,20.705109
1427156740.496,25.214256
1427156740.512,29.002007
1427156740.527,31.944054
1427156740.543,34.257668
1427156740.559,36.419956
1427156740.574,39.04636
1427156740.59,42.669426
1427156740.605,47.536964
1427156740.621,53.41115
1427156740.637,59.536564
1427156740.652,64.66719
1427156740.668,67.376816
1427156740.684,66.437775
1427156740.699,61.267197
1427156740.715,52.151436
1427156740.73,40.198193
1427156740.746,26.944931
1427156740.762,13.925167
1427156740.777,2.2382736
1427156740.793,-7.595463
1427156740.809,-15.515373
1427156740.824,-21.6978
1427156740.84,-26.415184
1427156740.855,-29.932884
1427156740.871,-32.51333
1427156740.887,-34.421112
1427156740.902,-35.886856
1427156740.918,-37.043716
1427156740.934,-37.93049
1427156740.949,-38.524593
1427156740.965,-38.814068
1427156740.98,-38.806133
1427156740.996,-38.533333
1427156741.012,-38.02203
1427156741.027,-37.319023
1427156741.043,-36.506897
1427156741.059,-35.71025
1427156741.074,-35.02634
1427156741.09,-34.436695
1427156741.105,-33.764618
1427156741.121,-32.732983
1427156741.137,-31.070824
1427156741.152,-28.676102
1427156741.168,-25.640495
1427156741.184,-22.193932
1427156741.199,-18.571445
1427156741.215,-14.956638
1427156741.23,-11.431705
1427156741.246,-8.059357
1427156741.262,-4.8880005
1427156741.277,-1.9516182
1427156741.293,0.7767372
1427156741.309,3.421379
1427156741.324,6.2061424
1427156741.34,9.325771
1427156741.355,12.878704
1427156741.371,16.795334
1427156741.387,20.864635
1427156741.402,24.80635
1427156741.418,28.409176
1427156741.434,31.596489
1427156741.449,34.48587
1427156741.465,37.36253
1427156741.48,40.63154
1427156741.496,44.699333
1427156741.512,49.80307
1427156741.527,55.787086
1427156741.543,61.989178
1427156741.559,67.22334
1427156741.574,70.04813
1427156741.59,69.16571
1427156741.605,63.93149
1427156741.621,54.591225
1427156741.637,42.31009
1427156741.652,28.760044
1427156741.668,15.6141815
1427156741.684,4.0079
1427156741.699,-5.632908
1427156741.715,-13.49189
1427156741.73,-19.988113
1427156741.746,-25.471863
1427156741.762,-30.02002
1427156741.777,-33.523163
1427156741.793,-35.870464
1427156741.809,-37.125687
1427156741.824,-37.54172
1427156741.84,-37.515694
1427156741.856,-37.40164
1427156741.871,-37.427177
1427156741.887,-37.61764
1427156741.902,-37.8665
1427156741.918,-37.970848
1427156741.934,-37.740044
1427156741.949,-37.059265
1427156741.965,-35.967808
1427156741.98,-34.617233
1427156741.996,-33.242302
1427156742.012,-31.978775
1427156742.027,-30.828115
1427156742.043,-29.586807
1427156742.059,-27.953705
1427156742.074,-25.675795
1427156742.09,-22.70803
1427156742.106,-19.20905
1427156742.121,-15.488834
1427156742.137,-11.850336
1427156742.152,-8.46599
1427156742.168,-5.378338
1427156742.184,-2.5173283
1427156742.199,0.25890732
1427156742.215,3.06147
1427156742.231,5.987499
1427156742.246,9.071554
1427156742.262,12.294485
1427156742.277,15.57637
1427156742.293,18.835922
1427156742.309,22.022503
1427156742.324,25.14718
1427156742.34,28.276207
1427156742.356,31.526676
1427156742.371,35.018612
1427156742.387,38.935593
1427156742.402,43.48338
1427156742.418,48.78341
1427156742.434,54.64353
1427156742.449,60.400177
1427156742.465,64.82782
1427156742.481,66.482445
1427156742.496,64.17639
1427156742.512,57.51718
1427156742.527,47.124302
1427156742.543,34.446957
1427156742.559,21.224499
1427156742.574,8.907932
1427156742.59,-1.7077103
1427156742.606,-10.49085
1427156742.621,-17.676798
1427156742.637,-23.501709
1427156742.652,-28.018463
1427156742.668,-31.110996
1427156742.684,-32.70163
1427156742.699,-32.93878
1427156742.715,-32.280804
1427156742.731,-31.328503
1427156742.746,-30.650448
1427156742.762,-30.524382
1427156742.777,-30.910706
1427156742.793,-31.512665
1427156742.809,-31.978165
1427156742.824,-32.08145
1427156742.84,-31.809477
1427156742.856,-31.282536
1427156742.871,-30.6419
1427156742.887,-29.908775
1427156742.902,-28.971746
1427156742.918,-27.647858
1427156742.934,-25.778368
1427156742.949,-23.313011
1427156742.965,-20.33269
1427156742.981,-17.005957
1427156742.996,-13.56852
1427156743.012,-10.237486
1427156743.027,-7.1706123
1427156743.043,-4.382015
1427156743.059,-1.6867924
1427156743.074,1.227478
1427156743.09,4.677429
1427156743.106,8.788591
1427156743.121,13.374363
1427156743.137,17.992731
1427156743.152,22.120476
1427156743.168,25.426643
1427156743.184,27.922228
1427156743.199,30.006844
1427156743.215,32.28588
1427156743.231,35.389107
1427156743.246,39.7638
1427156743.262,45.519115
1427156743.277,52.268337
1427156743.293,59.104927
1427156743.309,64.665405
1427156743.324,67.37982
1427156743.34,65.93027
1427156743.356,59.73577
1427156743.371,49.24233
1427156743.387,35.864853
1427156743.402,21.524706
1427156743.418,8.062152
1427156743.434,-3.30928
1427156743.449,-12.174884
1427156743.465,-18.821716
1427156743.481,-23.832003
1427156743.496,-27.736065
1427156743.512,-30.790108
1427156743.527,-33.001633
1427156743.543,-34.297104
1427156743.559,-34.726078
1427156743.574,-34.539787
1427156743.59,-34.149956
1427156743.606,-33.976204
1427156743.621,-34.236645
1427156743.637,-34.858505
1427156743.652,-35.554363
1427156743.668,-35.95747
1427156743.684,-35.843693
1427156743.699,-35.203957
1427156743.715,-34.25251
1427156743.731,-33.247295
1427156743.746,-32.351612
1427156743.762,-31.486612
1427156743.777,-30.403444
1427156743.793,-28.770267
1427156743.809,-26.359423
1427156743.824,-23.15734
1427156743.84,-19.396654
1427156743.856,-15.464056
1427156743.871,-11.737277
1427156743.887,-8.442522
1427156743.902,-5.548826
1427156743.918,-2.768887
1427156743.934,0.2759285
1427156743.949,3.9202034
1427156743.965,8.246203
1427156743.981,13.053568
1427156743.996,17.916487
1427156744.012,22.381466
1427156744.027,26.171995
1427156744.043,29.312471
1427156744.059,32.0942
1427156744.074,34.949036
1427156744.09,38.305756
1427156744.106,42.481808
1427156744.121,47.65746
1427156744.137,53.84652
1427156744.152,60.718872
1427156744.168,67.51158
1427156744.184,72.951416
1427156744.199,75.51463
1427156744.215,73.87222
1427156744.231,67.41573
1427156744.246,56.604317
1427156744.262,42.875183
1427156744.277,28.139046
1427156744.293,14.165447
1427156744.309,2.0484428
1427156744.324,-7.9011555
1427156744.34,-15.972504
1427156744.356,-22.630077
1427156744.371,-28.20922
1427156744.387,-32.794167
1427156744.402,-36.326492
1427156744.418,-38.767403
1427156744.434,-40.232887
1427156744.449,-40.99976
1427156744.465,-41.41173
1427156744.481,-41.722595
1427156744.496,-42.04483
1427156744.512,-42.334484
1427156744.527,-42.475204
1427156744.543,-42.377422
1427156744.559,-42.012962
1427156744.574,-41.429176
1427156744.59,-40.711777
1427156744.606,-39.91098
1427156744.621,-39.0181
1427156744.637,-37.946857
1427156744.652,-36.553432
1427156744.668,-34.66987
1427156744.684,-32.16874
1427156744.699,-29.010658
1427156744.715,-25.30132
1427156744.731,-21.285973
1427156744.746,-17.261562
1427156744.762,-13.456497
1427156744.778,-9.9731865
1427156744.793,-6.712944
1427156744.809,-3.4543457
1427156744.824,0.021308899
1427156744.84,3.8457298
1427156744.856,8.011982
1427156744.871,12.382423
1427156744.887,16.777287
1427156744.903,21.012173
1427156744.918,24.950367
1427156744.934,28.544502
1427156744.949,31.86435
1427156744.965,35.07568
1427156744.981,38.485474
1427156744.996,42.466274
1427156745.012,47.399334
1427156745.028,53.489265
1427156745.043,60.5527
1427156745.059,67.824745
1427156745.074,73.971054
1427156745.09,77.33876
1427156745.106,76.44662
1427156745.121,70.57194
1427156745.137,60.06336
1427156745.153,46.29848
1427156745.168,31.228977
1427156745.184,16.705173
1427156745.199,3.9850082
1427156745.215,-6.5264587
1427156745.231,-15.056812
1427156745.246,-22.113693
1427156745.262,-28.090736
1427156745.278,-33.10527
1427156745.293,-37.076977
1427156745.309,-39.8953
1427156745.324,-41.59894
1427156745.34,-42.44557
1427156745.356,-42.792286
1427156745.371,-42.994614
1427156745.387,-43.2893
1427156745.403,-43.70465
1427156745.418,-44.128513
1427156745.434,-44.37991
1427156745.449,-44.308636
1427156745.465,-43.870743
1427156745.481,-43.133232
1427156745.496,-42.215275
1427156745.512,-41.188133
1427156745.528,-40.043354
1427156745.543,-38.62916
1427156745.559,-36.757828
1427156745.574,-34.254036
1427156745.59,-31.074883
1427156745.606,-27.335125
1427156745.621,-23.302094
1427156745.637,-19.283325
1427156745.653,-15.56522
1427156745.668,-12.2776985
1427156745.684,-9.381855
1427156745.699,-6.693577
1427156745.715,-3.943718
1427156745.731,-0.8515625
1427156745.746,2.7669525
1427156745.762,6.9236603
1427156745.778,11.4727745
1427156745.793,16.125183
1427156745.809,20.566113
1427156745.824,24.574512
1427156745.84,28.047054
1427156745.856,31.072254
1427156745.871,33.897003
1427156745.887,36.908127
1427156745.903,40.543068
1427156745.918,45.27886
1427156745.934,51.3842
1427156745.949,58.73128
1427156745.965,66.55675
1427156745.981,73.43936
1427156745.996,77.578354
1427156746.012,77.346466
1427156746.028,71.86403
1427156746.043,61.409157
1427156746.059,47.384415
1427156746.074,31.844326
1427156746.09,16.82843
1427156746.106,3.7738075
1427156746.121,-6.757187
1427156746.137,-14.932041
1427156746.153,-21.3186
1427156746.168,-26.439758
1427156746.184,-30.593838
1427156746.199,-33.79072
1427156746.215,-35.98268
1427156746.231,-37.206257
1427156746.246,-37.68146
1427156746.262,-37.77398
1427156746.278,-37.850674
1427156746.293,-38.11089
1427156746.309,-38.53386
1427156746.324,-38.9192
1427156746.34,-39.006477
1427156746.356,-38.642902
1427156746.371,-37.85655
1427156746.387,-36.8534
1427156746.403,-35.916748
1427156746.418,-35.203842
1427156746.434,-34.623867
1427156746.449,-33.819473
1427156746.465,-32.336212
1427156746.481,-29.83062
1427156746.496,-26.27562
1427156746.512,-22.00169
1427156746.528,-17.559395
1427156746.543,-13.477013
1427156746.559,-10.0276985
1427156746.574,-7.13356
1427156746.59,-4.4375343
1427156746.606,-1.4812698
1427156746.621,2.086338
1427156746.637,6.3674316
1427156746.653,11.197552
1427156746.668,16.203957
1427156746.684,20.962425
1427156746.699,25.139679
1427156746.715,28.618801
1427156746.731,31.575554
1427156746.746,34.450314
1427156746.762,37.82085
1427156746.778,42.222313
1427156746.793,47.94214
1427156746.809,54.787292
1427156746.824,62.034977
1427156746.84,68.431046
1427156746.856,72.46983
1427156746.871,72.761566
1427156746.887,68.49627
1427156746.903,59.706093
1427156746.918,47.34871
1427156746.934,33.01322
1427156746.949,18.438927
1427156746.965,5.025833
1427156746.981,-6.4221573
1427156746.996,-15.682663
1427156747.012,-22.898464
1427156747.028,-28.314613
1427156747.043,-32.129112
1427156747.059,-34.5089
1427156747.074,-35.66652
1427156747.09,-35.940712
1427156747.106,-35.756687
1427156747.121,-35.551346
1427156747.137,-35.625072
1427156747.153,-36.091663
1427156747.168,-36.81534
1427156747.184,-37.519043
1427156747.199,-37.879044
1427156747.215,-37.68433
1427156747.231,-36.931377
1427156747.246,-35.807358
1427156747.262,-34.62629
1427156747.278,-33.618164
1427156747.293,-32.769745
1427156747.309,-31.80735
1427156747.324,-30.27182
1427156747.34,-27.79546
1427156747.356,-24.257114
1427156747.371,-19.910526
1427156747.387,-15.245804
1427156747.403,-10.803329
1427156747.418,-6.90226
1427156747.434,-3.5357513
1427156747.45,-0.3794937
1427156747.465,3.0025978
1427156747.481,6.931469
1427156747.496,11.45512
1427156747.512,16.319767
1427156747.528,21.090038
1427156747.543,25.348194
1427156747.559,28.894215
1427156747.575,31.83302
1427156747.59,34.540176
1427156747.606,37.566116
1427156747.621,41.44726
1427156747.637,46.581448
1427156747.653,53.066025
1427156747.668,60.52501
1427156747.684,68.015205
1427156747.7,74.09686
1427156747.715,77.0916
1427156747.731,75.57065
1427156747.746,68.88042
1427156747.762,57.45008
1427156747.778,42.718235
1427156747.793,26.674065
1427156747.809,11.248131
1427156747.825,-2.233078
1427156747.84,-13.240753
1427156747.856,-21.883358
1427156747.871,-28.615597
1427156747.887,-33.863853
1427156747.903,-37.89289
1427156747.918,-40.80742
1427156747.934,-42.661873
1427156747.95,-43.582043
1427156747.965,-43.81287
1427156747.981,-43.687458
1427156747.996,-43.523
1427156748.012,-43.524586
1427156748.028,-43.72241
1427156748.043,-43.971928
1427156748.059,-44.087196
1427156748.075,-43.88486
1427156748.09,-43.33947
1427156748.106,-42.51466
1427156748.121,-41.51531
1427156748.137,-40.368168
1427156748.153,-39.013573
1427156748.168,-37.303696
1427156748.184,-35.105347
1427156748.2,-32.341785
1427156748.215,-29.019798
1427156748.231,-25.193893
1427156748.246,-20.985306
1427156748.262,-16.561401
1427156748.278,-12.154926
1427156748.293,-8.010372
1427156748.309,-4.287651
1427156748.325,-0.9755821
1427156748.34,2.1362839
1427156748.356,5.3707848
1427156748.371,9.006836
1427156748.387,13.143742
1427156748.403,17.621254
1427156748.418,22.134762
1427156748.434,26.35942
1427156748.45,30.12328
1427156748.465,33.455433
1427156748.481,36.6002
1427156748.496,39.90464
1427156748.512,43.74394
1427156748.528,48.432804
1427156748.543,54.146946
1427156748.559,60.803093
1427156748.575,67.94095
1427156748.59,74.591484
1427156748.606,79.402435
1427156748.621,80.855515
1427156748.637,77.77627
1427156748.653,69.759995
1427156748.668,57.427883
1427156748.684,42.315804
1427156748.7,26.399498
1427156748.715,11.4484215
1427156748.731,-1.4431763
1427156748.746,-12.004906
1427156748.762,-20.55511
1427156748.778,-27.605843
1427156748.793,-33.48135
1427156748.809,-38.23302
1427156748.825,-41.738293
1427156748.84,-43.935852
1427156748.856,-45.000015
1427156748.871,-45.290833
1427156748.887,-45.238266
1427156748.903,-45.160675
1427156748.918,-45.20488
1427156748.934,-45.33069
1427156748.95,-45.42316
1427156748.965,-45.39934
1427156748.981,-45.21478
1427156748.996,-44.905914
1427156749.012,-44.476967
1427156749.028,-43.899906
1427156749.043,-43.068848
1427156749.059,-41.82339
1427156749.075,-39.98829
1427156749.09,-37.505188
1427156749.106,-34.41851
1427156749.121,-30.906422
1427156749.137,-27.180279
1427156749.153,-23.42694
1427156749.168,-19.712639
1427156749.184,-16.028782
1427156749.2,-12.346443
1427156749.215,-8.688126
1427156749.231,-5.1251373
1427156749.246,-1.7104607
1427156749.262,1.5943985
1427156749.278,4.9366226
1427156749.293,8.495487
1427156749.309,12.411121
1427156749.325,16.652725
1427156749.34,21.036682
1427156749.356,25.310585
1427156749.371,29.242933
1427156749.387,32.72493
1427156749.403,35.786346
1427156749.418,38.605286
1427156749.434,41.496643
1427156749.45,44.91401
1427156749.465,49.337666
1427156749.481,55.103554
1427156749.496,62.108612
1427156749.512,69.59513
1427156749.528,76.10223
1427156749.543,79.77988
1427156749.559,78.960266
1427156749.575,72.77919
1427156749.59,61.53986
1427156749.606,46.668556
1427156749.621,30.262142
1427156749.637,14.403402
1427156749.653,0.57099533
1427156749.668,-10.585577
1427156749.684,-19.146622
1427156749.7,-25.563185
1427156749.715,-30.339163
1427156749.731,-33.82927
1427156749.746,-36.229134
1427156749.762,-37.66597
1427156749.778,-38.335182
1427156749.793,-38.50705
1427156749.809,-38.493996
1427156749.825,-38.544884
1427156749.84,-38.80242
1427156749.856,-39.224583
1427156749.871,-39.66079
1427156749.887,-39.89018
1427156749.903,-39.776756
1427156749.918,-39.281113
1427156749.934,-38.511604
1427156749.95,-37.597836
1427156749.965,-36.647476
1427156749.981,-35.6485
1427156749.996,-34.44822
1427156750.012,-32.820225
1427156750.028,-30.55743
1427156750.043,-27.555485
1427156750.059,-23.889032
1427156750.075,-19.805393
1427156750.09,-15.663534
1427156750.106,-11.821449
1427156750.122,-8.4913025
1427156750.137,-5.635233
1427156750.153,-2.99197
1427156750.168,-0.16569352
1427156750.184,3.1887906
1427156750.2,7.220202
1427156750.215,11.804214
1427156750.231,16.619755
1427156750.247,21.244884
1427156750.262,25.369047
1427156750.278,28.844196
1427156750.293,31.789886
1427156750.309,34.467037
1427156750.325,37.256123
1427156750.34,40.557415
1427156750.356,44.700703
1427156750.372,49.90507
1427156750.387,56.107594
1427156750.403,62.78936
1427156750.418,68.91656
1427156750.434,73.05588
1427156750.45,73.68722
1427156750.465,69.73769
1427156750.481,61.00187
1427156750.497,48.2864
1427156750.512,33.21624
1427156750.528,17.742788
1427156750.543,3.5919828
1427156750.559,-8.157439
1427156750.575,-17.153965
1427156750.59,-23.641277
1427156750.606,-28.13998
1427156750.622,-31.162918
1427156750.637,-33.06823
1427156750.653,-34.027077
1427156750.668,-34.159763
1427156750.684,-33.658646
1427156750.7,-32.858353
1427156750.715,-32.151802
1427156750.731,-31.840359
1427156750.747,-31.960306
1427156750.762,-32.244064
1427156750.778,-32.310402
1427156750.793,-31.884132
1427156750.809,-31.026035
1427156750.825,-30.072887
1427156750.84,-29.432625
1427156750.856,-29.229239
1427156750.872,-29.206295
1427156750.887,-28.784359
1427156750.903,-27.386314
1427156750.918,-24.732464
1427156750.934,-20.941519
1427156750.95,-16.469662
1427156750.965,-11.878716
1427156750.981,-7.6001396
1427156750.997,-3.7812328
1427156751.012,-0.3183117
1427156751.028,3.0724373
1427156751.043,6.6879873
1427156751.059,10.696077
1427156751.075,15.07818
1427156751.09,19.594772
1427156751.106,23.925648
1427156751.122,27.811405
1427156751.137,31.202726
1427156751.153,34.299805
1427156751.168,37.50158
1427156751.184,41.260414
1427156751.2,45.986244
1427156751.215,51.807472
1427156751.231,58.465103
1427156751.247,65.158226
1427156751.262,70.60913
1427156751.278,73.27014
1427156751.293,71.79634
1427156751.309,65.55031
1427156751.325,54.881542
1427156751.34,41.090595
1427156751.356,26.029797
1427156751.372,11.514455
1427156751.387,-1.1591797
1427156751.403,-11.446202
1427156751.418,-19.426468
1427156751.434,-25.541565
1427156751.45,-30.254349
1427156751.465,-33.89836
1427156751.481,-36.60778
1427156751.497,-38.422638
1427156751.512,-39.373745
1427156751.528,-39.60694
1427156751.543,-39.398186
1427156751.559,-39.106358
1427156751.575,-39.03423
1427156751.59,-39.3036
1427156751.606,-39.83684
1427156751.622,-40.372875
1427156751.637,-40.65
1427156751.653,-40.480316
1427156751.668,-39.8388
1427156751.684,-38.78622
1427156751.7,-37.39373
1427156751.715,-35.677937
1427156751.731,-33.582916
1427156751.747,-31.082676
1427156751.762,-28.178389
1427156751.778,-24.956219
1427156751.793,-21.524366
1427156751.809,-17.997784
1427156751.825,-14.437431
1427156751.84,-10.900139
1427156751.856,-7.423343
1427156751.872,-4.040363
1427156751.887,-0.7579527
1427156751.903,2.4589968
1427156751.918,5.7192574
1427156751.934,9.162656
1427156751.95,12.920578
1427156751.965,17.00547
1427156751.981,21.308285
1427156751.997,25.60383
1427156752.012,29.652538
1427156752.028,33.28196
1427156752.043,36.509033
1427156752.059,39.515926
1427156752.075,42.66658
1427156752.09,46.403976
1427156752.106,51.161808
1427156752.122,57.18033
1427156752.137,64.29979
1427156752.153,71.75777
1427156752.168,78.1908
1427156752.184,81.865204
1427156752.2,81.20156
1427156752.215,75.33089
1427156752.231,64.51215
1427156752.247,50.09747
1427156752.262,34.119556
1427156752.278,18.61211
1427156752.293,5.024136
1427156752.309,-6.0930967
1427156752.325,-14.930409
1427156752.34,-22.088629
1427156752.356,-28.12307
1427156752.372,-33.34091
1427156752.387,-37.728878
1427156752.403,-41.133335
1427156752.418,-43.431572
1427156752.434,-44.67105
1427156752.45,-45.07108
1427156752.465,-44.975754
1427156752.481,-44.71535
1427156752.497,-44.498905
1427156752.512,-44.385952
1427156752.528,-44.298824
1427156752.543,-44.136684
1427156752.559,-43.85345
1427156752.575,-43.44171
1427156752.59,-42.907738
1427156752.606,-42.20934
1427156752.622,-41.202213
1427156752.637,-39.696907
1427156752.653,-37.57831
1427156752.668,-34.855904
1427156752.684,-31.693033
1427156752.7,-28.326633
1427156752.715,-24.940231
1427156752.731,-21.584888
1427156752.747,-18.22322
1427156752.762,-14.784607
1427156752.778,-11.270899
1427156752.794,-7.7698536
1427156752.809,-4.394415
1427156752.825,-1.1939416
1427156752.84,1.9003391
1427156752.856,5.0717983
1427156752.872,8.5110855
1427156752.887,12.327909
1427156752.903,16.467663
1427156752.918,20.759203
1427156752.934,24.91963
1427156752.95,28.736149
1427156752.965,32.11806
1427156752.981,35.180477
1427156752.997,38.23772
1427156753.012,41.754925
1427156753.028,46.241035
1427156753.044,52.04962
1427156753.059,59.195854
1427156753.075,67.16803
1427156753.09,74.84261
1427156753.106,80.604065
1427156753.122,82.737465
1427156753.137,79.9582
1427156753.153,71.892715
1427156753.169,59.313133
1427156753.184,43.94762
1427156753.2,27.932537
1427156753.215,13.10022
1427156753.231,0.5134144
1427156753.247,-9.655001
1427156753.262,-17.839611
1427156753.278,-24.6195
1427156753.294,-30.36802
1427156753.309,-35.160652
1427156753.325,-38.90035
1427156753.34,-41.56813
1427156753.356,-43.302017
1427156753.372,-44.364304
1427156753.387,-45.030342
1427156753.403,-45.463234
1427156753.419,-45.70285
1427156753.434,-45.72158
1427156753.45,-45.506935
1427156753.465,-45.115025
1427156753.481,-44.59934
1427156753.497,-44.05506
1427156753.512,-43.482254
1427156753.528,-42.847225
1427156753.544,-42.03562
1427156753.559,-40.868835
1427156753.575,-39.178215
1427156753.59,-36.881927
1427156753.606,-34.0166
1427156753.622,-30.75461
1427156753.637,-27.316584
1427156753.653,-23.88108
1427156753.669,-20.529266
1427156753.684,-17.20142
1427156753.7,-13.807135
1427156753.715,-10.315753
1427156753.731,-6.784275
1427156753.747,-3.3393612
1427156753.762,-0.10111904
1427156753.778,2.8827324
1427156753.794,5.693201
1427156753.809,8.505661
1427156753.825,11.551125
1427156753.84,15.004032
1427156753.856,18.924316
1427156753.872,23.217709
1427156753.887,27.65997
1427156753.903,31.958075
1427156753.919,35.88145
1427156753.934,39.41701
1427156753.95,42.77838
1427156753.965,46.40017
1427156753.981,50.815197
1427156753.997,56.42423
1427156754.012,63.27456
1427156754.028,70.81725
1427156754.044,77.8098
1427156754.059,82.47116
1427156754.075,83.005486
1427156754.09,78.18378
1427156754.106,67.95006
1427156754.122,53.543602
1427156754.137,37.110233
1427156754.153,20.994812
1427156754.169,6.9413033
1427156754.184,-4.32541
1427156754.2,-13.047819
1427156754.215,-19.981255
1427156754.231,-25.839775
1427156754.247,-30.975464
1427156754.262,-35.359787
1427156754.278,-38.803947
1427156754.294,-41.20118
1427156754.309,-42.643436
1427156754.325,-43.396965
1427156754.34,-43.77574
1427156754.356,-44.00662
1427156754.372,-44.198814
1427156754.387,-44.345463
1427156754.403,-44.379215
1427156754.419,-44.23514
1427156754.434,-43.91834
1427156754.45,-43.471
1427156754.465,-42.963085
1427156754.481,-42.364178
1427156754.497,-41.51358
1427156754.512,-40.167828
1427156754.528,-38.135597
1427156754.544,-35.36428
1427156754.559,-32.03404
1427156754.575,-28.455223
1427156754.59,-24.968304
1427156754.606,-21.765285
1427156754.622,-18.838703
1427156754.637,-15.994938
1427156754.653,-13.023205
1427156754.669,-9.77746
1427156754.684,-6.244181
1427156754.7,-2.5395012
1427156754.715,1.1511459
1427156754.731,4.72469
1427156754.747,8.183107
1427156754.762,11.650022
1427156754.778,15.299752
1427156754.794,19.245083
1427156754.809,23.421637
1427156754.825,27.62467
1427156754.84,31.567434
1427156754.856,35.073853
1427156754.872,38.238457
1427156754.887,41.41786
1427156754.903,45.102715
1427156754.919,49.79257
1427156754.934,55.72692
1427156754.95,62.75478
1427156754.965,70.202995
1427156754.981,76.86968
1427156754.997,81.1681
1427156755.012,81.537865
1427156755.028,76.91218
1427156755.044,67.18914
1427156755.059,53.38149
1427156755.075,37.375137
1427156755.09,21.2933
1427156755.106,6.8431873
1427156755.122,-5.1275053
1427156755.137,-14.601227
1427156755.153,-22.06808
1427156755.169,-28.061483
1427156755.184,-32.84881
1427156755.2,-36.431442
1427156755.215,-38.71891
1427156755.231,-39.73456
1427156755.247,-39.714348
1427156755.262,-39.080837
1427156755.278,-38.31726
1427156755.294,-37.82435
1427156755.309,-37.82045
1427156755.325,-38.25972
1427156755.34,-38.91629
1427156755.356,-39.454575
1427156755.372,-39.600113
1427156755.387,-39.243423
1427156755.403,-38.475216
1427156755.419,-37.472897
1427156755.434,-36.343285
1427156755.45,-34.98144
1427156755.466,-33.132416
1427156755.481,-30.505802
1427156755.497,-27.00462
1427156755.512,-22.82045
1427156755.528,-18.43335
1427156755.544,-14.359895
1427156755.559,-10.965973
1427156755.575,-8.248275
1427156755.59,-5.881691
1427156755.606,-3.3241138
1427156755.622,-0.061252594
1427156755.637,4.1743326
1427156755.653,9.24872
1427156755.669,14.719963
1427156755.684,19.978704
1427156755.7,24.516258
1427156755.716,28.11111
1427156755.731,30.898674
1427156755.747,33.319347
1427156755.762,35.941223
1427156755.778,39.30314
1427156755.794,43.820614
1427156755.809,49.66092
1427156755.825,56.614475
1427156755.841,63.986214
1427156755.856,70.53517
1427156755.872,74.63302
1427156755.887,74.731766
1427156755.903,69.877716
1427156755.919,60.17767
1427156755.934,46.851566
1427156755.95,31.850246
1427156755.966,17.153107
1427156755.981,4.1673355
1427156755.997,-6.5472555
1427156756.012,-15.1647005
1427156756.028,-22.144152
1427156756.044,-27.834663
1427156756.059,-32.28174
1427156756.075,-35.350563
1427156756.091,-36.99846
1427156756.106,-37.453815
1427156756.122,-37.247627
1427156756.137,-36.969643
1427156756.153,-37.06355
1427156756.169,-37.592834
1427156756.184,-38.319107
1427156756.2,-38.82418
1427156756.216,-38.806335
1427156756.231,-38.223415
1427156756.247,-37.322952
1427156756.262,-36.419712
1427156756.278,-35.713085
1427156756.294,-35.09388
1427156756.309,-34.161797
1427156756.325,-32.43367
1427156756.341,-29.604446
1427156756.356,-25.731049
1427156756.372,-21.253765
1427156756.387,-16.77874
1427156756.403,-12.802376
1427156756.419,-9.437628
1427156756.434,-6.4129467
1427156756.45,-3.1737385
1427156756.466,0.77988815
1427156756.481,5.6477604
1427156756.497,11.181622
1427156756.512,16.8273
1427156756.528,21.9431
1427156756.544,26.127562
1427156756.559,29.374245
1427156756.575,32.075848
1427156756.591,34.85792
1427156756.606,38.36451
1427156756.622,43.0724
1427156756.637,49.21324
1427156756.653,56.594532
1427156756.669,64.54291
1427156756.684,71.81803
1427156756.7,76.77057
1427156756.716,77.70691
1427156756.731,73.503944
1427156756.747,64.05728
1427156756.762,50.48352
1427156756.778,34.760517
1427156756.794,19.082607
1427156756.809,5.120125
1427156756.825,-6.3585587
1427156756.841,-15.469234
1427156756.856,-22.806278
1427156756.872,-28.946316
1427156756.887,-34.15563
1427156756.903,-38.373074
1427156756.919,-41.39858
1427156756.934,-43.15723
1427156756.95,-43.820927
1427156756.966,-43.8284
1427156756.981,-43.666927
1427156756.997,-43.734093
1427156757.012,-44.128498
1427156757.028,-44.668957
1427156757.044,-45.003735
1427156757.059,-44.819714
1427156757.075,-44.020126
1427156757.091,-42.79514
1427156757.106,-41.50108
1427156757.122,-40.430103
1427156757.137,-39.59868
1427156757.153,-38.688606
1427156757.169,-37.15585
1427156757.184,-34.510685
1427156757.2,-30.546082
1427156757.216,-25.481197
1427156757.231,-19.885574
1427156757.247,-14.459179
1427156757.262,-9.748184
1427156757.278,-5.9721375
1427156757.294,-2.9081764
1427156757.309,-0.043807983
1427156757.325,3.2195854
1427156757.341,7.301792
1427156757.356,12.261745
1427156757.372,17.776058
1427156757.387,23.289871
1427156757.403,28.258633
1427156757.419,32.387833
1427156757.434,35.731815
1427156757.45,38.651535
1427156757.466,41.69946
1427156757.481,45.453964
1427156757.497,50.408417
1427156757.512,56.81681
1427156757.528,64.534134
1427156757.544,72.837105
1427156757.559,80.352554
1427156757.575,85.26985
1427156757.591,85.807014
1427156757.606,80.87055
1427156757.622,70.50145
1427156757.637,55.973103
1427156757.653,39.349194
1427156757.669,22.834358
1427156757.684,8.074238
1427156757.7,-4.175747
1427156757.716,-13.990768
1427156757.731,-21.934864
1427156757.747,-28.66222
1427156757.762,-34.589878
1427156757.778,-39.81497
1427156757.794,-44.205635
1427156757.809,-47.573925
1427156757.825,-49.80443
1427156757.841,-50.970814
1427156757.856,-51.32164
1427156757.872,-51.181873
1427156757.887,-50.83516
1427156757.903,-50.434807
1427156757.919,-50.004837
1427156757.934,-49.511395
1427156757.95,-48.923897
1427156757.966,-48.275093
1427156757.981,-47.571186
1427156757.997,-46.74434
1427156758.012,-45.601444
1427156758.028,-43.901367
1427156758.044,-41.480976
1427156758.059,-38.367435
1427156758.075,-34.769897
1427156758.091,-31.012684
1427156758.106,-27.329498
1427156758.122,-23.796959
1427156758.137,-20.280842
1427156758.153,-16.601181
1427156758.169,-12.614471
1427156758.184,-8.388805
1427156758.2,-4.1575356
1427156758.216,-0.19526291
1427156758.231,3.3712196
1427156758.247,6.6411896
1427156758.262,9.944897
1427156758.278,13.628365
1427156758.294,17.883633
1427156758.309,22.597015
1427156758.325,27.432343
1427156758.341,31.993141
1427156758.356,36.03133
1427156758.372,39.560593
1427156758.388,42.865982
1427156758.403,46.374573
1427156758.419,50.567204
1427156758.434,55.839756
1427156758.45,62.39675
1427156758.466,70.03487
1427156758.481,78.00377
1427156758.497,84.92699
1427156758.513,89.009415
1427156758.528,88.53306
1427156758.544,82.489174
1427156758.559,71.00984
1427156758.575,55.43735
1427156758.591,37.89049
1427156758.606,20.614006
1427156758.622,5.30513
1427156758.638,-7.213131
1427156758.653,-16.990929
1427156758.669,-24.585094
1427156758.684,-30.709381
1427156758.7,-35.878357
1427156758.716,-40.332523
1427156758.731,-44.055305
1427156758.747,-46.958668
1427156758.763,-49.01269
1427156758.778,-50.331814
1427156758.794,-51.131218
1427156758.809,-51.634483
1427156758.825,-51.951668
1427156758.841,-52.05144
1427156758.856,-51.823452
1427156758.872,-51.19396
1427156758.888,-50.21379
1427156758.903,-49.056637
1427156758.919,-47.89693
1427156758.934,-46.78843
1427156758.95,-45.5541
1427156758.966,-43.89359
1427156758.981,-41.52579
1427156758.997,-38.380836
1427156759.013,-34.63452
1427156759.028,-30.683468
1427156759.044,-26.901913
1427156759.059,-23.506046
1427156759.075,-20.441181
1427156759.091,-17.458801
1427156759.106,-14.2390175
1427156759.122,-10.6095085
1427156759.138,-6.619957
1427156759.153,-2.5244484
1427156759.169,1.3305664
1427156759.184,4.7365494
1427156759.2,7.734436
1427156759.216,10.600826
1427156759.231,13.763683
1427156759.247,17.547958
1427156759.263,22.044891
1427156759.278,27.035324
1427156759.294,32.118984
1427156759.309,36.8444
1427156759.325,40.999435
1427156759.341,44.633987
1427156759.356,48.127666
1427156759.372,52.049423
1427156759.388,56.97646
1427156759.403,63.222507
1427156759.419,70.60272
1427156759.434,78.24232
1427156759.45,84.615555
1427156759.466,87.86943
1427156759.481,86.36416
1427156759.497,79.26897
1427156759.513,66.98939
1427156759.528,51.031673
1427156759.544,33.61004
1427156759.559,16.882734
1427156759.575,2.371212
1427156759.591,-9.334194
1427156759.606,-18.43166
1427156759.622,-25.546919
1427156759.638,-31.309147
1427156759.653,-36.114044
1427156759.669,-40.084366
1427156759.684,-43.201942
1427156759.7,-45.4524
1427156759.716,-46.941063
1427156759.731,-47.848457
1427156759.747,-48.400238
1427156759.763,-48.737743
1427156759.778,-48.900696
1427156759.794,-48.83424
1427156759.809,-48.53853
1427156759.825,-48.05591
1427156759.841,-47.526344
1427156759.856,-47.080635
1427156759.872,-46.71588
1427156759.888,-46.23163
1427156759.903,-45.289196
1427156759.919,-43.54337
1427156759.934,-40.835243
1427156759.95,-37.285484
1427156759.966,-33.240128
1427156759.981,-29.11469
1427156759.997,-25.211039
1427156760.013,-21.582804
1427156760.028,-18.08955
1427156760.044,-14.498442
1427156760.059,-10.680201
1427156760.075,-6.6926603
1427156760.091,-2.7784367
1427156760.106,0.81555843
1427156760.122,3.9803362
1427156760.138,6.85475
1427156760.153,9.78437
1427156760.169,13.182841
1427156760.184,17.279345
1427156760.2,22.022064
1427156760.216,27.046001
1427156760.231,31.870098
1427156760.247,36.10071
1427156760.263,39.632126
1427156760.278,42.67063
1427156760.294,45.705563
1427156760.309,49.301678
1427156760.325,53.974197
1427156760.341,59.964085
1427156760.356,67.09054
1427156760.372,74.55396
1427156760.388,80.998344
1427156760.403,84.68807
1427156760.419,83.98652
1427156760.434,77.905815
1427156760.45,66.57611
1427156760.466,51.292225
1427156760.481,34.191578
1427156760.497,17.538841
1427156760.513,3.0452452
1427156760.528,-8.535906
1427156760.544,-17.376968
1427156760.559,-24.15475
1427156760.575,-29.54546
1427156760.591,-33.89483
1427156760.606,-37.175583
1427156760.622,-39.24032
1427156760.638,-40.06277
1427156760.653,-39.943016
1427156760.669,-39.39757
1427156760.684,-38.97831
1427156760.7,-38.982803
1427156760.716,-39.36512
1427156760.731,-39.800255
1427156760.747,-39.898876
1427156760.763,-39.43561
1427156760.778,-38.480286
1427156760.794,-37.309868
1427156760.809,-36.268764
1427156760.825,-35.50833
1427156760.841,-34.881428
1427156760.856,-33.960266
1427156760.872,-32.22987
1427156760.888,-29.318272
1427156760.903,-25.21695
1427156760.919,-20.29765
1427156760.934,-15.1969385
1427156760.95,-10.531924
1427156760.966,-6.6685114
1427156760.981,-3.5619364
1427156760.997,-0.80645466
1427156761.013,2.147828
1427156761.028,5.731988
1427156761.044,10.044532
1427156761.06,14.833629
1427156761.075,19.632233
1427156761.091,23.979351
1427156761.106,27.645802
1427156761.122,30.71856
1427156761.138,33.548283
1427156761.153,36.596054
1427156761.169,40.32258
1427156761.185,45.079685
1427156761.2,51.040874
1427156761.216,58.08353
1427156761.231,65.60919
1427156761.247,72.45784
1427156761.263,77.02345
1427156761.278,77.61703
1427156761.294,73.09668
1427156761.31,63.3469
1427156761.325,49.446777
1427156761.341,33.33286
1427156761.356,17.173546
1427156761.372,2.66195
1427156761.388,-9.309097
1427156761.403,-18.66063
1427156761.419,-25.730825
1427156761.435,-30.934853
1427156761.45,-34.53651
1427156761.466,-36.71085
1427156761.481,-37.670147
1427156761.497,-37.7501
1427156761.513,-37.374695
1427156761.528,-36.913845
1427156761.544,-36.588894
1427156761.56,-36.43564
1427156761.575,-36.352806
1427156761.591,-36.22502
1427156761.606,-35.995148
1427156761.622,-35.6736
1427156761.638,-35.287643
1427156761.653,-34.838806
1427156761.669,-34.231236
1427156761.685,-33.307083
1427156761.7,-31.840107
1427156761.716,-29.673428
1427156761.731,-26.747597
1427156761.747,-23.169981
1427156761.763,-19.14127
1427156761.778,-14.901911
1427156761.794,-10.6246
1427156761.81,-6.3851614
1427156761.825,-2.1261644
1427156761.841,2.2473555
1427156761.856,6.79033
1427156761.872,11.497477
1427156761.888,16.290764
1427156761.903,21.018059
1427156761.919,25.552864
1427156761.935,29.793974
1427156761.95,33.743546
1427156761.966,37.58407
1427156761.981,41.695446
1427156761.997,46.56759
1427156762.013,52.58996
1427156762.028,59.67499
1427156762.044,66.998146
1427156762.06,72.98653
1427156762.075,75.73219
1427156762.091,73.61571
1427156762.106,65.98596
1427156762.122,53.50007
1427156762.138,37.949734
1427156762.153,21.632698
1427156762.169,6.61487
1427156762.185,-5.8919787
1427156762.2,-15.656251
1427156762.216,-23.182518
1427156762.231,-29.224653
1427156762.247,-34.33758
1427156762.263,-38.669743
1427156762.278,-42.060368
1427156762.294,-44.27634
1427156762.31,-45.276585
1427156762.325,-45.28985
1427156762.341,-44.76249
1427156762.356,-44.184975
1427156762.372,-43.903076
1427156762.388,-43.97119
1427156762.403,-44.229706
1427156762.419,-44.398067
1427156762.435,-44.246166
1427156762.45,-43.668354
1427156762.466,-42.70325
1427156762.481,-41.44939
1427156762.497,-39.974022
1427156762.513,-38.264942
1427156762.528,-36.207344
1427156762.544,-33.66833
1427156762.56,-30.544464
1427156762.575,-26.84691
1427156762.591,-22.679935
1427156762.606,-18.27333
1427156762.622,-13.865068
1427156762.638,-9.640325
1427156762.653,-5.688915
1427156762.669,-1.9462292
1427156762.685,1.7436137
1427156762.7,5.6057515
1427156762.716,9.793299
1427156762.731,14.372511
1427156762.747,19.22353
1427156762.763,24.086716
1427156762.778,28.65932
1427156762.794,32.711197
1427156762.81,36.206272
1427156762.825,39.336906
1427156762.841,42.468525
1427156762.856,46.018356
1427156762.872,50.39265
1427156762.888,55.91313
1427156762.903,62.659824
1427156762.919,70.3571
1427156762.935,78.150986
1427156762.95,84.60373
1427156762.966,87.89382
1427156762.981,86.377464
1427156762.997,79.19225
1427156763.013,66.732796
1427156763.028,50.6082
1427156763.044,33.116207
1427156763.06,16.451982
1427156763.075,2.0343428
1427156763.091,-9.737003
1427156763.106,-19.219639
1427156763.122,-27.034437
1427156763.138,-33.606552
1427156763.153,-39.037582
1427156763.169,-43.20518
1427156763.185,-46.07306
1427156763.2,-47.776
1427156763.216,-48.68148
1427156763.231,-49.184372
1427156763.247,-49.575764
1427156763.263,-49.922363
1427156763.278,-50.135933
1427156763.294,-50.089058
1427156763.31,-49.718876
1427156763.325,-49.123802
1427156763.341,-48.471302
1427156763.356,-47.892914
1427156763.372,-47.379784
1427156763.388,-46.699818
1427156763.403,-45.529274
1427156763.419,-43.577614
1427156763.435,-40.764038
1427156763.45,-37.257416
1427156763.466,-33.41883
1427156763.481,-29.616028
1427156763.497,-26.068325
1427156763.513,-22.754698
1427156763.528,-19.472647
1427156763.544,-15.963184
1427156763.56,-12.096464
1427156763.575,-7.938027
1427156763.591,-3.735876
1427156763.606,0.20115566
1427156763.622,3.65129
1427156763.638,6.6350784
1427156763.653,9.374668
1427156763.669,12.2982
1427156763.685,15.78697
1427156763.7,20.042871
1427156763.716,24.972168
1427156763.732,30.213272
1427156763.747,35.2814
1427156763.763,39.78222
1427156763.778,43.596313
1427156763.794,46.908424
1427156763.81,50.190895
1427156763.825,54.04386
1427156763.841,59.020042
1427156763.856,65.38957
1427156763.872,72.881195
1427156763.888,80.52617
1427156763.903,86.69371
1427156763.919,89.455185
1427156763.935,87.15816
1427156763.95,79.10382
1427156763.966,65.83784
1427156763.982,49.110603
1427156763.997,31.286564
1427156764.013,14.598932
1427156764.028,0.5019703
1427156764.044,-10.572826
1427156764.06,-19.020813
1427156764.075,-25.634113
1427156764.091,-31.119738
1427156764.107,-35.859016
1427156764.122,-39.919792
1427156764.138,-43.18238
1427156764.153,-45.59217
1427156764.169,-47.20594
1427156764.185,-48.218124
1427156764.2,-48.82972
1427156764.216,-49.170654
1427156764.232,-49.234478
1427156764.247,-48.97261
1427156764.263,-48.38516
1427156764.278,-47.585518
1427156764.294,-46.80233
1427156764.31,-46.245434
1427156764.325,-45.91898
1427156764.341,-45.575344
1427156764.357,-44.78559
1427156764.372,-43.16249
1427156764.388,-40.54249
1427156764.403,-37.091484
1427156764.419,-33.213474
1427156764.435,-29.338776
1427156764.45,-25.739351
1427156764.466,-22.433184
1427156764.482,-19.238161
1427156764.497,-15.937317
1427156764.513,-12.397179
1427156764.528,-8.630384
1427156764.544,-4.785574
1427156764.56,-1.0186787
1427156764.575,2.6096134
1427156764.591,6.131384
1427156764.607,9.684774
1427156764.622,13.416157
1427156764.638,17.383999
1427156764.653,21.51061
1427156764.669,25.6535
1427156764.685,29.625223
1427156764.7,33.31295
1427156764.716,36.736275
1427156764.732,40.035587
1427156764.747,43.488136
1427156764.763,47.48445
1427156764.778,52.442467
1427156764.794,58.64788
1427156764.81,65.97599
1427156764.825,73.63406
1427156764.841,80.13168
1427156764.857,83.576065
1427156764.872,82.23468
1427156764.888,75.27125
1427156764.903,63.140724
1427156764.919,47.497414
1427156764.935,30.617504
1427156764.95,14.628994
1427156764.966,0.84176254
1427156764.982,-10.365192
1427156764.997,-19.307434
1427156765.013,-26.508728
1427156765.028,-32.315376
1427156765.044,-36.78136
1427156765.06,-39.850338
1427156765.075,-41.523026
1427156765.091,-42.06056
1427156765.107,-41.890648
1427156765.122,-41.496956
1427156765.138,-41.20408
1427156765.153,-41.140823
1427156765.169,-41.211143
1427156765.185,-41.243336
1427156765.2,-41.05367
1427156765.216,-40.54603
1427156765.232,-39.72693
1427156765.247,-38.69961
1427156765.263,-37.582584
1427156765.278,-36.446674
1427156765.294,-35.24764
1427156765.31,-33.831566
1427156765.325,-31.945652
1427156765.341,-29.358288
1427156765.357,-25.952644
1427156765.372,-21.834652
1427156765.388,-17.334427
1427156765.403,-12.905857
1427156765.419,-8.955181
1427156765.435,-5.6766167
1427156765.45,-2.9157143
1427156765.466,-0.29260254
1427156765.482,2.6754837
1427156765.497,6.311878
1427156765.513,10.667465
1427156765.528,15.455368
1427156765.544,20.234806
1427156765.56,24.554352
1427156765.575,28.1725
1427156765.591,31.122288
1427156765.607,33.67334
1427156765.622,36.2381
1427156765.638,39.255383
1427156765.653,43.11596
1427156765.669,48.10954
1427156765.685,54.2805
1427156765.7,61.273552
1427156765.716,68.16211
1427156765.732,73.51275
1427156765.747,75.63132
1427156765.763,73.15806
1427156765.778,65.53754
1427156765.794,53.383026
1427156765.81,38.30235
1427156765.825,22.39259
1427156765.841,7.56448
1427156765.857,-4.976761
1427156765.872,-14.864746
1427156765.888,-22.356537
1427156765.903,-27.934284
1427156765.919,-31.968613
1427156765.935,-34.633404
1427156765.95,-35.98918
1427156765.966,-36.195473
1427156765.982,-35.59051
1427156765.997,-34.679726
1427156766.013,-33.94281
1427156766.028,-33.69935
1427156766.044,-33.95471
1427156766.06,-34.449467
1427156766.075,-34.800972
1427156766.091,-34.735767
1427156766.107,-34.213245
1427156766.122,-33.446556
1427156766.138,-32.70942
1427156766.153,-32.13798
1427156766.169,-31.565102
1427156766.185,-30.557991
1427156766.2,-28.606632
1427156766.216,-25.422146
1427156766.232,-21.104664
1427156766.247,-16.161747
1427156766.263,-11.231709
1427156766.278,-6.8393135
1427156766.294,-3.1154823
1427156766.31,0.20623016
1427156766.325,3.6100655
1427156766.341,7.489483
1427156766.357,11.959896
1427156766.372,16.782616
1427156766.388,21.538315
1427156766.404,25.856464
1427156766.419,29.59393
1427156766.435,32.910904
1427156766.45,36.191265
1427156766.466,39.89944
1427156766.482,44.476845
1427156766.497,50.175976
1427156766.513,56.9317
1427156766.528,64.19997
1427156766.544,70.85155
1427156766.56,75.304756
1427156766.575,75.899124
1427156766.591,71.49769
1427156766.607,61.96116
1427156766.622,48.3463
1427156766.638,32.599426
1427156766.654,16.925274
1427156766.669,3.0578995
1427156766.685,-8.168716
1427156766.7,-16.821846
1427156766.716,-23.52179
1427156766.732,-28.967422
1427156766.747,-33.586784
1427156766.763,-37.40984
1427156766.779,-40.28296
1427156766.794,-42.08096
1427156766.81,-42.899742
1427156766.825,-43.06478
1427156766.841,-43.00895
1427156766.857,-43.052666
1427156766.872,-43.29022
1427156766.888,-43.582436
1427156766.904,-43.69763
1427156766.919,-43.46669
1427156766.935,-42.88305
1427156766.95,-42.079914
1427156766.966,-41.206398
1427156766.982,-40.311584
1427156766.997,-39.27012
1427156767.013,-37.842422
1427156767.029,-35.837578
1427156767.044,-33.191162
1427156767.06,-30.047874
1427156767.075,-26.633278
1427156767.091,-23.159138
1427156767.107,-19.703619
1427156767.122,-16.22101
1427156767.138,-12.607203
1427156767.154,-8.860445
1427156767.169,-5.1028347
1427156767.185,-1.5497723
1427156767.2,1.6424637
1427156767.216,4.506069
1427156767.232,7.3256607
1427156767.247,10.507809
1427156767.263,14.393143
1427156767.279,19.038563
1427156767.294,24.182755
1427156767.31,29.336643
1427156767.325,34.007584
1427156767.341,37.903595
1427156767.357,41.084137
1427156767.372,43.912975
1427156767.388,46.96335
1427156767.404,50.87163
1427156767.419,56.129807
1427156767.435,62.868134
1427156767.45,70.64502
1427156767.466,78.27959
1427156767.482,84.022095
1427156767.497,85.94086
1427156767.513,82.60609
1427156767.529,73.60204
1427156767.544,59.854237
1427156767.56,43.28371
1427156767.575,26.218088
1427156767.591,10.616148
1427156767.607,-2.4637527
1427156767.622,-12.900965
1427156767.638,-21.183254
1427156767.654,-27.93732
1427156767.669,-33.55114
1427156767.685,-38.103096
1427156767.7,-41.485916
1427156767.716,-43.67472
1427156767.732,-44.8363
1427156767.747,-45.349243
1427156767.763,-45.58619
1427156767.779,-45.821426
1427156767.794,-46.088566
1427156767.81,-46.281452
1427156767.825,-46.260773
1427156767.841,-46.006844
1427156767.857,-45.633667
1427156767.872,-45.33497
1427156767.888,-45.201675
1427156767.904,-45.11521
1427156767.919,-44.738632
1427156767.935,-43.675537
1427156767.95,-41.636574
1427156767.966,-38.617104
1427156767.982,-34.93061
1427156767.997,-31.065996
1427156768.013,-27.468369
1427156768.029,-24.38037
1427156768.044,-21.725092
1427156768.06,-19.202003
1427156768.075,-16.402819
1427156768.091,-13.053291
1427156768.107,-9.118057
1427156768.122,-4.8602734
1427156768.138,-0.69713974
1427156768.154,2.9777775
1427156768.169,6.020075
1427156768.185,8.60998
1427156768.2,11.1874695
1427156768.216,14.231443
1427156768.232,18.035418
1427156768.247,22.531464
1427156768.263,27.366808
1427156768.279,32.055523
1427156768.294,36.216713
1427156768.31,39.711952
1427156768.325,42.697994
1427156768.341,45.541798
1427156768.357,48.738903
1427156768.372,52.80373
1427156768.388,58.124683
1427156768.404,64.76248
1427156768.419,72.21005
1427156768.435,79.23761
1427156768.45,84.069
1427156768.466,84.82587
1427156768.482,80.19696
1427156768.497,70.00432
1427156768.513,55.39947
1427156768.529,38.468246
1427156768.544,21.557985
1427156768.56,6.5055695
1427156768.575,-5.8063602
1427156768.591,-15.4422455
1427156768.607,-23.008333
1427156768.622,-29.162958
1427156768.638,-34.244797
1427156768.654,-38.25728
1427156768.669,-41.05078
1427156768.685,-42.62139
1427156768.7,-43.18741
1427156768.716,-43.219955
1427156768.732,-43.179127
1427156768.747,-43.362167
1427156768.763,-43.792328
1427156768.779,-44.271072
1427156768.794,-44.570625
1427156768.81,-44.57006
1427156768.825,-44.31678
1427156768.841,-43.92562
1427156768.857,-43.48231
1427156768.872,-42.935276
1427156768.888,-42.099422
1427156768.904,-40.764008
1427156768.919,-38.786274
1427156768.935,-36.198357
1427156768.95,-33.144936
1427156768.966,-29.842356
1427156768.982,-26.442127
1427156768.997,-23.023088
1427156769.013,-19.540033
1427156769.029,-15.9226265
1427156769.044,-12.125063
1427156769.06,-8.208721
1427156769.075,-4.3049107
1427156769.091,-0.5734272
1427156769.107,2.9188595
1427156769.122,6.23279
1427156769.138,9.579437
1427156769.154,13.176247
1427156769.169,17.184746
1427156769.185,21.559845
1427156769.2,26.099619
1427156769.216,30.522993
1427156769.232,34.614723
1427156769.247,38.324623
1427156769.263,41.84527
1427156769.279,45.57835
1427156769.294,50.010498
1427156769.31,55.583824
1427156769.326,62.410263
1427156769.341,70.02339
1427156769.357,77.25915
1427156769.372,82.37367
1427156769.388,83.52576
1427156769.404,79.39442
1427156769.419,69.74701
1427156769.435,55.583748
1427156769.451,38.89763
1427156769.466,21.95326
1427156769.482,6.644682
1427156769.497,-5.9784775
1427156769.513,-15.765394
1427156769.529,-23.152388
1427156769.544,-28.74001
1427156769.56,-33.000015
1427156769.576,-36.14732
1427156769.591,-38.26803
1427156769.607,-39.478497
1427156769.622,-40.01922
1427156769.638,-40.23945
1427156769.654,-40.47474
1427156769.669,-40.898407
1427156769.685,-41.42859
1427156769.701,-41.773064
1427156769.716,-41.63203
1427156769.732,-40.837315
1427156769.747,-39.52068
1427156769.763,-38.018387
1427156769.779,-36.71733
1427156769.794,-35.79502
1427156769.81,-35.138344
1427156769.826,-34.323177
1427156769.841,-32.870613
1427156769.857,-30.426155
1427156769.872,-26.939264
1427156769.888,-22.672586
1427156769.904,-18.079735
1427156769.919,-13.633922
1427156769.935,-9.632387
1427156769.951,-6.119524
1427156769.966,-2.8849611
1427156769.982,0.46366024
1427156769.997,4.2787085
1427156770.013,8.759428
1427156770.029,13.800673
1427156770.044,19.04975
1427156770.06,24.032396
1427156770.076,28.37196
1427156770.091,31.942032
1427156770.107,34.964012
1427156770.122,37.93562
1427156770.138,41.50949
1427156770.154,46.258667
1427156770.169,52.469288
1427156770.185,59.89197
1427156770.201,67.630264
1427156770.216,74.168015
1427156770.232,77.71254
1427156770.247,76.69775
1427156770.263,70.379234
1427156770.279,59.126583
1427156770.294,44.392612
1427156770.31,28.262003
1427156770.326,12.762162
1427156770.341,-0.6556015
1427156770.357,-11.398599
1427156770.372,-19.596819
1427156770.388,-25.73707
1427156770.404,-30.31125
1427156770.419,-33.608643
1427156770.435,-35.70613
1427156770.451,-36.630817
1427156770.466,-36.527733
1427156770.482,-35.71789
1427156770.497,-34.65278
1427156770.513,-33.759224
1427156770.529,-33.31008
1427156770.544,-33.331985
1427156770.56,-33.648544
1427156770.576,-33.972496
1427156770.591,-34.024975
1427156770.607,-33.624153
1427156770.622,-32.6829
1427156770.638,-31.1997
1427156770.654,-29.217693
1427156770.669,-26.793163
1427156770.685,-23.989843
1427156770.701,-20.828548
1427156770.716,-17.306784
1427156770.732,-13.377813
1427156770.747,-9.026056
1427156770.763,-4.286026
1427156770.779,0.69457626
1427156770.794,5.692032
1427156770.81,10.476902
1427156770.826,14.913406
1427156770.841,18.980604
1427156770.857,22.800394
1427156770.872,26.593933
1427156770.888,30.66193
1427156770.904,35.320835
1427156770.919,40.905575
1427156770.935,47.599953
1427156770.951,55.25431
1427156770.966,63.16496
1427156770.982,70.04792
1427156770.997,74.23723
1427156771.013,74.161064
1427156771.029,68.90495
1427156771.044,58.61543
1427156771.06,44.53652
1427156771.076,28.629253
1427156771.091,12.91795
1427156771.107,-1.0875435
1427156771.122,-12.695469
1427156771.138,-21.97094
1427156771.154,-29.362648
1427156771.169,-35.28806
1427156771.185,-39.928677
1427156771.201,-43.245384
1427156771.216,-45.201725
1427156771.232,-45.936398
1427156771.247,-45.830055
1427156771.263,-45.364418
1427156771.279,-44.940582
1427156771.294,-44.721825
1427156771.31,-44.64041
1427156771.326,-44.48486
1427156771.341,-44.0687
1427156771.357,-43.321705
1427156771.372,-42.30018
1427156771.388,-41.095146
1427156771.404,-39.736168
1427156771.419,-38.128933
1427156771.435,-36.081154
1427156771.451,-33.360573
1427156771.466,-29.873505
1427156771.482,-25.689968
1427156771.497,-21.108929
1427156771.513,-16.519463
1427156771.529,-12.26067
1427156771.544,-8.44669
1427156771.56,-4.8904953
1427156771.576,-1.17976
1427156771.591,3.1089554
1427156771.607,8.18462
1427156771.622,13.91737
1427156771.638,19.854496
1427156771.654,25.457333
1427156771.669,30.34924
1427156771.685,34.46057
1427156771.701,38.108448
1427156771.716,41.861965
1427156771.732,46.368267
1427156771.747,52.126427
1427156771.763,59.277267
1427156771.779,67.398636
1427156771.794,75.407394
1427156771.81,81.66087
1427156771.826,84.321686
1427156771.841,81.91823
1427156771.857,73.939
1427156771.872,61.05661
1427156771.888,44.99726
1427156771.904,27.934563
1427156771.919,11.815514
1427156771.935,-2.2211914
1427156771.951,-13.889427
1427156771.966,-23.543037
1427156771.982,-31.674805
1427156771.998,-38.613953
1427156772.013,-44.381973
1427156772.029,-48.85653
1427156772.044,-51.955757
1427156772.06,-53.78969
1427156772.076,-54.655113
1427156772.091,-54.903465
1427156772.107,-54.823776
1427156772.123,-54.561813
1427156772.138,-54.15911
1427156772.154,-53.615997
1427156772.169,-52.974434
1427156772.185,-52.33499
1427156772.201,-51.78122
1427156772.216,-51.325096
1427156772.232,-50.79975
1427156772.248,-49.91371
1427156772.263,-48.334816
1427156772.279,-45.855988
1427156772.294,-42.489227
1427156772.31,-38.517807
1427156772.326,-34.37532
1427156772.341,-30.483429
1427156772.357,-27.059212
1427156772.373,-24.040588
1427156772.388,-21.102211
1427156772.404,-17.842941
1427156772.419,-13.965042
1427156772.435,-9.451546
1427156772.451,-4.562172
1427156772.466,0.23623657
1427156772.482,4.5456924
1427156772.498,8.183796
1427156772.513,11.305126
1427156772.529,14.318573
1427156772.544,17.700245
1427156772.56,21.765175
1427156772.576,26.554462
1427156772.591,31.785595
1427156772.607,37.01655
1427156772.623,41.829884
1427156772.638,46.030815
1427156772.654,49.74782
1427156772.669,53.41132
1427156772.685,57.644127
1427156772.701,63.05371
1427156772.716,69.946106
1427156772.732,78.06427
1427156772.748,86.39823
1427156772.763,93.254684
1427156772.779,96.60332
1427156772.794,94.72012
1427156772.81,86.78151
1427156772.826,73.27856
1427156772.841,55.91941
1427156772.857,37.103516
1427156772.873,19.146969
1427156772.888,3.6392174
1427156772.904,-8.868504
1427156772.919,-18.659752
1427156772.935,-26.449554
1427156772.951,-32.87373
1427156772.966,-38.27256
1427156772.982,-42.661785
1427156772.998,-45.973618
1427156773.013,-48.255028
1427156773.029,-49.750637
1427156773.044,-50.829636
1427156773.06,-51.80928
1427156773.076,-52.806194
1427156773.091,-53.69314
1427156773.107,-54.2034
1427156773.123,-54.10689
1427156773.138,-53.344566
1427156773.154,-52.117237
1427156773.169,-50.729782
1427156773.185,-49.46145
1427156773.201,-48.380196
1427156773.216,-47.309135
1427156773.232,-45.91139
1427156773.248,-43.8946
1427156773.263,-41.132153
1427156773.279,-37.743546
1427156773.294,-33.980637
1427156773.31,-30.110428
1427156773.326,-26.269138
1427156773.341,-22.424847
1427156773.357,-18.443981
1427156773.373,-14.247177
1427156773.388,-9.879829
1427156773.404,-5.563072
1427156773.419,-1.532692
1427156773.435,2.049343
1427156773.451,5.2442017
1427156773.466,8.324905
1427156773.482,11.660713
1427156773.498,15.521431
1427156773.513,19.982735
1427156773.529,24.848328
1427156773.544,29.764023
1427156773.56,34.373146
1427156773.576,38.490486
1427156773.591,42.166714
1427156773.607,45.728966
1427156773.623,49.660885
1427156773.638,54.502895
1427156773.654,60.641907
1427156773.669,68.08621
1427156773.685,76.2119
1427156773.701,83.71341
1427156773.716,88.758484
1427156773.732,89.51191
1427156773.748,84.73528
1427156773.763,74.36431
1427156773.779,59.549316
1427156773.794,42.399727
1427156773.81,25.204292
1427156773.826,9.73665
1427156773.841,-3.1629162
1427156773.857,-13.574636
1427156773.873,-22.076702
1427156773.888,-29.227821
1427156773.904,-35.260048
1427156773.919,-40.05024
1427156773.935,-43.365417
1427156773.951,-45.16459
1427156773.966,-45.769016
1427156773.982,-45.740887
1427156773.998,-45.72213
1427156774.013,-46.072617
1427156774.029,-46.783886
1427156774.044,-47.482117
1427156774.06,-47.718506
1427156774.076,-47.18334
1427156774.091,-45.93152
1427156774.107,-44.275
1427156774.123,-42.63115
1427156774.138,-41.2731
1427156774.154,-40.155785
1427156774.169,-38.939056
1427156774.185,-37.167114
1427156774.201,-34.45492
1427156774.216,-30.71164
1427156774.232,-26.165161
1427156774.248,-21.296093
1427156774.263,-16.617765
1427156774.279,-12.494213
1427156774.294,-9.009285
1427156774.31,-5.96294
1427156774.326,-2.9400415
1427156774.341,0.4785328
1427156774.357,4.5728493
1427156774.373,9.3571415
1427156774.388,14.593101
1427156774.404,19.845692
1427156774.419,24.670109
1427156774.435,28.793617
1427156774.451,32.21025
1427156774.466,35.210407
1427156774.482,38.279984
1427156774.498,41.955597
1427156774.513,46.69022
1427156774.529,52.70795
1427156774.544,59.847248
1427156774.56,67.44232
1427156774.576,74.27803
1427156774.591,78.726906
1427156774.607,79.1651
1427156774.623,74.517876
1427156774.638,64.732735
1427156774.654,50.906635
1427156774.67,34.991364
1427156774.685,19.117111
1427156774.701,4.948421
1427156774.716,-6.721548
1427156774.732,-15.922166
1427156774.748,-23.15678
1427156774.763,-28.925716
1427156774.779,-33.46566
1427156774.795,-36.76707
1427156774.81,-38.738396
1427156774.826,-39.40632
1427156774.841,-39.007347
1427156774.857,-37.949455
1427156774.873,-36.691086
1427156774.888,-35.59677
1427156774.904,-34.880634
1427156774.92,-34.56365
1427156774.935,-34.51703
1427156774.951,-34.51274
1427156774.966,-34.32614
1427156774.982,-33.748978
1427156774.998,-32.652584
1427156775.013,-30.956429
1427156775.029,-28.67077
1427156775.045,-25.84251
1427156775.06,-22.587765
1427156775.076,-19.021849
1427156775.091,-15.249536
1427156775.107,-11.294357
1427156775.123,-7.1163263
1427156775.138,-2.613439
1427156775.154,2.2506313
1427156775.17,7.399831
1427156775.185,12.611325
1427156775.201,17.604427
1427156775.216,22.136786
1427156775.232,26.158073
1427156775.248,29.814642
1427156775.263,33.465996
1427156775.279,37.547688
1427156775.295,42.461983
1427156775.31,48.41746
1427156775.326,55.2341
1427156775.341,62.21724
1427156775.357,68.13872
1427156775.373,71.45215
1427156775.388,70.717224
1427156775.404,65.09885
1427156775.42,54.742874
1427156775.435,40.792747
1427156775.451,25.111774
1427156775.466,9.683739
1427156775.482,-3.9025908
1427156775.498,-14.833673
1427156775.513,-23.027422
1427156775.529,-28.939362
1427156775.545,-33.181026
1427156775.56,-36.251945
1427156775.576,-38.446754
1427156775.591,-39.874466
1427156775.607,-40.58952
1427156775.623,-40.734577
1427156775.638,-40.522453
1427156775.654,-40.203194
1427156775.67,-39.933372
1427156775.685,-39.685112
1427156775.701,-39.27079
1427156775.716,-38.49649
1427156775.732,-37.29012
1427156775.748,-35.78119
1427156775.763,-34.18811
1427156775.779,-32.66248
1427156775.795,-31.13044
1427156775.81,-29.294708
1427156775.826,-26.797863
1427156775.841,-23.463871
1427156775.857,-19.41079
1427156775.873,-15.029646
1427156775.888,-10.767223
1427156775.904,-6.9044027
1427156775.92,-3.3871832
1427156775.935,0.115262985
1427156775.951,4.0370483
1427156775.966,8.651781
1427156775.982,13.920822
1427156775.998,19.481226
1427156776.013,24.817753
1427156776.029,29.466578
1427156776.045,33.23838
1427156776.06,36.30359
1427156776.076,39.1649
1427156776.091,42.532967
1427156776.107,47.116795
1427156776.123,53.293846
1427156776.138,60.887127
1427156776.154,68.94606
1427156776.17,75.83649
1427156776.185,79.587
1427156776.201,78.519
1427156776.216,71.85747
1427156776.232,60.0922
1427156776.248,44.848232
1427156776.263,28.340488
1427156776.279,12.611511
1427156776.295,-1.0275936
1427156776.31,-12.182714
1427156776.326,-21.127445
1427156776.341,-28.384287
1427156776.357,-34.320156
1427156776.373,-39.033188
1427156776.388,-42.447853
1427156776.404,-44.563705
1427156776.42,-45.542946
1427156776.435,-45.753025
1427156776.451,-45.629856
1427156776.466,-45.508392
1427156776.482,-45.544064
1427156776.498,-45.704376
1427156776.513,-45.81424
1427156776.529,-45.710274
1427156776.545,-45.293095
1427156776.56,-44.590195
1427156776.576,-43.67068
1427156776.591,-42.616627
1427156776.607,-41.371284
1427156776.623,-39.83663
1427156776.638,-37.86946
1427156776.654,-35.403625
1427156776.67,-32.4365
1427156776.685,-29.054087
1427156776.701,-25.344278
1427156776.716,-21.40265
1427156776.732,-17.299786
1427156776.748,-13.146011
1427156776.763,-9.112877
1427156776.779,-5.35104
1427156776.795,-1.9318295
1427156776.81,1.2309742
1427156776.826,4.4028378
1427156776.841,7.8906803
1427156776.857,11.913414
1427156776.873,16.459774
1427156776.888,21.308954
1427156776.904,26.095804
1427156776.92,30.525295
1427156776.935,34.438507
1427156776.951,37.921326
1427156776.966,41.211723
1427156776.982,44.670204
1427156776.998,48.6728
1427156777.013,53.57069
1427156777.029,59.581306
1427156777.045,66.62288
1427156777.06,74.12796
1427156777.076,80.93093
1427156777.091,85.39893
1427156777.107,85.85626
1427156777.123,81.13918
1427156777.138,71.101974
1427156777.154,56.764626
1427156777.17,40.030495
1427156777.185,23.04829
1427156777.201,7.570898
1427156777.216,-5.476494
1427156777.232,-15.9692955
1427156777.248,-24.29335
1427156777.263,-30.935287
1427156777.279,-36.21393
1427156777.295,-40.2311
1427156777.31,-43.02666
1427156777.326,-44.698708
1427156777.342,-45.525772
1427156777.357,-45.886078
1427156777.373,-46.134117
1427156777.388,-46.472794
1427156777.404,-46.89969
1427156777.42,-47.246277
1427156777.435,-47.31652
1427156777.451,-46.954285
1427156777.466,-46.16414
1427156777.482,-45.038673
1427156777.498,-43.739906
1427156777.513,-42.336452
1427156777.529,-40.80962
1427156777.545,-39.02354
1427156777.56,-36.843388
1427156777.576,-34.211815
1427156777.592,-31.204441
1427156777.607,-27.993744
1427156777.623,-24.768833
1427156777.638,-21.604527
1427156777.654,-18.42551
1427156777.67,-15.066013
1427156777.685,-11.390442
1427156777.701,-7.400387
1427156777.717,-3.3006706
1427156777.732,0.6421623
1427156777.748,4.1939354
1427156777.763,7.3600273
1427156777.779,10.371227
1427156777.795,13.591091
1427156777.81,17.31483
1427156777.826,21.625404
1427156777.842,26.321095
1427156777.857,31.02671
1427156777.873,35.376263
1427156777.888,39.185028
1427156777.904,42.517815
1427156777.92,45.71728
1427156777.935,49.25793
1427156777.951,53.629604
1427156777.967,59.161835
1427156777.982,65.77945
1427156777.998,72.84984
1427156778.013,79.11223
1427156778.029,82.89585
1427156778.045,82.579124
1427156778.06,77.16322
1427156778.076,66.68942
1427156778.092,52.296864
1427156778.107,35.899628
1427156778.123,19.531288
1427156778.138,4.7758713
1427156778.154,-7.5733986
1427156778.17,-17.489594
1427156778.185,-25.383358
1427156778.201,-31.715923
1427156778.217,-36.789097
1427156778.232,-40.6774
1427156778.248,-43.382755
1427156778.263,-44.96779
1427156778.279,-45.640163
1427156778.295,-45.712677
1427156778.31,-45.510975
1427156778.326,-45.2586
1427156778.342,-45.02544
1427156778.357,-44.750896
1427156778.373,-44.361675
1427156778.388,-43.815365
1427156778.404,-43.18589
1427156778.42,-42.54827
1427156778.435,-41.94012
1427156778.451,-41.238224
1427156778.467,-40.220272
1427156778.482,-38.62337
1427156778.498,-36.318516
1427156778.513,-33.3589
1427156778.529,-29.977257
1427156778.545,-26.441856
1427156778.56,-22.948399
1427156778.576,-19.534885
1427156778.592,-16.14043
1427156778.607,-12.693939
1427156778.623,-9.201965
1427156778.638,-5.754116
1427156778.654,-2.46661
1427156778.67,0.6487274
1427156778.685,3.6957397
1427156778.701,6.8947678
1427156778.717,10.439224
1427156778.732,14.420067
1427156778.748,18.746048
1427156778.763,23.238937
1427156778.779,27.659851
1427156778.795,31.84967
1427156778.81,35.732513
1427156778.826,39.354904
1427156778.842,42.87384
1427156778.857,46.576347
1427156778.873,50.851563
1427156778.888,56.08053
1427156778.904,62.347084
1427156778.92,69.195984
1427156778.935,75.46726
1427156778.951,79.47698
1427156778.967,79.4933
1427156778.982,74.37953
1427156778.998,64.09712
1427156779.013,49.82669
1427156779.029,33.558586
1427156779.045,17.461899
1427156779.06,3.1658478
1427156779.076,-8.552162
1427156779.092,-17.759613
1427156779.107,-24.927467
1427156779.123,-30.535843
1427156779.138,-34.777847
1427156779.154,-37.629295
1427156779.17,-39.02484
1427156779.185,-39.144707
1427156779.201,-38.419006
1427156779.217,-37.44837
1427156779.232,-36.71012
1427156779.248,-36.394318
1427156779.263,-36.318848
1427156779.279,-36.127472
1427156779.295,-35.505157
1427156779.31,-34.394295
1427156779.326,-33.00791
1427156779.342,-31.688797
1427156779.357,-30.671867
1427156779.373,-29.926682
1427156779.388,-29.115692
1427156779.404,-27.769897
1427156779.42,-25.515678
1427156779.435,-22.271164
1427156779.451,-18.289154
1427156779.467,-14.073074
1427156779.482,-10.101006
1427156779.498,-6.6440125
1427156779.513,-3.5765228
1427156779.529,-0.5180893
1427156779.545,2.9744568
1427156779.56,7.1191177
1427156779.576,11.808121
1427156779.592,16.628418
1427156779.607,21.097595
1427156779.623,24.892967
1427156779.638,28.010223
1427156779.654,30.755798
1427156779.67,33.626427
1427156779.685,37.12037
1427156779.701,41.659096
1427156779.717,47.423965
1427156779.732,54.24607
1427156779.748,61.42299
1427156779.763,67.6971
1427156779.779,71.39063
1427156779.795,70.90669
1427156779.81,65.29256
1427156779.826,54.70269
1427156779.842,40.445396
1427156779.857,24.587746
1427156779.873,9.245377
1427156779.888,-4.0237885
1427156779.904,-14.551582
1427156779.92,-22.441444
1427156779.935,-28.200722
1427156779.951,-32.344482
1427156779.967,-35.186455
1427156779.982,-36.850975
1427156779.998,-37.454506
1427156780.013,-37.234283
1427156780.029,-36.568542
1427156780.045,-35.848763
1427156780.06,-35.36474
1427156780.076,-35.147842
1427156780.092,-35.057365
1427156780.107,-34.857513
1427156780.123,-34.406982
1427156780.138,-33.732246
1427156780.154,-32.9822
1427156780.17,-32.319996
1427156780.185,-31.747414
1427156780.201,-31.039711
1427156780.217,-29.823486
1427156780.232,-27.746658
1427156780.248,-24.685127
1427156780.264,-20.793968
1427156780.279,-16.494244
1427156780.295,-12.224091
1427156780.31,-8.299007
1427156780.326,-4.7285194
1427156780.342,-1.2760696
1427156780.357,2.4102097
1427156780.373,6.576313
1427156780.389,11.251026
1427156780.404,16.212944
1427156780.42,21.097076
1427156780.435,25.558968
1427156780.451,29.439396
1427156780.467,32.81272
1427156780.482,36.01718
1427156780.498,39.554146
1427156780.514,43.973225
1427156780.529,49.63297
1427156780.545,56.475735
1427156780.56,63.81738
1427156780.576,70.3085
1427156780.592,74.184494
1427156780.607,73.791046
1427156780.623,68.16937
1427156780.639,57.530205
1427156780.654,43.205822
1427156780.67,27.271183
1427156780.685,11.79406
1427156780.701,-1.7213783
1427156780.717,-12.6556015
1427156780.732,-21.12125
1427156780.748,-27.632317
1427156780.764,-32.694664
1427156780.779,-36.62206
1427156780.795,-39.545414
1427156780.81,-41.532776
1427156780.826,-42.703197
1427156780.842,-43.274513
1427156780.857,-43.480686
1427156780.873,-43.523525
1427156780.889,-43.495834
1427156780.904,-43.405476
1427156780.92,-43.1746
1427156780.935,-42.75639
1427156780.951,-42.12983
1427156780.967,-41.359306
1427156780.982,-40.522408
1427156780.998,-39.670956
1427156781.014,-38.732822
1427156781.029,-37.55504
1427156781.045,-35.907936
1427156781.06,-33.633415
1427156781.076,-30.71296
1427156781.092,-27.291584
1427156781.107,-23.607624
1427156781.123,-19.87661
1427156781.139,-16.224487
1427156781.154,-12.64785
1427156781.17,-9.080547
1427156781.185,-5.471012
1427156781.201,-1.8423958
1427156781.217,1.719696
1427156781.232,5.1362457
1427156781.248,8.417473
1427156781.264,11.689938
1427156781.279,15.13047
1427156781.295,18.89325
1427156781.31,22.991695
1427156781.326,27.283749
1427156781.342,31.52166
1427156781.357,35.470154
1427156781.373,39.023903
1427156781.389,42.279083
1427156781.404,45.539433
1427156781.42,49.261616
1427156781.435,53.91849
1427156781.451,59.817455
1427156781.467,66.82501
1427156781.482,74.17349
1427156781.498,80.435165
1427156781.514,83.797455
1427156781.529,82.58447
1427156781.545,75.906006
1427156781.56,64.046844
1427156781.576,48.488228
1427156781.592,31.396805
1427156781.607,14.920601
1427156781.623,0.5773735
1427156781.639,-11.051537
1427156781.654,-20.153656
1427156781.67,-27.288448
1427156781.685,-32.99446
1427156781.701,-37.542675
1427156781.717,-40.959286
1427156781.732,-43.221832
1427156781.748,-44.42552
1427156781.764,-44.82692
1427156781.779,-44.80053
1427156781.795,-44.69329
1427156781.81,-44.70173
1427156781.826,-44.82829
1427156781.842,-44.936295
1427156781.857,-44.86925
1427156781.873,-44.556953
1427156781.889,-44.067055
1427156781.904,-43.522503
1427156781.92,-43.00297
1427156781.935,-42.43395
1427156781.951,-41.57706
1427156781.967,-40.14665
1427156781.982,-37.961884
1427156781.998,-35.06969
1427156782.014,-31.70597
1427156782.029,-28.223373
1427156782.045,-24.889488
1427156782.06,-21.798279
1427156782.076,-18.829037
1427156782.092,-15.75782
1427156782.107,-12.356934
1427156782.123,-8.574303
1427156782.139,-4.5419846
1427156782.154,-0.5371437
1427156782.17,3.173252
1427156782.185,6.4702263
1427156782.201,9.515472
1427156782.217,12.645172
1427156782.232,16.232647
1427156782.248,20.458878
1427156782.264,25.177406
1427156782.279,29.942986
1427156782.295,34.267677
1427156782.31,37.842407
1427156782.326,40.732586
1427156782.342,43.347595
1427156782.357,46.30576
1427156782.373,50.190804
1427156782.389,55.42876
1427156782.404,62.108833
1427156782.42,69.83344
1427156782.435,77.59992
1427156782.451,83.81642
1427156782.467,86.54764
1427156782.482,84.113495
1427156782.498,75.70948
1427156782.514,61.897964
1427156782.529,44.526466
1427156782.545,26.149113
1427156782.56,9.144016
1427156782.576,-4.980839
1427156782.592,-15.898788
1427156782.607,-24.088573
1427156782.623,-30.320534
1427156782.639,-35.155243
1427156782.654,-38.766853
1427156782.67,-41.10084
1427156782.685,-42.20173
1427156782.701,-42.33763
1427156782.717,-42.00331
1427156782.732,-41.71858
1427156782.748,-41.802437
1427156782.764,-42.239937
1427156782.779,-42.788074
1427156782.795,-43.118607
1427156782.81,-43.00367
1427156782.826,-42.445763
1427156782.842,-41.65765
1427156782.857,-40.894947
1427156782.873,-40.34519
1427156782.889,-39.944828
1427156782.904,-39.40643
1427156782.92,-38.303314
1427156782.936,-36.28174
1427156782.951,-33.192577
1427156782.967,-29.205421
1427156782.982,-24.70403
1427156782.998,-20.151417
1427156783.014,-15.917385
1427156783.029,-12.187294
1427156783.045,-8.919395
1427156783.061,-5.911213
1427156783.076,-2.8345451
1427156783.092,0.6262474
1427156783.107,4.706253
1427156783.123,9.453835
1427156783.139,14.686653
1427156783.154,20.003155
1427156783.17,24.94957
1427156783.186,29.188812
1427156783.201,32.64039
1427156783.217,35.557102
1427156783.232,38.411934
1427156783.248,41.763294
1427156783.264,46.115524
1427156783.279,51.769535
1427156783.295,58.68706
1427156783.311,66.30118
1427156783.326,73.44353
1427156783.342,78.42457
1427156783.357,79.44435
1427156783.373,75.18573
1427156783.389,65.38646
1427156783.404,51.044014
1427156783.42,34.20536
1427156783.436,17.241009
1427156783.451,2.156189
1427156783.467,-9.998501
1427156783.482,-19.155434
1427156783.498,-25.859997
1427156783.514,-30.815754
1427156783.529,-34.48031
1427156783.545,-36.998203
1427156783.561,-38.349464
1427156783.576,-38.59611
1427156783.592,-38.0178
1427156783.607,-37.07502
1427156783.623,-36.234406
1427156783.639,-35.771954
1427156783.654,-35.675026
1427156783.67,-35.69985
1427156783.686,-35.56198
1427156783.701,-35.062813
1427156783.717,-34.224335
1427156783.732,-33.15987
1427156783.748,-31.999268
1427156783.764,-30.707481
1427156783.779,-29.136995
1427156783.795,-27.093704
1427156783.811,-24.498913
1427156783.826,-21.404259
1427156783.842,-17.996834
1427156783.857,-14.429901
1427156783.873,-10.74283
1427156783.889,-6.801895
1427156783.904,-2.415722
1427156783.92,2.5490818
1427156783.936,8.02935
1427156783.951,13.756828
1427156783.967,19.330322
1427156783.982,24.388464
1427156783.998,28.724638
1427156784.014,32.428757
1427156784.029,35.859394
1427156784.045,39.547455
1427156784.061,44.07792
1427156784.076,49.815872
1427156784.092,56.65468
1427156784.107,63.853096
1427156784.123,70.042
1427156784.139,73.49669
1427156784.154,72.64574
1427156784.17,66.65155
1427156784.186,55.7154
1427156784.201,41.165073
1427156784.217,24.991207
1427156784.232,9.275391
1427156784.248,-4.4582667
1427156784.264,-15.474668
1427156784.279,-23.823814
1427156784.295,-29.957935
1427156784.311,-34.35593
1427156784.326,-37.267002
1427156784.342,-38.72901
1427156784.357,-38.742153
1427156784.373,-37.527916
1427156784.389,-35.58349
1427156784.404,-33.605137
1427156784.42,-32.223034
1427156784.436,-31.762365
1427156784.451,-32.085705
1427156784.467,-32.72043
1427156784.482,-33.0686
1427156784.498,-32.717064
1427156784.514,-31.549059
1427156784.529,-29.725973
1427156784.545,-27.550919
1427156784.561,-25.27105
1427156784.576,-22.967062
1427156784.592,-20.533665
1427156784.607,-17.750744
1427156784.623,-14.36787
1427156784.639,-10.205117
1427156784.654,-5.2665997
1427156784.67,0.2426529
1427156784.686,5.9342976
1427156784.701,11.379393
1427156784.717,16.25298
1427156784.732,20.529705
1427156784.748,24.452816
1427156784.764,28.521507
1427156784.779,33.259705
1427156784.795,39.08897
1427156784.811,46.13711
1427156784.826,54.16458
1427156784.842,62.44088
1427156784.857,69.75258
1427156784.873,74.54536
1427156784.889,75.26781
1427156784.904,70.84286
1427156784.92,61.126457
1427156784.936,47.077667
1427156784.951,30.555004
1427156784.967,13.759548
1427156784.982,-1.4446411
1427156784.998,-13.996273
1427156785.014,-23.728565
1427156785.029,-31.090786
1427156785.045,-36.690197
1427156785.061,-40.94344
1427156785.076,-43.976654
1427156785.092,-45.7755
1427156785.107,-46.383423
1427156785.123,-46.1058
1427156785.139,-45.385593
1427156785.154,-44.673958
1427156785.17,-44.21062
1427156785.186,-43.958603
1427156785.201,-43.67221
1427156785.217,-43.123142
1427156785.232,-42.238564
1427156785.248,-41.149155
1427156785.264,-40.086094
1427156785.279,-39.187073
1427156785.295,-38.330925
1427156785.311,-37.178917
1427156785.326,-35.26626
1427156785.342,-32.26583
1427156785.357,-28.129318
1427156785.373,-23.175251
1427156785.389,-17.94271
1427156785.404,-13.003189
1427156785.42,-8.692368
1427156785.436,-4.984165
1427156785.451,-1.5035744
1427156785.467,2.2771873
1427156785.482,6.8309555
1427156785.498,12.293163
1427156785.514,18.426136
1427156785.529,24.677406
1427156785.545,30.426472
1427156785.561,35.252983
1427156785.576,39.140263
1427156785.592,42.46871
1427156785.608,45.921783
1427156785.623,50.227566
1427156785.639,55.951527
1427156785.654,63.242584
1427156785.67,71.665695
1427156785.686,80.08724
1427156785.701,86.79435
1427156785.717,89.82976
1427156785.733,87.56965
1427156785.748,79.34017
1427156785.764,65.71704
1427156785.779,48.43857
1427156785.795,29.880257
1427156785.811,12.24559
1427156785.826,-3.0069656
1427156785.842,-15.405159
1427156785.858,-25.240593
1427156785.873,-33.139717
1427156785.889,-39.616074
1427156785.904,-44.90117
1427156785.92,-49.01087
1427156785.936,-51.913567
1427156785.951,-53.69352
1427156785.967,-54.58232
1427156785.983,-54.87065
1427156785.998,-54.832962
1427156786.014,-54.623543
1427156786.029,-54.301346
1427156786.045,-53.82476
1427156786.061,-53.149696
1427156786.076,-52.255493
1427156786.092,-51.20028
1427156786.108,-50.06044
1427156786.123,-48.89997
1427156786.139,-47.666275
1427156786.154,-46.20346
1427156786.17,-44.264732
1427156786.186,-41.635353
1427156786.201,-38.21122
1427156786.217,-34.04741
1427156786.233,-29.354034
1427156786.248,-24.412354
1427156786.264,-19.505898
1427156786.279,-14.8231735
1427156786.295,-10.454994
1427156786.311,-6.399521
1427156786.326,-2.5578308
1427156786.342,1.219696
1427156786.358,5.1560516
1427156786.373,9.435814
1427156786.389,14.192383
1427156786.404,19.381035
1427156786.42,24.790283
1427156786.436,30.077133
1427156786.451,34.92601
1427156786.467,39.18084
1427156786.483,42.92643
1427156786.498,46.49533
1427156786.514,50.370003
1427156786.529,55.08535
1427156786.545,61.059593
1427156786.561,68.433914
1427156786.576,76.7992
1427156786.592,85.06012
1427156786.608,91.46968
1427156786.623,94.01934
1427156786.639,91.08345
1427156786.654,82.058655
1427156786.67,67.724304
1427156786.686,50.00988
1427156786.701,31.367409
1427156786.717,13.943024
1427156786.733,-1.0016403
1427156786.748,-13.225098
1427156786.764,-23.16188
1427156786.779,-31.433243
1427156786.795,-38.432808
1427156786.811,-44.231453
1427156786.826,-48.695213
1427156786.842,-51.727554
1427156786.858,-53.416267
1427156786.873,-54.06514
1427156786.889,-54.079643
1427156786.904,-53.854347
1427156786.92,-53.630806
1427156786.936,-53.47261
1427156786.951,-53.29883
1427156786.967,-52.974426
1427156786.983,-52.385925
1427156786.998,-51.53235
1427156787.014,-50.447807
1427156787.029,-49.21469
1427156787.045,-47.83293
1427156787.061,-46.24267
1427156787.076,-44.312088
1427156787.092,-41.89241
1427156787.108,-38.878548
1427156787.123,-35.26052
1427156787.139,-31.118492
1427156787.154,-26.620361
1427156787.17,-21.986328
1427156787.186,-17.434586
1427156787.201,-13.11644
1427156787.217,-9.078003
1427156787.233,-5.2148514
1427156787.248,-1.332222
1427156787.264,2.8224106
1427156787.279,7.398941
1427156787.295,12.407852
1427156787.311,17.651588
1427156787.326,22.807678
1427156787.342,27.536957
1427156787.358,31.628975
1427156787.373,35.12658
1427156787.389,38.318123
1427156787.404,41.658875
1427156787.42,45.662865
1427156787.436,50.74759
1427156787.451,57.13662
1427156787.467,64.74117
1427156787.483,73.0487
1427156787.498,80.99857
1427156787.514,87.05657
1427156787.529,89.48777
1427156787.545,86.85529
1427156787.561,78.55682
1427156787.576,65.18939
1427156787.592,48.40217
1427156787.608,30.429436
1427156787.623,13.352196
1427156787.639,-1.4490738
1427156787.654,-13.523857
1427156787.67,-23.089493
1427156787.686,-30.632797
1427156787.701,-36.534904
1427156787.717,-40.92163
1427156787.733,-43.77768
1427156787.748,-45.198265
1427156787.764,-45.479935
1427156787.779,-45.11737
1427156787.795,-44.612633
1427156787.811,-44.295578
1427156787.826,-44.230034
1427156787.842,-44.279846
1427156787.858,-44.23394
1427156787.873,-43.96971
1427156787.889,-43.46144
1427156787.904,-42.77581
1427156787.92,-41.926407
1427156787.936,-40.861603
1427156787.951,-39.408943
1427156787.967,-37.36331
1427156787.983,-34.559433
1427156787.998,-30.959526
1427156788.014,-26.667816
1427156788.029,-21.94674
1427156788.045,-17.126099
1427156788.061,-12.519188
1427156788.076,-8.278046
1427156788.092,-4.3242493
1427156788.108,-0.38770676
1427156788.123,3.8767052
1427156788.139,8.7072525
1427156788.154,14.060963
1427156788.17,19.63961
1427156788.186,24.985558
1427156788.201,29.745228
1427156788.217,33.815033
1427156788.233,37.453735
1427156788.248,41.144146
1427156788.264,45.487946
1427156788.28,50.965412
1427156788.295,57.740433
1427156788.311,65.44852
1427156788.326,73.10309
1427156788.342,79.14067
1427156788.358,81.77022
1427156788.373,79.50522
1427156788.389,71.71833
1427156788.404,58.94363
1427156788.42,42.792915
1427156788.436,25.435127
1427156788.451,8.91058
1427156788.467,-5.4097443
1427156788.483,-17.02137
1427156788.498,-26.114616
1427156788.514,-33.120247
1427156788.53,-38.39509
1427156788.545,-42.050358
1427156788.561,-44.064857
1427156788.576,-44.50684
1427156788.592,-43.678818
1427156788.608,-42.11726
