1434153021.531,0.0
1434153021.547,0.0
1434153021.563,0.0
1434153021.578,0.0
1434153021.594,0.0
1434153021.609,0.0
1434153021.625,0.0
1434153021.641,0.0
1434153021.656,0.0
1434153021.672,0.0022315353
1434153021.688,-0.0045169927
1434153021.703,-0.011265522
1434153021.719,-0.011383951
1434153021.734,0.0011864507
1434153021.75,0.025910312
1434153021.766,0.050634187
1434153021.781,0.051362894
1434153021.797,-0.0014929791
1434153021.813,-0.1302426
1434153021.828,-0.35562757
1434153021.844,-0.6591247
1434153021.86,-1.0095103
1434153021.875,-1.3709826
1434153021.891,-1.7197359
1434153021.906,-2.0551105
1434153021.922,-2.39945
1434153021.938,-2.7866635
1434153021.953,-3.2399073
1434153021.969,-3.796012
1434153021.985,-4.418684
1434153022,-5.0592937
1434153022.016,-5.6644096
1434153022.031,-6.2021537
1434153022.047,-6.6808796
1434153022.063,-7.149598
1434153022.078,-7.6782336
1434153022.094,-8.310739
1434153022.11,-9.143657
1434153022.125,-10.089731
1434153022.141,-11.041313
1434153022.156,-11.8842125
1434153022.172,-12.564316
1434153022.188,-13.13563
1434153022.203,-13.760044
1434153022.219,-14.65232
1434153022.235,-15.962056
1434153022.25,-17.914442
1434153022.266,-20.317299
1434153022.281,-22.903854
1434153022.297,-25.379467
1434153022.313,-27.57802
1434153022.328,-29.572437
1434153022.344,-31.675129
1434153022.36,-34.31779
1434153022.375,-37.813923
1434153022.391,-42.54218
1434153022.406,-48.14808
1434153022.422,-54.106953
1434153022.438,-59.83444
1434153022.453,-64.971245
1434153022.469,-69.57875
1434153022.485,-74.13862
1434153022.5,-79.3451
1434153022.516,-85.719604
1434153022.531,-93.7898
1434153022.547,-103.0345
1434153022.563,-112.64265
1434153022.578,-121.71166
1434153022.594,-129.66846
1434153022.61,-136.54915
1434153022.625,-142.99234
1434153022.641,-150.34488
1434153022.656,-157.31816
1434153022.672,-166.172
1434153022.688,-177.48466
1434153022.703,-191.33401
1434153022.719,-206.49107
1434153022.735,-220.03
1434153022.75,-227.61961
1434153022.766,-224.63597
1434153022.781,-207.73083
1434153022.797,-176.03918
1434153022.813,-131.94574
1434153022.828,-79.26387
1434153022.844,-22.282288
1434153022.86,35.8078
1434153022.875,93.47452
1434153022.891,150.44046
1434153022.906,206.76752
1434153022.922,262.09866
1434153022.938,315.53864
1434153022.953,365.6262
1434153022.969,411.50546
1434153022.985,452.5889
1434153023,488.3996
1434153023.016,518.1065
1434153023.031,540.2609
1434153023.047,552.9562
1434153023.063,554.24506
1434153023.078,542.908
1434153023.094,518.7196
1434153023.11,483.04327
1434153023.125,438.25397
1434153023.141,387.23233
1434153023.156,332.71857
1434153023.172,276.8553
1434153023.188,221.05847
1434153023.203,166.22015
1434153023.219,113.108246
1434153023.235,62.57367
1434153023.25,15.875244
1434153023.266,-25.657303
1434153023.281,-60.938507
1434153023.297,-89.49283
1434153023.313,-111.62244
1434153023.328,-128.29114
1434153023.344,-140.74641
1434153023.36,-150.11082
1434153023.375,-157.08029
1434153023.391,-161.78094
1434153023.406,-164.00873
1434153023.422,-163.44049
1434153023.438,-159.85402
1434153023.453,-153.25058
1434153023.469,-144.01738
1434153023.485,-133.09499
1434153023.5,-122.1004
1434153023.516,-113.155014
1434153023.531,-108.34562
1434153023.547,-108.943726
1434153023.563,-114.72682
1434153023.578,-123.8103
1434153023.594,-133.23889
1434153023.61,-140.05573
1434153023.625,-142.33754
1434153023.641,-139.69475
1434153023.656,-133.05948
1434153023.672,-123.94595
1434153023.688,-113.76805
1434153023.703,-103.43124
1434153023.719,-93.37695
1434153023.735,-83.84677
1434153023.75,-75.09376
1434153023.766,-67.361496
1434153023.781,-60.757904
1434153023.797,-55.27053
1434153023.813,-50.53052
1434153023.828,-46.124214
1434153023.844,-41.73645
1434153023.86,-37.27556
1434153023.875,-32.79051
1434153023.891,-28.410278
1434153023.906,-24.224937
1434153023.922,-20.264236
1434153023.938,-16.497665
1434153023.953,-12.855125
1434153023.969,-9.299934
1434153023.985,-5.8658524
1434153024,-2.678234
1434153024.016,0.059288025
1434153024.031,2.0960464
1434153024.047,3.27668
1434153024.063,3.5926208
1434153024.078,3.3000336
1434153024.094,2.9088707
1434153024.11,2.9992561
1434153024.125,4.0168
1434153024.141,6.004627
1434153024.156,8.460323
1434153024.172,10.408993
1434153024.188,10.720562
1434153024.203,8.5667305
1434153024.219,3.851307
1434153024.235,-2.6519127
1434153024.25,-9.518311
1434153024.266,-15.174328
1434153024.281,-18.454556
1434153024.297,-18.981918
1434153024.313,-17.20354
1434153024.328,-14.078083
1434153024.344,-10.636368
1434153024.36,-7.608223
1434153024.375,-5.2776184
1434153024.391,-3.599781
1434153024.406,-2.3636894
1434153024.422,-1.4025078
1434153024.438,-0.5985985
1434153024.453,0.11784744
1434153024.469,0.8425293
1434153024.485,1.6712456
1434153024.5,2.6753273
1434153024.516,3.803646
1434153024.532,4.8597717
1434153024.547,5.607189
1434153024.563,5.852501
1434153024.578,5.561409
1434153024.594,4.9127884
1434153024.61,4.203804
1434153024.625,3.759964
1434153024.641,3.7749367
1434153024.656,4.2649345
1434153024.672,5.056278
1434153024.688,5.88805
1434153024.703,6.482315
1434153024.719,6.7011185
1434153024.735,6.572872
1434153024.75,6.293045
1434153024.766,6.118696
1434153024.782,6.242611
1434153024.797,6.685831
1434153024.813,7.2798157
1434153024.828,7.7391987
1434153024.844,7.8136463
1434153024.86,7.409977
1434153024.875,6.6572247
1434153024.891,5.816887
1434153024.907,5.244997
1434153024.922,5.213667
1434153024.938,5.905596
1434153024.953,7.2595825
1434153024.969,9.001963
1434153024.985,10.543072
1434153025,11.0922165
1434153025.016,9.849577
1434153025.032,6.325342
1434153025.047,0.64336777
1434153025.063,-6.358803
1434153025.078,-13.317099
1434153025.094,-18.770617
1434153025.11,-21.687595
1434153025.125,-21.764645
1434153025.141,-19.519533
1434153025.157,-15.942638
1434153025.172,-12.149275
1434153025.188,-8.921629
1434153025.203,-6.5608006
1434153025.219,-4.9050713
1434153025.235,-3.5808372
1434153025.25,-2.260519
1434153025.266,-0.8219719
1434153025.282,0.6268616
1434153025.297,1.861229
1434153025.313,2.697878
1434153025.328,3.0926056
1434153025.344,3.1410408
1434153025.36,3.0278797
1434153025.375,2.9176788
1434153025.391,2.9004364
1434153025.407,2.9801388
1434153025.422,3.1277084
1434153025.438,3.3544312
1434153025.453,3.6507282
1434153025.469,4.0574474
1434153025.485,4.550375
1434153025.5,5.114565
1434153025.516,5.7027245
1434153025.532,6.3139935
1434153025.547,6.960251
1434153025.563,7.614109
1434153025.578,8.185514
1434153025.594,8.557541
1434153025.61,8.608547
1434153025.625,8.318199
1434153025.641,7.7713604
1434153025.657,7.16556
1434153025.672,6.7182903
1434153025.688,6.617365
1434153025.703,7.002823
1434153025.719,7.946123
1434153025.735,9.368683
1434153025.75,10.99242
1434153025.766,12.220966
1434153025.782,12.217819
1434153025.797,10.175753
1434153025.813,5.709732
1434153025.828,-0.8446255
1434153025.844,-8.352308
1434153025.86,-15.268532
1434153025.875,-20.12811
1434153025.891,-22.141245
1434153025.907,-21.388319
1434153025.922,-18.691107
1434153025.938,-15.18243
1434153025.953,-11.879673
1434153025.969,-9.370865
1434153025.985,-7.775015
1434153026,-6.873518
1434153026.016,-6.334633
1434153026.032,-5.880121
1434153026.047,-5.3857
1434153026.063,-4.852577
1434153026.078,-4.4164677
1434153026.094,-4.201704
1434153026.11,-4.3285694
1434153026.125,-4.815813
1434153026.141,-5.611824
1434153026.157,-6.5671825
1434153026.172,-7.5096035
1434153026.188,-8.243067
1434153026.203,-8.625654
1434153026.219,-8.556177
1434153026.235,-8.042122
1434153026.25,-7.165476
1434153026.266,-6.077528
1434153026.282,-4.941448
1434153026.297,-3.8692818
1434153026.313,-2.8794975
1434153026.328,-1.8934364
1434153026.344,-0.7590828
1434153026.36,0.60994434
1434153026.375,2.31921
1434153026.391,4.3075533
1434153026.407,6.4270296
1434153026.422,8.455219
1434153026.438,10.22019
1434153026.453,11.615214
1434153026.469,12.686983
1434153026.485,13.6026
1434153026.5,14.650988
1434153026.516,16.010025
1434153026.532,17.651243
1434153026.547,19.15195
1434153026.563,19.760374
1434153026.578,18.577
1434153026.594,14.978071
1434153026.61,8.917124
1434153026.625,1.171452
1434153026.641,-6.899189
1434153026.657,-13.703026
1434153026.672,-18.032337
1434153026.688,-19.404575
1434153026.703,-18.15555
1434153026.719,-15.195393
1434153026.735,-11.61537
1434153026.75,-8.307465
1434153026.766,-5.748637
1434153026.782,-3.9834666
1434153026.797,-2.7899818
1434153026.813,-1.8086338
1434153026.828,-0.76949406
1434153026.844,0.45562315
1434153026.86,1.8215313
1434153026.875,3.1733208
1434153026.891,4.3380995
1434153026.907,5.2168484
1434153026.922,5.7648983
1434153026.938,6.0145
1434153026.953,6.0439982
1434153026.969,5.9434075
1434153026.985,5.8254437
1434153027,5.873686
1434153027.016,6.2745724
1434153027.032,7.1804795
1434153027.047,8.582503
1434153027.063,10.262224
1434153027.078,11.820738
1434153027.094,12.911323
1434153027.11,13.348448
1434153027.125,13.259166
1434153027.141,13.010176
1434153027.157,13.092708
1434153027.172,13.827581
1434153027.188,15.2490225
1434153027.204,17.033382
1434153027.219,18.654408
1434153027.235,19.696087
1434153027.25,20.028282
1434153027.266,19.898895
1434153027.282,19.906754
1434153027.297,20.80927
1434153027.313,23.256992
1434153027.328,27.535805
1434153027.344,33.470596
1434153027.36,39.741753
1434153027.375,44.64859
1434153027.391,46.256077
1434153027.407,42.99964
1434153027.422,34.22306
1434153027.438,20.53204
1434153027.454,3.6626968
1434153027.469,-14.011341
1434153027.485,-30.22462
1434153027.5,-43.445477
1434153027.516,-53.077408
1434153027.532,-59.434414
1434153027.547,-63.333427
1434153027.563,-65.650085
1434153027.579,-67.02419
1434153027.594,-67.730446
1434153027.61,-67.78324
1434153027.625,-67.01942
1434153027.641,-65.28859
1434153027.657,-62.445656
1434153027.672,-58.513023
1434153027.688,-53.658592
1434153027.704,-48.242767
1434153027.719,-42.697647
1434153027.735,-37.46643
1434153027.75,-32.84858
1434153027.766,-28.959263
1434153027.782,-25.703632
1434153027.797,-22.801249
1434153027.813,-19.90576
1434153027.829,-16.722212
1434153027.844,-13.088787
1434153027.86,-9.01248
1434153027.875,-4.616312
1434153027.891,-0.07537365
1434153027.907,4.477727
1434153027.922,9.001864
1434153027.938,13.55548
1434153027.954,18.181395
1434153027.969,22.864887
1434153027.985,27.471031
1434153028,31.780052
1434153028.016,35.578606
1434153028.032,38.78026
1434153028.047,41.496914
1434153028.063,44.012085
1434153028.079,46.722713
1434153028.094,50.02466
1434153028.11,54.206394
1434153028.125,59.342667
1434153028.141,65.10601
1434153028.157,70.673325
1434153028.172,74.69662
1434153028.188,75.567894
1434153028.204,71.86664
1434153028.219,62.933495
1434153028.235,49.23896
1434153028.25,32.380466
1434153028.266,14.607486
1434153028.282,-1.8873053
1434153028.297,-15.620136
1434153028.313,-26.085506
1434153028.329,-33.60974
1434153028.344,-38.876587
1434153028.36,-42.48877
1434153028.375,-44.714863
1434153028.391,-45.550713
1434153028.407,-44.916836
1434153028.422,-42.886703
1434153028.438,-39.70877
1434153028.454,-35.77652
1434153028.469,-31.477522
1434153028.485,-27.089048
1434153028.5,-22.765745
1434153028.516,-18.603199
1434153028.532,-14.67687
1434153028.547,-11.066257
1434153028.563,-7.7873034
1434153028.579,-4.7532
1434153028.594,-1.711052
1434153028.61,1.7224231
1434153028.625,5.976229
1434153028.641,11.307545
1434153028.657,17.646204
1434153028.672,24.39494
1434153028.688,30.4659
1434153028.704,34.431046
1434153028.719,34.939484
1434153028.735,31.14797
1434153028.75,23.078321
1434153028.766,11.678513
1434153028.782,-1.4343948
1434153028.797,-14.492909
1434153028.813,-26.07965
1434153028.829,-35.449936
1434153028.844,-42.51812
1434153028.86,-47.579376
1434153028.875,-50.932266
1434153028.891,-52.680042
1434153028.907,-52.717743
1434153028.922,-50.973167
1434153028.938,-47.631096
1434153028.954,-43.23365
1434153028.969,-38.544487
1434153028.985,-34.300087
1434153029,-30.910538
1434153029.016,-28.373346
1434153029.032,-26.35936
1434153029.047,-24.455925
1434153029.063,-22.372509
1434153029.079,-20.075428
1434153029.094,-17.690903
1434153029.11,-15.380608
1434153029.125,-13.193577
1434153029.141,-11.002037
1434153029.157,-8.549156
1434153029.172,-5.597908
1434153029.188,-2.0233955
1434153029.204,2.0753212
1434153029.219,6.4043922
1434153029.235,10.564564
1434153029.25,14.232449
1434153029.266,17.286919
1434153029.282,19.921726
1434153029.297,22.534306
1434153029.313,25.564472
1434153029.329,29.248734
1434153029.344,33.489677
1434153029.36,37.865036
1434153029.375,41.832863
1434153029.391,44.973747
1434153029.407,47.21035
1434153029.422,48.831703
1434153029.438,50.43747
1434153029.454,52.726074
1434153029.469,56.31775
1434153029.485,61.51808
1434153029.5,68.13723
1434153029.516,75.3188
1434153029.532,81.571526
1434153029.547,85.00037
1434153029.563,83.83028
1434153029.579,76.98122
1434153029.594,64.56145
1434153029.61,47.906197
1434153029.625,29.199745
1434153029.641,10.77784
1434153029.657,-5.5633163
1434153029.672,-18.961922
1434153029.688,-29.449455
1434153029.704,-37.606064
1434153029.719,-44.093803
1434153029.735,-49.35775
1434153029.75,-53.531403
1434153029.766,-56.56324
1434153029.782,-58.370575
1434153029.797,-58.979706
1434153029.813,-58.524338
1434153029.829,-57.213814
1434153029.844,-55.24592
1434153029.86,-52.79046
1434153029.875,-49.983414
1434153029.891,-46.972725
1434153029.907,-43.918236
1434153029.922,-40.997505
1434153029.938,-38.338608
1434153029.954,-35.992332
1434153029.969,-33.87153
1434153029.985,-31.74987
1434153030,-29.265663
1434153030.016,-26.086998
1434153030.032,-22.027191
1434153030.047,-17.184608
1434153030.063,-11.92524
1434153030.079,-6.805588
1434153030.094,-2.3030243
1434153030.11,1.3568497
1434153030.126,4.340927
1434153030.141,7.1334534
1434153030.157,10.303436
1434153030.172,14.222786
1434153030.188,18.889404
1434153030.204,23.890564
1434153030.219,28.644814
1434153030.235,32.63823
1434153030.251,35.688705
1434153030.266,38.011856
1434153030.282,40.1634
1434153030.297,42.829773
1434153030.313,46.638466
1434153030.329,51.915306
1434153030.344,58.500572
1434153030.36,65.62503
1434153030.376,71.93543
1434153030.391,75.73254
1434153030.407,75.41945
1434153030.422,70.03581
1434153030.438,59.66236
1434153030.454,45.494743
1434153030.469,29.50708
1434153030.485,13.775169
1434153030.501,-0.1147995
1434153030.516,-11.482765
1434153030.532,-20.484268
1434153030.547,-27.763786
1434153030.563,-33.983704
1434153030.579,-39.511932
1434153030.594,-44.32968
1434153030.61,-48.20775
1434153030.626,-50.89402
1434153030.641,-52.299324
1434153030.657,-52.502174
1434153030.672,-51.68628
1434153030.688,-50.030594
1434153030.704,-47.69378
1434153030.719,-44.81994
1434153030.735,-41.611168
1434153030.751,-38.334534
1434153030.766,-35.28398
1434153030.782,-32.637123
1434153030.797,-30.431839
1434153030.813,-28.466942
1434153030.829,-26.432991
1434153030.844,-23.995346
1434153030.86,-20.951248
1434153030.876,-17.300285
1434153030.891,-13.268242
1434153030.907,-9.184586
1434153030.922,-5.3647766
1434153030.938,-1.946228
1434153030.954,1.1591339
1434153030.969,4.2670135
1434153030.985,7.7304916
1434153031.001,11.797104
1434153031.016,16.429482
1434153031.032,21.33091
1434153031.047,26.045822
1434153031.063,30.190948
1434153031.079,33.6119
1434153031.094,36.472054
1434153031.11,39.18921
1434153031.126,42.31922
1434153031.141,46.370857
1434153031.157,51.62886
1434153031.172,57.947205
1434153031.188,64.638794
1434153031.204,70.45915
1434153031.219,73.87024
1434153031.235,73.44649
1434153031.251,68.382385
1434153031.266,58.798203
1434153031.282,45.804962
1434153031.297,31.124603
1434153031.313,16.598007
1434153031.329,3.6434784
1434153031.344,-7.004463
1434153031.36,-15.305534
1434153031.376,-21.66262
1434153031.391,-26.603897
1434153031.407,-30.513947
1434153031.422,-33.521088
1434153031.438,-35.553955
1434153031.454,-36.49057
1434153031.469,-36.288277
1434153031.485,-35.098457
1434153031.501,-33.2278
1434153031.516,-31.067963
1434153031.532,-28.941307
1434153031.547,-27.05716
1434153031.563,-25.443909
1434153031.579,-24.024277
1434153031.594,-22.637665
1434153031.61,-21.135239
1434153031.626,-19.388214
1434153031.641,-17.327843
1434153031.657,-14.928551
1434153031.672,-12.218338
1434153031.688,-9.25248
1434153031.704,-6.0852585
1434153031.719,-2.7353668
1434153031.735,0.8288574
1434153031.751,4.660866
1434153031.766,8.780388
1434153031.782,13.139366
1434153031.797,17.59526
1434153031.813,21.965393
1434153031.829,26.054237
1434153031.844,29.755371
1434153031.86,33.050262
1434153031.876,36.068764
1434153031.891,39.049774
1434153031.907,42.354218
1434153031.922,46.374565
1434153031.938,51.405945
1434153031.954,57.40117
1434153031.969,63.801712
1434153031.985,69.4418
1434153032.001,72.759926
1434153032.016,72.20279
1434153032.032,66.772385
1434153032.047,56.42417
1434153032.063,42.204475
1434153032.079,25.955933
1434153032.094,9.775589
1434153032.11,-4.5976715
1434153032.126,-16.197609
1434153032.141,-24.94838
1434153032.157,-31.415329
1434153032.172,-36.433136
1434153032.188,-40.682915
1434153032.204,-44.48832
1434153032.219,-47.76706
1434153032.235,-50.221764
1434153032.251,-51.53859
1434153032.266,-51.588203
1434153032.282,-50.47071
1434153032.297,-48.484596
1434153032.313,-45.976547
1434153032.329,-43.282097
1434153032.344,-40.610428
1434153032.36,-38.083897
1434153032.376,-35.707516
1434153032.391,-33.421486
1434153032.407,-31.082401
1434153032.422,-28.538376
1434153032.438,-25.625153
1434153032.454,-22.262417
1434153032.469,-18.46082
1434153032.485,-14.329739
1434153032.501,-10.024517
1434153032.516,-5.663273
1434153032.532,-1.2802162
1434153032.547,3.1711311
1434153032.563,7.787159
1434153032.579,12.616997
1434153032.594,17.607708
1434153032.61,22.557812
1434153032.626,27.240742
1434153032.641,31.478233
1434153032.657,35.294186
1434153032.672,38.935184
1434153032.688,42.855392
1434153032.704,47.585407
1434153032.719,53.56672
1434153032.735,60.87022
1434153032.751,69.0165
1434153032.766,76.8479
1434153032.782,82.6675
1434153032.798,84.638054
1434153032.813,81.36997
1434153032.829,72.41022
1434153032.844,58.53857
1434153032.86,41.53193
1434153032.876,23.616333
1434153032.891,6.7652655
1434153032.907,-7.790122
1434153032.923,-19.736902
1434153032.938,-29.402899
1434153032.954,-37.41287
1434153032.969,-44.292503
1434153032.985,-50.33032
1434153033.001,-55.56967
1434153033.016,-59.89998
1434153033.032,-63.121147
1434153033.048,-65.033646
1434153033.063,-65.477325
1434153033.079,-64.426834
1434153033.094,-62.04148
1434153033.11,-58.72213
1434153033.126,-55.004993
1434153033.141,-51.406624
1434153033.157,-48.26536
1434153033.173,-45.625572
1434153033.188,-43.269302
1434153033.204,-40.83001
1434153033.219,-37.92868
1434153033.235,-34.344864
1434153033.251,-30.043344
1434153033.266,-25.199524
1434153033.282,-20.101448
1434153033.298,-15.028259
1434153033.313,-10.13549
1434153033.329,-5.385788
1434153033.344,-0.58374405
1434153033.36,4.5079536
1434153033.376,10.008163
1434153033.391,15.808811
1434153033.407,21.5952
1434153033.423,26.964687
1434153033.438,31.633541
1434153033.454,35.55822
1434153033.469,39.012104
1434153033.485,42.488148
1434153033.501,46.596684
1434153033.516,51.866917
1434153033.532,58.591927
1434153033.548,66.56558
1434153033.563,74.93401
1434153033.579,82.139145
1434153033.594,86.18855
1434153033.61,85.16571
1434153033.626,77.90341
1434153033.641,64.483444
1434153033.657,46.3323
1434153033.673,25.81467
1434153033.688,5.513382
1434153033.704,-12.545441
1434153033.719,-27.300606
1434153033.735,-38.673584
1434153033.751,-47.195198
1434153033.766,-53.582115
1434153033.782,-58.365746
1434153033.798,-61.79283
1434153033.813,-63.906868
1434153033.829,-64.724625
1434153033.844,-64.32758
1434153033.86,-62.90297
1434153033.876,-60.679108
1434153033.891,-57.87995
1434153033.907,-54.69564
1434153033.923,-51.328537
1434153033.938,-48.006516
1434153033.954,-44.97975
1434153033.969,-42.434998
1434153033.985,-40.426575
1434153034.001,-38.778786
1434153034.016,-37.13691
1434153034.032,-35.067284
1434153034.048,-32.226974
1434153034.063,-28.46872
1434153034.079,-23.912575
1434153034.094,-18.856941
1434153034.11,-13.669167
1434153034.126,-8.607613
1434153034.141,-3.7530823
1434153034.157,1.0021286
1434153034.173,5.8513947
1434153034.188,10.959221
1434153034.204,16.311493
1434153034.219,21.697662
1434153034.235,26.757599
1434153034.251,31.171455
1434153034.266,34.844322
1434153034.282,38.02179
1434153034.298,41.265953
1434153034.313,45.34224
1434153034.329,50.921898
1434153034.344,58.286842
1434153034.36,67.01806
1434153034.376,75.86959
1434153034.391,82.8912
1434153034.407,85.91332
1434153034.423,83.17298
1434153034.438,73.99452
1434153034.454,59.087456
1434153034.469,40.420563
1434153034.485,20.553627
1434153034.501,1.8824615
1434153034.516,-14.017052
1434153034.532,-26.597458
1434153034.548,-36.15531
1434153034.563,-43.369896
1434153034.579,-48.88127
1434153034.594,-53.0468
1434153034.61,-55.9582
1434153034.626,-57.532898
1434153034.641,-57.694984
1434153034.657,-56.475975
1434153034.673,-54.06198
1434153034.688,-50.760704
1434153034.704,-46.963364
1434153034.719,-43.024406
1434153034.735,-39.212914
1434153034.751,-35.65702
1434153034.766,-32.383133
1434153034.782,-29.337814
1434153034.798,-26.471695
1434153034.813,-23.72847
1434153034.829,-21.04277
1434153034.844,-18.321358
1434153034.86,-15.423256
1434153034.876,-12.173309
1434153034.891,-8.4316635
1434153034.907,-4.0826797
1434153034.923,0.8854294
1434153034.938,6.3689117
1434153034.954,12.130386
1434153034.969,17.860191
1434153034.985,23.209572
1434153035.001,27.91166
1434153035.016,31.858627
1434153035.032,35.14589
1434153035.048,38.060966
1434153035.063,41.04869
1434153035.079,44.618607
1434153035.094,49.260628
1434153035.11,55.23387
1434153035.126,62.348816
1434153035.141,69.75873
1434153035.157,75.93264
1434153035.173,78.95212
1434153035.188,77.054054
1434153035.204,69.25794
1434153035.219,55.813072
1434153035.235,38.195015
1434153035.251,18.696304
1434153035.266,-0.29566956
1434153035.282,-16.92836
1434153035.298,-30.310219
1434153035.313,-40.45987
1434153035.329,-48.026443
1434153035.344,-53.82762
1434153035.36,-58.50071
1434153035.376,-62.31256
1434153035.391,-65.24244
1434153035.407,-67.09295
1434153035.423,-67.71577
1434153035.438,-67.063995
1434153035.454,-65.25207
1434153035.47,-62.46241
1434153035.485,-58.94979
1434153035.501,-54.96969
1434153035.516,-50.846725
1434153035.532,-46.879616
1434153035.548,-43.335487
1434153035.563,-40.300705
1434153035.579,-37.647354
1434153035.594,-35.058357
1434153035.61,-32.156845
1434153035.626,-28.648659
1434153035.641,-24.45523
1434153035.657,-19.684532
1434153035.673,-14.5579605
1434153035.688,-9.280113
1434153035.704,-3.9495773
1434153035.72,1.4604263
1434153035.735,7.010376
1434153035.751,12.732552
1434153035.766,18.525482
1434153035.782,24.195099
1434153035.798,29.46894
1434153035.813,34.148727
1434153035.829,38.193413
1434153035.845,41.81935
1434153035.86,45.48501
1434153035.876,49.802605
1434153035.891,55.287804
1434153035.907,62.091476
1434153035.923,69.712
1434153035.938,76.91868
1434153035.954,81.92108
1434153035.97,82.84494
1434153035.985,78.3186
1434153036.001,68.017334
1434153036.016,52.82595
1434153036.032,34.647873
1434153036.048,15.788704
1434153036.063,-1.6825943
1434153036.079,-16.460098
1434153036.095,-28.166344
1434153036.11,-37.16452
1434153036.126,-44.136986
1434153036.141,-49.726807
1434153036.157,-54.2825
1434153036.173,-57.85839
1434153036.188,-60.33396
1434153036.204,-61.573845
1434153036.22,-61.53177
1434153036.235,-60.284584
1434153036.251,-57.987698
1434153036.266,-54.865047
1434153036.282,-51.17471
1434153036.298,-47.228313
1434153036.313,-43.334003
1434153036.329,-39.76345
1434153036.345,-36.647675
1434153036.36,-33.931717
1434153036.376,-31.388256
1434153036.391,-28.732124
1434153036.407,-25.69859
1434153036.423,-22.179089
1434153036.438,-18.216354
1434153036.454,-13.957901
1434153036.47,-9.560509
1434153036.485,-5.1485596
1434153036.501,-0.751503
1434153036.516,3.672348
1434153036.532,8.213078
1434153036.548,12.951481
1434153036.563,17.897652
1434153036.579,22.955261
1434153036.595,27.923656
1434153036.61,32.546494
1434153036.626,36.646423
1434153036.641,40.247368
1434153036.657,43.677628
1434153036.673,47.50103
1434153036.688,52.333855
1434153036.704,58.47065
1434153036.72,65.56177
1434153036.735,72.452286
1434153036.751,77.37457
1434153036.766,78.42322
1434153036.782,74.22375
1434153036.798,64.44301
1434153036.813,49.99826
1434153036.829,32.794186
1434153036.845,15.153064
1434153036.86,-0.86906147
1434153036.876,-13.990757
1434153036.891,-23.897276
1434153036.907,-31.049036
1434153036.923,-36.295822
1434153036.938,-40.42301
1434153036.954,-43.870667
1434153036.97,-46.65591
1434153036.985,-48.536808
1434153037.001,-49.242043
1434153037.016,-48.693127
1434153037.032,-47.06315
1434153037.048,-44.720226
1434153037.063,-42.062542
1434153037.079,-39.394653
1434153037.095,-36.86188
1434153037.11,-34.472675
1434153037.126,-32.17437
1434153037.141,-29.908266
1434153037.157,-27.620192
1434153037.173,-25.281178
1434153037.188,-22.82315
1434153037.204,-20.162043
1434153037.22,-17.174564
1434153037.235,-13.748171
1434153037.251,-9.7878475
1434153037.266,-5.2839622
1434153037.282,-0.30766678
1434153037.298,4.9733257
1434153037.313,10.342363
1434153037.329,15.570599
1434153037.345,20.47766
1434153037.36,24.93742
1434153037.376,28.89676
1434153037.391,32.385677
1434153037.407,35.55565
1434153037.423,38.716644
1434153037.438,42.31795
1434153037.454,46.816433
1434153037.47,52.465122
1434153037.485,59.004097
1434153037.501,65.53352
1434153037.516,70.57601
1434153037.532,72.46246
1434153037.548,69.85668
1434153037.563,62.274384
1434153037.579,50.302994
1434153037.595,35.481876
1434153037.61,19.800186
1434153037.626,5.1334
1434153037.641,-7.2628555
1434153037.657,-16.914581
1434153037.673,-24.018158
1434153037.688,-29.076412
1434153037.704,-32.591496
1434153037.72,-34.84598
1434153037.735,-35.93323
1434153037.751,-35.86941
1434153037.766,-34.790775
1434153037.782,-32.997585
1434153037.798,-30.912083
1434153037.813,-28.944687
1434153037.829,-27.336075
1434153037.845,-26.059345
1434153037.86,-24.896893
1434153037.876,-23.550556
1434153037.891,-21.808407
1434153037.907,-19.637974
1434153037.923,-17.193321
1434153037.938,-14.707527
1434153037.954,-12.366394
1434153037.97,-10.183125
1434153037.985,-7.9699593
1434153038.001,-5.3937035
1434153038.016,-2.1434212
1434153038.032,1.9268456
1434153038.048,6.682411
1434153038.063,11.752029
1434153038.079,16.652828
1434153038.095,20.9831
1434153038.11,24.571259
1434153038.126,27.507832
1434153038.142,30.103184
1434153038.157,32.80236
1434153038.173,36.063335
1434153038.188,40.268513
1434153038.204,45.571117
1434153038.22,51.723297
1434153038.235,57.94903
1434153038.251,62.979443
1434153038.266,65.30252
1434153038.282,63.62886
1434153038.298,57.350697
1434153038.313,46.823025
1434153038.329,33.267303
1434153038.345,18.40807
1434153038.36,3.8827744
1434153038.376,-9.124813
1434153038.392,-20.10038
1434153038.407,-29.055313
1434153038.423,-36.30626
1434153038.438,-42.186733
1434153038.454,-46.927155
1434153038.47,-50.592976
1434153038.485,-53.15666
1434153038.501,-54.5386
1434153038.517,-54.694286
1434153038.532,-53.649094
1434153038.548,-51.54373
1434153038.563,-48.61262
1434153038.579,-45.138405
1434153038.595,-41.375
1434153038.61,-37.490814
1434153038.626,-33.541416
1434153038.642,-29.55772
1434153038.657,-25.58791
1434153038.673,-21.751236
1434153038.688,-18.183289
1434153038.704,-14.943218
1434153038.72,-11.909222
1434153038.735,-8.79813
1434153038.751,-5.225193
1434153038.767,-0.9174843
1434153038.782,4.167919
1434153038.798,9.761433
1434153038.813,15.391674
1434153038.829,20.545982
1434153038.845,24.886173
1434153038.86,28.335136
1434153038.876,31.12223
1434153038.892,33.63588
1434153038.907,36.35424
1434153038.923,39.72152
1434153038.938,44.08201
1434153038.954,49.560806
1434153038.97,55.93515
1434153038.985,62.49272
1434153039.001,68.03309
1434153039.017,71.044235
1434153039.032,70.1514
1434153039.048,64.5785
1434153039.063,54.519905
1434153039.079,41.108627
1434153039.095,26.08989
1434153039.11,11.236465
1434153039.126,-2.1152267
1434153039.142,-13.34853
1434153039.157,-22.464806
1434153039.173,-29.84076
1434153039.188,-35.913406
1434153039.204,-41.007637
1434153039.22,-45.250404
1434153039.235,-48.62068
1434153039.251,-50.981255
1434153039.267,-52.18117
1434153039.282,-52.09682
1434153039.298,-50.756203
1434153039.313,-48.346786
1434153039.329,-45.24118
1434153039.345,-41.871094
1434153039.36,-38.60672
1434153039.376,-35.617615
1434153039.392,-32.863457
1434153039.407,-30.147125
1434153039.423,-27.277412
1434153039.438,-24.14283
1434153039.454,-20.759575
1434153039.47,-17.199127
1434153039.485,-13.503616
1434153039.501,-9.597809
1434153039.517,-5.3506775
1434153039.532,-0.62374115
1434153039.548,4.5619125
1434153039.563,10.012741
1434153039.579,15.390259
1434153039.595,20.364235
1434153039.61,24.731598
1434153039.626,28.49804
1434153039.642,31.844551
1434153039.657,35.056892
1434153039.673,38.429054
1434153039.688,42.24624
1434153039.704,46.76078
1434153039.72,52.14215
1434153039.735,58.330055
1434153039.751,64.86824
1434153039.767,70.799484
1434153039.782,74.75532
1434153039.798,75.26695
1434153039.813,71.25198
1434153039.829,62.406296
1434153039.845,49.42462
1434153039.86,33.824734
1434153039.876,17.530952
1434153039.892,2.27985
1434153039.907,-10.773983
1434153039.923,-21.268948
1434153039.938,-29.475128
1434153039.954,-35.98378
1434153039.97,-41.357677
1434153039.985,-45.89313
1434153040.001,-49.5852
1434153040.017,-52.243755
1434153040.032,-53.652443
1434153040.048,-53.74593
1434153040.063,-52.64563
1434153040.079,-50.652493
1434153040.095,-48.12253
1434153040.11,-45.394405
1434153040.126,-42.68674
1434153040.142,-40.09453
1434153040.157,-37.58865
1434153040.173,-35.070915
1434153040.188,-32.42242
1434153040.204,-29.55064
1434153040.22,-26.40725
1434153040.235,-23.00383
1434153040.251,-19.370335
1434153040.267,-15.554367
1434153040.282,-11.576752
1434153040.298,-7.4434433
1434153040.313,-3.1261597
1434153040.329,1.3847008
1434153040.345,6.095398
1434153040.36,10.956295
1434153040.376,15.905163
1434153040.392,20.827991
1434153040.407,25.61021
1434153040.423,30.120575
1434153040.438,34.273613
1434153040.454,38.072914
1434153040.47,41.697388
1434153040.485,45.5393
1434153040.501,50.146664
1434153040.517,55.965927
1434153040.532,63.006016
1434153040.548,70.51889
1434153040.563,76.99021
1434153040.579,80.465294
1434153040.595,79.19791
1434153040.61,72.30324
1434153040.626,60.165512
1434153040.642,44.340446
1434153040.657,27.055603
1434153040.673,10.480431
1434153040.688,-3.8362007
1434153040.704,-15.272484
1434153040.72,-23.9887
1434153040.735,-30.582584
1434153040.751,-35.67158
1434153040.767,-39.638397
1434153040.782,-42.557453
1434153040.798,-44.327366
1434153040.813,-44.84618
1434153040.829,-44.173542
1434153040.845,-42.56835
1434153040.86,-40.436256
1434153040.876,-38.1531
1434153040.892,-35.976345
1434153040.907,-33.96483
1434153040.923,-32.036053
1434153040.938,-30.043358
1434153040.954,-27.896992
1434153040.97,-25.575058
1434153040.985,-23.151999
1434153041.001,-20.707516
1434153041.017,-18.287828
1434153041.032,-15.832811
1434153041.048,-13.18309
1434153041.064,-10.086967
1434153041.079,-6.305435
1434153041.095,-1.7154198
1434153041.11,3.593769
1434153041.126,9.312422
1434153041.142,14.9667015
1434153041.157,20.107288
1434153041.173,24.460241
1434153041.189,28.058413
1434153041.204,31.239117
1434153041.22,34.534134
1434153041.235,38.520355
1434153041.251,43.65599
1434153041.267,50.107365
1434153041.282,57.61167
1434153041.298,65.359856
1434153041.314,72.02209
1434153041.329,75.93192
1434153041.345,75.525024
1434153041.36,69.81518
1434153041.376,58.834103
1434153041.392,43.70608
1434153041.407,26.380833
1434153041.423,9.029344
1434153041.439,-6.5556593
1434153041.454,-19.437807
1434153041.47,-29.555676
1434153041.485,-37.470703
1434153041.501,-43.888058
1434153041.517,-49.311493
1434153041.532,-53.85841
1434153041.548,-57.383118
1434153041.564,-59.658005
1434153041.579,-60.554253
1434153041.595,-60.10933
1434153041.61,-58.51025
1434153041.626,-55.98963
1434153041.642,-52.801655
1434153041.657,-49.19645
1434153041.673,-45.457035
1434153041.689,-41.853058
1434153041.704,-38.57722
1434153041.72,-35.65095
1434153041.735,-32.918724
1434153041.751,-30.100668
1434153041.767,-26.952074
1434153041.782,-23.360687
1434153041.798,-19.385902
1434153041.814,-15.142574
1434153041.829,-10.70709
1434153041.845,-6.026945
1434153041.86,-0.989151
1434153041.876,4.470175
1434153041.892,10.233784
1434153041.907,16.018341
1434153041.923,21.445772
1434153041.939,26.250273
1434153041.954,30.388004
1434153041.97,34.077206
1434153041.985,37.724915
1434153042.001,41.80069
1434153042.017,46.721283
1434153042.032,52.745766
1434153042.048,59.829826
1434153042.064,67.48091
1434153042.079,74.640915
1434153042.095,79.76719
1434153042.11,81.12479
1434153042.126,77.34383
1434153042.142,67.92109
1434153042.157,53.52412
1434153042.173,35.868614
1434153042.189,17.199165
1434153042.204,-0.3732834
1434153042.22,-15.434643
1434153042.235,-27.48838
1434153042.251,-36.80793
1434153042.267,-44.05613
1434153042.282,-49.88297
1434153042.298,-54.704525
1434153042.314,-58.62794
1434153042.329,-61.5577
1434153042.345,-63.327827
1434153042.36,-63.824253
1434153042.376,-63.02309
1434153042.392,-61.035084
1434153042.407,-58.06042
1434153042.423,-54.400974
1434153042.439,-50.412434
1434153042.454,-46.43289
1434153042.47,-42.72381
1434153042.485,-39.41224
1434153042.501,-36.46155
1434153042.517,-33.692944
1434153042.532,-30.859451
1434153042.548,-27.731941
1434153042.564,-24.14582
1434153042.579,-20.057037
1434153042.595,-15.514854
1434153042.61,-10.652542
1434153042.626,-5.644596
1434153042.642,-0.65060425
1434153042.657,4.248966
1434153042.673,9.064102
1434153042.689,13.887554
1434153042.704,18.800694
1434153042.72,23.812176
1434153042.735,28.797623
1434153042.751,33.576538
1434153042.767,38.005955
1434153042.782,42.14063
1434153042.798,46.30774
1434153042.814,51.03603
1434153042.829,56.809288
1434153042.845,63.74716
1434153042.86,71.284035
1434153042.876,78.08504
1434153042.892,82.2831
1434153042.907,82.032
1434153042.923,76.10447
1434153042.939,64.4265
1434153042.954,48.149086
1434153042.97,29.345802
1434153042.985,10.377659
1434153043.001,-6.7583427
1434153043.017,-20.902641
1434153043.032,-31.796097
1434153043.048,-39.855713
1434153043.064,-45.76707
1434153043.079,-50.160477
1434153043.095,-53.39495
1434153043.11,-55.594448
1434153043.126,-56.729458
1434153043.142,-56.76744
1434153043.157,-55.741936
1434153043.173,-53.808178
1434153043.189,-51.190483
1434153043.204,-48.1576
1434153043.22,-44.93306
1434153043.235,-41.697803
1434153043.251,-38.558586
1434153043.267,-35.56889
1434153043.282,-32.734653
1434153043.298,-30.040462
1434153043.314,-27.392845
1434153043.329,-24.69136
1434153043.345,-21.773201
1434153043.36,-18.475391
1434153043.376,-14.658684
1434153043.392,-10.258461
1434153043.407,-5.3044395
1434153043.423,0.047725677
1434153043.439,5.5881004
1434153043.454,11.079178
1434153043.47,16.329372
1434153043.485,21.20264
1434153043.501,25.658928
1434153043.517,29.714485
1434153043.532,33.45484
1434153043.548,37.04014
1434153043.564,40.73816
1434153043.579,44.905354
1434153043.595,49.951977
1434153043.61,56.090435
1434153043.626,63.125263
1434153043.642,70.20517
1434153043.657,75.83911
1434153043.673,78.19433
1434153043.689,75.67119
1434153043.704,67.46248
1434153043.72,53.954605
1434153043.736,36.668716
1434153043.751,17.827145
1434153043.767,-0.3253441
1434153043.782,-16.096607
1434153043.798,-28.693886
1434153043.814,-38.15014
1434153043.829,-45.00334
1434153043.845,-49.89825
1434153043.861,-53.306625
1434153043.876,-55.415833
1434153043.892,-56.247704
1434153043.907,-55.790134
1434153043.923,-54.15304
1434153043.939,-51.59672
1434153043.954,-48.49511
1434153043.97,-45.20098
1434153043.986,-41.96472
1434153044.001,-38.891697
1434153044.017,-35.966152
1434153044.032,-33.122593
1434153044.048,-30.296955
1434153044.064,-27.430824
1434153044.079,-24.47586
1434153044.095,-21.36068
1434153044.111,-18.0206
1434153044.126,-14.399006
1434153044.142,-10.483917
1434153044.157,-6.274168
1434153044.173,-1.7874355
1434153044.189,2.9827843
1434153044.204,8.018435
1434153044.22,13.264786
1434153044.236,18.56773
1434153044.251,23.716505
1434153044.267,28.481987
1434153044.282,32.720013
1434153044.298,36.44189
1434153044.314,39.844704
1434153044.329,43.277786
1434153044.345,47.215084
1434153044.361,52.081493
1434153044.376,58.096115
1434153044.392,65.00167
1434153044.407,71.91164
1434153044.423,77.3024
1434153044.439,79.359505
1434153044.454,76.50712
1434153044.47,68.020874
1434153044.486,54.36489
1434153044.501,37.14467
1434153044.517,18.57161
1434153044.532,0.82572174
1434153044.548,-14.569691
1434153044.564,-26.97563
1434153044.579,-36.52378
1434153044.595,-43.747772
1434153044.611,-49.226177
1434153044.626,-53.33232
1434153044.642,-56.223904
1434153044.657,-57.907036
1434153044.673,-58.358803
1434153044.689,-57.609856
1434153044.704,-55.794357
1434153044.72,-53.13349
1434153044.736,-49.916885
1434153044.751,-46.454433
1434153044.767,-43.027588
1434153044.782,-39.79917
1434153044.798,-36.810425
1434153044.814,-33.969627
1434153044.829,-31.146936
1434153044.845,-28.213558
1434153044.861,-25.117605
1434153044.876,-21.851505
1434153044.892,-18.425703
1434153044.907,-14.766195
1434153044.923,-10.74835
1434153044.939,-6.2157097
1434153044.954,-1.099287
1434153044.97,4.535822
1434153044.986,10.440182
1434153045.001,16.276676
1434153045.017,21.707697
1434153045.032,26.527042
1434153045.048,30.697239
1434153045.064,34.36651
1434153045.079,37.81787
1434153045.095,41.437424
1434153045.111,45.637997
1434153045.126,50.759552
1434153045.142,56.898346
1434153045.157,63.708874
1434153045.173,70.278625
1434153045.189,75.19648
1434153045.204,76.83018
1434153045.22,73.82353
1434153045.236,65.58925
1434153045.251,52.58399
1434153045.267,36.241196
1434153045.282,18.579473
1434153045.298,1.5899906
1434153045.314,-13.267265
1434153045.329,-25.361893
1434153045.345,-34.797466
1434153045.361,-42.128082
1434153045.376,-47.937195
1434153045.392,-52.586956
1434153045.407,-56.11564
1434153045.423,-58.36396
1434153045.439,-59.153526
1434153045.454,-58.47551
1434153045.47,-56.535736
1434153045.486,-53.715683
1434153045.501,-50.445595
1434153045.517,-47.091705
1434153045.532,-43.84274
1434153045.548,-40.768936
1434153045.564,-37.802486
1434153045.579,-34.84523
1434153045.595,-31.810764
1434153045.611,-28.660183
1434153045.626,-25.403053
1434153045.642,-22.082014
1434153045.657,-18.71064
1434153045.673,-15.251886
1434153045.689,-11.594441
1434153045.704,-7.5903773
1434153045.72,-3.1256804
1434153045.736,1.8124986
1434153045.751,7.102586
1434153045.767,12.502525
1434153045.782,17.744736
1434153045.798,22.594837
1434153045.814,26.962708
1434153045.829,30.872747
1434153045.845,34.5137
1434153045.861,38.19168
1434153045.876,42.313957
1434153045.892,47.2644
1434153045.907,53.24231
1434153045.923,60.014538
1434153045.939,66.75686
1434153045.954,72.09319
1434153045.97,74.39393
1434153045.986,72.2835
1434153046.001,65.147125
1434153046.017,53.396057
1434153046.032,38.4151
1434153046.048,22.121693
1434153046.064,6.415537
1434153046.079,-7.313733
1434153046.095,-18.393711
1434153046.111,-26.838823
1434153046.126,-33.04752
1434153046.142,-37.503593
1434153046.157,-40.520607
1434153046.173,-42.202694
1434153046.189,-42.548294
1434153046.204,-41.625587
1434153046.22,-39.689186
1434153046.236,-37.193394
1434153046.251,-34.629932
1434153046.267,-32.326622
1434153046.282,-30.312885
1434153046.298,-28.376501
1434153046.314,-26.20451
1434153046.329,-23.631142
1434153046.345,-20.707176
1434153046.361,-17.708046
1434153046.376,-14.906213
1434153046.392,-12.431136
1434153046.408,-10.148617
1434153046.423,-7.72801
1434153046.439,-4.757925
1434153046.454,-0.94724274
1434153046.47,3.7660837
1434153046.486,9.177208
1434153046.501,14.858049
1434153046.517,20.263119
1434153046.533,24.942759
1434153046.548,28.661636
1434153046.564,31.550568
1434153046.579,34.055763
1434153046.595,36.872177
1434153046.611,40.67064
1434153046.626,45.862175
1434153046.642,52.333134
1434153046.658,59.34909
1434153046.673,65.602615
1434153046.689,69.4698
1434153046.704,69.431595
1434153046.72,64.54326
1434153046.736,54.74853
1434153046.751,40.979137
1434153046.767,24.89595
1434153046.783,8.402973
1434153046.798,-6.8763347
1434153046.814,-19.93329
1434153046.829,-30.491207
1434153046.845,-38.785652
1434153046.861,-45.27122
1434153046.876,-50.289467
1434153046.892,-53.97038
1434153046.908,-56.246246
1434153046.923,-57.02665
1434153046.939,-56.349308
1434153046.954,-54.466347
1434153046.97,-51.78601
1434153046.986,-48.7549
1434153047.001,-45.687
1434153047.017,-42.72879
1434153047.033,-39.84052
1434153047.048,-36.907906
1434153047.064,-33.848297
1434153047.079,-30.683924
1434153047.095,-27.510399
1434153047.111,-24.464346
1434153047.126,-21.557425
1434153047.142,-18.656506
1434153047.158,-15.437176
1434153047.173,-11.528229
1434153047.189,-6.63142
1434153047.204,-0.71627045
1434153047.22,5.942064
1434153047.236,12.787048
1434153047.251,19.173544
1434153047.267,24.594238
1434153047.283,28.871515
1434153047.298,32.208733
1434153047.314,35.112915
1434153047.329,38.246284
1434153047.345,42.22437
1434153047.361,47.44438
1434153047.376,53.971745
1434153047.392,61.367363
1434153047.408,68.65498
1434153047.423,74.37689
1434153047.439,76.90765
1434153047.454,74.88811
1434153047.47,67.72217
1434153047.486,55.80489
1434153047.501,40.495377
1434153047.517,23.682823
1434153047.533,7.2305737
1434153047.548,-7.4754014
1434153047.564,-19.778053
1434153047.579,-29.670036
1434153047.595,-37.52119
1434153047.611,-43.80076
1434153047.626,-48.839035
1434153047.642,-52.794735
1434153047.658,-55.624817
1434153047.673,-57.219658
1434153047.689,-57.47828
1434153047.704,-56.414185
1434153047.72,-54.189278
1434153047.736,-51.123352
1434153047.751,-47.570076
1434153047.767,-43.870193
1434153047.783,-40.233173
1434153047.798,-36.73625
1434153047.814,-33.34946
1434153047.829,-30.018291
1434153047.845,-26.700375
1434153047.861,-23.380383
1434153047.876,-20.036098
1434153047.892,-16.592842
1434153047.908,-12.935041
1434153047.923,-8.928533
1434153047.939,-4.48289
1434153047.954,0.39185333
1434153047.97,5.6162243
1434153047.986,11.010806
1434153048.001,16.394218
1434153048.017,21.56284
1434153048.033,26.362772
1434153048.048,30.687168
1434153048.064,34.53422
1434153048.079,38.0251
1434153048.095,41.436638
1434153048.111,45.166115
1434153048.126,49.666367
1434153048.142,55.256588
1434153048.158,61.925907
1434153048.173,69.11281
1434153048.189,75.64786
1434153048.204,79.891815
1434153048.22,80.174706
1434153048.236,75.30729
1434153048.251,65.08233
1434153048.267,50.407616
1434153048.283,33.089325
1434153048.298,15.256848
1434153048.314,-1.2321157
1434153048.329,-15.262745
1434153048.345,-26.547014
1434153048.361,-35.39106
1434153048.376,-42.340286
1434153048.392,-47.869987
1434153048.408,-52.2312
1434153048.423,-55.49104
1434153048.439,-57.63896
1434153048.454,-58.694317
1434153048.47,-58.703526
1434153048.486,-57.759087
1434153048.501,-55.93068
1434153048.517,-53.309135
1434153048.533,-50.039726
1434153048.548,-46.371834
1434153048.564,-42.634933
1434153048.579,-39.186882
1434153048.595,-36.237106
1434153048.611,-33.778133
1434153048.626,-31.555056
1434153048.642,-29.168484
1434153048.658,-26.241695
1434153048.673,-22.590076
1434153048.689,-18.273703
1434153048.704,-13.575579
1434153048.72,-8.837868
1434153048.736,-4.3032303
1434153048.751,-0.010932922
1434153048.767,4.1874886
1434153048.783,8.5311165
1434153048.798,13.192032
1434153048.814,18.174507
1434153048.829,23.27808
1434153048.845,28.189592
1434153048.861,32.621346
1434153048.876,36.459656
1434153048.892,39.83228
1434153048.908,43.130276
1434153048.923,46.893562
1434153048.939,51.67913
1434153048.954,57.834373
1434153048.97,65.274414
1434153048.986,73.27334
1434153049.001,80.46571
1434153049.017,85.03272
1434153049.033,85.192154
1434153049.048,79.77157
1434153049.064,68.69307
1434153049.08,53.068363
1434153049.095,34.939907
1434153049.111,16.64577
1434153049.126,0.15542984
1434153049.142,-13.408087
1434153049.158,-23.86387
1434153049.173,-31.73218
1434153049.189,-37.783794
1434153049.204,-42.651703
1434153049.22,-46.625504
1434153049.236,-49.666805
1434153049.251,-51.56002
1434153049.267,-52.154503
1434153049.283,-51.469948
1434153049.298,-49.750504
1434153049.314,-47.36081
1434153049.33,-44.703705
1434153049.345,-42.101593
1434153049.361,-39.76483
1434153049.376,-37.775875
1434153049.392,-36.1346
1434153049.408,-34.73578
1434153049.423,-33.39888
1434153049.439,-31.896172
1434153049.455,-30.000723
1434153049.47,-27.552528
1434153049.486,-24.526955
1434153049.501,-21.00601
1434153049.517,-17.150522
1434153049.533,-13.075233
1434153049.548,-8.803688
1434153049.564,-4.230812
1434153049.58,0.7471981
1434153049.595,6.170307
1434153049.611,11.868214
1434153049.626,17.53752
1434153049.642,22.799772
1434153049.658,27.401443
1434153049.673,31.296913
1434153049.689,34.70546
1434153049.705,38.053814
1434153049.72,41.87328
1434153049.736,46.66684
1434153049.751,52.72988
1434153049.767,59.912346
1434153049.783,67.45263
1434153049.798,73.945274
1434153049.814,77.59619
1434153049.83,76.72649
1434153049.845,70.376755
1434153049.861,58.712067
1434153049.876,43.08701
1434153049.892,25.617613
1434153049.908,8.55789
1434153049.923,-6.3657017
1434153049.939,-18.246592
1434153049.955,-27.030258
1434153049.97,-33.15915
1434153049.986,-37.22088
1434153050.001,-39.65112
1434153050.017,-40.679077
1434153050.033,-40.42729
1434153050.048,-39.058292
1434153050.064,-36.88926
1434153050.08,-34.364174
1434153050.095,-31.935543
1434153050.111,-29.888771
1434153050.126,-28.240475
1434153050.142,-26.785057
1434153050.158,-25.194534
1434153050.173,-23.25293
1434153050.189,-20.957914
1434153050.205,-18.541164
1434153050.22,-16.28923
1434153050.236,-14.382669
1434153050.251,-12.720649
1434153050.267,-10.955088
1434153050.283,-8.604439
1434153050.298,-5.281729
1434153050.314,-0.8680997
1434153050.33,4.431916
1434153050.345,10.164206
1434153050.361,15.795608
1434153050.376,20.902225
1434153050.392,25.279697
1434153050.408,28.993744
1434153050.423,32.278763
1434153050.439,35.506325
1434153050.455,39.05733
1434153050.47,43.33038
1434153050.486,48.604626
1434153050.501,54.91053
1434153050.517,61.804855
1434153050.533,68.249565
1434153050.548,72.691864
1434153050.564,73.45009
1434153050.58,69.22472
1434153050.595,59.63028
1434153050.611,45.40812
1434153050.626,28.220016
1434153050.642,10.139469
1434153050.658,-6.942257
1434153050.673,-21.761469
1434153050.689,-33.77732
1434153050.705,-43.04736
1434153050.72,-49.954796
1434153050.736,-54.991035
1434153050.751,-58.60418
1434153050.767,-61.131203
1434153050.783,-62.757526
1434153050.798,-63.497
1434153050.814,-63.241196
1434153050.83,-61.87424
1434153050.845,-59.394356
1434153050.861,-56.023655
1434153050.876,-52.150253
1434153050.892,-48.25316
1434153050.908,-44.713398
1434153050.923,-41.70159
1434153050.939,-39.129566
1434153050.955,-36.74565
1434153050.97,-34.198025
1434153050.986,-31.211243
1434153051.001,-27.636757
1434153051.017,-23.524479
1434153051.033,-19.023952
1434153051.048,-14.332069
1434153051.064,-9.527504
1434153051.08,-4.5699463
1434153051.095,0.6800804
1434153051.111,6.3284073
1434153051.126,12.326485
1434153051.142,18.438465
1434153051.158,24.312439
1434153051.173,29.62727
1434153051.189,34.22597
1434153051.205,38.173637
1434153051.22,41.767452
1434153051.236,45.465828
1434153051.251,49.808937
1434153051.267,55.255306
1434153051.283,61.975624
1434153051.298,69.58359
1434153051.314,77.02028
1434153051.33,82.61148
1434153051.345,84.47416
1434153051.361,81.07997
1434153051.376,71.83662
1434153051.392,57.330036
1434153051.408,39.22498
1434153051.423,19.742584
1434153051.439,1.0398521
1434153051.455,-15.334984
1434153051.47,-28.644703
1434153051.486,-38.906
1434153051.501,-46.602924
1434153051.517,-52.361294
1434153051.533,-56.6886
1434153051.548,-59.90728
1434153051.564,-62.118267
1434153051.58,-63.317757
1434153051.595,-63.454117
1434153051.611,-62.52962
1434153051.626,-60.58912
1434153051.642,-57.77986
1434153051.658,-54.321648
1434153051.673,-50.527702
1434153051.689,-46.733864
1434153051.705,-43.263687
1434153051.72,-40.314774
1434153051.736,-37.89089
1434153051.751,-35.769108
1434153051.767,-33.56113
1434153051.783,-30.821217
1434153051.798,-27.227375
1434153051.814,-22.671886
1434153051.83,-17.332405
1434153051.845,-11.600685
1434153051.861,-5.9570503
1434153051.876,-0.7585182
1434153051.892,3.858963
1434153051.908,8.062336
1434153051.923,12.19854
1434153051.939,16.647606
1434153051.955,21.596878
1434153051.97,26.962479
1434153051.986,32.416576
1434153052.002,37.530674
1434153052.017,41.96703
1434153052.033,45.674416
1434153052.048,48.91272
1434153052.064,52.2529
1434153052.08,56.3734
1434153052.095,61.830963
1434153052.111,68.70662
1434153052.127,76.38848
1434153052.142,83.48705
1434153052.158,88.094284
1434153052.173,88.257416
1434153052.189,82.64279
1434153052.205,71.01554
1434153052.22,54.41385
1434153052.236,34.850887
1434153052.252,14.730637
1434153052.267,-3.8357506
1434153052.283,-19.503265
1434153052.298,-31.863308
1434153052.314,-41.213898
1434153052.33,-48.219498
1434153052.345,-53.516483
1434153052.361,-57.51661
1434153052.377,-60.346344
1434153052.392,-61.997353
1434153052.408,-62.454033
1434153052.423,-61.824818
1434153052.439,-60.332523
1434153052.455,-58.244995
1434153052.47,-55.778492
1434153052.486,-53.055473
1434153052.502,-50.114918
1434153052.517,-47.02774
1434153052.533,-43.927265
1434153052.548,-41.027176
1434153052.564,-38.50853
1434153052.58,-36.393536
1434153052.595,-34.453327
1434153052.611,-32.252506
1434153052.627,-29.310707
1434153052.642,-25.294952
1434153052.658,-20.187634
1434153052.673,-14.340355
1434153052.689,-8.320507
1434153052.705,-2.731388
1434153052.72,2.0502014
1434153052.736,6.0062637
1434153052.752,9.470604
1434153052.767,12.976887
1434153052.783,17.011791
1434153052.798,21.761333
1434153052.814,27.03986
1434153052.83,32.331654
1434153052.845,37.05019
1434153052.861,40.806026
1434153052.877,43.64217
1434153052.892,46.050854
1434153052.908,48.866867
1434153052.923,52.950317
1434153052.939,58.829502
1434153052.955,66.37984
1434153052.97,74.6503
1434153052.986,81.92563
1434153053.002,86.12254
1434153053.017,85.33258
1434153053.033,78.45245
1434153053.048,65.55997
1434153053.064,47.960896
1434153053.08,27.803675
1434153053.095,7.4819984
1434153053.111,-10.997696
1434153053.127,-26.397346
1434153053.142,-38.323845
1434153053.158,-47.005077
1434153053.173,-53.01335
1434153053.189,-56.974823
1434153053.205,-59.431503
1434153053.22,-60.78849
1434153053.236,-61.32451
1434153053.252,-61.214874
1434153053.267,-60.557453
1434153053.283,-59.369476
1434153053.298,-57.63878
1434153053.314,-55.329906
1434153053.33,-52.46405
1434153053.345,-49.13456
1434153053.361,-45.570435
1434153053.377,-42.0629
1434153053.392,-38.927094
1434153053.408,-36.328835
1434153053.423,-34.207428
1434153053.439,-32.2194
1434153053.455,-29.862236
1434153053.47,-26.65113
1434153053.486,-22.366259
1434153053.502,-17.155699
1434153053.517,-11.516602
1434153053.533,-6.077772
1434153053.548,-1.33741
1434153053.564,2.5499592
1434153053.58,5.815981
1434153053.595,8.948377
1434153053.611,12.431371
1434153053.627,16.543201
1434153053.642,21.215044
1434153053.658,26.121408
1434153053.673,30.819012
1434153053.689,34.96815
1434153053.705,38.459938
1434153053.72,41.48443
1434153053.736,44.459625
1434153053.752,47.976524
1434153053.767,52.590763
1434153053.783,58.591408
1434153053.798,65.74995
1434153053.814,73.13278
1434153053.83,79.15603
1434153053.845,81.93391
1434153053.861,79.830925
1434153053.877,72.04029
1434153053.892,58.895897
1434153053.908,41.85808
1434153053.923,23.052456
1434153053.939,4.714713
1434153053.955,-11.380133
1434153053.97,-24.19344
1434153053.986,-33.465298
1434153054.002,-39.496777
1434153054.017,-42.907764
1434153054.033,-44.36686
1434153054.048,-44.46474
1434153054.064,-43.624485
1434153054.08,-42.118137
1434153054.095,-40.143803
1434153054.111,-37.886574
1434153054.127,-35.564713
1434153054.142,-33.403744
1434153054.158,-31.538048
1434153054.173,-29.99881
1434153054.189,-28.676403
1434153054.205,-27.3913
1434153054.22,-25.952156
1434153054.236,-24.251019
1434153054.252,-22.225971
1434153054.267,-19.876068
1434153054.283,-17.202782
1434153054.298,-14.200771
1434153054.314,-10.8316965
1434153054.33,-7.063644
1434153054.345,-2.8598404
1434153054.361,1.7704258
1434153054.377,6.783633
1434153054.392,12.081924
1434153054.408,17.516884
1434153054.423,22.897549
1434153054.439,28.025175
1434153054.455,32.704365
1434153054.47,36.826595
1434153054.486,40.397385
1434153054.502,43.61783
1434153054.517,46.858738
1434153054.533,50.65439
1434153054.548,55.472095
1434153054.564,61.48089
1434153054.58,68.26125
1434153054.595,74.70573
1434153054.611,79.14393
1434153054.627,79.77847
1434153054.642,75.23581
1434153054.658,65.10153
1434153054.674,50.113625
1434153054.689,31.993816
1434153054.705,12.940143
1434153054.72,-4.958141
1434153054.736,-20.236164
1434153054.752,-32.220455
1434153054.767,-40.9641
1434153054.783,-46.94609
1434153054.799,-50.826324
1434153054.814,-53.179165
1434153054.83,-54.435246
1434153054.845,-54.854916
1434153054.861,-54.588097
1434153054.877,-53.71154
1434153054.892,-52.31052
1434153054.908,-50.48101
1434153054.924,-48.33349
1434153054.939,-45.987976
1434153054.955,-43.5553
1434153054.97,-41.10488
1434153054.986,-38.659454
1434153055.002,-36.17142
1434153055.017,-33.567894
1434153055.033,-30.747602
1434153055.049,-27.63813
1434153055.064,-24.184074
1434153055.08,-20.386232
1434153055.095,-16.257452
1434153055.111,-11.831104
1434153055.127,-7.137644
1434153055.142,-2.18787
1434153055.158,2.996334
1434153055.174,8.363201
1434153055.189,13.821562
1434153055.205,19.228764
1434153055.22,24.417288
1434153055.236,29.228895
1434153055.252,33.5545
1434153055.267,37.392467
1434153055.283,40.88721
1434153055.299,44.349598
1434153055.314,48.26861
1434153055.33,53.17172
1434153055.345,59.404938
1434153055.361,66.78474
1434153055.377,74.409515
1434153055.392,80.626816
1434153055.408,83.40427
1434153055.424,80.9754
1434153055.439,72.48956
1434153055.455,58.40925
1434153055.47,40.42598
1434153055.486,20.897789
1434153055.502,2.1205788
1434153055.517,-14.282566
1434153055.533,-27.60057
1434153055.549,-37.90884
1434153055.564,-45.709644
1434153055.58,-51.611565
1434153055.595,-56.104134
1434153055.611,-59.512882
1434153055.627,-61.994305
1434153055.642,-63.586746
1434153055.658,-64.219574
1434153055.674,-63.78029
1434153055.689,-62.179337
1434153055.705,-59.455868
1434153055.72,-55.81329
1434153055.736,-51.629375
1434153055.752,-47.347122
1434153055.767,-43.36084
1434153055.783,-39.909145
1434153055.799,-37.000103
1434153055.814,-34.417267
1434153055.83,-31.800789
1434153055.845,-28.759914
1434153055.861,-25.046013
1434153055.877,-20.632217
1434153055.892,-15.709797
1434153055.908,-10.573845
1434153055.924,-5.4659615
1434153055.939,-0.459198
1434153055.955,4.5222816
1434153055.97,9.628246
1434153055.986,14.915955
1434153056.002,20.299904
1434153056.017,25.558361
1434153056.033,30.44865
1434153056.049,34.812595
1434153056.064,38.6715
1434153056.08,42.22246
1434153056.095,45.83286
1434153056.111,49.968777
1434153056.127,55.11701
1434153056.142,61.56803
1434153056.158,69.16031
1434153056.174,77.03029
1434153056.189,83.60834
1434153056.205,86.88237
1434153056.22,85.03297
1434153056.236,77.07828
1434153056.252,63.31952
1434153056.267,45.310722
1434153056.283,25.390663
1434153056.299,5.9571495
1434153056.314,-11.204346
1434153056.33,-25.241566
1434153056.345,-36.15561
1434153056.361,-44.485027
1434153056.377,-50.863754
1434153056.392,-55.782852
1434153056.408,-59.480747
1434153056.424,-62.020916
1434153056.439,-63.417133
1434153056.455,-63.70344
1434153056.47,-62.946026
1434153056.486,-61.21528
1434153056.502,-58.575325
1434153056.517,-55.121387
1434153056.533,-51.038452
1434153056.549,-46.65132
1434153056.564,-42.350975
1434153056.58,-38.500584
1434153056.595,-35.259697
1434153056.611,-32.530804
1434153056.627,-29.988651
1434153056.642,-27.257935
1434153056.658,-24.063488
1434153056.674,-20.340607
1434153056.689,-16.166718
1434153056.705,-11.698326
1434153056.72,-7.028145
1434153056.736,-2.1748428
1434153056.752,2.8762817
1434153056.767,8.095894
1434153056.783,13.355419
1434153056.799,18.482876
1434153056.814,23.297604
1434153056.83,27.693588
1434153056.845,31.701305
1434153056.861,35.443584
1434153056.877,39.151096
1434153056.892,43.11286
1434153056.908,47.680485
1434153056.924,53.19257
1434153056.939,59.8312
1434153056.955,67.387924
1434153056.97,75.05467
1434153056.986,81.358925
1434153057.002,84.43504
1434153057.017,82.55858
1434153057.033,74.7798
1434153057.049,61.378365
1434153057.064,43.899353
1434153057.08,24.677818
1434153057.095,6.1089516
1434153057.111,-10.060299
1434153057.127,-23.062115
1434153057.142,-33.041786
1434153057.158,-40.660824
1434153057.174,-46.628437
1434153057.189,-51.37959
1434153057.205,-55.019466
1434153057.22,-57.41912
1434153057.236,-58.41397
1434153057.252,-57.941685
1434153057.267,-56.150055
1434153057.283,-53.343727
1434153057.299,-49.928505
1434153057.314,-46.292633
1434153057.33,-42.74089
1434153057.346,-39.43062
1434153057.361,-36.391136
1434153057.377,-33.566284
1434153057.392,-30.867817
1434153057.408,-28.193943
1434153057.424,-25.437218
1434153057.439,-22.478199
1434153057.455,-19.214394
1434153057.471,-15.554846
1434153057.486,-11.455246
1434153057.502,-6.8992405
1434153057.517,-1.901001
1434153057.533,3.4869862
1434153057.549,9.126596
1434153057.564,14.807537
1434153057.58,20.257353
1434153057.596,25.257832
1434153057.611,29.70027
1434153057.627,33.681156
1434153057.642,37.426315
1434153057.658,41.237923
1434153057.674,45.39707
1434153057.689,50.16889
1434153057.705,55.730766
1434153057.721,62.095024
1434153057.736,68.87782
1434153057.752,75.15909
1434153057.767,79.451775
1434153057.783,80.03099
1434153057.799,75.48264
1434153057.814,65.30491
1434153057.83,50.219475
1434153057.846,32.043133
1434153057.861,13.105402
1434153057.877,-4.462532
1434153057.892,-19.305744
1434153057.908,-30.997585
1434153057.924,-39.86087
1434153057.939,-46.51104
1434153057.955,-51.474
1434153057.971,-55.005417
1434153057.986,-57.1278
1434153058.002,-57.781986
1434153058.017,-57.010525
1434153058.033,-55.008713
1434153058.049,-52.132095
1434153058.064,-48.805016
1434153058.08,-45.425686
1434153058.096,-42.272034
1434153058.111,-39.49427
1434153058.127,-37.083153
1434153058.142,-34.92994
1434153058.158,-32.855988
1434153058.174,-30.675781
1434153058.189,-28.219645
1434153058.205,-25.368776
1434153058.221,-22.066614
1434153058.236,-18.305895
1434153058.252,-14.107128
1434153058.267,-9.531771
1434153058.283,-4.648899
1434153058.299,0.44335556
1434153058.314,5.646353
1434153058.33,10.863068
1434153058.346,16.021196
1434153058.361,21.070538
1434153058.377,25.980883
1434153058.392,30.684906
1434153058.408,35.123825
1434153058.424,39.268032
1434153058.439,43.22635
1434153058.455,47.2975
1434153058.471,51.954987
1434153058.486,57.670914
1434153058.502,64.6005
1434153058.517,72.25764
1434153058.533,79.369194
1434153058.549,84.06156
1434153058.564,84.37715
1434153058.58,78.95432
1434153058.596,67.57907
1434153058.611,51.331947
1434153058.627,32.30546
1434153058.642,12.93276
1434153058.658,-4.724514
1434153058.674,-19.468456
1434153058.689,-31.064125
1434153058.705,-39.990788
1434153058.721,-47.001877
1434153058.736,-52.732254
1434153058.752,-57.47782
1434153058.767,-61.22149
1434153058.783,-63.767517
1434153058.799,-64.92641
1434153058.814,-64.619095
1434153058.83,-62.93816
1434153058.846,-60.13327
1434153058.861,-56.567375
1434153058.877,-52.62156
1434153058.892,-48.635483
1434153058.908,-44.835464
1434153058.924,-41.289948
1434153058.939,-37.93393
1434153058.955,-34.6323
1434153058.971,-31.235106
1434153058.986,-27.65872
1434153059.002,-23.870777
1434153059.017,-19.883284
1434153059.033,-15.696081
1434153059.049,-11.296312
1434153059.064,-6.660801
1434153059.08,-1.756279
1434153059.096,3.4218922
1434153059.111,8.84087
1434153059.127,14.431337
1434153059.142,20.067509
1434153059.158,25.567656
1434153059.174,30.719397
1434153059.189,35.343155
1434153059.205,39.381752
1434153059.221,42.98585
1434153059.236,46.53866
1434153059.252,50.602245
1434153059.267,55.723083
1434153059.283,62.164215
1434153059.299,69.60445
1434153059.314,76.98322
1434153059.33,82.57672
1434153059.346,84.41479
1434153059.361,80.88095
1434153059.377,71.312386
1434153059.392,56.334972
1434153059.408,37.734447
1434153059.424,17.904734
1434153059.439,-0.86548996
1434153059.455,-17.004423
1434153059.471,-29.886854
1434153059.486,-39.71498
1434153059.502,-47.105057
1434153059.517,-52.724056
1434153059.533,-57.018265
1434153059.549,-60.18538
1434153059.564,-62.251175
1434153059.58,-63.169098
1434153059.596,-62.912773
1434153059.611,-61.51831
1434153059.627,-59.067413
1434153059.642,-55.75019
1434153059.658,-51.836918
1434153059.674,-47.714676
1434153059.689,-43.78453
1434153059.705,-40.379654
1434153059.721,-37.62145
1434153059.736,-35.376915
1434153059.752,-33.288246
1434153059.767,-30.913883
1434153059.783,-27.910347
1434153059.799,-24.144337
1434153059.814,-19.715622
1434153059.83,-14.895934
1434153059.846,-9.945709
1434153059.861,-5.0109434
1434153059.877,-0.09078789
1434153059.892,4.914577
1434153059.908,10.121146
1434153059.924,15.542721
1434153059.939,21.085247
1434153059.955,26.547264
1434153059.971,31.671394
1434153059.986,36.2108
1434153060.002,40.06942
1434153060.018,43.367126
1434153060.033,46.53009
1434153060.049,50.216698
1434153060.064,55.090267
1434153060.08,61.4785
1434153060.096,69.04875
1434153060.111,76.63084
1434153060.127,82.415886
1434153060.142,84.39356
1434153060.158,81.03294
1434153060.174,71.813416
1434153060.189,57.479515
1434153060.205,39.828743
1434153060.221,21.177351
1434153060.236,3.6752622
1434153060.252,-11.2234125
1434153060.268,-22.962511
1434153060.283,-31.752323
1434153060.299,-38.194984
1434153060.314,-42.88814
1434153060.33,-46.21599
1434153060.346,-48.307446
1434153060.361,-49.169273
1434153060.377,-48.846264
1434153060.393,-47.53206
1434153060.408,-45.535328
1434153060.424,-43.208244
1434153060.439,-40.800896
1434153060.455,-38.415104
1434153060.471,-35.990128
1434153060.486,-33.4026
1434153060.502,-30.550377
1434153060.518,-27.466206
1434153060.533,-24.293509
1434153060.549,-21.251286
1434153060.564,-18.490116
1434153060.58,-15.994254
1434153060.596,-13.519244
1434153060.611,-10.657967
1434153060.627,-6.9899473
1434153060.643,-2.2855606
1434153060.658,3.388031
1434153060.674,9.630898
1434153060.689,15.855551
1434153060.705,21.475388
1434153060.721,26.110243
1434153060.736,29.700546
1434153060.752,32.522896
1434153060.768,35.085163
1434153060.783,38.003223
1434153060.799,41.85028
1434153060.814,47.02513
1434153060.83,53.560772
1434153060.846,60.998405
1434153060.861,68.24902
1434153060.877,73.715195
1434153060.893,75.59929
1434153060.908,72.469154
1434153060.924,63.753307
1434153060.939,50.077927
1434153060.955,33.110985
1434153060.971,15.07444
1434153060.986,-1.9406872
1434153061.002,-16.530346
1434153061.018,-28.21815
1434153061.033,-37.25455
1434153061.049,-44.24979
1434153061.064,-49.746002
1434153061.08,-54.004387
1434153061.096,-57.027084
1434153061.111,-58.71845
1434153061.127,-59.0265
1434153061.143,-58.076317
1434153061.158,-56.12407
1434153061.174,-53.501102
1434153061.189,-50.497314
1434153061.205,-47.33526
1434153061.221,-44.104626
1434153061.236,-40.821987
1434153061.252,-37.45222
1434153061.268,-33.998684
1434153061.283,-30.516315
1434153061.299,-27.109367
1434153061.314,-23.874481
1434153061.33,-20.83137
1434153061.346,-17.87159
1434153061.361,-14.76663
1434153061.377,-11.213565
1434153061.393,-6.9886856
1434153061.408,-2.0042963
1434153061.424,3.6119137
1434153061.439,9.571386
1434153061.455,15.497282
1434153061.471,21.047985
1434153061.486,25.980862
1434153061.502,30.260649
1434153061.518,34.028408
1434153061.533,37.611465
1434153061.549,41.458977
1434153061.564,46.051247
1434153061.58,51.75235
1434153061.596,58.6158
1434153061.611,66.15991
1434153061.627,73.292755
1434153061.643,78.408455
1434153061.658,79.78543
1434153061.674,76.0957
1434153061.689,66.91286
1434153061.705,52.911785
1434153061.721,35.74522
1434153061.736,17.530188
1434153061.752,0.27256584
1434153061.768,-14.643165
1434153061.783,-26.6498
1434153061.799,-35.91753
1434153061.814,-43.02726
1434153061.83,-48.64501
1434153061.846,-53.239155
1434153061.861,-56.982994
1434153061.877,-59.75201
1434153061.893,-61.28073
1434153061.908,-61.31446
1434153061.924,-59.79039
1434153061.939,-56.895325
1434153061.955,-53.053314
1434153061.971,-48.76346
1434153061.986,-44.495438
1434153062.002,-40.537647
1434153062.018,-36.98362
1434153062.033,-33.75872
1434153062.049,-30.711962
1434153062.064,-27.667166
1434153062.08,-24.488249
1434153062.096,-21.078056
1434153062.111,-17.401115
1434153062.127,-13.449047
1434153062.143,-9.246103
1434153062.158,-4.80406
1434153062.174,-0.14024734
1434153062.189,4.7310333
1434153062.205,9.720997
1434153062.221,14.669086
1434153062.236,19.368458
1434153062.252,23.618687
1434153062.268,27.334976
1434153062.283,30.62215
1434153062.299,33.748512
1434153062.314,37.11034
1434153062.33,41.136433
1434153062.346,46.196667
1434153062.361,52.4669
1434153062.377,59.785057
1434153062.393,67.46465
1434153062.408,74.279526
1434153062.424,78.585556
1434153062.439,78.764084
1434153062.455,73.72829
1434153062.471,63.42149
1434153062.486,48.90441
1434153062.502,32.07531
1434153062.518,15.068611
1434153062.533,-0.3561859
1434153062.549,-13.231167
1434153062.564,-23.412827
1434153062.58,-31.353863
1434153062.596,-37.680126
1434153062.611,-42.90703
1434153062.627,-47.258404
1434153062.643,-50.695534
1434153062.658,-53.03732
1434153062.674,-54.102345
1434153062.689,-53.826828
1434153062.705,-52.33054
1434153062.721,-49.89081
1434153062.736,-46.86855
1434153062.752,-43.622086
1434153062.768,-40.431683
1434153062.783,-37.4615
1434153062.799,-34.768032
1434153062.814,-32.315228
1434153062.83,-30.004574
1434153062.846,-27.675343
1434153062.861,-25.152756
1434153062.877,-22.260834
1434153062.893,-18.89149
1434153062.908,-15.00589
1434153062.924,-10.627476
1434153062.94,-5.8257523
1434153062.955,-0.7048912
1434153062.971,4.6137123
1434153062.986,9.977055
1434153063.002,15.222267
1434153063.018,20.184399
1434153063.033,24.749249
1434153063.049,28.87851
1434153063.065,32.646645
1434153063.08,36.19931
1434153063.096,39.78534
1434153063.111,43.725327
1434153063.127,48.3769
1434153063.143,53.969444
1434153063.158,60.408997
1434153063.174,67.02734
1434153063.19,72.559044
1434153063.205,75.355675
1434153063.221,73.89406
1434153063.236,67.35538
1434153063.252,56.018166
1434153063.268,41.22815
1434153063.283,24.974426
1434153063.299,9.243645
1434153063.315,-4.5448914
1434153063.33,-15.790703
1434153063.346,-24.593628
1434153063.361,-31.409538
1434153063.377,-36.6587
1434153063.393,-40.54093
1434153063.408,-43.055023
1434153063.424,-44.14248
1434153063.44,-43.860634
1434153063.455,-42.46292
1434153063.471,-40.3375
1434153063.486,-37.89473
1434153063.502,-35.41259
1434153063.518,-33.011406
1434153063.533,-30.646408
1434153063.549,-28.226639
1434153063.565,-25.688408
1434153063.58,-23.079094
1434153063.596,-20.506882
1434153063.611,-18.116379
1434153063.627,-15.952309
1434153063.643,-13.92482
1434153063.658,-11.793091
1434153063.674,-9.241966
1434153063.69,-5.986992
1434153063.705,-1.8888168
1434153063.721,2.9661636
1434153063.736,8.263969
1434153063.752,13.576637
1434153063.768,18.477585
1434153063.783,22.697456
1434153063.799,26.223259
1434153063.815,29.28704
1434153063.83,32.30365
1434153063.846,35.7732
1434153063.861,40.13334
1434153063.877,45.62844
1434153063.893,52.111565
1434153063.908,58.925804
1434153063.924,64.86438
1434153063.94,68.39916
1434153063.955,68.06696
1434153063.971,62.957314
1434153063.986,53.078865
1434153064.002,39.42279
1434153064.018,23.669212
1434153064.033,7.7113113
1434153064.049,-6.894211
1434153064.065,-19.221329
1434153064.08,-29.080528
1434153064.096,-36.771767
1434153064.111,-42.8077
1434153064.127,-47.60164
1434153064.143,-51.327217
1434153064.158,-53.91423
1434153064.174,-55.199913
1434153064.19,-55.058113
1434153064.205,-53.57946
1434153064.221,-51.058807
1434153064.236,-47.93727
1434153064.252,-44.62104
1434153064.268,-41.39704
1434153064.283,-38.368996
1434153064.299,-35.531067
1434153064.315,-32.806625
1434153064.33,-30.124733
1434153064.346,-27.385826
1434153064.361,-24.475357
1434153064.377,-21.265114
1434153064.393,-17.667679
1434153064.408,-13.689423
1434153064.424,-9.437218
1434153064.44,-5.0512543
1434153064.455,-0.6185837
1434153064.471,3.8853683
1434153064.486,8.560562
1434153064.502,13.508133
1434153064.518,18.689598
1434153064.533,23.930618
1434153064.549,28.95523
1434153064.565,33.545853
1434153064.58,37.641167
1434153064.596,41.423164
1434153064.611,45.26393
1434153064.627,49.64119
1434153064.643,54.973267
1434153064.658,61.48111
1434153064.674,68.95064
1434153064.69,76.62657
1434153064.705,83.190926
1434153064.721,86.96888
1434153064.736,86.3691
1434153064.752,80.40655
1434153064.768,69.09371
1434153064.783,53.548462
1434153064.799,35.6802
1434153064.815,17.631409
1434153064.83,1.1375427
1434153064.846,-12.8244705
1434153064.861,-24.12613
1434153064.877,-33.172836
1434153064.893,-40.544556
1434153064.908,-46.65348
1434153064.924,-51.656776
1434153064.94,-55.49356
1434153064.955,-58.055843
1434153064.971,-59.29431
1434153064.986,-59.261143
1434153065.002,-58.064144
1434153065.018,-55.84281
1434153065.033,-52.749153
1434153065.049,-49.02263
1434153065.065,-45.021637
1434153065.08,-41.207916
1434153065.096,-38.016922
1434153065.111,-35.667
1434153065.127,-34.01053
1434153065.143,-32.56581
1434153065.158,-30.657845
1434153065.174,-27.729362
1434153065.19,-23.564804
1434153065.205,-18.389748
1434153065.221,-12.744297
1434153065.236,-7.253151
1434153065.252,-2.324459
1434153065.268,1.9884148
1434153065.283,5.9533806
1434153065.299,9.994633
1434153065.315,14.468456
1434153065.33,19.464077
1434153065.346,24.791737
1434153065.361,30.05024
1434153065.377,34.830563
1434153065.393,38.89142
1434153065.408,42.305042
1434153065.424,45.406487
1434153065.44,48.772774
1434153065.455,53.023273
1434153065.471,58.616463
1434153065.486,65.6055
1434153065.502,73.41495
1434153065.518,80.77393
1434153065.533,85.89674
1434153065.549,86.92207
1434153065.565,82.49132
1434153065.58,72.24773
1434153065.596,57.035324
1434153065.612,38.682953
1434153065.627,19.475857
1434153065.643,1.4888954
1434153065.658,-13.900608
1434153065.674,-26.197102
1434153065.69,-35.621452
1434153065.705,-42.80725
1434153065.721,-48.3826
1434153065.737,-52.807713
1434153065.752,-56.24977
1434153065.768,-58.698944
1434153065.783,-60.05577
1434153065.799,-60.28408
1434153065.815,-59.433746
1434153065.83,-57.66758
1434153065.846,-55.187202
1434153065.862,-52.20469
1434153065.877,-48.929573
1434153065.893,-45.564224
1434153065.908,-42.304882
1434153065.924,-39.30021
1434153065.94,-36.57437
1434153065.955,-33.986313
1434153065.971,-31.258251
1434153065.987,-28.066448
1434153066.002,-24.172249
1434153066.018,-19.583363
1434153066.033,-14.524352
1434153066.049,-9.403999
1434153066.065,-4.6213465
1434153066.08,-0.4221363
1434153066.096,3.1942406
1434153066.112,6.4649553
1434153066.127,9.755889
1434153066.143,13.407559
1434153066.158,17.584835
1434153066.174,22.207924
1434153066.19,26.982615
1434153066.205,31.524881
1434153066.221,35.568863
1434153066.237,39.130554
1434153066.252,42.608326
1434153066.268,46.686787
1434153066.283,52.11741
1434153066.299,59.31379
1434153066.315,68.048874
1434153066.33,77.22348
1434153066.346,85.001495
1434153066.362,89.216835
1434153066.377,88.015015
1434153066.393,80.46782
1434153066.408,66.92111
1434153066.424,48.923225
1434153066.44,28.774078
1434153066.455,8.84568
1434153066.471,-9.015584
1434153066.487,-23.843369
1434153066.502,-35.513153
1434153066.518,-44.48727
1434153066.533,-51.392265
1434153066.549,-56.75148
1434153066.565,-60.836586
1434153066.58,-63.730495
1434153066.596,-65.43868
1434153066.612,-65.99466
1434153066.627,-65.50493
1434153066.643,-64.12509
1434153066.658,-62.008286
1434153066.674,-59.294983
1434153066.69,-56.116673
1434153066.705,-52.653484
1434153066.721,-49.163513
1434153066.737,-45.943146
1434153066.752,-43.208763
1434153066.768,-40.998665
1434153066.783,-39.0783
1434153066.799,-37.00954
1434153066.815,-34.303665
1434153066.83,-30.623714
1434153066.846,-25.89952
1434153066.862,-20.37214
1434153066.877,-14.5100155
1434153066.893,-8.829931
1434153066.908,-3.7274647
1434153066.924,0.6525192
1434153066.94,4.475792
1434153066.955,8.102848
1434153066.971,11.958441
1434153066.987,16.283112
1434153067.002,21.046324
1434153067.018,25.928802
1434153067.033,30.47523
1434153067.049,34.316353
1434153067.065,37.382103
1434153067.08,40.000336
1434153067.096,42.82905
1434153067.112,46.636223
1434153067.127,52.026653
1434153067.143,59.084667
1434153067.158,67.20004
1434153067.174,75.01449
1434153067.19,80.652466
1434153067.205,82.152336
1434153067.221,78.03143
1434153067.237,67.787605
1434153067.252,52.13299
1434153067.268,32.8511
1434153067.283,12.311592
1434153067.299,-7.164711
1434153067.315,-23.857225
1434153067.33,-36.915833
1434153067.346,-46.306404
1434153067.362,-52.485977
1434153067.377,-56.069435
1434153067.393,-57.575417
1434153067.408,-57.342857
1434153067.424,-55.64971
1434153067.44,-52.79791
1434153067.455,-49.22738
1434153067.471,-45.422585
1434153067.487,-41.84601
1434153067.502,-38.763943
1434153067.518,-36.239136
1434153067.533,-34.148525
1434153067.549,-32.300438
1434153067.565,-30.504894
1434153067.58,-28.640686
1434153067.596,-26.607197
1434153067.612,-24.316433
1434153067.627,-21.665394
1434153067.643,-18.552814
1434153067.658,-14.9286585
1434153067.674,-10.825983
1434153067.69,-6.331709
1434153067.705,-1.5592527
1434153067.721,3.4379501
1434153067.737,8.637893
1434153067.752,14.022741
1434153067.768,19.481018
1434153067.783,24.82005
1434153067.799,29.766338
1434153067.815,34.125755
1434153067.83,37.862354
1434153067.846,41.170097
1434153067.862,44.42343
1434153067.877,48.12241
1434153067.893,52.71284
1434153067.908,58.42926
1434153067.924,65.064865
1434153067.94,71.81781
1434153067.955,77.29449
1434153067.971,79.76091
1434153067.987,77.59829
1434153068.002,69.89231
1434153068.018,56.80921
1434153068.033,39.657635
1434153068.049,20.512722
1434153068.065,1.6435776
1434153068.08,-15.134546
1434153068.096,-28.781967
1434153068.112,-39.065872
1434153068.127,-46.32589
1434153068.143,-51.12285
1434153068.158,-53.983368
1434153068.174,-55.29473
1434153068.19,-55.33207
1434153068.205,-54.349144
1434153068.221,-52.63651
1434153068.237,-50.534317
1434153068.252,-48.343887
1434153068.268,-46.263336
1434153068.284,-44.293167
1434153068.299,-42.30533
1434153068.315,-40.111046
1434153068.33,-37.569637
1434153068.346,-34.65051
1434153068.362,-31.424406
1434153068.377,-27.995354
1434153068.393,-24.464703
1434153068.409,-20.873734
1434153068.424,-17.206848
1434153068.44,-13.373405
1434153068.455,-9.235289
1434153068.471,-4.596037
1434153068.487,0.6891861
1434153068.502,6.6394444
1434153068.518,13.06712
1434153068.534,19.601734
1434153068.549,25.76261
1434153068.565,31.189356
1434153068.58,35.76357
1434153068.596,39.681847
1434153068.612,43.367428
1434153068.627,47.337296
1434153068.643,52.057293
1434153068.659,57.829002
1434153068.674,64.664345
1434153068.69,72.146324
1434153068.705,79.2997
1434153068.721,84.61096
1434153068.737,86.30306
1434153068.752,82.85208
1434153068.768,73.52222
1434153068.784,58.771896
1434153068.799,40.17021
1434153068.815,19.993252
1434153068.83,0.53429794
1434153068.846,-16.479706
1434153068.862,-30.217442
1434153068.877,-40.676464
1434153068.893,-48.43142
1434153068.909,-54.24279
1434153068.924,-58.763798
1434153068.94,-62.37408
1434153068.955,-65.17116
1434153068.971,-67.019745
1434153068.987,-67.718796
1434153069.002,-67.15429
1434153069.018,-65.40831
1434153069.034,-62.71685
1434153069.049,-59.451553
1434153069.065,-55.957333
1434153069.08,-52.478943
1434153069.096,-49.115635
1434153069.112,-45.865776
1434153069.127,-42.63792
1434153069.143,-39.31841
1434153069.159,-35.753304
1434153069.174,-31.798561
1434153069.19,-27.36921
1434153069.205,-22.476921
1434153069.221,-17.230534
1434153069.237,-11.805866
1434153069.252,-6.3382645
1434153069.268,-0.86143875
1434153069.284,4.709179
1434153069.299,10.474773
1434153069.315,16.499012
1434153069.33,22.690838
1434153069.346,28.821365
1434153069.362,34.600822
1434153069.377,39.80172
1434153069.393,44.392307
1434153069.409,48.635986
1434153069.424,53.06554
1434153069.44,58.34731
1434153069.455,64.978
1434153069.471,72.93913
1434153069.487,81.42255
1434153069.502,88.81113
1434153069.518,93.004166
1434153069.534,92.07657
1434153069.549,84.939285
1434153069.565,71.80355
1434153069.58,54.14196
1434153069.596,34.228897
1434153069.612,14.397556
1434153069.627,-3.5372734
1434153069.643,-18.627007
1434153069.659,-30.679382
1434153069.674,-40.000256
1434153069.69,-47.069534
1434153069.705,-52.365833
1434153069.721,-56.26199
1434153069.737,-59.042633
1434153069.752,-60.874092
1434153069.768,-61.791317
1434153069.784,-61.717857
1434153069.799,-60.546635
1434153069.815,-58.259907
1434153069.83,-55.04576
1434153069.846,-51.28282
1434153069.862,-47.44203
1434153069.877,-43.91075
1434153069.893,-40.8655
1434153069.909,-38.212223
1434153069.924,-35.68112
1434153069.94,-32.924973
1434153069.955,-29.681969
1434153069.971,-25.8149
1434153069.987,-21.351894
1434153070.002,-16.40908
1434153070.018,-11.168438
1434153070.034,-5.790344
1434153070.049,-0.35990906
1434153070.065,5.1110992
1434153070.08,10.651276
1434153070.096,16.276577
1434153070.112,21.898636
1434153070.127,27.32544
1434153070.143,32.31712
1434153070.159,36.71951
1434153070.174,40.5585
1434153070.19,44.140568
1434153070.205,47.956963
1434153070.221,52.579456
1434153070.237,58.401478
1434153070.252,65.42488
1434153070.268,73.02278
1434153070.284,79.932526
1434153070.299,84.41121
1434153070.315,84.67801
1434153070.33,79.44292
1434153070.346,68.40364
1434153070.362,52.425724
1434153070.377,33.36171
1434153070.393,13.52187
1434153070.409,-4.9669075
1434153070.424,-20.657082
1434153070.44,-32.991646
1434153070.455,-42.200954
1434153070.471,-48.932686
1434153070.487,-53.930897
1434153070.502,-57.709793
1434153070.518,-60.510284
1434153070.534,-62.30549
1434153070.549,-62.961166
1434153070.565,-62.360825
1434153070.58,-60.528976
1434153070.596,-57.65889
1434153070.612,-54.0836
1434153070.627,-50.204807
1434153070.643,-46.383198
1434153070.659,-42.84814
1434153070.674,-39.68702
1434153070.69,-36.830738
1434153070.705,-34.125465
1434153070.721,-31.373009
1434153070.737,-28.404655
1434153070.752,-25.10291
1434153070.768,-21.454842
1434153070.784,-17.490385
1434153070.799,-13.293825
1434153070.815,-8.925886
1434153070.83,-4.437744
1434153070.846,0.17386436
1434153070.862,4.911598
1434153070.877,9.774593
1434153070.893,14.707947
1434153070.909,19.60556
1434153070.924,24.298296
1434153070.94,28.636518
1434153070.956,32.566193
1434153070.971,36.230164
1434153070.987,39.973442
1434153071.002,44.330154
1434153071.018,49.81172
1434153071.034,56.68413
1434153071.049,64.61696
1434153071.065,72.55666
1434153071.08,78.7682
1434153071.096,81.29516
1434153071.112,78.54928
1434153071.127,69.90973
1434153071.143,56.011665
1434153071.159,38.57917
1434153071.174,19.89599
1434153071.19,2.1345825
1434153071.206,-13.173506
1434153071.221,-25.338833
1434153071.237,-34.396004
1434153071.252,-40.778973
1434153071.268,-45.02274
1434153071.284,-47.533253
1434153071.299,-48.58882
1434153071.315,-48.35075
1434153071.331,-47.009563
1434153071.346,-44.832386
1434153071.362,-42.18507
1434153071.377,-39.445007
1434153071.393,-36.893066
1434153071.409,-34.592834
1434153071.424,-32.418427
1434153071.44,-30.133686
1434153071.456,-27.555513
1434153071.471,-24.667027
1434153071.487,-21.638687
1434153071.502,-18.69505
1434153071.518,-15.974904
1434153071.534,-13.385132
1434153071.549,-10.614345
1434153071.565,-7.21766
1434153071.581,-2.8439732
1434153071.596,2.6268024
1434153071.612,8.961819
1434153071.627,15.656655
1434153071.643,22.06881
1434153071.659,27.657642
1434153071.674,32.150894
1434153071.69,35.670864
1434153071.706,38.664223
1434153071.721,41.792427
1434153071.737,45.723995
1434153071.752,50.9346
1434153071.768,57.468937
1434153071.784,64.81654
1434153071.799,71.824326
1434153071.815,76.88928
1434153071.831,78.27574
1434153071.846,74.668236
1434153071.862,65.61954
1434153071.877,51.812798
1434153071.893,34.87306
1434153071.909,16.920834
1434153071.924,-0.05393219
1434153071.94,-14.677574
1434153071.956,-26.381756
1434153071.971,-35.25258
1434153071.987,-41.74153
1434153072.002,-46.31123
1434153072.018,-49.27922
1434153072.034,-50.79728
1434153072.049,-50.97934
1434153072.065,-49.97518
1434153072.081,-48.071022
1434153072.096,-45.621277
1434153072.112,-42.972748
1434153072.127,-40.32644
1434153072.143,-37.718025
1434153072.159,-35.01335
1434153072.174,-32.046715
1434153072.19,-28.765703
1434153072.206,-25.308468
1434153072.221,-21.963774
1434153072.237,-19.009306
1434153072.252,-16.498827
1434153072.268,-14.154915
1434153072.284,-11.432446
1434153072.299,-7.774687
1434153072.315,-2.8588142
1434153072.331,3.1627293
1434153072.346,9.741491
1434153072.362,16.133305
1434153072.377,21.728813
1434153072.393,26.267181
1434153072.409,29.927437
1434153072.424,33.219
1434153072.44,36.81345
1434153072.456,41.327835
1434153072.471,47.147694
1434153072.487,54.21495
1434153072.502,61.887924
1434153072.518,68.92419
1434153072.534,73.67134
1434153072.549,74.448494
1434153072.565,70.06676
1434153072.581,60.25117
1434153072.596,45.791176
1434153072.612,28.350636
1434153072.627,9.999432
1434153072.643,-7.393692
1434153072.659,-22.55112
1434153072.674,-34.985992
1434153072.69,-44.863647
1434153072.706,-52.684204
1434153072.721,-58.943295
1434153072.737,-63.913734
1434153072.752,-67.60721
1434153072.768,-69.8725
1434153072.784,-70.569336
1434153072.799,-69.715836
1434153072.815,-67.47876
1434153072.831,-64.15024
1434153072.846,-60.008373
1434153072.862,-55.29351
1434153072.877,-50.197704
1434153072.893,-44.940304
1434153072.909,-39.74777
1434153072.924,-34.866364
1434153072.94,-30.450733
1434153072.956,-26.531757
1434153072.971,-22.990566
1434153072.987,-19.594913
1434153073.002,-16.065102
1434153073.018,-12.146687
1434153073.034,-7.6453857
1434153073.049,-2.4937706
1434153073.065,3.25708
1434153073.081,9.394669
1434153073.096,15.613941
1434153073.112,21.5485
1434153073.127,26.923748
1434153073.143,31.618698
1434153073.159,35.757885
1434153073.174,39.653908
1434153073.19,43.768425
1434153073.206,48.57496
1434153073.221,54.446968
1434153073.237,61.487686
1434153073.252,69.33491
1434153073.268,77.025276
1434153073.284,83.06925
1434153073.299,85.69838
1434153073.315,83.39224
1434153073.331,75.387314
1434153073.346,62.06299
1434153073.362,44.839783
1434153073.377,25.833223
1434153073.393,7.166342
1434153073.409,-9.550404
1434153073.424,-23.53829
1434153073.44,-34.769253
1434153073.456,-43.703163
1434153073.471,-50.887455
1434153073.487,-56.728836
1434153073.502,-61.387924
1434153073.518,-64.82781
1434153073.534,-66.912994
1434153073.549,-67.525894
1434153073.565,-66.61641
1434153073.581,-64.267334
1434153073.596,-60.65529
1434153073.612,-56.088947
1434153073.628,-50.971794
1434153073.643,-45.78708
1434153073.659,-40.983795
1434153073.674,-36.93453
1434153073.69,-33.758106
1434153073.706,-31.312574
1434153073.721,-29.193293
1434153073.737,-26.870453
1434153073.752,-23.877579
1434153073.768,-19.978962
1434153073.784,-15.240798
1434153073.799,-9.970124
1434153073.815,-4.5533953
1434153073.831,0.695519
1434153073.846,5.6766834
1434153073.862,10.461429
1434153073.878,15.211759
1434153073.893,20.027681
1434153073.909,24.888931
1434153073.924,29.620338
1434153073.94,34.017136
1434153073.956,37.92757
1434153073.971,41.403774
1434153073.987,44.70525
1434153074.003,48.304153
1434153074.018,52.7334
1434153074.034,58.407795
1434153074.049,65.33088
1434153074.065,72.918434
1434153074.081,79.90854
1434153074.096,84.59932
1434153074.112,85.23455
1434153074.128,80.57176
1434153074.143,70.304955
1434153074.159,55.242836
1434153074.174,37.088013
1434153074.19,17.98133
1434153074.206,-0.10416603
1434153074.221,-15.798855
1434153074.237,-28.539747
1434153074.253,-38.461784
1434153074.268,-46.128403
1434153074.284,-52.163887
1434153074.299,-57.00495
1434153074.315,-60.79634
1434153074.331,-63.462616
1434153074.346,-64.85242
1434153074.362,-64.88864
1434153074.378,-63.637062
1434153074.393,-61.28984
1434153074.409,-58.06337
1434153074.424,-54.207664
1434153074.44,-49.96187
1434153074.456,-45.64351
1434153074.471,-41.592285
1434153074.487,-38.131924
1434153074.503,-35.38823
1434153074.518,-33.22274
1434153074.534,-31.208067
1434153074.549,-28.82013
1434153074.565,-25.644157
1434153074.581,-21.540165
1434153074.596,-16.675629
1434153074.612,-11.447868
1434153074.628,-6.278118
1434153074.643,-1.4808693
1434153074.659,2.8316574
1434153074.674,6.780697
1434153074.69,10.623077
1434153074.706,14.645382
1434153074.721,19.040585
1434153074.737,23.801136
1434153074.753,28.701618
1434153074.768,33.370754
1434153074.784,37.460445
1434153074.799,40.81297
1434153074.815,43.59825
1434153074.831,46.32672
1434153074.846,49.711926
1434153074.862,54.40458
1434153074.878,60.65837
1434153074.893,68.009705
1434153074.909,75.228226
1434153074.924,80.46571
1434153074.94,81.787544
1434153074.956,77.7664
1434153074.971,68.04699
1434153074.987,53.48188
1434153075.003,35.915512
1434153075.018,17.604767
1434153075.034,0.5703659
1434153075.049,-13.865059
1434153075.065,-25.218697
1434153075.081,-33.674202
1434153075.096,-39.745827
1434153075.112,-43.961983
1434153075.128,-46.6784
1434153075.143,-48.089302
1434153075.159,-48.30597
1434153075.174,-47.47793
1434153075.19,-45.81585
1434153075.206,-43.57749
1434153075.221,-40.982857
1434153075.237,-38.187965
1434153075.253,-35.26364
1434153075.268,-32.263527
1434153075.284,-29.267532
1434153075.299,-26.399948
1434153075.315,-23.795898
1434153075.331,-21.494598
1434153075.346,-19.406036
1434153075.362,-17.301582
1434153075.378,-14.887787
1434153075.393,-11.929459
1434153075.409,-8.32972
1434153075.424,-4.1721573
1434153075.44,0.35871887
1434153075.456,5.015518
1434153075.471,9.647324
1434153075.487,14.158295
1434153075.503,18.555504
1434153075.518,22.841232
1434153075.534,26.99067
1434153075.549,30.913536
1434153075.565,34.520584
1434153075.581,37.790062
1434153075.596,40.820564
1434153075.612,43.86149
1434153075.628,47.285942
1434153075.643,51.496727
1434153075.659,56.773323
1434153075.674,63.024323
1434153075.69,69.60599
1434153075.706,75.23557
1434153075.721,78.23089
1434153075.737,76.93582
1434153075.753,70.33944
1434153075.768,58.502037
1434153075.784,42.64225
1434153075.799,24.770058
1434153075.815,7.080765
1434153075.831,-8.700233
1434153075.846,-21.651558
1434153075.862,-31.653114
1434153075.878,-39.087708
1434153075.893,-44.494354
1434153075.909,-48.3002
1434153075.924,-50.782784
1434153075.94,-52.099648
1434153075.956,-52.39966
1434153075.971,-51.829628
1434153075.987,-50.54525
1434153076.003,-48.65915
1434153076.018,-46.29043
1434153076.034,-43.57321
1434153076.049,-40.73033
1434153076.065,-38.02234
1434153076.081,-35.700836
1434153076.096,-33.853767
1434153076.112,-32.37493
1434153076.128,-30.949928
1434153076.143,-29.16816
1434153076.159,-26.66935
1434153076.174,-23.280716
1434153076.19,-19.051521
1434153076.206,-14.2535095
1434153076.221,-9.2612
1434153076.237,-4.4127426
1434153076.253,0.08635712
1434153076.268,4.236717
1434153076.284,8.240608
1434153076.299,12.342102
1434153076.315,16.739449
1434153076.331,21.421265
1434153076.346,26.182625
1434153076.362,30.703827
1434153076.378,34.763115
1434153076.393,38.3272
1434153076.409,41.649384
1434153076.424,45.14292
1434153076.44,49.290817
1434153076.456,54.431625
1434153076.471,60.588524
1434153076.487,67.28846
1434153076.503,73.494095
1434153076.518,77.71369
1434153076.534,78.32226
1434153076.55,74.06758
1434153076.565,64.5504
1434153076.581,50.46454
1434153076.596,33.45321
1434153076.612,15.612297
1434153076.628,-1.1119385
1434153076.643,-15.431534
1434153076.659,-26.863686
1434153076.675,-35.6101
1434153076.69,-42.195755
1434153076.706,-47.19004
1434153076.721,-50.98712
1434153076.737,-53.79316
1434153076.753,-55.669243
1434153076.768,-56.625694
1434153076.784,-56.672615
1434153076.8,-55.857635
1434153076.815,-54.24402
1434153076.831,-51.90422
1434153076.846,-48.9355
1434153076.862,-45.506493
1434153076.878,-41.87574
1434153076.893,-38.396255
1434153076.909,-35.41165
1434153076.925,-33.116035
1434153076.94,-31.42051
1434153076.956,-29.923843
1434153076.971,-28.030624
1434153076.987,-25.198952
1434153077.003,-21.161346
1434153077.018,-16.058357
1434153077.034,-10.3645935
1434153077.05,-4.731743
1434153077.065,0.32178497
1434153077.081,4.5643845
1434153077.096,8.140099
1434153077.112,11.472679
1434153077.128,15.073471
1434153077.143,19.303833
1434153077.159,24.232758
1434153077.175,29.579918
1434153077.19,34.85769
1434153077.206,39.551376
1434153077.221,43.36284
1434153077.237,46.32936
1434153077.253,48.87079
1434153077.268,51.679893
1434153077.284,55.51693
1434153077.3,60.909958
1434153077.315,67.88049
1434153077.331,75.67462
1434153077.346,82.79292
1434153077.362,87.254135
1434153077.378,87.15723
1434153077.393,81.298386
1434153077.409,69.64065
1434153077.425,53.36488
1434153077.44,34.504402
1434153077.456,15.328964
1434153077.471,-2.283184
1434153077.487,-17.19196
1434153077.503,-29.041409
1434153077.518,-38.056328
1434153077.534,-44.7404
1434153077.55,-49.6578
1434153077.565,-53.260727
1434153077.581,-55.892735
1434153077.596,-57.71879
1434153077.612,-58.807156
1434153077.628,-59.135197
1434153077.643,-58.70383
1434153077.659,-57.54913
1434153077.675,-55.77545
1434153077.69,-53.502945
1434153077.706,-50.866814
1434153077.721,-48.01825
1434153077.737,-45.1435
1434153077.753,-42.47235
1434153077.768,-40.19455
1434153077.784,-38.338867
1434153077.8,-36.690327
1434153077.815,-34.783653
1434153077.831,-32.093613
1434153077.846,-28.240955
1434153077.862,-23.230793
1434153077.878,-17.451317
1434153077.893,-11.575157
1434153077.909,-6.241211
1434153077.925,-1.8090363
1434153077.94,1.8149643
1434153077.956,5.095196
1434153077.971,8.663139
1434153077.987,13.010426
1434153078.003,18.275055
1434153078.018,24.190857
1434153078.034,30.231995
1434153078.05,35.826527
1434153078.065,40.630318
1434153078.081,44.627205
1434153078.096,48.165726
1434153078.112,51.839127
1434153078.128,56.325512
1434153078.143,62.155197
1434153078.159,69.465065
1434153078.175,77.737785
1434153078.19,85.701584
1434153078.206,91.455154
1434153078.221,92.93669
1434153078.237,88.56388
1434153078.253,77.83577
1434153078.268,61.584724
1434153078.284,41.762383
1434153078.3,20.844069
1434153078.315,1.1249046
1434153078.331,-15.830057
1434153078.346,-29.305595
1434153078.362,-39.338463
1434153078.378,-46.380768
1434153078.393,-51.04106
1434153078.409,-53.896004
1434153078.425,-55.44021
1434153078.44,-56.052414
1434153078.456,-56.02943
1434153078.471,-55.562695
1434153078.487,-54.754303
1434153078.503,-53.637592
1434153078.518,-52.200344
1434153078.534,-50.39455
1434153078.55,-48.216274
1434153078.565,-45.692265
1434153078.581,-42.949005
1434153078.596,-40.163048
1434153078.612,-37.52247
1434153078.628,-35.108784
1434153078.643,-32.844437
1434153078.659,-30.472763
1434153078.675,-27.63871
1434153078.69,-24.046396
1434153078.706,-19.597723
1434153078.721,-14.461964
1434153078.737,-9.050027
1434153078.753,-3.8432858
1434153078.768,0.8064033
1434153078.784,4.8518543
1434153078.8,8.572293
1434153078.815,12.475793
1434153078.831,17.019558
1434153078.846,22.378204
1434153078.862,28.321747
1434153078.878,34.297436
1434153078.893,39.67575
1434153078.909,44.05451
1434153078.925,47.43192
1434153078.94,50.24572
1434153078.956,53.22923
1434153078.971,57.186295
1434153078.987,62.733994
1434153079.003,70.04745
1434153079.018,78.64044
1434153079.034,87.27109
1434153079.05,94.04808
1434153079.065,96.819435
1434153079.081,93.76599
1434153079.096,84.02355
1434153079.112,68.06324
1434153079.128,47.635105
1434153079.143,25.274525
1434153079.159,3.5770473
1434153079.175,-15.466652
1434153079.19,-30.810913
1434153079.206,-42.34506
1434153079.222,-50.54824
1434153079.237,-56.124893
1434153079.253,-59.712475
1434153079.268,-61.799767
1434153079.284,-62.744263
1434153079.3,-62.878986
1434153079.315,-62.51735
1434153079.331,-61.939163
1434153079.347,-61.30502
1434153079.362,-60.611893
1434153079.378,-59.702858
1434153079.393,-58.388195
1434153079.409,-56.55366
1434153079.425,-54.28477
1434153079.44,-51.84329
1434153079.456,-49.587437
1434153079.472,-47.777058
1434153079.487,-46.437504
1434153079.503,-45.274403
1434153079.518,-43.78226
1434153079.534,-41.386524
1434153079.55,-37.688988
1434153079.565,-32.61083
1434153079.581,-26.453072
1434153079.597,-19.794777
1434153079.612,-13.305668
1434153079.628,-7.5154915
1434153079.643,-2.6353722
1434153079.659,1.5216103
1434153079.675,5.4405212
1434153079.69,9.752693
1434153079.706,14.934048
1434153079.722,21.138557
1434153079.737,28.074955
1434153079.753,35.11065
1434153079.768,41.502594
1434153079.784,46.741306
1434153079.8,50.770668
1434153079.815,54.084747
1434153079.831,57.575966
1434153079.847,62.22576
1434153079.862,68.68097
1434153079.878,76.90462
1434153079.893,85.94337
1434153079.909,94.02717
1434153079.925,98.9071
1434153079.94,98.47724
1434153079.956,91.37325
1434153079.972,77.47526
1434153079.987,57.99873
1434153080.003,35.18518
1434153080.018,11.715889
1434153080.034,-9.940254
1434153080.05,-28.070755
1434153080.065,-41.914017
1434153080.081,-51.576736
1434153080.097,-57.730827
1434153080.112,-61.25518
1434153080.128,-62.92906
1434153080.143,-63.34144
1434153080.159,-62.855766
1434153080.175,-61.739326
1434153080.19,-60.22554
1434153080.206,-58.549477
1434153080.222,-56.863564
1434153080.237,-55.186455
1434153080.253,-53.387222
1434153080.268,-51.2782
1434153080.284,-48.770004
1434153080.3,-45.969215
1434153080.315,-43.158516
1434153080.331,-40.654945
1434153080.347,-38.58818
1434153080.362,-36.787003
1434153080.378,-34.806625
1434153080.393,-32.113113
1434153080.409,-28.284065
1434153080.425,-23.226326
1434153080.44,-17.192284
1434153080.456,-10.738838
1434153080.472,-4.494507
1434153080.487,1.0723267
1434153080.503,5.841614
1434153080.518,10.061447
1434153080.534,14.254669
1434153080.55,18.925766
1434153080.565,24.303986
1434153080.581,30.183578
1434153080.597,36.03385
1434153080.612,41.2212
1434153080.628,45.377327
1434153080.643,48.57103
1434153080.659,51.31668
1434153080.675,54.372513
1434153080.69,58.53447
1434153080.706,64.34093
1434153080.722,71.91338
1434153080.737,80.74072
1434153080.753,89.58948
1434153080.768,96.5281
1434153080.784,99.31434
1434153080.8,95.97611
1434153080.815,85.521805
1434153080.831,68.378685
1434153080.847,46.406044
1434153080.862,22.364983
1434153080.878,-0.8818207
1434153080.893,-21.150475
1434153080.909,-37.317017
1434153080.925,-49.307625
1434153080.94,-57.689835
1434153080.956,-63.24678
1434153080.972,-66.63738
1434153080.987,-68.320854
1434153081.003,-68.58778
1434153081.018,-67.708084
1434153081.034,-66.00885
1434153081.05,-63.880066
1434153081.065,-61.70169
1434153081.081,-59.761375
1434153081.097,-58.135635
1434153081.112,-56.708313
1434153081.128,-55.235474
1434153081.143,-53.47181
1434153081.159,-51.28604
1434153081.175,-48.76761
1434153081.19,-46.113922
1434153081.206,-43.541992
1434153081.222,-41.08757
1434153081.237,-38.565643
1434153081.253,-35.58084
1434153081.268,-31.74076
1434153081.284,-26.830002
1434153081.3,-20.990517
1434153081.315,-14.691681
1434153081.331,-8.5837555
1434153081.347,-3.2287369
1434153081.362,1.1092148
1434153081.378,4.5729446
1434153081.393,7.6193542
1434153081.409,10.831612
1434153081.425,14.686577
1434153081.44,19.39254
1434153081.456,24.824486
1434153081.472,30.617508
1434153081.487,36.29332
1434153081.503,41.460144
1434153081.518,45.937973
1434153081.534,49.85147
1434153081.55,53.57724
1434153081.565,57.694756
1434153081.581,62.82882
1434153081.597,69.50789
1434153081.612,77.862495
1434153081.628,87.38506
1434153081.643,96.71218
1434153081.659,103.76253
1434153081.675,106.13435
1434153081.69,101.85051
1434153081.706,90.04907
1434153081.722,71.43061
1434153081.737,48.10746
1434153081.753,23.044952
1434153081.768,-0.8473053
1434153081.784,-21.400818
1434153081.8,-37.569717
1434153081.815,-49.313316
1434153081.831,-57.25592
1434153081.847,-62.238274
1434153081.862,-65.04609
1434153081.878,-66.29289
1434153081.894,-66.467064
1434153081.909,-65.94279
1434153081.925,-65.0405
1434153081.94,-63.995056
1434153081.956,-62.945854
1434153081.972,-61.887756
1434153081.987,-60.718315
1434153082.003,-59.258774
1434153082.018,-57.40252
1434153082.034,-55.14714
1434153082.05,-52.630424
1434153082.065,-50.0643
1434153082.081,-47.626205
1434153082.097,-45.334106
1434153082.112,-43.06829
1434153082.128,-40.55797
1434153082.144,-37.535027
1434153082.159,-33.7864
1434153082.175,-29.247772
1434153082.19,-23.989594
1434153082.206,-18.236763
1434153082.222,-12.305428
1434153082.237,-6.5774307
1434153082.253,-1.3776398
1434153082.269,3.1211777
1434153082.284,7.002098
1434153082.3,10.581108
1434153082.315,14.304756
1434153082.331,18.56202
1434153082.347,23.508827
1434153082.362,29.005028
1434153082.378,34.657883
1434153082.394,39.961266
1434153082.409,44.51429
1434153082.425,48.15535
1434153082.44,51.063812
1434153082.456,53.725334
1434153082.472,56.878746
1434153082.487,61.273384
1434153082.503,67.450386
1434153082.519,75.36702
1434153082.534,84.18223
1434153082.55,92.20246
1434153082.565,97.17739
1434153082.581,96.870415
1434153082.597,89.797104
1434153082.612,75.742035
1434153082.628,55.946526
1434153082.644,32.7901
1434153082.659,9.153481
1434153082.675,-12.391464
1434153082.69,-30.119812
1434153082.706,-43.3897
1434153082.722,-52.488945
1434153082.737,-58.244247
1434153082.753,-61.595924
1434153082.769,-63.343895
1434153082.784,-64.01514
1434153082.8,-63.939888
1434153082.815,-63.3142
1434153082.831,-62.32721
1434153082.847,-61.14167
1434153082.862,-59.892395
1434153082.878,-58.610832
1434153082.894,-57.225113
1434153082.909,-55.601143
1434153082.925,-53.62435
1434153082.94,-51.25905
1434153082.956,-48.621826
1434153082.972,-45.896416
1434153082.987,-43.27694
1434153083.003,-40.83705
1434153083.019,-38.492188
1434153083.034,-35.992287
1434153083.05,-33.02758
1434153083.065,-29.346817
1434153083.081,-24.869198
1434153083.097,-19.73804
1434153083.112,-14.262062
1434153083.128,-8.812595
1434153083.144,-3.710762
1434153083.159,0.90415573
1434153083.175,5.0605354
1434153083.19,8.946121
1434153083.206,12.811306
1434153083.222,16.87185
1434153083.237,21.220646
1434153083.253,25.802212
1434153083.269,30.43034
1434153083.284,34.86944
1434153083.3,38.91217
1434153083.315,42.493908
1434153083.331,45.681507
1434153083.347,48.72257
1434153083.362,51.98828
1434153083.378,55.93838
1434153083.394,61.01655
1434153083.409,67.48591
1434153083.425,75.12983
1434153083.44,83.03707
1434153083.456,89.554245
1434153083.472,92.59241
1434153083.487,90.223465
1434153083.503,81.37896
1434153083.519,66.32902
1434153083.534,46.70723
1434153083.55,25.014019
1434153083.565,3.882862
1434153083.581,-14.617395
1434153083.597,-29.324759
1434153083.612,-39.97924
1434153083.628,-46.90596
1434153083.644,-50.729656
1434153083.659,-52.118813
1434153083.675,-51.7415
1434153083.69,-50.23545
1434153083.706,-48.20408
1434153083.722,-46.147907
1434153083.737,-44.389557
1434153083.753,-43.04322
1434153083.769,-42.04871
1434153083.784,-41.217743
1434153083.8,-40.373383
1434153083.815,-39.38218
1434153083.831,-38.20279
1434153083.847,-36.850655
1434153083.862,-35.346943
1434153083.878,-33.62274
1434153083.894,-31.533596
1434153083.909,-28.845655
1434153083.925,-25.359354
1434153083.94,-21.004337
1434153083.956,-15.920529
1434153083.972,-10.401446
1434153083.987,-4.821416
1434153084.003,0.5530052
1434153084.019,5.6573963
1434153084.034,10.664223
1434153084.05,15.855934
1434153084.065,21.456821
1434153084.081,27.439566
1434153084.097,33.49196
1434153084.112,39.121822
1434153084.128,43.877064
1434153084.144,47.556435
1434153084.159,50.383415
1434153084.175,52.939327
1434153084.19,56.011948
1434153084.206,60.313343
1434153084.222,66.17616
1434153084.237,73.26614
1434153084.253,80.477646
1434153084.269,86.0511
1434153084.284,87.97515
1434153084.3,84.56992
1434153084.315,75.06433
1434153084.331,59.956657
1434153084.347,40.97664
1434153084.362,20.600777
1434153084.378,1.3731899
1434153084.394,-14.791122
1434153084.409,-26.953655
1434153084.425,-35.18269
1434153084.44,-40.184547
1434153084.456,-42.891594
1434153084.472,-44.087486
1434153084.487,-44.251522
1434153084.503,-43.611164
1434153084.519,-42.293945
1434153084.534,-40.453514
1434153084.55,-38.369186
1434153084.566,-36.386955
1434153084.581,-34.812332
1434153084.597,-33.77677
1434153084.612,-33.176086
1434153084.628,-32.702682
1434153084.644,-32.01715
1434153084.659,-30.866217
1434153084.675,-29.215046
1434153084.69,-27.220127
1434153084.706,-25.116913
1434153084.722,-23.010708
1434153084.737,-20.822578
1434153084.753,-18.263306
1434153084.769,-14.980602
1434153084.784,-10.720715
1434153084.8,-5.4610596
1434153084.816,0.5580368
1434153084.831,6.8963127
1434153084.847,13.078201
1434153084.862,18.727066
1434153084.878,23.672024
1434153084.894,27.96075
1434153084.909,31.865742
1434153084.925,35.784565
1434153084.941,40.19709
1434153084.956,45.522762
1434153084.972,51.999493
1434153084.987,59.45421
1434153085.003,67.132126
1434153085.019,73.64827
1434153085.034,77.22011
1434153085.05,76.12152
1434153085.066,69.29224
1434153085.081,56.780025
1434153085.097,39.873997
1434153085.112,20.72816
1434153085.128,1.7323723
1434153085.144,-15.191746
1434153085.159,-29.000519
1434153085.175,-39.571426
1434153085.191,-47.405663
1434153085.206,-53.246586
1434153085.222,-57.706142
1434153085.237,-61.140606
1434153085.253,-63.656902
1434153085.269,-65.22089
1434153085.284,-65.7359
1434153085.3,-65.17517
1434153085.316,-63.57898
1434153085.331,-61.09713
1434153085.347,-57.922043
1434153085.362,-54.287086
1434153085.378,-50.394096
1434153085.394,-46.407455
1434153085.409,-42.44294
1434153085.425,-38.586784
1434153085.441,-34.877457
1434153085.456,-31.330978
1434153085.472,-27.871994
1434153085.487,-24.328842
1434153085.503,-20.441673
1434153085.519,-15.932518
1434153085.534,-10.58638
1434153085.55,-4.3686905
1434153085.566,2.5595016
1434153085.581,9.828178
1434153085.597,16.984787
1434153085.612,23.597092
1434153085.628,29.39682
1434153085.644,34.35241
1434153085.659,38.691612
1434153085.675,42.8254
1434153085.691,47.292824
1434153085.706,52.601807
1434153085.722,59.117195
1434153085.737,66.80175
1434153085.753,75.050514
1434153085.769,82.58213
1434153085.784,87.639435
1434153085.8,88.39845
1434153085.816,83.5719
1434153085.831,72.90136
1434153085.847,57.33075
1434153085.862,38.740837
1434153085.878,19.390495
1434153085.894,1.2491913
1434153085.909,-14.407509
1434153085.925,-27.152908
1434153085.941,-37.18029
1434153085.956,-45.04283
1434153085.972,-51.326942
1434153085.987,-56.483658
1434153086.003,-60.726677
1434153086.019,-64.03418
1434153086.034,-66.17941
1434153086.05,-66.882866
1434153086.066,-65.96985
1434153086.081,-63.52465
1434153086.097,-59.8752
1434153086.112,-55.543396
1434153086.128,-51.03392
1434153086.144,-46.73002
1434153086.159,-42.790794
1434153086.175,-39.215477
1434153086.191,-35.897247
1434153086.206,-32.69474
1434153086.222,-29.427391
1434153086.237,-25.931824
1434153086.253,-22.060562
1434153086.269,-17.75605
1434153086.284,-13.027496
1434153086.3,-7.947674
1434153086.316,-2.5774498
1434153086.331,3.061306
1434153086.347,8.977493
1434153086.362,15.134724
1434153086.378,21.385727
1434153086.394,27.44691
1434153086.409,33.014942
1434153086.425,37.86448
1434153086.441,41.992027
1434153086.456,45.61928
1434153086.472,49.20674
1434153086.487,53.319466
1434153086.503,58.50855
1434153086.519,65.03741
1434153086.534,72.659935
1434153086.55,80.38695
1434153086.566,86.56673
1434153086.581,89.21544
1434153086.597,86.6333
1434153086.612,78.01928
1434153086.628,63.85579
1434153086.644,45.78994
1434153086.659,26.125927
1434153086.675,7.121483
1434153086.691,-9.613178
1434153086.706,-23.380432
1434153086.722,-34.257404
1434153086.737,-42.790188
1434153086.753,-49.588657
1434153086.769,-55.107117
1434153086.784,-59.541496
1434153086.8,-62.914524
1434153086.816,-65.15457
1434153086.831,-66.20969
1434153086.847,-66.04536
1434153086.862,-64.67965
1434153086.878,-62.151726
1434153086.894,-58.58689
1434153086.909,-54.239136
1434153086.925,-49.534344
1434153086.941,-45.00534
1434153086.956,-41.13854
1434153086.972,-38.14988
1434153086.987,-35.883884
1434153087.003,-33.82599
1434153087.019,-31.336372
1434153087.034,-27.886257
1434153087.05,-23.327957
1434153087.066,-17.897888
1434153087.081,-12.09927
1434153087.097,-6.4571533
1434153087.112,-1.3300056
1434153087.128,3.2276764
1434153087.144,7.419407
1434153087.159,11.622955
1434153087.175,16.161285
1434153087.191,21.194473
1434153087.206,26.59858
1434153087.222,32.03035
1434153087.237,37.05372
1434153087.253,41.33579
1434153087.269,44.795734
1434153087.284,47.682484
1434153087.3,50.53223
1434153087.316,54.04202
1434153087.331,58.82928
1434153087.347,65.188934
1434153087.362,72.79114
1434153087.378,80.545006
1434153087.394,86.66272
1434153087.409,89.08908
1434153087.425,86.09406
1434153087.441,76.933105
1434153087.456,62.181248
1434153087.472,43.62608
1434153087.488,23.682873
1434153087.503,4.647064
1434153087.519,-11.94244
1434153087.534,-25.515484
1434153087.55,-36.30784
1434153087.566,-44.94706
1434153087.581,-52.02207
1434153087.597,-57.82856
1434153087.613,-62.370285
1434153087.628,-65.49197
1434153087.644,-67.11041
1434153087.659,-67.29248
1434153087.675,-66.32266
1434153087.691,-64.53693
1434153087.706,-62.242565
1434153087.722,-59.580353
1434153087.738,-56.5856
1434153087.753,-53.2589
1434153087.769,-49.71971
1434153087.784,-46.226643
1434153087.8,-43.095196
1434153087.816,-40.522186
1434153087.831,-38.433773
1434153087.847,-36.475803
1434153087.863,-34.126
1434153087.878,-30.9095
1434153087.894,-26.616756
1434153087.909,-21.344322
1434153087.925,-15.503366
1434153087.941,-9.632627
1434153087.956,-4.249501
1434153087.972,0.3297186
1434153087.988,4.0668535
1434153088.003,7.248884
1434153088.019,10.349804
1434153088.034,13.870852
1434153088.05,18.114058
1434153088.066,23.036123
1434153088.081,28.258884
1434153088.097,33.251537
1434153088.113,37.564713
1434153088.128,41.045444
1434153088.144,43.883106
1434153088.159,46.56325
1434153088.175,49.68021
1434153088.191,53.812447
1434153088.206,59.31212
1434153088.222,66.165985
1434153088.238,73.80096
1434153088.253,81.043945
1434153088.269,86.21372
1434153088.284,87.522575
1434153088.3,83.593834
1434153088.316,73.980934
1434153088.331,59.393723
1434153088.347,41.5335
1434153088.363,22.57224
1434153088.378,4.5642223
1434153088.394,-11.054241
1434153088.409,-23.625235
1434153088.425,-33.1882
1434153088.441,-40.20317
1434153088.456,-45.254642
1434153088.472,-48.83436
1434153088.488,-51.27942
1434153088.503,-52.77415
1434153088.519,-53.4254
1434153088.534,-53.318546
1434153088.55,-52.546696
1434153088.566,-51.19829
1434153088.581,-49.36779
1434153088.597,-47.136997
1434153088.613,-44.61812
1434153088.628,-41.975964
1434153088.644,-39.426086
1434153088.659,-37.151993
1434153088.675,-35.23762
1434153088.691,-33.555107
1434153088.706,-31.795902
1434153088.722,-29.558302
1434153088.738,-26.51196
1434153088.753,-22.545467
1434153088.769,-17.819431
1434153088.784,-12.712841
1434153088.8,-7.7035904
1434153088.816,-3.194767
1434153088.831,0.60705185
1434153088.847,3.7975426
1434153088.863,6.7026787
1434153088.878,9.774029
1434153088.894,13.382896
1434153088.909,17.674652
1434153088.925,22.470913
1434153088.941,27.342289
1434153088.956,31.775246
1434153088.972,35.401863
1434153088.988,38.176727
1434153089.003,40.44969
1434153089.019,42.86327
1434153089.034,46.191265
1434153089.05,50.98672
1434153089.066,57.29896
1434153089.081,64.442535
1434153089.097,71.0074
1434153089.113,75.157555
1434153089.128,75.14076
1434153089.144,69.88443
1434153089.159,59.405792
1434153089.175,44.853577
1434153089.191,28.158371
1434153089.206,11.413441
1434153089.222,-3.6923218
1434153089.238,-16.25227
1434153089.253,-26.135262
1434153089.269,-33.74112
1434153089.284,-39.62661
1434153089.3,-44.24981
1434153089.316,-47.838512
1434153089.331,-50.472485
1434153089.347,-52.17037
1434153089.363,-52.976105
1434153089.378,-52.96997
1434153089.394,-52.259995
1434153089.409,-50.900238
1434153089.425,-48.949295
1434153089.441,-46.46238
1434153089.456,-43.572342
1434153089.472,-40.46913
1434153089.488,-37.414307
1434153089.503,-34.636612
1434153089.519,-32.295944
1434153089.534,-30.38694
1434153089.55,-28.75476
1434153089.566,-27.09732
1434153089.581,-25.051826
1434153089.597,-22.305443
1434153089.613,-18.695107
1434153089.628,-14.291084
1434153089.644,-9.426353
1434153089.659,-4.590576
1434153089.675,-0.26772308
1434153089.691,3.299057
1434153089.706,6.1932907
1434153089.722,8.836197
1434153089.738,11.770073
1434153089.753,15.423256
1434153089.769,19.89119
1434153089.784,24.91204
1434153089.8,29.943329
1434153089.816,34.434006
1434153089.831,38.047615
1434153089.847,40.80018
1434153089.863,43.075188
1434153089.878,45.49415
1434153089.894,48.709747
1434153089.909,53.209663
1434153089.925,59.07611
1434153089.941,65.84884
1434153089.956,72.45782
1434153089.972,77.416725
1434153089.988,79.12768
1434153090.003,76.37887
1434153090.019,68.69858
1434153090.034,56.6074
1434153090.05,41.433907
1434153090.066,24.980598
1434153090.081,8.992035
1434153090.097,-5.22493
1434153090.113,-17.024567
1434153090.128,-26.353745
1434153090.144,-33.558594
1434153090.16,-39.092422
1434153090.175,-43.359154
1434153090.191,-46.605225
1434153090.206,-48.956306
1434153090.222,-50.4684
1434153090.238,-51.2035
1434153090.253,-51.22902
1434153090.269,-50.651085
1434153090.285,-49.53739
1434153090.3,-47.92727
1434153090.316,-45.824158
1434153090.331,-43.291992
1434153090.347,-40.448082
1434153090.363,-37.519257
1434153090.378,-34.76014
1434153090.394,-32.387085
1434153090.41,-30.448006
1434153090.425,-28.794083
1434153090.441,-27.100777
1434153090.456,-24.976166
1434153090.472,-22.110733
1434153090.488,-18.402878
1434153090.503,-13.991089
1434153090.519,-9.268829
1434153090.535,-4.6791534
1434153090.55,-0.60752106
1434153090.566,2.7790756
1434153090.581,5.5649567
1434153090.597,8.056473
1434153090.613,10.641907
1434153090.628,13.670639
1434153090.644,17.29303
1434153090.66,21.428192
1434153090.675,25.765305
1434153090.691,29.92369
1434153090.706,33.600204
1434153090.722,36.728622
1434153090.738,39.49182
1434153090.753,42.30565
1434153090.769,45.646027
1434153090.785,49.93672
1434153090.8,55.374084
1434153090.816,61.79872
1434153090.831,68.576355
1434153090.847,74.59943
1434153090.863,78.43143
1434153090.878,78.64612
1434153090.894,74.26207
1434153090.91,65.1467
1434153090.925,52.14154
1434153090.941,36.859863
1434153090.956,21.175018
1434153090.972,6.703186
1434153090.988,-5.597458
1434153091.003,-15.468826
1434153091.019,-23.181732
1434153091.035,-29.179108
1434153091.05,-33.8553
1434153091.066,-37.429718
1434153091.081,-39.99106
1434153091.097,-41.560013
1434153091.113,-42.186905
1434153091.128,-41.958557
1434153091.144,-41.031235
1434153091.16,-39.590744
1434153091.175,-37.831924
1434153091.191,-35.937576
1434153091.206,-34.036667
1434153091.222,-32.196716
1434153091.238,-30.452545
1434153091.253,-28.783356
1434153091.269,-27.171906
1434153091.285,-25.520477
1434153091.3,-23.697647
1434153091.316,-21.505386
1434153091.331,-18.7677
1434153091.347,-15.3815
1434153091.363,-11.410538
1434153091.378,-7.0716095
1434153091.394,-2.6750488
1434153091.41,1.4953766
1434153091.425,5.312134
1434153091.441,8.85817
1434153091.456,12.344284
1434153091.472,16.013199
1434153091.488,19.968124
1434153091.503,24.1344
1434153091.519,28.274872
1434153091.535,32.125717
1434153091.55,35.506668
1434153091.566,38.461273
1434153091.581,41.239456
1434153091.597,44.29193
1434153091.613,48.113403
1434153091.628,53.1015
1434153091.644,59.299698
1434153091.66,66.252785
1434153091.675,72.90082
1434153091.691,77.70987
1434153091.706,79.022736
1434153091.722,75.57437
1434153091.738,66.921524
1434153091.753,53.709206
1434153091.769,37.491974
1434153091.785,20.3032
1434153091.8,4.048874
1434153091.816,-9.96888
1434153091.831,-21.239624
1434153091.847,-29.915024
1434153091.863,-36.530556
1434153091.878,-41.647453
1434153091.894,-45.65129
1434153091.91,-48.69291
1434153091.925,-50.773277
1434153091.941,-51.858597
1434153091.956,-52.012207
1434153091.972,-51.41645
1434153091.988,-50.31785
1434153092.003,-48.918625
1434153092.019,-47.325783
1434153092.035,-45.50834
1434153092.05,-43.427597
1434153092.066,-41.095673
1434153092.081,-38.66915
1434153092.097,-36.3593
1434153092.113,-34.326942
1434153092.128,-32.504066
1434153092.144,-30.583313
1434153092.16,-28.111908
1434153092.175,-24.693565
1434153092.191,-20.203682
1434153092.206,-14.877335
1434153092.222,-9.201309
1434153092.238,-3.745514
1434153092.253,1.1020126
1434153092.269,5.2431564
1434153092.285,8.917885
1434153092.3,12.556488
1434153092.316,16.610725
1434153092.331,21.316711
1434153092.347,26.620224
1434153092.363,32.156105
1434153092.378,37.438446
1434153092.394,42.0383
1434153092.41,45.81327
1434153092.425,48.94865
1434153092.441,51.97436
1434153092.456,55.57693
1434153092.472,60.43536
1434153092.488,66.94425
1434153092.503,74.974686
1434153092.519,83.68416
1434153092.535,91.51055
1434153092.55,96.446594
1434153092.566,96.57778
1434153092.581,90.68675
1434153092.597,78.75991
1434153092.613,62.03074
1434153092.628,42.630795
1434153092.644,22.892273
1434153092.66,4.683281
1434153092.675,-10.994104
1434153092.691,-23.957663
1434153092.706,-34.558907
1434153092.722,-43.25872
1434153092.738,-50.39627
1434153092.753,-56.094097
1434153092.769,-60.40457
1434153092.785,-63.38695
1434153092.8,-65.2006
1434153092.816,-66.06175
1434153092.832,-66.179665
1434153092.847,-65.664474
1434153092.863,-64.550446
1434153092.878,-62.825
1434153092.894,-60.52042
1434153092.91,-57.769073
1434153092.925,-54.81168
1434153092.941,-51.91061
1434153092.957,-49.287136
1434153092.972,-46.964634
1434153092.988,-44.77628
1434153093.003,-42.392635
1434153093.019,-39.46019
1434153093.035,-35.712128
1434153093.05,-31.102468
1434153093.066,-25.800175
1434153093.082,-20.159054
1434153093.097,-14.611153
1434153093.113,-9.519327
1434153093.128,-5.039751
1434153093.144,-1.078104
1434153093.16,2.7283478
1434153093.175,6.845581
1434153093.191,11.650864
1434153093.207,17.230566
1434153093.222,23.31698
1434153093.238,29.363117
1434153093.253,34.801727
1434153093.269,39.289967
1434153093.285,42.878742
1434153093.3,46.01081
1434153093.316,49.392605
1434153093.332,53.75758
1434153093.347,59.68964
1434153093.363,67.34332
1434153093.378,76.266815
1434153093.394,85.25502
1434153093.41,92.46836
1434153093.425,95.778046
1434153093.441,93.37502
1434153093.457,84.3738
1434153093.472,69.19116
1434153093.488,49.496723
1434153093.503,27.742134
1434153093.519,6.4356194
1434153093.535,-12.463219
1434153093.55,-27.934002
1434153093.566,-39.854015
1434153093.582,-48.727505
1434153093.597,-55.290165
1434153093.613,-60.218147
1434153093.628,-63.920082
1434153093.644,-66.5674
1434153093.66,-68.15958
1434153093.675,-68.681885
1434153093.691,-68.20314
1434153093.707,-66.875046
1434153093.722,-64.876396
1434153093.738,-62.348984
1434153093.753,-59.379723
1434153093.769,-56.061966
1434153093.785,-52.560074
1434153093.8,-49.133514
1434153093.816,-46.015
1434153093.832,-43.316315
1434153093.847,-40.863335
1434153093.863,-38.25184
1434153093.878,-34.982597
1434153093.894,-30.71611
1434153093.91,-25.408493
1434153093.925,-19.39013
1434153093.941,-13.20005
1434153093.957,-7.3603363
1434153093.972,-2.1356354
1434153093.988,2.5375137
1434153094.003,6.981102
1434153094.019,11.548027
1434153094.035,16.43431
1434153094.05,21.592789
1434153094.066,26.755615
1434153094.082,31.599098
1434153094.097,35.93931
1434153094.113,39.79471
1434153094.128,43.453873
1434153094.144,47.37252
1434153094.16,52.100594
1434153094.175,58.06732
1434153094.191,65.37412
1434153094.207,73.50128
1434153094.222,81.20501
1434153094.238,86.59983
1434153094.253,87.61015
1434153094.269,82.62482
1434153094.285,71.14515
1434153094.3,54.054855
1434153094.316,33.44474
1434153094.332,11.954582
1434153094.347,-7.975746
1434153094.363,-24.730476
1434153094.378,-37.722046
1434153094.394,-47.229202
1434153094.41,-53.93994
1434153094.425,-58.55262
1434153094.441,-61.499474
1434153094.457,-62.971596
1434153094.472,-63.030174
1434153094.488,-61.84115
1434153094.503,-59.730568
1434153094.519,-57.15989
1434153094.535,-54.5558
1434153094.55,-52.164093
1434153094.566,-49.990967
1434153094.582,-47.9012
1434153094.597,-45.735703
1434153094.613,-43.435455
1434153094.628,-41.02217
1434153094.644,-38.51818
1434153094.66,-35.828636
1434153094.675,-32.748642
1434153094.691,-29.057343
1434153094.707,-24.658585
1434153094.722,-19.631104
1434153094.738,-14.181099
1434153094.753,-8.510452
1434153094.769,-2.7389755
1434153094.785,3.1471176
1434153094.8,9.170731
1434153094.816,15.294197
1434153094.832,21.342056
1434153094.847,27.087662
1434153094.863,32.29901
1434153094.878,36.888206
1434153094.894,40.94567
1434153094.91,44.781105
1434153094.925,48.86814
1434153094.941,53.77456
1434153094.957,59.94899
1434153094.972,67.46085
1434153094.988,75.71983
1434153095.003,83.36247
1434153095.019,88.423004
1434153095.035,88.85773
1434153095.05,83.21376
1434153095.066,71.20784
1434153095.082,53.89322
1434153095.097,33.390045
1434153095.113,12.224136
1434153095.128,-7.3774414
1434153095.144,-24.01236
1434153095.16,-37.19478
1434153095.175,-47.20697
1434153095.191,-54.696304
1434153095.207,-60.35991
1434153095.222,-64.70868
1434153095.238,-68.04646
1434153095.253,-70.44084
1434153095.269,-71.85297
1434153095.285,-72.15852
1434153095.3,-71.2319
1434153095.316,-69.02307
1434153095.332,-65.63475
1434153095.347,-61.351105
1434153095.363,-56.62831
1434153095.378,-51.99121
1434153095.394,-47.884308
1434153095.41,-44.515152
1434153095.425,-41.82823
1434153095.441,-39.47612
1434153095.457,-36.972794
1434153095.472,-33.819458
1434153095.488,-29.695335
1434153095.504,-24.533775
1434153095.519,-18.57409
1434153095.535,-12.249184
1434153095.55,-6.0442123
1434153095.566,-0.28533173
1434153095.582,4.9535217
1434153095.597,9.888603
1434153095.613,14.887062
1434153095.628,20.25946
1434153095.644,26.058159
1434153095.66,32.0522
1434153095.675,37.801033
1434153095.691,42.89827
1434153095.707,47.172035
1434153095.722,50.816803
1434153095.738,54.38024
1434153095.754,58.601967
1434153095.769,64.101135
1434153095.785,71.06582
1434153095.8,78.93416
1434153095.816,86.33187
1434153095.832,91.25821
1434153095.847,91.66433
1434153095.863,86.07804
1434153095.879,74.189735
1434153095.894,57.016922
1434153095.91,36.650368
1434153095.925,15.589363
1434153095.941,-3.9368057
1434153095.957,-20.512894
1434153095.972,-33.650574
1434153095.988,-43.611366
1434153096.004,-51.021385
1434153096.019,-56.5403
1434153096.035,-60.643486
1434153096.05,-63.61107
1434153096.066,-65.546486
1434153096.082,-66.50897
1434153096.097,-66.520805
1434153096.113,-65.63382
1434153096.129,-63.898445
1434153096.144,-61.385788
1434153096.16,-58.1941
1434153096.175,-54.500763
1434153096.191,-50.578636
1434153096.207,-46.756348
1434153096.222,-43.342484
1434153096.238,-40.48072
1434153096.254,-38.058907
1434153096.269,-35.720093
1434153096.285,-32.96411
1434153096.3,-29.36097
1434153096.316,-24.717987
1434153096.332,-19.205162
1434153096.347,-13.288277
1434153096.363,-7.558548
1434153096.379,-2.4608612
1434153096.394,1.8963623
1434153096.41,5.7826843
1434153096.425,9.695099
1434153096.441,14.104103
1434153096.457,19.201218
1434153096.472,24.801819
1434153096.488,30.433228
