1425686712.69,0.0
1425686712.705,0.0
1425686712.721,0.0
1425686712.737,0.0
1425686712.752,0.0
1425686712.768,0.0
1425686712.784,0.0
1425686712.799,0.0
1425686712.815,0.0
1425686712.83,-0.004627197
1425686712.846,-0.014208838
1425686712.862,-0.018984035
1425686712.877,-0.008769624
1425686712.893,0.02098121
1425686712.909,0.05932794
1425686712.924,0.077331424
1425686712.94,0.03911565
1425686712.955,-0.07644789
1425686712.971,-0.26072535
1425686712.987,-0.46372086
1425686713.002,-0.6088515
1425686713.018,-0.6377028
1425686713.034,-0.5458599
1425686713.049,-0.39851302
1425686713.065,-0.3096886
1425686713.08,-0.39139456
1425686713.096,-0.6979559
1425686713.112,-1.2075034
1425686713.127,-1.814005
1425686713.143,-2.3642492
1425686713.159,-2.7424552
1425686713.174,-2.923504
1425686713.19,-2.9942532
1425686713.205,-3.12076
1425686713.221,-3.4701405
1425686713.237,-4.121696
1425686713.252,-5.0441413
1425686713.268,-6.051544
1425686713.284,-6.847836
1425686713.299,-7.2046523
1425686713.315,-7.0817394
1425686713.33,-6.69806
1425686713.346,-6.474496
1425686713.362,-6.850895
1425686713.377,-8.054306
1425686713.393,-10.009373
1425686713.409,-12.242897
1425686713.424,-14.019417
1425686713.44,-14.775263
1425686713.455,-14.422084
1425686713.471,-13.500216
1425686713.487,-13.016875
1425686713.502,-13.998049
1425686713.518,-16.954834
1425686713.534,-21.655241
1425686713.549,-27.01656
1425686713.565,-31.474306
1425686713.58,-33.856617
1425686713.596,-33.9828
1425686713.612,-32.900406
1425686713.627,-32.509773
1425686713.643,-34.69519
1425686713.659,-40.363976
1425686713.674,-49.033276
1425686713.69,-58.78403
1425686713.705,-66.987564
1425686713.721,-71.718475
1425686713.737,-72.690186
1425686713.752,-71.540344
1425686713.768,-71.163795
1425686713.784,-74.36596
1425686713.799,-81.63088
1425686713.815,-92.1434
1425686713.83,-104.921974
1425686713.846,-118.19203
1425686713.862,-130.18144
1425686713.877,-138.55022
1425686713.893,-140.2116
1425686713.909,-132.37242
1425686713.924,-114.71338
1425686713.94,-91.23152
1425686713.955,-70.03828
1425686713.971,-59.914543
1425686713.987,-65.39055
1425686714.002,-83.511086
1425686714.018,-104.10566
1425686714.034,-114.18576
1425686714.049,-103.982254
1425686714.065,-71.1964
1425686714.08,-21.088226
1425686714.096,37.166855
1425686714.112,95.58168
1425686714.127,150.54185
1425686714.143,202.31505
1425686714.159,252.31364
1425686714.174,300.18018
1425686714.19,342.88782
1425686714.205,376.12305
1425686714.221,396.57684
1425686714.237,403.5785
1425686714.252,399.11096
1425686714.268,386.68604
1425686714.284,369.34467
1425686714.299,348.58453
1425686714.315,324.05768
1425686714.33,294.55557
1425686714.346,259.20557
1425686714.362,218.47348
1425686714.377,174.42262
1425686714.393,130.23895
1425686714.409,89.21619
1425686714.424,53.61052
1425686714.44,24.066559
1425686714.455,-0.30012512
1425686714.471,-21.176102
1425686714.487,-40.15782
1425686714.502,-58.04535
1425686714.518,-74.63553
1425686714.534,-89.00523
1425686714.549,-100.099915
1425686714.565,-107.348465
1425686714.58,-110.955734
1425686714.596,-111.81996
1425686714.612,-111.132996
1425686714.627,-109.928116
1425686714.643,-108.75716
1425686714.659,-107.62445
1425686714.674,-106.16524
1425686714.69,-103.94112
1425686714.705,-100.711716
1425686714.721,-96.54349
1425686714.737,-91.77138
1425686714.752,-86.82075
1425686714.768,-82.03447
1425686714.784,-77.57378
1425686714.799,-73.42654
1425686714.815,-69.47089
1425686714.83,-65.58353
1425686714.846,-61.70099
1425686714.862,-57.82724
1425686714.877,-54.021957
1425686714.893,-50.348923
1425686714.909,-46.857525
1425686714.924,-43.563404
1425686714.94,-40.475475
1425686714.955,-37.56391
1425686714.971,-34.844772
1425686714.987,-32.32911
1425686715.002,-30.0201
1425686715.018,-27.931728
1425686715.034,-26.073936
1425686715.049,-24.452381
1425686715.065,-23.076382
1425686715.08,-21.954803
1425686715.096,-21.086233
1425686715.112,-20.480236
1425686715.127,-20.135027
1425686715.143,-20.02348
1425686715.159,-20.141047
1425686715.174,-20.479298
1425686715.19,-21.034164
1425686715.206,-21.794676
1425686715.221,-22.75483
1425686715.237,-23.907726
1425686715.252,-25.25642
1425686715.268,-26.791279
1425686715.284,-28.467014
1425686715.299,-30.278614
1425686715.315,-32.22247
1425686715.33,-34.305183
1425686715.346,-36.54018
1425686715.362,-38.93475
1425686715.377,-41.4819
1425686715.393,-44.187885
1425686715.409,-47.011696
1425686715.424,-49.8202
1425686715.44,-52.49114
1425686715.456,-54.857273
1425686715.471,-56.683777
1425686715.487,-57.708534
1425686715.502,-57.656807
1425686715.518,-56.270927
1425686715.534,-53.373413
1425686715.549,-48.76204
1425686715.565,-42.324097
1425686715.581,-34.113358
1425686715.596,-24.313408
1425686715.612,-13.203484
1425686715.627,-1.1537857
1425686715.643,11.417053
1425686715.659,24.0774
1425686715.674,36.357903
1425686715.69,47.19809
1425686715.706,56.51905
1425686715.721,64.320465
1425686715.737,70.613365
1425686715.752,75.48844
1425686715.768,79.07783
1425686715.784,81.56849
1425686715.799,83.15801
1425686715.815,83.97711
1425686715.831,84.673325
1425686715.846,85.19006
1425686715.862,85.39572
1425686715.877,85.13028
1425686715.893,84.196655
1425686715.909,82.36867
1425686715.924,79.40982
1425686715.94,75.58441
1425686715.956,70.48294
1425686715.971,63.920944
1425686715.987,55.93358
1425686716.002,46.701294
1425686716.018,36.536163
1425686716.034,25.826508
1425686716.049,15.023254
1425686716.065,4.5773163
1425686716.081,-5.107834
1425686716.096,-13.785934
1425686716.112,-21.20668
1425686716.127,-27.242859
1425686716.143,-31.878326
1425686716.159,-35.19487
1425686716.174,-37.35437
1425686716.19,-38.56189
1425686716.206,-39.037903
1425686716.221,-39.006104
1425686716.237,-38.710983
1425686716.252,-38.244583
1425686716.268,-37.7034
1425686716.284,-37.09108
1425686716.299,-36.418854
1425686716.315,-35.714005
1425686716.331,-35.015488
1425686716.346,-34.366425
1425686716.362,-33.8405
1425686716.377,-33.51593
1425686716.393,-33.374023
1425686716.409,-33.385788
1425686716.424,-33.49312
1425686716.44,-33.66629
1425686716.456,-33.889313
1425686716.471,-34.196075
1425686716.487,-34.616837
1425686716.502,-35.238052
1425686716.518,-36.146713
1425686716.534,-37.24414
1425686716.549,-38.486694
1425686716.565,-39.723846
1425686716.581,-40.890976
1425686716.596,-41.94905
1425686716.612,-42.9256
1425686716.627,-43.907196
1425686716.643,-45.003967
1425686716.659,-46.33281
1425686716.674,-47.74066
1425686716.69,-49.100357
1425686716.706,-50.094223
1425686716.721,-50.48738
1425686716.737,-50.185135
1425686716.752,-49.235626
1425686716.768,-47.794327
1425686716.784,-46.054916
1425686716.799,-44.185135
1425686716.815,-41.926285
1425686716.831,-39.030243
1425686716.846,-34.73793
1425686716.862,-28.424454
1425686716.877,-19.679947
1425686716.893,-8.27594
1425686716.909,5.920288
1425686716.924,23.253693
1425686716.94,42.091385
1425686716.956,61.89273
1425686716.971,82.40515
1425686716.987,104.30411
1425686717.002,128.06674
1425686717.018,153.74814
1425686717.034,180.88673
1425686717.049,208.60832
1425686717.065,235.80168
1425686717.081,261.40475
1425686717.096,284.78778
1425686717.112,305.35278
1425686717.127,323.46204
1425686717.143,339.08914
1425686717.159,351.64886
1425686717.174,360.00604
1425686717.19,362.6559
1425686717.206,358.1882
1425686717.221,345.62106
1425686717.237,324.8695
1425686717.252,290.52942
1425686717.268,240.95128
1425686717.284,177.78822
1425686717.299,105.94725
1425686717.315,32.23021
1425686717.331,-36.79796
1425686717.346,-96.50755
1425686717.362,-144.73822
1425686717.377,-181.27383
1425686717.393,-207.1854
1425686717.409,-223.20673
1425686717.424,-230.44188
1425686717.44,-230.3454
1425686717.456,-224.66914
1425686717.471,-215.3388
1425686717.487,-204.1613
1425686717.502,-192.58667
1425686717.518,-181.4454
1425686717.534,-171.08507
1425686717.549,-160.66801
1425686717.565,-149.42787
1425686717.581,-136.9504
1425686717.596,-123.4175
1425686717.612,-109.537994
1425686717.627,-96.29075
1425686717.643,-84.34682
1425686717.659,-73.779724
1425686717.674,-64.09375
1425686717.69,-54.23238
1425686717.706,-43.741985
1425686717.721,-33.219193
1425686717.737,-24.194939
1425686717.752,-18.551453
1425686717.768,-17.724579
1425686717.784,-22.337479
1425686717.799,-32.179497
1425686717.815,-46.537056
1425686717.831,-64.14879
1425686717.846,-83.352455
1425686717.862,-101.93633
1425686717.877,-117.24974
1425686717.893,-126.63927
1425686717.909,-128.3174
1425686717.924,-122.04884
1425686717.94,-109.267365
1425686717.956,-92.700485
1425686717.971,-75.27131
1425686717.987,-59.194496
1425686718.002,-45.59571
1425686718.018,-34.510696
1425686718.034,-25.388649
1425686718.049,-17.534393
1425686718.065,-10.483696
1425686718.081,-4.0887604
1425686718.096,1.4182205
1425686718.112,5.819664
1425686718.128,9.012466
1425686718.143,11.131424
1425686718.159,12.446693
1425686718.174,13.277176
1425686718.19,13.85807
1425686718.206,13.98452
1425686718.221,14.178856
1425686718.237,14.800514
1425686718.253,16.151085
1425686718.268,18.460129
1425686718.284,21.613426
1425686718.299,25.13295
1425686718.315,28.382835
1425686718.331,30.74768
1425686718.346,31.93544
1425686718.362,32.1445
1425686718.378,31.723396
1425686718.393,31.157913
1425686718.409,30.815117
1425686718.424,30.80172
1425686718.44,30.939255
1425686718.456,30.963547
1425686718.471,30.56556
1425686718.487,29.761353
1425686718.503,28.875206
1425686718.518,28.443905
1425686718.534,29.166199
1425686718.549,31.64946
1425686718.565,36.017986
1425686718.581,41.599377
1425686718.596,46.692383
1425686718.612,48.753227
1425686718.628,45.10277
1425686718.643,34.051132
1425686718.659,15.631584
1425686718.674,-7.915474
1425686718.69,-32.627792
1425686718.706,-53.953865
1425686718.721,-68.243805
1425686718.737,-73.687225
1425686718.753,-70.76196
1425686718.768,-61.489674
1425686718.784,-48.592434
1425686718.799,-34.54133
1425686718.815,-21.104774
1425686718.831,-9.263931
1425686718.846,0.5385666
1425686718.862,8.111324
1425686718.878,13.433929
1425686718.893,16.51226
1425686718.909,17.563301
1425686718.924,16.976097
1425686718.94,15.163853
1425686718.956,12.537518
1425686718.971,9.288464
1425686718.987,5.562641
1425686719.003,1.4497108
1425686719.018,-2.8014488
1425686719.034,-6.825035
1425686719.049,-9.922573
1425686719.065,-11.261227
1425686719.081,-10.154377
1425686719.096,-6.355377
1425686719.112,-0.2693329
1425686719.128,7.0433083
1425686719.143,14.292564
1425686719.159,21.22633
1425686719.174,27.458263
1425686719.19,33.20738
1425686719.206,39.19471
1425686719.221,46.125618
1425686719.237,54.29905
1425686719.253,63.40988
1425686719.268,72.623
1425686719.284,80.96949
1425686719.299,87.82297
1425686719.315,93.089386
1425686719.331,97.444374
1425686719.346,102.176285
1425686719.362,108.7887
1425686719.378,118.55282
1425686719.393,131.86966
1425686719.409,147.68011
1425686719.424,163.2599
1425686719.44,174.357
1425686719.456,176.19296
1425686719.471,164.9113
1425686719.487,139.06073
1425686719.503,100.16949
1425686719.518,52.56096
1425686719.534,2.1280823
1425686719.549,-45.308952
1425686719.565,-85.4582
1425686719.581,-116.20704
1425686719.596,-137.55127
1425686719.612,-150.73958
1425686719.628,-157.41513
1425686719.643,-159.02643
1425686719.659,-156.6363
1425686719.674,-151.0531
1425686719.69,-143.06851
1425686719.706,-133.56555
1425686719.721,-123.52069
1425686719.737,-113.85286
1425686719.753,-105.19939
1425686719.768,-97.852646
1425686719.784,-91.93939
1425686719.799,-87.53088
1425686719.815,-84.732376
1425686719.831,-83.5766
1425686719.846,-83.850586
1425686719.862,-84.86748
1425686719.878,-85.50169
1425686719.893,-84.49524
1425686719.909,-80.90689
1425686719.924,-74.41347
1425686719.94,-65.487335
1425686719.956,-55.07051
1425686719.971,-44.1808
1425686719.987,-33.377625
1425686720.003,-22.670929
1425686720.018,-11.585892
1425686720.034,0.4292755
1425686720.049,13.675659
1425686720.065,27.910492
1425686720.081,42.4532
1425686720.096,56.446503
1425686720.112,69.24875
1425686720.128,80.68074
1425686720.143,91.1922
1425686720.159,101.815125
1425686720.174,113.880615
1425686720.19,128.57504
1425686720.206,146.2801
1425686720.221,165.973
1425686720.237,184.8509
1425686720.253,198.6465
1425686720.268,202.62502
1425686720.284,193.04198
1425686720.299,168.52681
1425686720.315,130.78322
1425686720.331,84.20181
1425686720.346,34.5981
1425686720.362,-12.328796
1425686720.378,-52.39006
1425686720.393,-83.49014
1425686720.409,-105.50499
1425686720.424,-119.537155
1425686720.44,-127.12724
1425686720.456,-129.63177
1425686720.471,-128.05826
1425686720.487,-123.131226
1425686720.503,-115.53897
1425686720.518,-106.11322
1425686720.534,-95.87193
1425686720.549,-85.85812
1425686720.565,-76.91904
1425686720.581,-69.54085
1425686720.596,-63.90065
1425686720.612,-60.015
1425686720.628,-57.847427
1425686720.643,-57.32231
1425686720.659,-58.24582
1425686720.674,-60.085052
1425686720.69,-61.92119
1425686720.706,-62.622253
1425686720.721,-61.25154
1425686720.737,-57.36487
1425686720.753,-51.13562
1425686720.768,-43.18013
1425686720.784,-34.18045
1425686720.8,-24.609161
1425686720.815,-14.548706
1425686720.831,-3.8547668
1425686720.846,7.6025543
1425686720.862,19.703247
1425686720.878,32.036316
1425686720.893,43.992188
1425686720.909,54.973175
1425686720.925,64.672775
1425686720.94,73.25232
1425686720.956,81.478745
1425686720.971,90.56427
1425686720.987,101.93184
1425686721.003,116.52612
1425686721.018,134.1115
1425686721.034,152.75308
1425686721.05,168.801
1425686721.065,177.59451
1425686721.081,174.84769
1425686721.096,158.0507
1425686721.112,127.39203
1425686721.128,85.8403
1425686721.143,38.306946
1425686721.159,-9.789108
1425686721.175,-53.844345
1425686721.19,-90.990295
1425686721.206,-120.16467
1425686721.221,-141.66975
1425686721.237,-156.49258
1425686721.253,-165.7769
1425686721.268,-170.53874
1425686721.284,-171.70096
1425686721.3,-170.14578
1425686721.315,-166.77348
1425686721.331,-162.40045
1425686721.346,-157.74886
1425686721.362,-153.38628
1425686721.378,-149.7678
1425686721.393,-147.34346
1425686721.409,-146.6212
1425686721.425,-148.04929
1425686721.44,-151.93378
1425686721.456,-158.21245
1425686721.471,-166.32227
1425686721.487,-175.20988
1425686721.503,-183.43413
1425686721.518,-189.59875
1425686721.534,-192.63593
1425686721.55,-192.17783
1425686721.565,-188.5759
1425686721.581,-182.56395
1425686721.596,-174.88187
1425686721.612,-165.85686
1425686721.628,-155.42883
1425686721.643,-143.33206
1425686721.659,-129.62518
1425686721.675,-114.78773
1425686721.69,-99.71131
1425686721.706,-85.30707
1425686721.721,-72.07362
1425686721.737,-59.799133
1425686721.753,-47.67534
1425686721.768,-34.47245
1425686721.784,-18.826569
1425686721.8,0.3890686
1425686721.815,23.723282
1425686721.831,50.56743
1425686721.846,78.61531
1425686721.862,103.82593
1425686721.878,121.03996
1425686721.893,125.41107
1425686721.909,114.03931
1425686721.925,87.26636
1425686721.94,48.756348
1425686721.956,4.3388977
1425686721.971,-39.709534
1425686721.987,-78.44684
1425686722.003,-109.128815
1425686722.018,-131.10553
1425686722.034,-144.95975
1425686722.05,-151.60687
1425686722.065,-151.75403
1425686722.081,-145.80591
1425686722.096,-134.1792
1425686722.112,-117.51428
1425686722.128,-96.75348
1425686722.143,-72.98633
1425686722.159,-47.353638
1425686722.175,-20.932251
1425686722.19,5.196106
1425686722.206,30.03418
1425686722.221,52.63275
1425686722.237,72.36432
1425686722.253,89.03418
1425686722.268,102.87073
1425686722.284,114.53961
1425686722.3,124.89404
1425686722.315,134.86261
1425686722.331,145.3208
1425686722.346,156.9961
1425686722.362,170.47357
1425686722.378,186.10461
1425686722.393,203.87585
1425686722.409,223.32947
1425686722.425,243.50061
1425686722.44,262.9657
1425686722.456,280.1684
1425686722.471,293.81464
1425686722.487,303.37158
1425686722.503,309.36285
1425686722.518,313.30548
1425686722.534,317.32373
1425686722.55,323.5777
1425686722.565,333.77997
1425686722.581,348.89172
1425686722.596,368.9956
1425686722.612,393.15686
1425686722.628,419.2082
1425686722.643,443.68927
1425686722.659,461.98218
1425686722.675,469.2461
1425686722.69,461.61584
1425686722.706,437.5949
1425686722.721,398.6407
1425686722.737,348.94904
1425686722.753,294.22278
1425686722.768,239.98444
1425686722.784,190.37152
1425686722.8,147.59253
1425686722.815,112.17944
1425686722.831,83.715454
1425686722.846,61.430176
1425686722.862,44.519897
1425686722.878,32.128113
1425686722.893,23.153381
1425686722.909,16.22876
1425686722.925,9.912537
1425686722.94,2.9741821
1425686722.956,-5.3599243
1425686722.971,-15.310974
1425686722.987,-26.58899
1425686723.003,-38.60858
1425686723.018,-50.660767
1425686723.034,-62.02893
1425686723.05,-72.07538
1425686723.065,-80.38214
1425686723.081,-86.64581
1425686723.096,-90.74603
1425686723.112,-92.57855
1425686723.128,-92.058655
1425686723.143,-88.97754
1425686723.159,-83.21051
1425686723.175,-74.87634
1425686723.19,-64.5155
1425686723.206,-53.005005
1425686723.221,-41.33142
1425686723.237,-30.18164
1425686723.253,-19.732758
1425686723.268,-9.611267
1425686723.284,0.8504944
1425686723.3,12.368286
1425686723.315,25.561707
1425686723.331,41.00061
1425686723.346,59.145966
1425686723.362,80.104416
1425686723.378,103.110016
1425686723.393,126.11331
1425686723.409,145.72536
1425686723.425,158.03413
1425686723.44,159.75665
1425686723.456,149.37889
1425686723.472,127.654335
1425686723.487,97.01834
1425686723.503,60.62404
1425686723.518,21.368212
1425686723.534,-18.50758
1425686723.55,-57.16645
1425686723.565,-92.74467
1425686723.581,-123.143196
1425686723.597,-146.37268
1425686723.612,-161.09628
1425686723.628,-167.24983
1425686723.643,-166.08186
1425686723.659,-159.69998
1425686723.675,-150.39674
1425686723.69,-140.11954
1425686723.706,-130.25055
1425686723.722,-121.63165
1425686723.737,-114.73901
1425686723.753,-109.806946
1425686723.768,-106.82718
1425686723.784,-105.52753
1425686723.8,-105.41629
1425686723.815,-105.825195
1425686723.831,-106.06448
1425686723.847,-105.58353
1425686723.862,-103.934845
1425686723.878,-100.92215
1425686723.893,-96.52478
1425686723.909,-90.77057
1425686723.925,-83.70563
1425686723.94,-75.37842
1425686723.956,-65.92828
1425686723.972,-55.582336
1425686723.987,-44.738342
1425686724.003,-33.90033
1425686724.018,-23.46106
1425686724.034,-13.484314
1425686724.05,-3.5864868
1425686724.065,7.07135
1425686724.081,19.616882
1425686724.097,35.03418
1425686724.112,53.69397
1425686724.128,74.765015
1425686724.143,96.01227
1425686724.159,113.96478
1425686724.175,124.62543
1425686724.19,124.64148
1425686724.206,112.32703
1425686724.222,88.33502
1425686724.237,55.479248
1425686724.253,17.899658
1425686724.268,-20.11029
1425686724.284,-55.136536
1425686724.3,-85.16272
1425686724.315,-109.50885
1425686724.331,-128.30219
1425686724.347,-141.94427
1425686724.362,-150.69153
1425686724.378,-154.67389
1425686724.393,-154.09955
1425686724.409,-149.56781
1425686724.425,-142.22064
1425686724.44,-133.57379
1425686724.456,-125.18628
1425686724.472,-118.16174
1425686724.487,-112.85901
1425686724.503,-108.9397
1425686724.518,-105.65674
1425686724.534,-102.37561
1425686724.55,-98.861084
1425686724.565,-95.37305
1425686724.581,-92.36316
1425686724.597,-90.03931
1425686724.612,-88.02136
1425686724.628,-85.409424
1425686724.643,-81.04724
1425686724.659,-74.019165
1425686724.675,-64.045654
1425686724.69,-51.638306
1425686724.706,-37.920654
1425686724.722,-24.2677
1425686724.737,-11.742676
1425686724.753,-0.7845459
1425686724.768,8.937866
1425686724.784,18.383545
1425686724.8,28.889282
1425686724.815,41.756104
1425686724.831,57.842285
1425686724.847,77.10022
1425686724.862,98.21912
1425686724.878,118.458984
1425686724.893,134.0719
1425686724.909,141.14063
1425686724.925,136.75793
1425686724.94,120.085205
1425686724.956,92.723145
1425686724.972,58.2489
1425686724.987,21.056396
1425686725.003,-14.943237
1425686725.018,-47.15442
1425686725.034,-74.45215
1425686725.05,-96.66162
1425686725.065,-113.92944
1425686725.081,-126.287476
1425686725.097,-133.63855
1425686725.112,-136.14331
1425686725.128,-134.41785
1425686725.143,-129.6532
1425686725.159,-123.313354
1425686725.175,-116.72058
1425686725.19,-110.71863
1425686725.206,-105.57324
1425686725.222,-101.12146
1425686725.237,-97.002075
1425686725.253,-92.90576
1425686725.268,-88.79358
1425686725.284,-84.8728
1425686725.3,-81.50159
1425686725.315,-78.97986
1425686725.331,-77.27942
1425686725.347,-75.895386
1425686725.362,-73.90234
1425686725.378,-70.21326
1425686725.393,-63.964844
1425686725.409,-54.865967
1425686725.425,-43.368042
1425686725.44,-30.52893
1425686725.456,-17.629028
1425686725.472,-5.6849365
1425686725.487,4.9467773
1425686725.503,14.676392
1425686725.518,24.572998
1425686725.534,35.901733
1425686725.55,49.737183
1425686725.565,66.522705
1425686725.581,85.79651
1425686725.597,106.052
1425686725.612,124.74072
1425686725.628,138.69946
1425686725.643,144.69885
1425686725.659,140.3435
1425686725.675,124.73071
1425686725.69,98.888306
1425686725.706,65.592285
1425686725.722,28.73645
1425686725.737,-7.6938477
1425686725.753,-40.463135
1425686725.768,-67.64099
1425686725.784,-88.611084
1425686725.8,-103.68982
1425686725.815,-113.55737
1425686725.831,-118.82349
1425686725.847,-120.04089
1425686725.862,-117.70288
1425686725.878,-112.470825
1425686725.893,-105.276
1425686725.909,-97.19702
1425686725.925,-89.3136
1425686725.94,-82.423096
1425686725.956,-76.9386
1425686725.972,-72.85315
1425686725.987,-69.90027
1425686726.003,-67.69385
1425686726.018,-65.79663
1425686726.034,-63.84729
1425686726.05,-61.59253
1425686726.065,-58.882446
1425686726.081,-55.68091
1425686726.097,-51.9386
1425686726.112,-47.52368
1425686726.128,-42.14148
1425686726.144,-35.42627
1425686726.159,-27.134766
1425686726.175,-17.343994
1425686726.19,-6.5008545
1425686726.206,4.69751
1425686726.222,15.569946
1425686726.237,25.734375
1425686726.253,35.237183
1425686726.268,44.51465
1425686726.284,54.22644
1425686726.3,65.08618
1425686726.315,77.673584
1425686726.331,92.36914
1425686726.347,109.07971
1425686726.362,126.79297
1425686726.378,143.42859
1425686726.394,155.87524
1425686726.409,160.66296
1425686726.425,154.99805
1425686726.44,137.82434
1425686726.456,110.34961
1425686726.472,75.753784
1425686726.487,38.288574
1425686726.503,1.9685059
1425686726.519,-30.328613
1425686726.534,-57.19287
1425686726.55,-78.35669
1425686726.565,-94.113525
1425686726.581,-104.80884
1425686726.597,-110.706055
1425686726.612,-112.13379
1425686726.628,-109.74817
1425686726.644,-104.49048
1425686726.659,-97.47473
1425686726.675,-89.756714
1425686726.69,-82.06897
1425686726.706,-74.86267
1425686726.722,-68.39697
1425686726.737,-62.87976
1425686726.753,-58.56128
1425686726.769,-55.617188
1425686726.784,-54.036987
1425686726.8,-53.41223
1425686726.815,-53.101196
1425686726.831,-52.322266
1425686726.847,-50.385376
1425686726.862,-46.921997
1425686726.878,-41.919067
1425686726.894,-35.618042
1425686726.909,-28.359009
1425686726.925,-20.427002
1425686726.94,-11.923096
1425686726.956,-2.7913208
1425686726.972,7.010681
1425686726.987,17.422241
1425686727.003,28.142212
1425686727.019,38.701904
1425686727.034,48.624023
1425686727.05,57.700684
1425686727.065,66.09833
1425686727.081,74.43994
1425686727.097,83.62262
1425686727.112,94.621826
1425686727.128,108.01337
1425686727.144,123.58478
1425686727.159,139.95703
1425686727.175,154.4925
1425686727.19,163.71777
1425686727.206,164.1889
1425686727.222,153.58539
1425686727.237,131.64917
1425686727.253,100.46997
1425686727.269,63.930786
1425686727.284,26.54602
1425686727.3,-7.769348
1425686727.315,-36.59735
1425686727.331,-59.095337
1425686727.347,-75.569336
1425686727.362,-86.76953
1425686727.378,-93.395996
1425686727.394,-95.991394
1425686727.409,-95.12262
1425686727.425,-91.56738
1425686727.44,-86.3219
1425686727.456,-80.42828
1425686727.472,-74.70044
1425686727.487,-69.55408
1425686727.503,-65.09204
1425686727.519,-61.23352
1425686727.534,-58.023865
1425686727.55,-55.677246
1425686727.565,-54.407043
1425686727.581,-54.300354
1425686727.597,-55.0365
1425686727.612,-55.90033
1425686727.628,-55.978394
1425686727.644,-54.43866
1425686727.659,-50.806763
1425686727.675,-45.101746
1425686727.69,-37.73108
1425686727.706,-29.254639
1425686727.722,-20.17871
1425686727.737,-10.795837
1425686727.753,-1.1516724
1425686727.769,8.864197
1425686727.784,19.3526
1425686727.8,30.297302
1425686727.815,41.47705
1425686727.831,52.53369
1425686727.847,63.11682
1425686727.862,73.03607
1425686727.878,82.43933
1425686727.894,91.92163
1425686727.909,102.44403
1425686727.925,114.98505
1425686727.94,130.03821
1425686727.956,147.02478
1425686727.972,163.88385
1425686727.987,177.34674
1425686728.003,183.61981
1425686728.019,179.60675
1425686728.034,163.95941
1425686728.05,137.5694
1425686728.065,103.43213
1425686728.081,65.67395
1425686728.097,28.44757
1425686728.112,-5.0533447
1425686728.128,-33.04767
1425686728.144,-54.986633
1425686728.159,-71.08917
1425686728.175,-81.82971
1425686728.19,-87.68701
1425686728.206,-89.135254
1425686728.222,-86.849
1425686728.237,-81.79077
1425686728.253,-75.16376
1425686728.269,-68.195435
1425686728.284,-61.845886
1425686728.3,-56.617554
1425686728.315,-52.62268
1425686728.331,-49.85498
1425686728.347,-48.262146
1425686728.362,-47.916504
1425686728.378,-48.819946
1425686728.394,-50.709717
1425686728.409,-53.0365
1425686728.425,-55.031616
1425686728.44,-55.925964
1425686728.456,-55.083313
1425686728.472,-52.159546
1425686728.487,-47.080383
1425686728.503,-40.111877
1425686728.519,-31.812866
1425686728.534,-22.901978
1425686728.55,-14.037048
1425686728.565,-5.482727
1425686728.581,2.974121
1425686728.597,11.953796
1425686728.612,22.017273
1425686728.628,33.26233
1425686728.644,45.167145
1425686728.659,56.75775
1425686728.675,67.2041
1425686728.69,76.32156
1425686728.706,84.84216
1425686728.722,94.121124
1425686728.737,105.51636
1425686728.753,119.58917
1425686728.769,135.49472
1425686728.784,150.8616
1425686728.8,162.17874
1425686728.816,165.7821
1425686728.831,158.87589
1425686728.847,140.66696
1425686728.862,112.55487
1425686728.878,77.85306
1425686728.894,40.776825
1425686728.909,5.261139
1425686728.925,-25.817902
1425686728.94,-51.04828
1425686728.956,-70.13925
1425686728.972,-83.493225
1425686728.987,-91.67822
1425686729.003,-95.269104
1425686729.019,-94.79739
1425686729.034,-90.93677
1425686729.05,-84.48465
1425686729.066,-76.41971
1425686729.081,-67.72745
1425686729.097,-59.30664
1425686729.112,-51.88269
1425686729.128,-45.93405
1425686729.144,-41.734253
1425686729.159,-39.339417
1425686729.175,-38.615112
1425686729.191,-39.273224
1425686729.206,-40.84015
1425686729.222,-42.730957
1425686729.237,-44.25354
1425686729.253,-44.773895
1425686729.269,-43.777893
1425686729.284,-40.914825
1425686729.3,-36.063904
1425686729.316,-29.300812
1425686729.331,-20.813446
1425686729.347,-10.9158325
1425686729.362,-0.059417725
1425686729.378,11.231934
1425686729.394,22.421844
1425686729.409,33.01779
1425686729.425,42.743866
1425686729.441,51.50537
1425686729.456,59.420746
1425686729.472,66.859436
1425686729.487,74.50467
1425686729.503,83.33728
1425686729.519,94.457184
1425686729.534,108.496704
1425686729.55,125.02841
1425686729.566,142.06592
1425686729.581,156.22162
1425686729.597,163.48648
1425686729.612,160.57614
1425686729.628,146.0199
1425686729.644,120.753265
1425686729.659,87.76547
1425686729.675,51.219025
1425686729.691,15.199951
1425686729.706,-17.138367
1425686729.722,-44.01657
1425686729.737,-64.90793
1425686729.753,-80.129974
1425686729.769,-90.36377
1425686729.784,-96.269196
1425686729.8,-98.3522
1425686729.816,-97.03223
1425686729.831,-92.765656
1425686729.847,-86.248566
1425686729.862,-78.34839
1425686729.878,-70.09274
1425686729.894,-62.3826
1425686729.909,-55.92444
1425686729.925,-51.13559
1425686729.941,-48.197296
1425686729.956,-47.044342
1425686729.972,-47.421997
1425686729.987,-48.817993
1425686730.003,-50.4393
1425686730.019,-51.433533
1425686730.034,-51.00705
1425686730.05,-48.719025
1425686730.066,-44.48529
1425686730.081,-38.583862
1425686730.097,-31.426819
1425686730.112,-23.336456
1425686730.128,-14.478027
1425686730.144,-4.855011
1425686730.159,5.4344788
1425686730.175,16.146393
1425686730.191,26.842651
1425686730.206,36.992767
1425686730.222,46.141388
1425686730.237,54.158997
1425686730.253,61.3136
1425686730.269,68.187195
1425686730.284,75.66882
1425686730.3,84.69153
1425686730.316,96.00314
1425686730.331,109.789246
1425686730.347,125.29773
1425686730.362,140.56451
1425686730.378,152.50424
1425686730.394,157.6286
1425686730.409,153.00546
1425686730.425,137.35428
1425686730.441,111.579285
1425686730.456,78.64383
1425686730.472,42.584747
1425686730.487,7.4066467
1425686730.503,-23.863861
1425686730.519,-49.568085
1425686730.534,-69.24161
1425686730.55,-83.233154
1425686730.566,-92.16724
1425686730.581,-96.76965
1425686730.597,-97.747986
1425686730.612,-95.87009
1425686730.628,-91.9335
1425686730.644,-86.703735
1425686730.659,-80.89978
1425686730.675,-75.09732
1425686730.691,-69.70175
1425686730.706,-64.89719
1425686730.722,-60.84134
1425686730.737,-57.60022
1425686730.753,-55.303925
1425686730.769,-54.121582
1425686730.784,-54.04135
1425686730.8,-54.841217
1425686730.816,-55.871826
1425686730.831,-56.21747
1425686730.847,-54.961334
1425686730.862,-51.632507
1425686730.878,-46.30188
1425686730.894,-39.493896
1425686730.909,-31.819214
1425686730.925,-23.607147
1425686730.941,-14.862183
1425686730.956,-5.3569336
1425686730.972,4.9930725
1425686730.987,15.931152
1425686731.003,26.858917
1425686731.019,37.12979
1425686731.034,46.31241
1425686731.05,54.40384
1425686731.066,61.801666
1425686731.081,69.16516
1425686731.097,77.29736
1425686731.112,86.985596
1425686731.128,98.819244
1425686731.144,112.892456
1425686731.159,128.38461
1425686731.175,143.2774
1425686731.191,154.45874
1425686731.206,158.43494
1425686731.222,152.34213
1425686731.237,134.9798
1425686731.253,107.382996
1425686731.269,72.56442
1425686731.284,34.78061
1425686731.3,-1.7651672
1425686731.316,-33.853394
1425686731.331,-59.755463
1425686731.347,-79.05356
1425686731.362,-92.223816
1425686731.378,-100.042786
1425686731.394,-103.30197
1425686731.409,-102.6965
1425686731.425,-98.88315
1425686731.441,-92.68121
1425686731.456,-85.06232
1425686731.472,-77.074554
1425686731.487,-69.66452
1425686731.503,-63.525208
1425686731.519,-59.007904
1425686731.534,-56.126007
1425686731.55,-54.719543
1425686731.566,-54.494293
1425686731.581,-55.145813
1425686731.597,-56.354095
1425686731.612,-57.65564
1425686731.628,-58.515045
1425686731.644,-58.28183
1425686731.659,-56.430542
1425686731.675,-52.63977
1425686731.691,-47.04077
1425686731.706,-40.066376
1425686731.722,-32.232452
1425686731.738,-23.811035
1425686731.753,-14.711273
1425686731.769,-4.6650085
1425686731.784,6.486084
1425686731.8,18.476929
1425686731.816,30.588562
1425686731.831,41.91455
1425686731.847,51.789917
1425686731.863,60.075867
1425686731.878,67.26337
1425686731.894,74.25458
1425686731.909,82.081696
1425686731.925,91.65643
1425686731.941,103.563934
1425686731.956,117.823395
1425686731.972,133.5485
1425686731.988,148.76688
1425686732.003,160.40894
1425686732.019,164.94266
1425686732.034,159.42462
1425686732.05,142.57138
1425686732.066,115.400024
1425686732.081,81.01703
1425686732.097,43.62445
1425686732.113,7.3559265
1425686732.128,-24.763306
1425686732.144,-51.16458
1425686732.159,-71.57007
1425686732.175,-86.37079
1425686732.191,-96.16174
1425686732.206,-101.48378
1425686732.222,-102.84712
1425686732.238,-100.89505
1425686732.253,-96.44818
1425686732.269,-90.45743
1425686732.284,-83.850494
1425686732.3,-77.343475
1425686732.316,-71.40866
1425686732.331,-66.32991
1425686732.347,-62.30612
1425686732.363,-59.477417
1425686732.378,-57.96312
1425686732.394,-57.729446
1425686732.409,-58.518784
1425686732.425,-59.81775
1425686732.441,-60.83145
1425686732.456,-60.746567
1425686732.472,-58.89731
1425686732.488,-54.94391
1425686732.503,-48.95967
1425686732.519,-41.341415
1425686732.534,-32.66504
1425686732.55,-23.436447
1425686732.566,-13.907013
1425686732.581,-4.0217133
1425686732.597,6.417618
1425686732.613,17.518051
1425686732.628,29.085373
1425686732.644,40.639053
1425686732.659,51.538956
1425686732.675,61.31044
1425686732.691,69.93021
1425686732.706,77.94473
1425686732.722,86.3578
1425686732.738,96.37215
1425686732.753,108.84062
1425686732.769,123.79056
1425686732.784,140.00635
1425686732.8,154.966
1425686732.816,165.20102
1425686732.831,167.23853
1425686732.847,158.5801
1425686732.863,138.67471
1425686732.878,109.13344
1425686732.894,73.346375
1425686732.909,35.442627
1425686732.925,-0.80937195
1425686732.941,-32.682037
1425686732.956,-58.723785
1425686732.972,-78.50816
1425686732.988,-92.2233
1425686733.003,-100.43182
1425686733.019,-103.894196
1425686733.034,-103.541595
1425686733.05,-100.40552
1425686733.066,-95.4966
1425686733.081,-89.65878
1425686733.097,-83.49312
1425686733.113,-77.40793
1425686733.128,-71.68724
1425686733.144,-66.612
1425686733.159,-62.48619
1425686733.175,-59.581512
1425686733.191,-58.057434
1425686733.206,-57.883636
1425686733.222,-58.74826
1425686733.238,-60.061478
1425686733.253,-61.03917
1425686733.269,-60.831528
1425686733.284,-58.774155
1425686733.3,-54.507385
1425686733.316,-48.131653
1425686733.331,-40.021133
1425686733.347,-30.723679
1425686733.363,-20.688354
1425686733.378,-10.210587
1425686733.394,0.5374603
1425686733.409,11.408112
1425686733.425,22.18106
1425686733.441,32.536377
1425686733.456,42.07843
1425686733.472,50.55577
1425686733.488,57.94989
1425686733.503,64.622955
1425686733.519,71.296326
1425686733.534,78.91185
1425686733.55,88.44847
1425686733.566,100.586075
1425686733.581,115.35364
1425686733.597,131.68695
1425686733.613,147.39009
1425686733.628,159.25995
1425686733.644,163.7826
1425686733.659,158.17351
1425686733.675,141.21173
1425686733.691,113.78279
1425686733.706,78.70538
1425686733.722,40.029373
1425686733.738,1.9868774
1425686733.753,-32.027237
1425686733.769,-59.975876
1425686733.784,-81.24733
1425686733.8,-96.23688
1425686733.816,-105.7988
1425686733.831,-110.776245
1425686733.847,-111.82373
1425686733.863,-109.48389
1425686733.878,-104.459015
1425686733.894,-97.754944
1425686733.909,-90.65167
1425686733.925,-84.45505
1425686733.941,-80.08411
1425686733.956,-77.84485
1425686733.972,-77.39984
1425686733.988,-78.086914
1425686734.003,-79.253204
1425686734.019,-80.55727
1425686734.034,-82.03027
1425686734.05,-83.774475
1425686734.066,-85.84355
1425686734.081,-87.92763
1425686734.097,-89.491806
1425686734.113,-89.833954
1425686734.128,-88.45266
1425686734.144,-85.16507
1425686734.159,-80.11849
1425686734.175,-73.73375
1425686734.191,-66.54268
1425686734.206,-59.04603
1425686734.222,-51.712585
1425686734.238,-44.95294
1425686734.253,-39.156067
1425686734.269,-34.687172
1425686734.284,-31.814896
1425686734.3,-30.626656
1425686734.316,-30.97736
1425686734.331,-32.47766
1425686734.347,-34.546093
1425686734.363,-36.468746
1425686734.378,-37.55693
1425686734.394,-37.30031
1425686734.41,-35.434605
1425686734.425,-32.018417
1425686734.441,-27.38405
1425686734.456,-21.938543
1425686734.472,-16.116428
1425686734.488,-10.336094
1425686734.503,-5.0387306
1425686734.519,-0.5931015
1425686734.535,2.6164017
1425686734.55,4.4914703
1425686734.566,5.237152
1425686734.581,5.2971573
1425686734.597,5.2059097
1425686734.613,5.357994
1425686734.628,5.855667
1425686734.644,6.5979156
1425686734.66,7.4328003
1425686734.675,8.302948
1425686734.691,9.223648
1425686734.706,10.313568
1425686734.722,11.576965
1425686734.738,13.014954
1425686734.753,14.583405
1425686734.769,16.249588
1425686734.785,17.986542
1425686734.8,19.76764
1425686734.816,21.571442
1425686734.831,23.522125
1425686734.847,25.89743
1425686734.863,29.010254
1425686734.878,33.119537
1425686734.894,38.11386
1425686734.91,43.582336
1425686734.925,48.918518
1425686734.941,53.638794
1425686734.956,57.64093
1425686734.972,61.251587
1425686734.988,65.122375
1425686735.003,69.80728
1425686735.019,75.74179
1425686735.035,82.98767
1425686735.05,91.3555
1425686735.066,100.49176
1425686735.081,109.98422
1425686735.097,119.378784
1425686735.113,128.29297
1425686735.128,136.52032
1425686735.144,144.1253
1425686735.16,151.60834
1425686735.175,159.87366
1425686735.191,170.06339
1425686735.206,183.10236
1425686735.222,198.97696
1425686735.238,216.07904
1425686735.253,231.05383
1425686735.269,239.37402
1425686735.285,236.57986
1425686735.3,219.87735
1425686735.316,189.25836
1425686735.331,147.64136
1425686735.347,99.97839
1425686735.363,51.733765
1425686735.378,7.507843
1425686735.394,-29.778748
1425686735.41,-58.911865
1425686735.425,-79.95154
1425686735.441,-93.699585
1425686735.456,-101.246
1425686735.472,-103.84784
1425686735.488,-102.74713
1425686735.503,-99.103
1425686735.519,-93.906525
1425686735.535,-87.88522
1425686735.55,-81.58801
1425686735.566,-75.444916
1425686735.581,-69.76279
1425686735.597,-64.83716
1425686735.613,-60.937317
1425686735.628,-58.287018
1425686735.644,-56.9787
1425686735.66,-56.964355
1425686735.675,-57.935303
1425686735.691,-59.328705
1425686735.706,-60.46991
1425686735.722,-60.727478
1425686735.738,-59.658142
1425686735.753,-57.049408
1425686735.769,-52.717865
1425686735.785,-46.494568
1425686735.8,-38.264374
1425686735.816,-28.087189
1425686735.831,-16.37973
1425686735.847,-3.9121094
1425686735.863,8.472504
1425686735.878,20.130371
1425686735.894,30.86734
1425686735.91,40.916443
1425686735.925,50.757965
1425686735.941,60.898315
1425686735.956,71.868866
1425686735.972,84.16693
1425686735.988,98.03381
1425686736.003,113.1398
1425686736.019,128.1833
1425686736.035,140.68658
1425686736.05,147.41075
1425686736.066,145.25151
1425686736.081,132.32225
1425686736.097,108.76218
1425686736.113,76.9189
1425686736.128,40.61992
1425686736.144,4.22052
1425686736.16,-28.620117
1425686736.175,-55.586395
1425686736.191,-75.92073
1425686736.206,-89.94586
1425686736.222,-98.58136
1425686736.238,-102.69592
1425686736.253,-102.89024
1425686736.269,-99.61809
1425686736.285,-93.40314
1425686736.3,-85.085175
1425686736.316,-75.76407
1425686736.331,-66.56409
1425686736.347,-58.310272
1425686736.363,-51.40837
1425686736.378,-45.96112
1425686736.394,-41.924133
1425686736.41,-39.34291
1425686736.425,-38.249435
1425686736.441,-38.578674
1425686736.456,-40.00821
1425686736.472,-41.878784
1425686736.488,-43.32083
1425686736.503,-43.423294
1425686736.519,-41.336395
1425686736.535,-36.432312
1425686736.55,-28.476303
1425686736.566,-17.720474
1425686736.581,-4.878769
1425686736.597,8.910553
1425686736.613,22.45546
1425686736.628,34.83847
1425686736.644,45.643646
1425686736.66,55.040985
1425686736.675,63.71019
1425686736.691,72.65173
1425686736.706,83.09729
1425686736.722,96.119705
1425686736.738,112.198975
1425686736.753,130.71643
1425686736.769,149.63782
1425686736.785,165.6405
1425686736.8,174.89565
1425686736.816,174.12549
1425686736.831,161.60321
1425686736.847,137.77031
1425686736.863,105.07957
1425686736.878,67.35556
1425686736.894,28.88092
1425686736.91,-6.587105
1425686736.925,-36.460175
1425686736.941,-59.628235
1425686736.956,-76.28665
1425686736.972,-87.48242
1425686736.988,-94.401794
1425686737.003,-97.95338
1425686737.019,-98.5767
1425686737.035,-96.4438
1425686737.05,-91.81894
1425686737.066,-85.3954
1425686737.082,-78.17402
1425686737.097,-71.231804
1425686737.113,-65.37543
1425686737.128,-60.955627
1425686737.144,-57.87752
1425686737.16,-55.868366
1425686737.175,-54.634834
1425686737.191,-53.96713
1425686737.206,-53.684124
1425686737.222,-53.55309
1425686737.238,-53.18974
1425686737.253,-52.067303
1425686737.269,-49.51293
1425686737.285,-44.922417
1425686737.3,-37.87771
1425686737.316,-28.413952
1425686737.332,-16.981491
1425686737.347,-4.434757
1425686737.363,8.322441
1425686737.378,20.55386
1425686737.394,31.870846
1425686737.41,42.2164
1425686737.425,51.751743
1425686737.441,60.775513
1425686737.457,69.78678
1425686737.472,79.531
1425686737.488,90.97402
1425686737.503,105.00658
1425686737.519,121.871735
1425686737.535,140.55713
1425686737.55,158.52063
1425686737.566,172.02985
1425686737.582,177.04742
1425686737.597,170.50986
1425686737.613,151.39493
1425686737.628,121.16975
1425686737.644,83.54309
1425686737.66,43.264435
1425686737.675,4.83107
1425686737.691,-28.64273
1425686737.707,-55.805542
1425686737.722,-76.79561
1425686737.738,-92.47386
1425686737.753,-103.67691
1425686737.769,-110.90721
1425686737.785,-114.377884
1425686737.8,-114.33533
1425686737.816,-111.336075
1425686737.832,-106.15239
1425686737.847,-99.67975
1425686737.863,-92.69217
1425686737.878,-85.85701
1425686737.894,-79.782074
1425686737.91,-75.063324
1425686737.925,-72.22417
1425686737.941,-71.49275
1425686737.957,-72.59129
1425686737.972,-74.67732
1425686737.988,-76.561646
1425686738.003,-77.13594
1425686738.019,-75.639496
1425686738.035,-71.892715
1425686738.05,-66.19032
1425686738.066,-59.01985
1425686738.082,-50.814713
1425686738.097,-41.774643
1425686738.113,-31.91446
1425686738.128,-21.21991
1425686738.144,-9.801514
1425686738.16,1.9821777
1425686738.175,13.606293
1425686738.191,24.597992
1425686738.207,34.81131
1425686738.222,44.463745
1425686738.238,54.109985
1425686738.253,64.45535
1425686738.269,76.22241
1425686738.285,89.96631
1425686738.3,105.91504
1425686738.316,123.56564
1425686738.332,141.2821
1425686738.347,156.23026
1425686738.363,164.73734
1425686738.378,163.3097
1425686738.394,149.94003
1425686738.41,124.96414
1425686738.425,91.14444
1425686738.441,52.72824
1425686738.457,14.170288
1425686738.472,-21.16214
1425686738.488,-51.387817
1425686738.503,-76.005035
1425686738.519,-95.26779
1425686738.535,-109.58893
1425686738.55,-119.32135
1425686738.566,-124.75934
1425686738.582,-126.23108
1425686738.597,-124.24606
1425686738.613,-119.563934
1425686738.628,-113.15372
1425686738.644,-106.046295
1425686738.66,-99.21344
1425686738.675,-93.35913
1425686738.691,-88.86545
1425686738.707,-85.85498
1425686738.722,-84.33615
1425686738.738,-84.29437
1425686738.753,-85.58865
1425686738.769,-87.723145
1425686738.785,-89.78232
1425686738.8,-90.61426
1425686738.816,-89.25162
1425686738.832,-85.40579
1425686738.847,-79.63309
1425686738.863,-73.05887
1425686738.878,-66.82419
1425686738.894,-61.52066
1425686738.91,-57.003815
1425686738.925,-52.538025
1425686738.941,-47.30417
1425686738.957,-40.74472
1425686738.972,-32.90518
1425686738.988,-24.39563
1425686739.003,-16.242096
1425686739.019,-9.550354
1425686739.035,-5.050995
1425686739.05,-2.8659058
1425686739.066,-2.3805542
1425686739.082,-2.4178467
1425686739.097,-1.6350708
1425686739.113,1.0380554
1425686739.128,5.9473267
1425686739.144,12.495728
1425686739.16,19.020508
1425686739.175,22.980743
1425686739.191,21.251617
1425686739.207,10.841049
1425686739.222,-10.361847
1425686739.238,-42.913376
1425686739.253,-85.43013
1425686739.269,-134.98709
1425686739.285,-188.07068
1425686739.3,-241.76677
1425686739.316,-294.36414
1425686739.332,-344.96307
1425686739.347,-392.37915
1425686739.363,-434.12787
1425686739.378,-466.3096
1425686739.394,-484.69885
1425686739.41,-486.62057
1425686739.425,-472.4182
1425686739.441,-445.69812
1425686739.457,-412.02368
1425686739.472,-376.82547
1425686739.488,-343.55728
1425686739.503,-313.04822
1425686739.519,-284.30606
1425686739.535,-255.85928
1425686739.55,-227.07072
1425686739.566,-198.44633
1425686739.582,-171.17035
1425686739.597,-146.20892
1425686739.613,-123.72623
1425686739.628,-102.96152
1425686739.644,-82.662506
1425686739.66,-61.618286
1425686739.675,-39.159485
1425686739.691,-15.427368
1425686739.707,8.797791
1425686739.722,32.380066
1425686739.738,54.26111
1425686739.754,73.87836
1425686739.769,91.39044
1425686739.785,107.694214
1425686739.8,124.1142
1425686739.816,141.982
1425686739.832,162.0246
1425686739.847,184.1253
1425686739.863,207.3111
1425686739.878,230.23254
1425686739.894,251.64148
1425686739.91,271.01953
1425686739.925,288.7915
1425686739.941,306.10956
1425686739.957,324.55505
1425686739.972,345.87708
1425686739.988,371.77844
1425686740.004,403.56763
1425686740.019,441.29333
1425686740.035,482.6444
1425686740.05,522.3104
1425686740.066,552.54553
1425686740.082,565.1544
1425686740.097,554.4464
1425686740.113,519.5325
1425686740.129,464.95288
1425686740.144,399.0398
1425686740.16,330.89197
1425686740.175,267.4159
1425686740.191,211.94263
1425686740.207,164.594
1425686740.222,124.08276
1425686740.238,89.42749
1425686740.254,60.71582
1425686740.269,38.69397
1425686740.285,23.688965
1425686740.3,14.790283
1425686740.316,9.869019
1425686740.332,6.339966
1425686740.347,2.130005
1425686740.363,-3.67688
1425686740.379,-10.627075
1425686740.394,-17.612183
1425686740.41,-23.67334
1425686740.425,-28.583252
1425686740.441,-32.901733
1425686740.457,-37.5083
1425686740.472,-42.886353
1425686740.488,-48.74695
1425686740.504,-54.029907
1425686740.519,-57.327515
1425686740.535,-57.519165
1425686740.55,-54.168213
1425686740.566,-47.661133
1425686740.582,-39.077515
1425686740.597,-29.747437
1425686740.613,-20.965698
1425686740.629,-13.477539
1425686740.644,-7.27063
1425686740.66,-1.6654053
1425686740.675,4.402466
1425686740.691,11.869019
1425686740.707,21.108276
1425686740.722,31.775269
1425686740.738,42.958374
1425686740.754,53.54248
1425686740.769,62.594116
1425686740.785,69.6582
1425686740.8,74.83972
1425686740.816,78.73743
1425686740.832,82.39807
1425686740.847,87.11267
1425686740.863,94.14636
1425686740.879,104.98291
1425686740.894,119.871826
1425686740.91,137.20654
1425686740.925,153.45007
1425686740.941,164.02075
1425686740.957,164.31506
1425686740.972,150.71057
1425686740.988,121.358765
1425686741.004,76.66223
1425686741.019,19.921875
1425686741.035,-44.27881
1425686741.05,-111.279785
1425686741.066,-177.17651
1425686741.082,-238.9281
1425686741.097,-294.08557
1425686741.113,-340.71326
1425686741.129,-377.26636
1425686741.144,-402.68945
1425686741.16,-414.99976
1425686741.175,-413.849
1425686741.191,-401.3119
1425686741.207,-381.4641
1425686741.222,-358.64063
1425686741.238,-336.06616
1425686741.254,-315.4319
1425686741.269,-297.03027
1425686741.285,-280.15198
1425686741.3,-259.3307
1425686741.316,-231.11072
1425686741.332,-196.47034
1425686741.347,-159.9552
1425686741.363,-125.90442
1425686741.379,-96.0094
1425686741.394,-69.49133
1425686741.41,-44.357056
1425686741.425,-18.72522
1425686741.441,17.261597
1425686741.457,68.53967
1425686741.472,131.14783
1425686741.488,194.64636
1425686741.504,249.83118
1425686741.519,293.30933
1425686741.535,326.72363
1425686741.55,353.87476
1425686741.566,378.44788
1425686741.582,416.97986
1425686741.597,478.47742
1425686741.613,558.2246
1425686741.629,641.1505
1425686741.644,713.6334
1425686741.66,770.3176
1425686741.675,812.86096
1425686741.691,845.9999
1425686741.707,875.0089
1425686741.722,923.2433
1425686741.738,1005.65564
1425686741.754,1119.39
1425686741.769,1246.1251
1425686741.785,1365.4678
1425686741.8,1463.5416
1425686741.816,1533.5023
1425686741.832,1573.6002
1425686741.847,1469.4984
1425686741.863,1177.3553
1425686741.879,750.3522
1425686741.894,304.4823
1425686741.91,-69.00635
1425686741.925,-341.07147
1425686741.941,-524.53937
1425686741.957,-644.61224
1425686741.972,-723.3437
1425686741.988,-775.54266
1425686742.004,-791.6668
1425686742.019,-767.1009
1425686742.035,-712.2661
1425686742.05,-649.5616
1425686742.066,-598.0976
1425686742.082,-566.78455
1425686742.097,-554.20844
1425686742.113,-554.08374
1425686742.129,-559.71295
1425686742.144,-551.8865
1425686742.16,-520.22986
1425686742.175,-469.05716
1425686742.191,-413.80084
1425686742.207,-369.039
1425686742.222,-341.30328
1425686742.238,-329.7688
1425686742.254,-330.49017
1425686742.269,-339.8208
1425686742.285,-342.69202
1425686742.3,-331.4315
1425686742.316,-308.36707
1425686742.332,-283.3285
1425686742.347,-265.9159
1425686742.363,-260.86334
1425686742.379,-268.24258
1425686742.394,-285.4324
1425686742.41,-308.46494
1425686742.425,-328.04578
1425686742.441,-336.864
1425686742.457,-331.76593
1425686742.472,-314.1336
1425686742.488,-287.45605
1425686742.504,-255.49155
1425686742.519,-221.57605
1425686742.535,-188.40076
1425686742.55,-157.3703
1425686742.566,-126.74124
1425686742.582,-94.73721
1425686742.597,-60.754395
1425686742.613,-26.075256
1425686742.629,6.7239685
1425686742.644,34.587128
1425686742.66,54.567627
1425686742.676,64.319
1425686742.691,62.608246
1425686742.707,49.880524
1425686742.722,27.826141
1425686742.738,-0.54608154
1425686742.754,-31.81076
1425686742.769,-62.777344
1425686742.785,-91.06421
1425686742.801,-115.14755
1425686742.816,-134.22903
1425686742.832,-148.0412
1425686742.847,-156.76617
1425686742.863,-161.21228
1425686742.879,-162.6655
1425686742.894,-162.64761
1425686742.91,-162.63644
1425686742.926,-163.6803
1425686742.941,-166.13916
1425686742.957,-169.62988
1425686742.972,-173.25876
1425686742.988,-175.98813
1425686743.004,-177.15518
1425686743.019,-176.74652
1425686743.035,-175.51425
1425686743.051,-174.76828
1425686743.066,-175.6879
1425686743.082,-178.61792
1425686743.097,-182.6527
1425686743.113,-185.69023
1425686743.129,-185.1173
1425686743.144,-178.77504
1425686743.16,-165.68144
1425686743.176,-146.31128
1425686743.191,-122.335526
1425686743.207,-95.89172
1425686743.222,-68.80293
1425686743.238,-42.13169
1425686743.254,-16.182236
1425686743.269,9.266823
1425686743.285,34.416145
1425686743.301,59.167755
1425686743.316,82.99666
1425686743.332,105.219955
1425686743.347,125.377625
1425686743.363,143.52904
1425686743.379,160.28627
1425686743.394,176.57974
1425686743.41,193.18486
1425686743.426,210.23157
1425686743.441,226.93304
1425686743.457,241.69737
1425686743.472,252.28345
1425686743.488,256.25348
1425686743.504,251.38858
1425686743.519,236.27913
1425686743.535,210.67943
1425686743.551,175.73647
1425686743.566,134.01448
1425686743.582,89.03842
1425686743.597,44.65143
1425686743.613,4.315094
1425686743.629,-29.324371
1425686743.644,-54.64534
1425686743.66,-70.98752
1425686743.676,-78.37877
1425686743.691,-77.44385
1425686743.707,-69.29059
1425686743.722,-55.493835
1425686743.738,-37.92415
1425686743.754,-18.564178
1425686743.769,0.870636
1425686743.785,19.156708
1425686743.801,35.70813
1425686743.816,50.406464
1425686743.832,63.291626
1425686743.847,74.098755
1425686743.863,82.07831
1425686743.879,86.14926
1425686743.894,85.48819
1425686743.91,80.15628
1425686743.926,71.460266
1425686743.941,61.72284
1425686743.957,53.49289
1425686743.972,48.6315
1425686743.988,47.724365
1425686744.004,50.068726
1425686744.019,54.470367
1425686744.035,59.956665
1425686744.051,66.25287
1425686744.066,73.756226
1425686744.082,83.01434
1425686744.097,94.08597
1425686744.113,106.26434
1425686744.129,118.223175
1425686744.144,128.51672
1425686744.16,136.11731
1425686744.176,140.79791
1425686744.191,143.14719
1425686744.207,144.42102
1425686744.222,146.18616
1425686744.238,150.0055
1425686744.254,157.15298
1425686744.269,168.23972
1425686744.285,182.85043
1425686744.301,199.15381
1425686744.316,213.85217
1425686744.332,222.56445
1425686744.347,220.94406
1425686744.363,205.995
1425686744.379,177.25323
1425686744.394,137.24652
1425686744.41,90.76576
1425686744.426,43.385773
1425686744.441,-0.1871643
1425686744.457,-37.13109
1425686744.472,-66.670166
1425686744.488,-89.35399
1425686744.504,-106.20924
1425686744.519,-118.123566
1425686744.535,-125.6671
1425686744.551,-129.408
1425686744.566,-130.05818
1425686744.582,-128.53632
1425686744.597,-125.74126
1425686744.613,-122.336624
1425686744.629,-118.717926
1425686744.644,-114.994644
1425686744.66,-111.32478
1425686744.676,-107.92444
1425686744.691,-105.20341
1425686744.707,-103.64504
1425686744.722,-103.61888
1425686744.738,-105.142006
1425686744.754,-107.68831
1425686744.769,-110.10199
1425686744.785,-110.92237
1425686744.801,-108.85863
1425686744.816,-103.33256
1425686744.832,-94.75223
1425686744.847,-84.34713
1425686744.863,-73.665115
1425686744.879,-63.84831
1425686744.894,-55.238518
1425686744.91,-47.307632
1425686744.926,-39.019768
1425686744.941,-29.414738
1425686744.957,-17.938631
1425686744.972,-4.7082767
1425686744.988,9.612869
1425686745.004,23.996435
1425686745.019,37.478683
1425686745.035,49.53378
1425686745.051,60.311684
1425686745.066,70.759026
1425686745.082,82.367676
1425686745.097,96.59743
1425686745.113,114.171684
1425686745.129,134.41531
1425686745.144,155.02127
1425686745.16,172.2667
1425686745.176,181.81984
1425686745.191,179.9301
1425686745.207,164.64967
1425686745.222,136.45946
1425686745.238,98.377914
1425686745.254,55.109673
1425686745.269,11.752068
1425686745.285,-27.48555
1425686745.301,-60.083427
1425686745.316,-85.346214
1425686745.332,-103.77884
1425686745.348,-116.424095
1425686745.363,-124.25834
1425686745.379,-128.09706
1425686745.394,-128.65988
1425686745.41,-126.82284
1425686745.426,-123.57855
1425686745.441,-119.93404
1425686745.457,-116.70487
1425686745.473,-114.20106
1425686745.488,-112.23175
1425686745.504,-110.28371
1425686745.519,-107.81795
1425686745.535,-104.614746
1425686745.551,-101.03252
1425686745.566,-97.89649
1425686745.582,-96.04628
1425686745.598,-95.81821
1425686745.613,-96.6569
1425686745.629,-97.17245
1425686745.644,-95.68948
1425686745.66,-90.998924
1425686745.676,-82.95882
1425686745.691,-72.546524
1425686745.707,-61.236137
1425686745.723,-50.35623
1425686745.738,-40.441208
1425686745.754,-31.1111
1425686745.769,-21.43206
1425686745.785,-10.560524
1425686745.801,1.8613815
1425686745.816,15.460114
1425686745.832,29.349686
1425686745.848,42.494087
1425686745.863,54.16001
1425686745.879,64.1584
1425686745.894,73.03532
1425686745.91,81.835396
1425686745.926,91.91108
1425686745.941,104.58026
1425686745.957,120.60904
1425686745.973,139.89041
1425686745.988,161.00296
1425686746.004,181.11774
1425686746.019,196.29655
1425686746.035,202.34038
1425686746.051,195.9123
1425686746.066,175.68521
1425686746.082,143.04227
1425686746.098,101.755196
1425686746.113,57.00171
1425686746.129,13.867882
1425686746.144,-23.860329
1425686746.16,-54.283897
1425686746.176,-77.22209
1425686746.191,-93.47892
1425686746.207,-104.17001
1425686746.223,-110.22972
1425686746.238,-112.35138
1425686746.254,-111.149475
1425686746.269,-107.31157
1425686746.285,-101.747604
1425686746.301,-95.46088
1425686746.316,-89.42071
1425686746.332,-84.26193
1425686746.348,-80.23819
1425686746.363,-77.262375
1425686746.379,-75.14732
1425686746.394,-73.84705
1425686746.41,-73.57751
1425686746.426,-74.6301
1425686746.441,-76.95304
1425686746.457,-79.86714
1425686746.473,-82.03324
1425686746.488,-81.8575
1425686746.504,-78.16403
1425686746.519,-70.72253
1425686746.535,-60.421654
1425686746.551,-48.850815
1425686746.566,-37.58912
1425686746.582,-27.604156
1425686746.598,-18.822304
1425686746.613,-10.3771515
1425686746.629,-1.1105347
1425686746.644,9.837219
1425686746.66,22.5326
1425686746.676,36.17189
1425686746.691,49.426773
1425686746.707,61.01764
1425686746.723,70.28609
1425686746.738,77.5567
1425686746.754,84.09186
1425686746.769,91.73393
1425686746.785,102.22675
1425686746.801,116.63832
1425686746.816,134.72443
1425686746.832,154.77591
1425686746.848,173.57646
1425686746.863,186.94704
1425686746.879,190.65254
1425686746.894,181.62502
1425686746.91,158.98465
1425686746.926,124.53382
1425686746.941,82.383286
1425686746.957,37.809494
1425686746.973,-4.23526
1425686746.988,-40.234108
1425686747.004,-68.59513
1425686747.019,-89.28061
1425686747.035,-103.14087
1425686747.051,-111.19008
1425686747.066,-114.3194
1425686747.082,-113.3149
1425686747.098,-109.04988
1425686747.113,-102.60205
1425686747.129,-95.17538
1425686747.144,-87.87717
1425686747.16,-81.52146
1425686747.176,-76.45707
1425686747.191,-72.72411
1425686747.207,-70.153
1425686747.223,-68.62149
1425686747.238,-68.1549
1425686747.254,-68.86309
1425686747.269,-70.795166
1425686747.285,-73.58458
1425686747.301,-76.38577
1425686747.316,-77.94817
1425686747.332,-76.97211
1425686747.348,-72.64676
1425686747.363,-64.961365
1425686747.379,-54.841267
1425686747.394,-43.69447
1425686747.41,-32.865456
1425686747.426,-23.003338
1425686747.441,-13.899502
1425686747.457,-4.616047
1425686747.473,5.837902
1425686747.488,17.974682
1425686747.504,31.473198
1425686747.519,45.288578
1425686747.535,58.128025
1425686747.551,69.06212
1425686747.566,77.98049
1425686747.582,85.76615
1425686747.598,94.023834
1425686747.613,104.559006
1425686747.629,118.71974
1425686747.644,136.83441
1425686747.66,157.71336
1425686747.676,178.61635
1425686747.691,195.58432
1425686747.707,204.23604
1425686747.723,200.91289
1425686747.738,183.8586
1425686747.754,153.94284
1425686747.769,114.5235
1425686747.785,70.5664
1425686747.801,27.22469
1425686747.816,-11.518362
1425686747.832,-43.51827
1425686747.848,-68.40945
1425686747.863,-86.88155
1425686747.879,-99.919205
1425686747.894,-108.29544
1425686747.91,-112.53209
1425686747.926,-113.12175
1425686747.941,-110.83012
1425686747.957,-106.57549
1425686747.973,-101.38018
1425686747.988,-96.07886
1425686748.004,-91.163574
1425686748.02,-86.85988
1425686748.035,-83.17946
1425686748.051,-80.22756
1425686748.066,-78.2036
1425686748.082,-77.43686
1425686748.098,-78.13958
1425686748.113,-80.19829
1425686748.129,-83.01947
1425686748.145,-85.42812
1425686748.16,-85.97083
1425686748.176,-83.33894
1425686748.191,-76.893005
1425686748.207,-66.95124
1425686748.223,-54.744827
1425686748.238,-41.9621
1425686748.254,-30.043945
1425686748.27,-19.664757
1425686748.285,-10.508844
1425686748.301,-1.5409737
1425686748.316,8.513119
1425686748.332,20.53529
1425686748.348,34.564148
1425686748.363,49.77626
1425686748.379,64.75277
1425686748.395,78.112755
1425686748.41,88.98637
1425686748.426,97.5302
1425686748.441,104.85535
1425686748.457,112.74039
1425686748.473,123.07684
1425686748.488,137.20508
1425686748.504,155.29749
1425686748.52,175.93109
1425686748.535,196.01819
1425686748.551,211.20627
1425686748.566,216.8354
1425686748.582,209.29695
1425686748.598,187.21846
1425686748.613,152.19064
1425686748.629,108.34735
1425686748.645,61.180565
1425686748.66,15.955143
1425686748.676,-23.538656
1425686748.691,-55.49118
1425686748.707,-79.68832
1425686748.723,-96.75859
1425686748.738,-107.55512
1425686748.754,-112.89095
1425686748.77,-113.61884
1425686748.785,-110.792885
1425686748.801,-105.683624
1425686748.816,-99.57614
1425686748.832,-93.46139
1425686748.848,-87.90959
1425686748.863,-83.10792
1425686748.879,-79.08154
1425686748.895,-75.782196
1425686748.91,-73.303246
1425686748.926,-71.878075
1425686748.941,-71.77672
1425686748.957,-73.04112
1425686748.973,-75.37893
1425686748.988,-77.98981
1425686749.004,-79.732704
1425686749.02,-79.389145
1425686749.035,-76.12236
1425686749.051,-69.7509
1425686749.066,-60.84296
1425686749.082,-50.368202
1425686749.098,-39.400253
1425686749.113,-28.694294
1425686749.129,-18.46704
1425686749.145,-8.425713
1425686749.16,2.022152
1425686749.176,13.460381
1425686749.191,26.185633
1425686749.207,39.93248
1425686749.223,53.905518
1425686749.238,67.026
1425686749.254,78.384514
1425686749.27,87.79732
1425686749.285,96.007614
1425686749.301,104.6174
1425686749.316,115.57087
1425686749.332,130.35983
1425686749.348,149.27469
1425686749.363,170.89236
1425686749.379,192.0038
1425686749.395,208.12329
1425686749.41,214.56082
1425686749.426,207.70195
1425686749.441,186.09964
1425686749.457,151.14807
1425686749.473,106.758125
1425686749.488,58.3959
1425686749.504,11.569767
1425686749.52,-29.439157
1425686749.535,-62.30716
1425686749.551,-86.64608
1425686749.566,-103.391655
1425686749.582,-114.02423
1425686749.598,-119.90707
1425686749.613,-122.06096
1425686749.629,-121.246185
1425686749.645,-118.06795
1425686749.66,-113.251434
1425686749.676,-107.62496
1425686749.691,-102.04791
1425686749.707,-97.134094
1425686749.723,-93.15372
1425686749.738,-90.040665
1425686749.754,-87.60769
1425686749.77,-85.799
1425686749.785,-84.794754
1425686749.801,-84.87601
1425686749.816,-86.05858
1425686749.832,-87.781715
1425686749.848,-88.86073
1425686749.863,-87.829895
1425686749.879,-83.56381
1425686749.895,-75.80172
1425686749.91,-65.36747
1425686749.926,-53.8136
1425686749.941,-42.730392
1425686749.957,-33.092945
1425686749.973,-24.876686
1425686749.988,-17.159893
1425686750.004,-8.637117
1425686750.02,1.8139327
1425686750.035,14.567799
1425686750.051,29.137543
1425686750.066,44.32444
1425686750.082,58.65313
1425686750.098,70.98018
1425686750.113,80.9566
1425686750.129,89.20491
1425686750.145,97.20983
1425686750.16,106.90483
1425686750.176,120.03968
1425686750.191,137.50366
1425686750.207,158.71365
1425686750.223,181.2827
1425686750.238,201.16876
1425686750.254,213.41225
1425686750.27,213.46294
1425686750.285,198.58075
1425686750.301,168.90593
1425686750.316,127.53282
1425686750.332,79.68205
1425686750.348,31.11889
1425686750.363,-13.292203
1425686750.379,-50.591248
1425686750.395,-79.63936
1425686750.41,-100.653275
1425686750.426,-114.47873
1425686750.441,-122.12403
1425686750.457,-124.56957
1425686750.473,-122.85967
1425686750.488,-118.14433
1425686750.504,-111.62429
1425686750.52,-104.433075
1425686750.535,-97.48581
1425686750.551,-91.39893
1425686750.566,-86.41969
1425686750.582,-82.55137
1425686750.598,-79.64711
1425686750.613,-77.63235
1425686750.629,-76.56921
1425686750.645,-76.61284
1425686750.66,-77.73468
1425686750.676,-79.5065
1425686750.692,-80.94392
1425686750.707,-80.82534
1425686750.723,-78.07239
1425686750.738,-72.25604
1425686750.754,-63.831966
1425686750.77,-53.829548
1425686750.785,-43.45627
1425686750.801,-33.563328
1425686750.816,-24.324215
1425686750.832,-15.240824
1425686750.848,-5.4655137
1425686750.863,5.7967014
1425686750.879,18.757816
1425686750.895,32.866753
1425686750.91,46.99096
1425686750.926,59.787746
1425686750.942,70.40038
1425686750.957,78.92543
1425686750.973,86.46431
1425686750.988,94.85736
1425686751.004,106.02717
1425686751.02,121.31211
1425686751.035,140.88391
1425686751.051,163.38078
1425686751.067,185.83267
1425686751.082,203.98044
1425686751.098,213.1181
1425686751.113,209.2556
1425686751.129,190.45563
1425686751.145,157.70595
1425686751.16,114.83764
1425686751.176,67.43741
1425686751.192,21.226482
1425686751.207,-19.469515
1425686751.223,-52.46497
1425686751.238,-77.45487
1425686751.254,-95.30588
1425686751.27,-107.16971
1425686751.285,-113.93094
1425686751.301,-116.249176
1425686751.317,-114.79285
1425686751.332,-110.38284
1425686751.348,-104.13971
1425686751.363,-97.23341
1425686751.379,-90.663376
1425686751.395,-85.09896
1425686751.41,-80.77031
1425686751.426,-77.65403
1425686751.442,-75.6858
1425686751.457,-74.870804
1425686751.473,-75.32576
1425686751.488,-77.09972
1425686751.504,-79.90965
1425686751.52,-82.88656
1425686751.535,-84.77213
1425686751.551,-84.208496
1425686751.567,-80.33778
1425686751.582,-73.20946
1425686751.598,-63.76661
1425686751.613,-53.43009
1425686751.629,-43.488754
1425686751.645,-34.55401
1425686751.66,-26.318733
1425686751.676,-17.802618
1425686751.692,-7.9724813
1425686751.707,3.784957
1425686751.723,17.249939
1425686751.738,31.414738
1425686751.754,44.906563
1425686751.77,56.62755
1425686751.785,66.22172
1425686751.801,74.332016
1425686751.817,82.40269
1425686751.832,92.28322
1425686751.848,105.50878
1425686751.863,122.64613
1425686751.879,142.69275
1425686751.895,162.91068
1425686751.91,179.12375
1425686751.926,186.70416
1425686751.942,181.85896
1425686751.957,162.94215
1425686751.973,131.2152
1425686751.988,90.56968
1425686752.004,46.465164
1425686752.02,4.3212547
1425686752.035,-31.852734
1425686752.051,-60.040718
1425686752.067,-80.04222
1425686752.082,-92.68288
1425686752.098,-99.120186
1425686752.113,-100.41731
1425686752.129,-97.575096
1425686752.145,-91.66817
1425686752.16,-83.98557
1425686752.176,-75.7735
1425686752.192,-68.05821
1425686752.207,-61.40381
1425686752.223,-55.90351
1425686752.238,-51.442844
1425686752.254,-47.96463
1425686752.27,-45.568066
1425686752.285,-44.517117
1425686752.301,-44.99234
1425686752.317,-46.85053
1425686752.332,-49.490265
1425686752.348,-51.899727
1425686752.363,-52.847687
1425686752.379,-51.357544
1425686752.395,-46.9966
1425686752.41,-40.11953
1425686752.426,-31.664856
1425686752.442,-22.81033
1425686752.457,-14.394385
1425686752.473,-6.588626
1425686752.488,1.1777029
1425686752.504,9.809834
1425686752.52,20.070593
1425686752.535,32.049854
1425686752.551,45.120148
1425686752.567,58.13777
1425686752.582,69.85601
1425686752.598,79.56518
1425686752.613,87.32801
1425686752.629,94.09689
1425686752.645,101.59445
1425686752.66,111.76931
1425686752.676,126.14436
1425686752.692,144.92047
1425686752.707,166.51355
1425686752.723,187.37971
1425686752.738,202.71204
1425686752.754,207.65038
1425686752.77,198.81035
1425686752.785,175.41806
1425686752.801,139.62566
1425686752.817,95.90047
1425686752.832,49.781555
1425686752.848,6.2934837
1425686752.863,-31.068932
1425686752.879,-60.76778
1425686752.895,-82.918106
1425686752.91,-98.58087
1425686752.926,-108.992935
1425686752.942,-115.12329
1425686752.957,-117.62303
1425686752.973,-116.99403
1425686752.988,-113.88837
1425686753.004,-109.168915
1425686753.02,-103.71848
1425686753.035,-98.313736
1425686753.051,-93.36363
1425686753.067,-88.9868
1425686753.082,-85.201675
1425686753.098,-82.05884
1425686753.113,-79.81491
1425686753.129,-78.786446
1425686753.145,-79.15266
1425686753.16,-80.6438
1425686753.176,-82.45286
1425686753.192,-83.378555
1425686753.207,-82.15965
1425686753.223,-78.00949
1425686753.238,-70.92148
1425686753.254,-61.695244
1425686753.27,-51.503983
1425686753.285,-41.324913
1425686753.301,-31.41301
1425686753.317,-21.273842
1425686753.332,-9.978767
1425686753.348,3.1357193
1425686753.363,17.954842
1425686753.379,33.507477
1425686753.395,48.39247
1425686753.41,61.42502
1425686753.426,72.26706
1425686753.442,81.576454
1425686753.457,90.788574
1425686753.473,101.73174
1425686753.488,115.98376
1425686753.504,134.30331
1425686753.52,156.11151
1425686753.535,179.1254
1425686753.551,199.42438
1425686753.567,212.14185
1425686753.582,212.71066
1425686753.598,198.3136
1425686753.614,168.96527
1425686753.629,127.74123
1425686753.645,79.92809
1425686753.66,31.517418
1425686753.676,-12.444084
1425686753.692,-48.906906
1425686753.707,-76.98882
1425686753.723,-97.34553
1425686753.739,-111.21922
1425686753.754,-119.78669
1425686753.77,-123.838806
1425686753.785,-123.94925
1425686753.801,-120.87201
1425686753.817,-115.615036
1425686753.832,-109.34479
1425686753.848,-103.10571
1425686753.864,-97.5421
1425686753.879,-92.83601
1425686753.895,-88.88791
1425686753.91,-85.66951
1425686753.926,-83.35332
1425686753.942,-82.186584
1425686753.957,-82.25862
1425686753.973,-83.15007
1425686753.989,-83.918655
1425686754.004,-83.42474
1425686754.02,-80.71278
1425686754.035,-75.448975
1425686754.051,-68.01869
1425686754.067,-59.227753
1425686754.082,-49.90718
1425686754.098,-40.49063
1425686754.114,-30.864517
1425686754.129,-20.52739
1425686754.145,-9.001419
1425686754.16,3.8778229
1425686754.176,17.726028
1425686754.192,31.785782
1425686754.207,45.224792
1425686754.223,57.448578
1425686754.239,68.418304
1425686754.254,78.66586
1425686754.27,89.18999
1425686754.285,101.29155
1425686754.301,116.13028
1425686754.317,134.23965
1425686754.332,154.976
1425686754.348,176.08942
1425686754.364,193.74594
1425686754.379,203.24532
1425686754.395,200.30891
1425686754.41,182.60605
1425686754.426,150.71912
1425686754.442,108.22272
1425686754.457,60.613144
1425686754.473,13.681992
1425686754.489,-28.03775
1425686754.504,-62.11383
1425686754.52,-88.13257
1425686754.535,-107.00314
1425686754.551,-120.05376
1425686754.567,-128.38374
1425686754.582,-132.6751
1425686754.598,-133.39041
1425686754.614,-131.0671
1425686754.629,-126.53334
1425686754.645,-120.93434
1425686754.66,-115.51546
1425686754.676,-111.34065
1425686754.692,-109.06917
1425686754.707,-108.87337
1425686754.723,-110.59917
1425686754.739,-113.92259
1425686754.754,-118.462326
1425686754.77,-123.7717
1425686754.785,-129.29227
1425686754.801,-134.30106
1425686754.817,-138.08801
1425686754.832,-140.25313
1425686754.848,-140.8266
1425686754.864,-140.28238
1425686754.879,-139.16205
1425686754.895,-137.68167
1425686754.91,-135.54382
1425686754.926,-132.02213
1425686754.942,-126.34582
1425686754.957,-118.00676
1425686754.973,-106.86604
1425686754.989,-92.986244
1425686755.004,-76.425674
1425686755.02,-57.10314
1425686755.035,-34.809464
1425686755.051,-9.307632
1425686755.067,19.635231
1425686755.082,52.396355
1425686755.098,89.240326
1425686755.114,129.93755
1425686755.129,172.96373
1425686755.145,215.04306
1425686755.16,251.28366
1425686755.176,276.19604
1425686755.192,285.40674
1425686755.207,277.17075
1425686755.223,253.18767
1425686755.239,218.06425
1425686755.254,177.9114
1425686755.27,138.58461
1425686755.285,104.18183
1425686755.301,76.59191
1425686755.317,55.727104
1425686755.332,40.47358
1425686755.348,29.597479
1425686755.364,22.338238
1425686755.379,18.392431
1425686755.395,17.624678
1425686755.41,19.518637
1425686755.426,22.999023
1425686755.442,26.599905
1425686755.457,28.893898
1425686755.473,28.963383
1425686755.489,26.665878
1425686755.504,22.47034
1425686755.52,17.113914
1425686755.535,11.287884
1425686755.551,5.4625244
1425686755.567,-0.061836243
1425686755.582,-5.003422
1425686755.598,-9.02668
1425686755.614,-11.743011
1425686755.629,-12.877798
1425686755.645,-12.277714
1425686755.66,-9.942181
1425686755.676,-5.925047
1425686755.692,-0.31113434
1425686755.707,6.733118
1425686755.723,14.9837
1425686755.739,24.02243
1425686755.754,33.35058
1425686755.77,42.50507
1425686755.785,51.20844
1425686755.801,59.5405
1425686755.817,67.96615
1425686755.832,77.410645
1425686755.848,89.01821
1425686755.864,103.87325
1425686755.879,122.30729
1425686755.895,143.3649
1425686755.91,164.40535
1425686755.926,181.29565
1425686755.942,189.35352
1425686755.957,184.68808
1425686755.973,165.57329
1425686755.989,133.13121
1425686756.004,91.150955
1425686756.02,44.958603
1425686756.035,-0.06758118
1425686756.051,-39.86972
1425686756.067,-72.25086
1425686756.082,-96.7851
1425686756.098,-114.10748
1425686756.114,-125.1521
1425686756.129,-130.67192
1425686756.145,-131.19876
1425686756.16,-127.3347
1425686756.176,-119.9892
1425686756.192,-110.46643
1425686756.207,-100.25171
1425686756.223,-90.655014
1425686756.239,-82.45949
1425686756.254,-75.88753
1425686756.27,-70.69377
1425686756.286,-66.47748
1425686756.301,-62.91646
1425686756.317,-59.860992
1425686756.332,-57.32692
1425686756.348,-55.27951
1425686756.364,-53.51149
1425686756.379,-51.572815
1425686756.395,-48.765045
1425686756.411,-44.36299
1425686756.426,-37.7827
1425686756.442,-28.81668
1425686756.457,-17.734818
1425686756.473,-5.2259216
1425686756.489,7.7657166
1425686756.504,20.268097
1425686756.52,31.512878
1425686756.536,41.201324
1425686756.551,49.536346
1425686756.567,57.32199
1425686756.582,65.83835
1425686756.598,76.48578
1425686756.614,90.31308
1425686756.629,107.3522
1425686756.645,126.15442
1425686756.661,143.69885
1425686756.676,155.85477
1425686756.692,158.47366
1425686756.707,148.62115
1425686756.723,125.6243
1425686756.739,91.34311
1425686756.754,49.778625
1425686756.77,5.949707
1425686756.786,-35.47171
1425686756.801,-71.1012
1425686756.817,-99.27753
1425686756.832,-119.83295
1425686756.848,-133.48611
1425686756.864,-141.15936
1425686756.879,-143.72278
1425686756.895,-141.91379
1425686756.911,-136.5235
1425686756.926,-128.53851
1425686756.942,-119.09546
1425686756.957,-109.34946
1425686756.973,-100.26959
1425686756.989,-92.50806
1425686757.004,-86.39981
1425686757.02,-81.99014
1425686757.036,-79.13071
1425686757.051,-77.500275
1425686757.067,-76.696014
1425686757.082,-76.28381
1425686757.098,-75.76453
1425686757.114,-74.71353
1425686757.129,-72.73828
1425686757.145,-69.521515
1425686757.161,-64.875824
1425686757.176,-58.742157
1425686757.192,-51.174316
1425686757.207,-42.34494
1425686757.223,-32.388092
1425686757.239,-21.433777
1425686757.254,-9.620758
1425686757.27,2.8351135
1425686757.286,15.529724
1425686757.301,27.939209
1425686757.317,39.563416
1425686757.332,50.256134
1425686757.348,60.277344
1425686757.364,70.44583
1425686757.379,81.86609
1425686757.395,95.6142
1425686757.411,112.21063
1425686757.426,131.07156
1425686757.442,150.16226
1425686757.457,166.00711
1425686757.473,174.3753
1425686757.489,171.5354
1425686757.504,155.51129
1425686757.52,127.00867
1425686757.536,89.24844
1425686757.551,47.032684
1425686757.567,5.229431
1425686757.582,-32.42758
1425686757.598,-63.88202
1425686757.614,-88.54297
1425686757.629,-106.63049
1425686757.645,-118.547424
1425686757.661,-124.66019
1425686757.676,-125.37509
1425686757.692,-121.35672
1425686757.707,-113.57938
1425686757.723,-103.28787
1425686757.739,-91.77951
1425686757.754,-80.21918
1425686757.77,-69.59012
1425686757.786,-60.61789
1425686757.801,-53.803253
1425686757.817,-49.423615
1425686757.832,-47.489563
1425686757.848,-47.751953
1425686757.864,-49.619263
1425686757.879,-52.20523
1425686757.895,-54.456726
1425686757.911,-55.444275
1425686757.926,-54.569244
1425686757.942,-51.70404
1425686757.957,-47.13739
1425686757.973,-41.31778
1425686757.989,-34.56711
1425686758.004,-26.926117
1425686758.02,-18.182526
1425686758.036,-8.08725
1425686758.051,3.3817444
1425686758.067,15.916962
1425686758.082,28.908112
1425686758.098,41.62503
1425686758.114,53.43875
1425686758.129,64.04205
1425686758.145,73.543
1425686758.161,82.58264
1425686758.176,92.28824
1425686758.192,103.96942
1425686758.207,118.61862
1425686758.223,136.21146
1425686758.239,155.12848
1425686758.254,172.10876
1425686758.27,182.86111
1425686758.286,183.25787
1425686758.301,170.79584
1425686758.317,145.53143
1425686758.332,110.211334
1425686758.348,69.46765
1425686758.364,28.419403
1425686758.379,-8.684479
1425686758.395,-39.28723
1425686758.411,-62.627777
1425686758.426,-79.2287
1425686758.442,-90.12805
1425686758.457,-96.31543
1425686758.473,-98.60718
1425686758.489,-97.67572
1425686758.504,-94.32828
1425686758.52,-89.5278
1425686758.536,-84.3266
1425686758.551,-79.604645
1425686758.567,-75.89285
1425686758.582,-73.33719
1425686758.598,-71.82431
1425686758.614,-71.24774
1425686758.629,-71.57785
1425686758.645,-72.86655
1425686758.661,-75.07736
1425686758.676,-77.8587
1425686758.692,-80.4946
1425686758.707,-82.007355
1425686758.723,-81.47958
1425686758.739,-78.3873
1425686758.754,-72.82938
1425686758.77,-65.43439
1425686758.786,-57.15158
1425686758.801,-48.731995
1425686758.817,-40.43857
1425686758.832,-32.012695
1425686758.848,-22.941895
1425686758.864,-12.875763
1425686758.879,-1.980133
1425686758.895,9.071564
1425686758.911,19.38861
1425686758.926,28.264465
1425686758.942,35.54413
1425686758.958,41.735016
1425686758.973,47.895233
1425686758.989,55.30368
1425686759.004,65.073364
1425686759.02,77.70166
1425686759.036,92.546936
1425686759.051,107.500275
1425686759.067,119.11569
1425686759.083,123.30844
1425686759.098,116.570496
1425686759.114,97.24994
1425686759.129,66.32538
1425686759.145,27.291992
1425686759.161,-14.822662
1425686759.176,-54.882385
1425686759.192,-88.8862
1425686759.208,-114.581604
1425686759.223,-131.43341
1425686759.239,-140.06989
1425686759.254,-141.68036
1425686759.27,-137.50189
1425686759.286,-128.69669
1425686759.301,-116.355835
1425686759.317,-101.6102
1425686759.333,-85.70276
1425686759.348,-69.924255
1425686759.364,-55.430267
1425686759.379,-42.996826
1425686759.395,-32.888184
1425686759.411,-24.957214
1425686759.426,-18.874542
1425686759.442,-14.444595
1425686759.458,-11.693344
1425686759.473,-10.612778
1425686759.489,-10.919556
1425686759.504,-11.799667
1425686759.52,-11.995728
1425686759.536,-10.280426
1425686759.551,-5.9027557
1425686759.567,1.0311127
1425686759.583,9.709961
1425686759.598,18.988632
1425686759.614,27.88292
1425686759.629,35.945084
1425686759.645,43.282394
1425686759.661,50.358414
1425686759.676,57.56723
1425686759.692,65.03676
1425686759.708,72.4995
1425686759.723,79.41835
1425686759.739,85.28392
1425686759.754,89.89412
1425686759.77,93.56517
1425686759.786,97.14801
1425686759.801,101.879974
1425686759.817,109.024796
1425686759.833,119.45567
1425686759.848,133.13327
1425686759.864,148.59927
1425686759.879,162.90863
1425686759.895,172.05061
1425686759.911,171.9346
1425686759.926,159.70456
1425686759.942,134.84035
1425686759.958,99.51332
1425686759.973,58.01056
1425686759.989,15.456177
1425686760.004,-23.695267
1425686760.02,-56.52427
1425686760.036,-81.95674
1425686760.051,-100.262146
1425686760.067,-112.33965
1425686760.083,-119.148
1425686760.098,-121.411354
1425686760.114,-119.74111
1425686760.129,-114.76863
1425686760.145,-107.30001
1425686760.161,-98.32272
1425686760.176,-88.90309
1425686760.192,-80.03012
1425686760.208,-72.368546
1425686760.223,-66.222824
1425686760.239,-61.575455
1425686760.254,-58.25888
1425686760.27,-56.16568
1425686760.286,-55.277634
1425686760.301,-55.535896
1425686760.317,-56.600517
1425686760.333,-57.680794
1425686760.348,-57.68828
1425686760.364,-55.599205
1425686760.379,-50.901184
1425686760.395,-43.86902
1425686760.411,-35.433258
1425686760.426,-26.67234
1425686760.442,-18.330559
1425686760.458,-10.482491
1425686760.473,-2.5267982
1425686760.489,6.4151115
1425686760.504,16.96291
1425686760.52,29.233826
1425686760.536,42.673603
1425686760.551,56.34417
1425686760.567,69.29622
1425686760.583,80.98718
1425686760.598,91.51355
1425686760.614,101.63312
1425686760.629,112.5329
1425686760.645,125.49347
1425686760.661,141.396
1425686760.676,160.13113
1425686760.692,180.15735
1425686760.708,198.44067
1425686760.723,210.8823
1425686760.739,213.35587
1425686760.754,203.02731
1425686760.77,179.41368
1425686760.786,144.7551
1425686760.801,103.43501
1425686760.817,60.673187
1425686760.833,21.056908
1425686760.848,-12.440586
1425686760.864,-38.7891
1425686760.879,-58.350166
1425686760.895,-72.068405
1425686760.911,-80.922745
1425686760.926,-85.63536
1425686760.942,-86.787186
1425686760.958,-85.08441
1425686760.973,-81.45929
1425686760.989,-76.933495
1425686761.004,-72.53435
1425686761.02,-68.967545
1425686761.036,-66.62907
1425686761.051,-65.69065
1425686761.067,-66.260284
1425686761.083,-68.4401
1425686761.098,-72.40952
1425686761.114,-78.185555
1425686761.129,-85.45009
1425686761.145,-93.354034
1425686761.161,-100.51517
1425686761.176,-105.36835
1425686761.192,-106.65042
1425686761.208,-103.91647
1425686761.223,-97.66823
1425686761.239,-89.20038
1425686761.254,-79.97098
1425686761.27,-70.953415
1425686761.286,-62.29951
1425686761.301,-53.383125
1425686761.317,-43.280556
1425686761.333,-31.307072
1425686761.348,-17.454067
1425686761.364,-2.424694
1425686761.379,12.646587
1425686761.395,26.680584
1425686761.411,39.096798
1425686761.426,50.04783
1425686761.442,60.44451
1425686761.458,71.73627
1425686761.473,85.41497
1425686761.489,102.565216
1425686761.504,123.17338
1425686761.52,145.6823
1425686761.536,166.9912
1425686761.551,182.85907
1425686761.567,188.94524
1425686761.583,182.19266
1425686761.598,161.84222
1425686761.614,129.87914
1425686761.63,90.42238
1425686761.645,48.566875
1425686761.661,8.816336
1425686761.676,-25.825453
1425686761.692,-54.111813
1425686761.708,-76.06954
1425686761.723,-92.16703
1425686761.739,-102.77344
1425686761.754,-108.120895
1425686761.77,-108.5471
1425686761.786,-104.86938
1425686761.801,-98.41653
1425686761.817,-90.7992
1425686761.833,-83.377075
1425686761.848,-76.98043
1425686761.864,-71.83957
1425686761.88,-67.79194
1425686761.895,-64.66271
1425686761.911,-62.47814
1425686761.926,-61.41371
1425686761.942,-61.647896
1425686761.958,-62.989235
1425686761.973,-64.79346
1425686761.989,-65.97922
1425686762.005,-65.36709
1425686762.02,-62.100418
1425686762.036,-55.908516
1425686762.051,-47.259727
1425686762.067,-37.08584
1425686762.083,-26.367962
1425686762.098,-15.7331505
1425686762.114,-5.2224655
1425686762.13,5.599758
1425686762.145,17.32404
1425686762.161,30.270325
1425686762.176,44.25932
1425686762.192,58.600807
1425686762.208,72.374725
1425686762.223,84.73279
1425686762.239,95.26563
1425686762.255,104.155396
1425686762.27,112.23865
1425686762.286,120.85913
1425686762.301,131.56822
1425686762.317,145.54979
1425686762.333,162.92511
1425686762.348,182.20251
1425686762.364,200.0914
1425686762.38,212.1074
1425686762.395,213.72739
1425686762.411,201.84402
1425686762.426,175.8842
1425686762.442,138.0442
1425686762.458,92.67503
1425686762.473,44.914185
1425686762.489,-0.60697174
1425686762.505,-40.748386
1425686762.52,-74.03848
1425686762.536,-100.26148
1425686762.551,-119.826416
1425686762.567,-133.28008
1425686762.583,-141.18474
1425686762.598,-144.15503
1425686762.614,-143.15454
1425686762.63,-139.50023
1425686762.645,-134.71254
1425686762.661,-130.08846
1425686762.676,-126.35233
1425686762.692,-123.60149
1425686762.708,-121.4113
1425686762.723,-119.29465
1425686762.739,-117.04774
1425686762.755,-114.90731
1425686762.77,-113.295746
1425686762.786,-112.48711
1425686762.801,-112.241936
1425686762.817,-111.72906
1425686762.833,-109.763794
1425686762.848,-105.20409
1425686762.864,-97.43425
1425686762.88,-86.61149
1425686762.895,-73.69464
1425686762.911,-60.05822
1425686762.926,-47.06108
1425686762.942,-35.4963
1425686762.958,-25.315445
1425686762.973,-15.722588
1425686762.989,-5.5415497
1425686763.005,6.1684113
1425686763.02,19.760376
1425686763.036,34.79026
1425686763.051,50.26664
1425686763.067,65.0651
1425686763.083,78.349266
1425686763.098,89.90654
1425686763.114,100.236855
1425686763.13,110.51225
1425686763.145,122.317444
1425686763.161,137.08057
1425686763.176,155.42036
1425686763.192,176.39993
1425686763.208,197.23355
1425686763.223,213.62628
1425686763.239,220.85892
1425686763.255,215.20074
1425686763.27,195.21513
1425686763.286,162.31122
1425686763.301,120.38382
1425686763.317,74.61061
1425686763.333,30.088364
1425686763.348,-9.305069
1425686763.364,-41.402054
1425686763.38,-65.561356
1425686763.395,-82.174545
1425686763.411,-92.03273
1425686763.426,-96.04498
1425686763.442,-95.133545
1425686763.458,-90.370056
1425686763.473,-82.97832
1425686763.489,-74.31824
1425686763.505,-65.67821
1425686763.52,-58.00316
1425686763.536,-51.793427
1425686763.551,-47.11551
1425686763.567,-43.853775
1425686763.583,-41.92685
1425686763.598,-41.37393
1425686763.614,-42.346786
1425686763.63,-44.834625
1425686763.645,-48.384445
1425686763.661,-52.043777
1425686763.676,-54.539337
1425686763.692,-54.669754
1425686763.708,-51.769257
1425686763.723,-45.95317
1425686763.739,-38.058563
1425686763.755,-29.208542
1425686763.77,-20.255325
1425686763.786,-11.449799
1425686763.801,-2.3572693
1425686763.817,7.7510834
1425686763.833,19.383118
1425686763.848,32.46762
1425686763.864,46.28305
1425686763.88,59.77144
1425686763.895,72.01871
1425686763.911,82.649994
1425686763.926,92.03015
1425686763.942,101.21678
1425686763.958,111.640945
1425686763.973,124.759415
1425686763.989,141.40262
1425686764.005,161.12125
1425686764.02,181.82089
1425686764.036,199.75264
1425686764.051,210.33827
1425686764.067,209.41153
1425686764.083,194.69939
1425686764.098,166.64935
1425686764.114,128.38354
1425686764.13,84.79135
1425686764.145,41.03737
1425686764.161,1.3474579
1425686764.176,-31.66307
1425686764.192,-56.988403
1425686764.208,-74.7484
1425686764.223,-85.60037
1425686764.239,-90.42744
1425686764.255,-90.20187
1425686764.27,-86.01811
1425686764.286,-79.16052
1425686764.301,-70.98438
1425686764.317,-62.697502
1425686764.333,-55.176704
1425686764.348,-48.88005
1425686764.364,-43.887627
1425686764.38,-40.160637
1425686764.395,-37.71209
1425686764.411,-36.718193
1425686764.426,-37.42238
1425686764.442,-39.875877
1425686764.458,-43.70069
1425686764.473,-48.079323
1425686764.489,-51.855267
1425686764.505,-53.971703
1425686764.52,-53.695065
1425686764.536,-50.913837
1425686764.552,-45.97515
1425686764.567,-39.606224
1425686764.583,-32.470142
1425686764.598,-24.973656
1425686764.614,-17.18205
1425686764.63,-8.85726
1425686764.645,0.30146027
1425686764.661,10.37498
1425686764.677,21.10878
1425686764.692,31.95192
1425686764.708,42.184258
1425686764.723,51.28383
1425686764.739,59.21082
1425686764.755,66.4721
1425686764.77,74.159805
1425686764.786,83.71866
1425686764.802,96.397705
1425686764.817,112.64992
1425686764.833,131.5988
1425686764.848,150.73686
1425686764.864,166.19783
1425686764.88,173.6052
1425686764.895,169.35457
1425686764.911,151.83781
1425686764.927,122.08346
1425686764.942,83.45153
1425686764.958,40.598976
1425686764.973,-1.7947769
1425686764.989,-40.15239
1425686765.005,-72.447784
1425686765.02,-97.96597
1425686765.036,-116.80841
1425686765.052,-129.39543
1425686765.067,-136.21869
1425686765.083,-137.86572
1425686765.098,-135.1383
1425686765.114,-129.0918
1425686765.13,-120.958374
1425686765.145,-111.991196
1425686765.161,-103.26996
1425686765.177,-95.58606
1425686765.192,-89.37042
1425686765.208,-84.7896
1425686765.223,-81.8714
1425686765.239,-80.55618
1425686765.255,-80.78142
1425686765.27,-82.29532
1425686765.286,-84.528885
1425686765.302,-86.510544
1425686765.317,-87.054596
1425686765.333,-85.13583
1425686765.348,-80.33731
1425686765.364,-72.99968
1425686765.38,-64.15062
1425686765.395,-54.958572
1425686765.411,-46.25064
1425686765.427,-38.152603
1425686765.442,-30.106018
1425686765.458,-21.281158
1425686765.473,-10.94075
1425686765.489,1.1736145
1425686765.505,14.748077
1425686765.52,29.017319
1425686765.536,43.054947
1425686765.552,56.060715
1425686765.567,67.69841
1425686765.583,78.37024
1425686765.598,89.185104
1425686765.614,101.69542
1425686765.63,117.21532
1425686765.645,136.02478
1425686765.661,156.72256
1425686765.677,176.06181
1425686765.692,189.54301
1425686765.708,192.69077
1425686765.723,182.46635
1425686765.739,158.37013
1425686765.755,122.66022
1425686765.77,79.72313
1425686765.786,34.713028
1425686765.802,-7.7487793
1425686765.817,-44.50502
1425686765.833,-74.04787
1425686765.848,-96.19563
1425686765.864,-111.41951
1425686765.88,-120.4444
1425686765.895,-124.07306
1425686765.911,-123.27153
1425686765.927,-119.19989
1425686765.942,-113.170654
1425686765.958,-106.356384
1425686765.973,-99.62712
1425686765.989,-93.37485
1425686766.005,-87.6615
1425686766.02,-82.43991
1425686766.036,-77.817444
1425686766.052,-74.13672
1425686766.067,-71.87506
1425686766.083,-71.38306
1425686766.098,-72.57207
1425686766.114,-74.81848
1425686766.13,-77.00499
1425686766.145,-77.86522
1425686766.161,-76.43906
1425686766.177,-72.394196
1425686766.192,-66.091995
1425686766.208,-58.35765
1425686766.223,-50.02893
1425686766.239,-41.520294
1425686766.255,-32.66771
1425686766.27,-22.830933
1425686766.286,-11.44223
1425686766.302,1.6680756
1425686766.317,15.962326
1425686766.333,30.39708
1425686766.348,43.764053
1425686766.364,55.18721
1425686766.38,64.46721
1425686766.395,72.199326
1425686766.411,79.60823
1425686766.427,88.2397
1425686766.442,99.44885
1425686766.458,113.871735
1425686766.473,130.89047
1425686766.489,148.41331
1425686766.505,163.03708
1425686766.52,170.76942
1425686766.536,168.21078
1425686766.552,153.60208
1425686766.567,127.48929
1425686766.583,92.64456
1425686766.598,53.244766
1425686766.614,13.699783
1425686766.63,-22.446838
1425686766.645,-53.07277
1425686766.661,-77.45918
1425686766.677,-95.79605
1425686766.692,-108.59892
1425686766.708,-116.32265
1425686766.723,-119.38144
1425686766.739,-118.276215
1425686766.755,-113.88193
1425686766.77,-107.295715
1425686766.786,-99.741776
1425686766.802,-92.22983
1425686766.817,-85.336334
1425686766.833,-79.28395
1425686766.848,-74.11545
1425686766.864,-69.94891
1425686766.88,-67.06285
1425686766.895,-65.680984
1425686766.911,-65.78696
1425686766.927,-66.86096
1425686766.942,-67.88736
1425686766.958,-67.631775
1425686766.973,-64.990326
1425686766.989,-59.374527
1425686767.005,-50.96913
1425686767.02,-40.642258
1425686767.036,-29.56485
1425686767.052,-18.719223
1425686767.067,-8.518997
1425686767.083,1.328598
1425686767.098,11.522202
1425686767.114,22.678268
1425686767.13,34.933777
1425686767.145,47.862656
1425686767.161,60.66194
1425686767.177,72.59184
1425686767.192,83.311554
1425686767.208,93.01337
1425686767.224,102.382355
1425686767.239,112.44176
1425686767.255,124.245255
1425686767.27,138.61989
1425686767.286,155.62431
1425686767.302,174.0313
1425686767.317,191.04503
1425686767.333,202.6776
1425686767.349,204.76717
1425686767.364,194.29306
1425686767.38,170.4616
1425686767.395,135.03822
1425686767.411,91.8033
1425686767.427,45.388824
1425686767.442,0.13919067
1425686767.458,-40.714783
1425686767.474,-75.32347
1425686767.489,-103.030365
1425686767.505,-123.95952
1425686767.52,-138.64017
1425686767.536,-147.6968
1425686767.552,-151.7375
1425686767.567,-151.46875
1425686767.583,-147.87822
1425686767.599,-142.17119
1425686767.614,-135.7037
1425686767.63,-129.59686
1425686767.645,-124.32521
1425686767.661,-119.760895
1425686767.677,-115.41666
1425686767.692,-110.94084
1425686767.708,-106.39137
1425686767.724,-102.14606
1425686767.739,-98.47543
1425686767.755,-95.22499
1425686767.77,-91.6741
1425686767.786,-86.914764
1425686767.802,-80.337296
1425686767.817,-72.005585
1425686767.833,-62.561096
1425686767.849,-52.836777
1425686767.864,-43.331085
1425686767.88,-33.928375
1425686767.895,-24.034164
1425686767.911,-12.821014
1425686767.927,0.26860046
1425686767.942,15.233322
1425686767.958,31.493073
1425686767.974,48.031494
1425686767.989,63.735657
1425686768.005,77.77284
1425686768.02,89.89291
1425686768.036,100.5578
1425686768.052,110.91925
1425686768.067,122.50993
1425686768.083,136.69244
1425686768.099,154.05383
1425686768.114,173.72614
1425686768.13,193.068
1425686768.145,207.96948
1425686768.161,213.91843
1425686768.177,207.3497
1425686768.192,187.02322
1425686768.208,154.58173
1425686768.224,114.09031
1425686768.239,70.821526
1425686768.255,29.647263
1425686768.27,-6.005066
1425686768.286,-34.540573
1425686768.302,-55.83628
1425686768.317,-70.55169
1425686768.333,-79.51837
1425686768.349,-83.517105
1425686768.364,-83.32279
1425686768.38,-79.85143
1425686768.395,-74.1832
1425686768.411,-67.446625
1425686768.427,-60.60238
1425686768.442,-54.281616
1425686768.458,-48.79161
1425686768.474,-44.23883
1425686768.489,-40.70172
1425686768.505,-38.358612
1425686768.52,-37.475
1425686768.536,-38.23635
1425686768.552,-40.49478
1425686768.567,-43.626724
1425686768.583,-46.523895
1425686768.599,-47.933403
1425686768.614,-46.79931
1425686768.63,-42.72503
1425686768.645,-36.048935
1425686768.661,-27.635536
1425686768.677,-18.473106
1425686768.692,-9.229813
1425686768.708,-0.07206726
1425686768.724,9.258774
1425686768.739,19.116623
1425686768.755,29.586823
1425686768.77,40.347427
1425686768.786,50.73423
1425686768.802,60.11457
1425686768.817,68.182816
1425686768.833,75.220856
1425686768.849,82.06347
1425686768.864,90.003494
1425686768.88,100.391235
1425686768.895,114.172356
1425686768.911,131.36751
1425686768.927,150.56926
1425686768.942,168.78574
1425686768.958,181.9122
1425686768.974,185.67633
1425686768.989,176.9639
1425686769.005,154.89555
1425686769.02,121.28288
1425686769.036,80.13796
1425686769.052,36.48404
1425686769.067,-5.0260925
1425686769.083,-41.178177
1425686769.099,-70.52055
1425686769.114,-93.02594
1425686769.13,-109.40347
1425686769.145,-120.41951
1425686769.161,-126.656815
1425686769.177,-128.62747
1425686769.192,-126.97461
1425686769.208,-122.63452
1425686769.224,-116.7928
1425686769.239,-110.56856
1425686769.255,-104.8651
1425686769.27,-100.181854
1425686769.286,-96.70863
1425686769.302,-94.49162
1425686769.317,-93.44858
1425686769.333,-93.40788
1425686769.349,-93.998886
1425686769.364,-94.587555
1425686769.38,-94.36444
1425686769.395,-92.50037
1425686769.411,-88.3669
1425686769.427,-81.71805
1425686769.442,-72.80191
1425686769.458,-62.274628
1425686769.474,-51.00856
1425686769.489,-39.73561
1425686769.505,-28.78061
1425686769.52,-17.883423
1425686769.536,-6.4312897
1425686769.552,6.23114
1425686769.567,20.269485
1425686769.583,35.119354
1425686769.599,49.730774
1425686769.614,62.943832
1425686769.63,74.08377
1425686769.645,83.29443
1425686769.661,91.55525
1425686769.677,100.35422
1425686769.692,111.24602
1425686769.708,125.43729
1425686769.724,143.27371
1425686769.739,163.88463
1425686769.755,184.85658
1425686769.77,202.40855
1425686769.786,212.07602
1425686769.802,209.86674
1425686769.817,193.61232
1425686769.833,163.8487
1425686769.849,123.79851
1425686769.864,78.511765
1425686769.88,33.3629
1425686769.896,-7.3236694
1425686769.911,-41.106155
1425686769.927,-67.4075
1425686769.942,-86.89339
1425686769.958,-100.65033
1425686769.974,-109.53151
1425686769.989,-114.036224
1425686770.005,-114.48505
1425686770.021,-111.32959
1425686770.036,-105.396835
1425686770.052,-97.8499
1425686770.067,-89.88533
1425686770.083,-82.45358
1425686770.099,-76.11061
1425686770.114,-71.06836
1425686770.13,-67.40466
1425686770.146,-65.233795
1425686770.161,-64.70242
1425686770.177,-65.785
1425686770.192,-68.08954
1425686770.208,-70.7896
1425686770.224,-72.76926
1425686770.239,-73.045135
1425686770.255,-71.09195
1425686770.271,-66.967834
1425686770.286,-61.187363
1425686770.302,-54.357513
1425686770.317,-46.836044
1425686770.333,-38.545944
1425686770.349,-29.061935
1425686770.364,-17.983612
1425686770.38,-5.3138275
1425686770.396,8.385147
1425686770.411,22.049774
1425686770.427,34.523575
1425686770.442,45.009125
1425686770.458,53.464127
1425686770.474,60.648636
1425686770.489,67.930695
1425686770.505,76.885345
1425686770.521,88.7453
1425686770.536,103.82855
1425686770.552,121.02942
1425686770.567,137.62112
1425686770.583,149.5825
1425686770.599,152.53789
1425686770.614,143.02737
1425686770.63,119.79819
1425686770.646,84.39668
1425686770.661,40.80983
1425686770.677,-5.731476
1425686770.692,-50.328598
1425686770.708,-89.56114
1425686770.724,-121.867676
1425686770.739,-147.11156
1425686770.755,-165.82259
1425686770.771,-178.53528
1425686770.786,-185.6645
1425686770.802,-187.63995
1425686770.817,-185.26662
1425686770.833,-179.789
1425686770.849,-172.74588
1425686770.864,-165.64272
1425686770.88,-159.64417
1425686770.896,-155.38374
1425686770.911,-152.96428
1425686770.927,-152.05862
1425686770.942,-152.10248
1425686770.958,-152.39412
1425686770.974,-152.19182
1425686770.989,-150.7233
1425686771.005,-147.21756
1425686771.021,-140.89395
1425686771.036,-131.09033
1425686771.052,-117.36502
1425686771.067,-99.639595
1425686771.083,-78.232216
1425686771.099,-53.818542
1425686771.114,-27.284538
1425686771.13,0.46272278
1425686771.146,28.559784
1425686771.161,56.325653
1425686771.177,83.16678
1425686771.192,108.61084
1425686771.208,132.25804
1425686771.224,153.82027
1425686771.239,173.1868
1425686771.255,190.52051
1425686771.271,206.38469
1425686771.286,221.8418
1425686771.302,238.31218
1425686771.317,257.11124
1425686771.333,278.71732
1425686771.349,302.04364
1425686771.364,324.0586
1425686771.38,340.21933
1425686771.396,345.7032
1425686771.411,336.92322
1425686771.427,312.84964
1425686771.442,275.42783
1425686771.458,229.02406
1425686771.474,179.13354
1425686771.489,130.82925
1425686771.505,87.60542
1425686771.521,51.019146
1425686771.536,21.017113
1425686771.552,-3.3028712
1425686771.567,-22.942324
1425686771.583,-38.44839
1425686771.599,-49.901955
1425686771.614,-57.20234
1425686771.63,-60.35209
1425686771.646,-59.79827
1425686771.661,-56.333694
1425686771.677,-51.10866
1425686771.692,-45.294678
1425686771.708,-39.98298
1425686771.724,-36.110027
1425686771.739,-34.3143
1425686771.755,-34.90376
1425686771.771,-37.718155
1425686771.786,-42.117294
1425686771.802,-47.059822
1425686771.817,-51.42479
1425686771.833,-54.3182
1425686771.849,-55.16516
1425686771.864,-53.814476
1425686771.88,-50.346527
1425686771.896,-44.86921
1425686771.911,-37.43505
1425686771.927,-28.067963
1425686771.942,-16.89386
1425686771.958,-4.2700806
1425686771.974,9.177551
1425686771.989,22.758484
1425686772.005,35.798172
1425686772.021,47.87117
1425686772.036,58.8806
1425686772.052,69.161285
1425686772.067,79.38049
1425686772.083,90.492294
1425686772.099,103.479996
1425686772.114,118.820404
1425686772.13,135.97386
1425686772.146,152.94579
1425686772.161,166.46005
1425686772.177,172.59027
1425686772.192,167.93958
1425686772.208,150.85977
1425686772.224,122.11188
1425686772.239,84.79486
1425686772.255,43.372864
1425686772.271,2.4788513
1425686772.286,-34.221527
1425686772.302,-64.611176
1425686772.317,-87.99243
1425686772.333,-104.642395
1425686772.349,-115.20035
1425686772.364,-120.35989
1425686772.38,-120.766174
1425686772.396,-117.1214
1425686772.411,-110.255554
1425686772.427,-101.18448
1425686772.442,-90.97037
1425686772.458,-80.58212
1425686772.474,-70.818665
1425686772.489,-62.287598
1425686772.505,-55.476807
1425686772.521,-50.762054
1425686772.536,-48.449585
1425686772.552,-48.55716
1425686772.568,-50.70279
1425686772.583,-54.06656
1425686772.599,-57.451233
1425686772.614,-59.698486
1425686772.63,-60.10623
1425686772.646,-58.844147
1425686772.661,-56.990356
1425686772.677,-56.30591
1425686772.692,-58.586914
1425686772.708,-64.986694
1425686772.724,-75.61456
1425686772.739,-89.478455
1425686772.755,-104.91327
1425686772.771,-120.17511
1425686772.786,-133.8902
1425686772.802,-145.2055
1425686772.818,-153.6549
1425686772.833,-158.86346
1425686772.849,-160.25018
1425686772.864,-157.04181
1425686772.88,-148.3164
1425686772.896,-133.28961
1425686772.911,-111.58374
1425686772.927,-83.55066
1425686772.943,-50.622192
1425686772.958,-15.502075
1425686772.974,17.971375
1425686772.989,45.361206
1425686773.005,62.62268
1425686773.021,67.1994
1425686773.036,58.839172
1425686773.052,39.6933
1425686773.068,13.756714
1425686773.083,-14.31427
1425686773.099,-40.407837
1425686773.114,-61.800964
1425686773.13,-77.31494
1425686773.146,-86.96185
1425686773.161,-91.22775
1425686773.177,-90.618164
1425686773.193,-85.536804
1425686773.208,-76.541626
1425686773.224,-64.515686
1425686773.239,-50.84616
1425686773.255,-37.022797
1425686773.271,-24.204285
1425686773.286,-12.94986
1425686773.302,-3.1802368
1425686773.318,5.4506226
1425686773.333,13.149475
1425686773.349,19.806488
1425686773.364,25.07965
1425686773.38,28.759003
1425686773.396,31.016418
1425686773.411,32.532806
1425686773.427,34.300903
1425686773.443,37.2623
1425686773.458,42.010406
1425686773.474,48.60736
1425686773.489,56.597656
1425686773.505,65.32391
1425686773.521,74.15021
1425686773.536,82.714966
1425686773.552,90.872406
1425686773.568,98.5863
1425686773.583,105.62262
1425686773.599,111.579285
1425686773.614,115.812164
1425686773.63,117.85675
1425686773.646,117.68039
1425686773.661,115.75424
1425686773.677,113.01407
1425686773.693,110.73151
1425686773.708,110.25137
1425686773.724,112.97421
1425686773.739,120.02298
1425686773.755,131.83426
1425686773.771,147.53519
1425686773.786,164.57983
1425686773.802,178.9133
1425686773.818,185.89749
1425686773.833,181.62653
1425686773.849,164.23718
1425686773.864,134.51334
1425686773.88,95.630585
1425686773.896,52.088593
1425686773.911,8.463593
1425686773.927,-31.659546
1425686773.943,-66.10812
1425686773.958,-93.99393
1425686773.974,-115.2623
1425686773.989,-130.2586
1425686774.005,-139.4928
1425686774.021,-143.50677
1425686774.036,-142.95178
1425686774.052,-138.68283
1425686774.068,-131.7507
1425686774.083,-123.332886
1425686774.099,-114.42111
1425686774.114,-105.78958
1425686774.13,-97.914734
1425686774.146,-91.04675
1425686774.161,-85.40436
1425686774.177,-81.27069
1425686774.193,-78.89688
1425686774.208,-78.308105
1425686774.224,-79.12021
1425686774.239,-80.52939
1425686774.255,-81.38504
1425686774.271,-80.60086
1425686774.286,-77.43573
1425686774.302,-71.7887
1425686774.318,-64.11218
1425686774.333,-55.212646
1425686774.349,-45.87143
1425686774.364,-36.527985
1425686774.38,-27.17926
1425686774.396,-17.43692
1425686774.411,-6.871216
1425686774.427,4.70874
1425686774.443,17.059265
1425686774.458,29.549683
1425686774.474,41.382385
1425686774.489,52.013794
1425686774.505,61.302094
1425686774.521,69.69736
1425686774.536,78.10004
1425686774.552,87.713165
1425686774.568,99.67865
1425686774.583,114.66873
1425686774.599,132.33087
1425686774.614,150.90573
1425686774.63,167.19553
1425686774.646,177.16418
1425686774.661,177.00223
1425686774.677,164.35632
1425686774.693,139.14801
1425686774.708,103.76471
1425686774.724,62.313324
1425686774.739,19.466766
1425686774.755,-20.716003
1425686774.771,-55.49472
1425686774.786,-83.543945
1425686774.802,-104.63425
1425686774.818,-119.084045
1425686774.833,-127.42297
1425686774.849,-130.21494
1425686774.864,-128.14825
1425686774.88,-122.19443
1425686774.896,-113.60736
1425686774.911,-103.83072
1425686774.927,-94.22745
1425686774.943,-85.83591
1425686774.958,-79.15256
1425686774.974,-74.26926
1425686774.989,-70.9964
1425686775.005,-69.09961
1425686775.021,-68.432495
1425686775.036,-68.89075
1425686775.052,-70.20218
1425686775.068,-71.804535
1425686775.083,-72.82318
1425686775.099,-72.24942
1425686775.114,-69.35724
1425686775.13,-63.94043
1425686775.146,-56.428284
1425686775.161,-47.650543
1425686775.177,-38.49652
1425686775.193,-29.443512
1425686775.208,-20.44638
1425686775.224,-10.970001
1425686775.24,-0.35891724
1425686775.255,11.698517
1425686775.271,24.870422
1425686775.286,38.264587
1425686775.302,50.76419
1425686775.318,61.488403
1425686775.333,70.24527
1425686775.349,77.586
1425686775.364,84.772
1425686775.38,93.32828
1425686775.396,104.59888
1425686775.411,119.14255
1425686775.427,136.2633
1425686775.443,153.70026
1425686775.458,167.82248
1425686775.474,174.49457
1425686775.49,170.15439
1425686775.505,153.07709
1425686775.521,124.07541
1425686775.536,86.33194
1425686775.552,44.46393
1425686775.568,3.2203064
1425686775.583,-33.649475
1425686775.599,-63.872375
1425686775.615,-86.62488
1425686775.63,-102.10181
1425686775.646,-111.01422
1425686775.661,-114.321686
1425686775.677,-113.13086
1425686775.693,-108.589966
1425686775.708,-101.86221
1425686775.724,-94.002686
1425686775.74,-85.8472
1425686775.755,-77.963135
1425686775.771,-70.73526
1425686775.786,-64.42905
1425686775.802,-59.29297
1425686775.818,-55.60028
1425686775.833,-53.618286
1425686775.849,-53.477814
1425686775.865,-55.00238
1425686775.88,-57.595703
1425686775.896,-60.219604
1425686775.911,-61.642273
1425686775.927,-60.81729
1425686775.943,-57.23526
1425686775.958,-51.163727
1425686775.974,-43.41754
1425686775.99,-34.956238
1425686776.005,-26.480286
1425686776.021,-18.087372
1425686776.036,-9.36145
1425686776.052,0.29989624
1425686776.068,11.261322
1425686776.083,23.392883
1425686776.099,36.055023
1425686776.115,48.346344
1425686776.13,59.501526
1425686776.146,69.2063
1425686776.161,77.812775
1425686776.177,86.2222
1425686776.193,95.65271
1425686776.208,107.21735
1425686776.224,121.45242
1425686776.24,137.85938
1425686776.255,154.61664
1425686776.271,168.68658
1425686776.286,176.32822
1425686776.302,174.10144
1425686776.318,159.93777
1425686776.333,133.95526
1425686776.349,98.6304
1425686776.365,58.1257
1425686776.38,17.111877
1425686776.396,-20.43158
1425686776.411,-51.94275
1425686776.427,-76.46149
1425686776.443,-94.13251
1425686776.458,-105.59631
1425686776.474,-111.55557
1425686776.49,-112.65372
1425686776.505,-109.600006
1425686776.521,-103.323
1425686776.536,-94.9523
1425686776.552,-85.69418
1425686776.568,-76.60309
1425686776.583,-68.46542
1425686776.599,-61.739197
1425686776.615,-56.68698
1425686776.63,-53.441406
1425686776.646,-52.02115
1425686776.661,-52.294952
1425686776.677,-53.86328
1425686776.693,-55.99768
1425686776.708,-57.719482
1425686776.724,-57.986633
1425686776.74,-55.999176
1425686776.755,-51.426758
1425686776.771,-44.51837
1425686776.786,-36.004364
1425686776.802,-26.788696
1425686776.818,-17.578705
1425686776.833,-8.627289
1425686776.849,0.27261353
1425686776.865,9.604553
1425686776.88,19.777191
1425686776.896,30.822052
1425686776.911,42.364532
1425686776.927,53.74939
1425686776.943,64.29047
1425686776.958,73.55075
1425686776.974,81.615845
1425686776.99,89.17923
1425686777.005,97.41046
1425686777.021,107.655914
1425686777.036,120.84433
1425686777.052,136.83862
1425686777.068,153.94733
1425686777.083,168.95267
1425686777.099,177.76599
1425686777.115,176.59244
1425686777.13,163.14954
1425686777.146,137.50246
1425686777.161,102.10855
1425686777.177,61.131256
1425686777.193,19.269333
1425686777.208,-19.342102
1425686777.224,-51.89653
1425686777.24,-77.163315
1425686777.255,-95.13283
1425686777.271,-106.47763
1425686777.286,-112.02287
1425686777.302,-112.50551
1425686777.318,-108.63411
1425686777.333,-101.33142
1425686777.349,-91.85602
1425686777.365,-81.77554
1425686777.38,-72.62575
1425686777.396,-65.43469
1425686777.411,-60.584183
1425686777.427,-57.82785
1425686777.443,-56.701935
1425686777.458,-56.839447
1425686777.474,-58.106323
1425686777.49,-60.358078
1425686777.505,-63.166946
1425686777.521,-65.68884
1425686777.536,-66.7704
1425686777.552,-65.46088
1425686777.568,-61.422974
1425686777.583,-55.074936
1425686777.599,-47.42273
1425686777.615,-39.58101
1425686777.63,-32.276566
1425686777.646,-25.571503
1425686777.661,-18.821045
1425686777.677,-11.039276
1425686777.693,-1.4536896
1425686777.708,10.120453
1425686777.724,23.113586
1425686777.74,36.343445
1425686777.755,48.510483
1425686777.771,58.72998
1425686777.786,66.93822
1425686777.802,73.95091
1425686777.818,81.191025
1425686777.833,90.2281
1425686777.849,102.339005
1425686777.865,118.020584
1425686777.88,136.5625
1425686777.896,155.84756
1425686777.911,172.44846
1425686777.927,182.26027
1425686777.943,181.49484
1425686777.958,167.91275
1425686777.974,141.61983
1425686777.99,105.20863
1425686778.005,63.081497
1425686778.021,20.181961
1425686778.036,-19.159012
1425686778.052,-52.059845
1425686778.068,-77.28322
1425686778.083,-94.88997
1425686778.099,-105.69684
1425686778.115,-110.818115
1425686778.13,-111.36543
1425686778.146,-108.4005
1425686778.162,-102.97307
1425686778.177,-96.027985
1425686778.193,-88.410904
1425686778.208,-80.82321
1425686778.224,-73.744125
1425686778.24,-67.47214
1425686778.255,-62.251053
1425686778.271,-58.336365
1425686778.287,-55.988144
1425686778.302,-55.36078
1425686778.318,-56.337494
1425686778.333,-58.389664
1425686778.349,-60.628326
1425686778.365,-61.991577
1425686778.38,-61.53917
1425686778.396,-58.779053
1425686778.412,-53.73192
1425686778.427,-46.878067
1425686778.443,-38.899643
1425686778.458,-30.382904
1425686778.474,-21.59346
1425686778.49,-12.439056
1425686778.505,-2.5662842
1425686778.521,8.360168
1425686778.537,20.355042
1425686778.552,33.016144
1425686778.568,45.619736
1425686778.583,57.38864
1425686778.599,67.9086
1425686778.615,77.34404
1425686778.63,86.47847
1425686778.646,96.496826
1425686778.662,108.549164
1425686778.677,123.2036
1425686778.693,139.92488
1425686778.708,156.72813
1425686778.724,170.36856
1425686778.74,176.92783
1425686778.755,172.97853
1425686778.771,156.65591
1425686778.787,128.4938
1425686778.802,91.37335
1425686778.818,49.7079
1425686778.833,8.240494
1425686778.849,-29.15483
1425686778.865,-60.075546
1425686778.88,-83.62193
1425686778.896,-99.91785
1425686778.912,-109.61525
1425686778.927,-113.533035
1425686778.943,-112.61168
1425686778.958,-107.93225
1425686778.974,-100.64166
1425686778.99,-91.95114
1425686779.005,-82.91495
1425686779.021,-74.33969
1425686779.037,-66.755325
1425686779.052,-60.505585
1425686779.068,-55.842194
1425686779.083,-52.91873
1425686779.099,-51.839935
1425686779.115,-52.47026
1425686779.13,-54.385757
1425686779.146,-56.7818
1425686779.162,-58.639603
1425686779.177,-58.865936
1425686779.193,-56.71164
1425686779.208,-52.026535
1425686779.224,-45.24179
1425686779.24,-37.199585
1425686779.255,-28.735199
1425686779.271,-20.284607
1425686779.287,-11.8216095
1425686779.302,-2.996521
1425686779.318,6.5385437
1425686779.333,16.842651
1425686779.349,27.64824
1425686779.365,38.481903
1425686779.38,48.933624
1425686779.396,58.810104
1425686779.412,68.269104
1425686779.427,77.72322
1425686779.443,87.84552
1425686779.458,99.40788
1425686779.474,112.97102
1425686779.49,128.4078
1425686779.505,144.44511
1425686779.521,158.50005
1425686779.537,167.04427
1425686779.552,166.61455
1425686779.568,154.83406
1425686779.583,131.38873
1425686779.599,98.2626
1425686779.615,59.1473
1425686779.63,18.45758
1425686779.646,-19.696838
1425686779.662,-52.40895
1425686779.677,-78.14529
1425686779.693,-96.59579
1425686779.708,-108.16794
1425686779.724,-113.511505
1425686779.74,-113.30323
1425686779.755,-108.416336
1425686779.771,-99.994064
1425686779.787,-89.608025
1425686779.802,-79.07261
1425686779.818,-69.98866
1425686779.833,-63.26983
1425686779.849,-59.03206
1425686779.865,-56.783722
1425686779.88,-55.89556
1425686779.896,-56.012077
1425686779.912,-57.02543
1425686779.927,-58.87464
1425686779.943,-61.199043
1425686779.958,-63.203964
1425686779.974,-63.897537
1425686779.99,-62.484413
1425686780.005,-58.71231
1425686780.021,-52.847794
1425686780.037,-45.5048
1425686780.052,-37.184517
1425686780.068,-28.122177
1425686780.083,-18.254616
1425686780.099,-7.3475876
1425686780.115,4.6407166
1425686780.13,17.400375
1425686780.146,30.319511
1425686780.162,42.620544
1425686780.177,53.706116
1425686780.193,63.41742
1425686780.208,72.158485
1425686780.224,80.77652
1425686780.24,90.480034
1425686780.255,102.3561
1425686780.271,117.05635
1425686780.287,134.2486
1425686780.302,152.31354
1425686780.318,168.26099
1425686780.333,178.2323
1425686780.349,178.47308
1425686780.365,166.57266
1425686780.38,142.37964
1425686780.396,108.22743
1425686780.412,68.29646
1425686780.427,27.360413
1425686780.443,-10.441704
1425686780.458,-42.435028
1425686780.474,-67.50024
1425686780.49,-85.63656
1425686780.505,-97.478645
1425686780.521,-103.79439
1425686780.537,-105.415215
1425686780.552,-103.22456
1425686780.568,-98.21882
1425686780.583,-91.43619
1425686780.599,-83.880165
1425686780.615,-76.33754
1425686780.63,-69.40523
1425686780.646,-63.421516
1425686780.662,-58.57518
1425686780.677,-55.003067
1425686780.693,-52.79882
1425686780.708,-52.02291
1425686780.724,-52.52066
1425686780.74,-53.852654
1425686780.755,-55.26217
1425686780.771,-55.77011
1425686780.787,-54.480934
1425686780.802,-50.910133
1425686780.818,-45.098396
1425686780.834,-37.55892
1425686780.849,-28.984306
1425686780.865,-19.887856
1425686780.88,-10.437042
1425686780.896,-0.518486
1425686780.912,10.0336
1425686780.927,21.163506
1425686780.943,32.50042
1425686780.959,43.497734
1425686780.974,53.60086
1425686780.99,62.59001
1425686781.005,70.679756
1425686781.021,78.52131
1425686781.037,87.20386
1425686781.052,97.92412
1425686781.068,111.558075
1425686781.084,128.05023
1425686781.099,145.93655
1425686781.115,162.2489
1425686781.13,172.96729
1425686781.146,174.10117
1425686781.162,163.02211
1425686781.177,139.45671
1425686781.193,105.71958
1425686781.209,66.005295
1425686781.224,25.206123
1425686781.24,-12.398453
1425686781.255,-44.029167
1425686781.271,-68.59892
1425686781.287,-86.24406
1425686781.302,-97.78325
1425686781.318,-104.13924
1425686781.334,-106.131615
1425686781.349,-104.5589
1425686781.365,-100.371475
1425686781.38,-94.67259
1425686781.396,-88.57889
1425686781.412,-82.915474
1425686781.427,-78.04144
1425686781.443,-73.958534
1425686781.459,-70.56607
1425686781.474,-67.951
1425686781.49,-66.48231
1425686781.505,-66.52887
1425686781.521,-68.15274
1425686781.537,-70.85273
1425686781.552,-73.63114
1425686781.568,-75.261215
1425686781.584,-74.71431
1425686781.599,-71.44831
1425686781.615,-65.45972
1425686781.63,-57.23288
1425686781.646,-47.570442
1425686781.662,-37.35588
1425686781.677,-27.337837
1425686781.693,-17.84285
1425686781.709,-8.673706
1425686781.724,0.7517395
1425686781.74,11.080688
1425686781.755,22.613472
1425686781.771,35.02211
1425686781.787,47.520622
1425686781.802,59.220627
1425686781.818,69.597595
1425686781.834,78.83567
1425686781.849,87.81009
1425686781.865,97.8037
1425686781.88,110.03253
1425686781.896,125.1134
1425686781.912,142.52985
1425686781.927,160.42389
1425686781.943,175.62546
1425686781.959,184.29466
1425686781.974,182.9821
1425686781.99,169.59552
1425686782.005,144.25327
1425686782.021,109.36613
1425686782.037,68.97772
1425686782.052,27.64927
1425686782.068,-10.628685
1425686782.084,-43.15748
1425686782.099,-68.75006
1425686782.115,-87.35295
1425686782.13,-99.595695
1425686782.146,-106.29633
1425686782.162,-108.316086
1425686782.177,-106.55169
1425686782.193,-102.02105
1425686782.209,-95.88659
1425686782.224,-89.301735
1425686782.24,-83.20876
1425686782.255,-78.10886
1425686782.271,-74.096664
1425686782.287,-71.03531
1425686782.302,-68.81576
1425686782.318,-67.51588
1425686782.334,-67.3604
1425686782.349,-68.47546
1425686782.365,-70.61046
1425686782.38,-73.06718
1425686782.396,-74.76238
1425686782.412,-74.60032
1425686782.427,-71.81201
1425686782.443,-66.284386
1425686782.459,-58.512413
1425686782.474,-49.401047
1425686782.49,-39.880417
1425686782.505,-30.594734
1425686782.521,-21.614243
1425686782.537,-12.491295
1425686782.552,-2.5344162
1425686782.568,8.755039
1425686782.584,21.403831
1425686782.599,34.796806
1425686782.615,47.916573
1425686782.63,59.75804
1425686782.646,69.7535
1425686782.662,78.05347
1425686782.677,85.50405
1425686782.693,93.40335
1425686782.709,103.17856
1425686782.724,115.87336
1425686782.74,131.61865
1425686782.755,149.16249
1425686782.771,165.76364
1425686782.787,177.51306
1425686782.802,180.33624
1425686782.818,171.28223
1425686782.834,149.66206
1425686782.849,117.37187
1425686782.865,78.40961
1425686782.88,37.58819
1425686782.896,-0.770401
1425686782.912,-33.771675
1425686782.927,-60.117508
1425686782.943,-79.75375
1425686782.959,-93.23898
1425686782.974,-101.306786
1425686782.99,-104.722015
1425686783.005,-104.31204
1425686783.021,-101.08956
1425686783.037,-96.191025
1425686783.052,-90.70024
1425686783.068,-85.45479
1425686783.084,-80.86172
1425686783.099,-76.89748
1425686783.115,-73.33397
1425686783.13,-70.03449
1425686783.146,-67.12933
1425686783.162,-65.058136
1425686783.177,-64.31824
1425686783.193,-65.17977
1425686783.209,-67.30919
1425686783.224,-69.76367
1425686783.24,-71.20488
1425686783.255,-70.36766
1425686783.271,-66.4828
1425686783.287,-59.568943
1425686783.302,-50.371174
1425686783.318,-40.07743
1425686783.334,-29.843693
1425686783.349,-20.321636
1425686783.365,-11.524475
1425686783.38,-2.8976898
1425686783.396,6.3809204
1425686783.412,16.898727
1425686783.427,28.67633
1425686783.443,41.140057
1425686783.459,53.336662
1425686783.474,64.46414
1425686783.49,74.21352
1425686783.506,82.88762
1425686783.521,91.31469
1425686783.537,100.56359
1425686783.552,111.58412
1425686783.568,124.9034
1425686783.584,140.32233
1425686783.599,156.53488
1425686783.615,171.02753
1425686783.63,180.30878
1425686783.646,180.74936
1425686783.662,169.74742
1425686783.677,146.76431
1425686783.693,113.73459
1425686783.709,74.53925
1425686783.724,33.82027
1425686783.74,-4.352295
1425686783.756,-37.30077
1425686783.771,-63.872032
1425686783.787,-83.996506
1425686783.802,-98.0363
1425686783.818,-106.4422
1425686783.834,-109.739395
1425686783.849,-108.638985
1425686783.865,-104.14646
1425686783.881,-97.54062
1425686783.896,-90.11633
1425686783.912,-82.940216
1425686783.927,-76.71423
1425686783.943,-71.73399
1425686783.959,-68.01269
1425686783.974,-65.45041
1425686783.99,-63.988464
1425686784.006,-63.631447
1425686784.021,-64.45779
1425686784.037,-66.28838
1425686784.052,-68.63309
1425686784.068,-70.587296
1425686784.084,-71.02873
1425686784.099,-69.02554
1425686784.115,-64.172485
1425686784.131,-56.74035
1425686784.146,-47.626354
1425686784.162,-37.946228
1425686784.177,-28.604626
1425686784.193,-19.990108
1425686784.209,-11.850098
1425686784.224,-3.5018864
1425686784.24,5.7411156
1425686784.256,16.252695
1425686784.271,27.843767
1425686784.287,39.80454
1425686784.302,51.2836
1425686784.318,61.58457
1425686784.334,70.50586
1425686784.349,78.38263
1425686784.365,86.08823
1425686784.381,94.7216
1425686784.396,105.36403
1425686784.412,118.66971
1425686784.427,134.41338
1425686784.443,151.05278
1425686784.459,165.69167
1425686784.474,174.48071
1425686784.49,173.64859
1425686784.506,160.74457
1425686784.521,135.64369
1425686784.537,100.7012
1425686784.552,60.174557
1425686784.568,18.901436
1425686784.584,-18.941963
1425686784.599,-50.63531
1425686784.615,-75.09609
1425686784.631,-92.4647
1425686784.646,-103.56322
1425686784.662,-109.49307
1425686784.677,-111.37281
1425686784.693,-110.22644
1425686784.709,-106.990234
1425686784.724,-102.45062
1425686784.74,-97.26446
1425686784.756,-91.91225
1425686784.771,-86.71729
1425686784.787,-81.90984
1425686784.802,-77.59689
1425686784.818,-73.92911
1425686784.834,-71.0978
1425686784.849,-69.36695
1425686784.865,-68.913795
1425686784.881,-69.63974
1425686784.896,-70.96706
1425686784.912,-71.92204
1425686784.927,-71.35933
1425686784.943,-68.444725
1425686784.959,-62.970856
1425686784.974,-55.43827
1425686784.99,-46.782326
1425686785.006,-37.921387
1425686785.021,-29.31639
1425686785.037,-20.838993
1425686785.052,-11.932661
1425686785.068,-1.9798989
1425686785.084,9.316415
1425686785.099,21.6687
1425686785.115,34.30969
1425686785.131,46.25192
1425686785.146,56.75754
1425686785.162,65.67183
1425686785.177,73.57621
1425686785.193,81.64189
1425686785.209,91.31586
1425686785.224,103.76924
1425686785.24,119.41136
1425686785.256,137.38239
1425686785.271,155.43048
1425686785.287,170.07008
1425686785.302,177.38333
1425686785.318,174.07521
1425686785.334,158.52992
1425686785.349,131.4861
1425686785.365,95.94087
1425686785.381,56.23382
1425686785.396,16.892122
1425686785.412,-18.468788
1425686785.427,-47.74478
1425686785.443,-70.32984
1425686785.459,-86.598274
1425686785.474,-97.405815
1425686785.49,-103.61838
1425686785.506,-105.93008
1425686785.521,-104.84804
1425686785.537,-100.80414
1425686785.552,-94.31949
1425686785.568,-86.179855
1425686785.584,-77.470436
1425686785.599,-69.29408
1425686785.615,-62.687935
1425686785.631,-58.247612
1425686785.646,-56.004166
1425686785.662,-55.621784
1425686785.677,-56.5566
1425686785.693,-58.227673
1425686785.709,-59.898556
1425686785.724,-60.656525
1425686785.74,-59.45
1425686785.756,-55.50021
1425686785.771,-48.670914
1425686785.787,-39.685997
1425686785.802,-29.856686
1425686785.818,-20.451263
1425686785.834,-12.039558
1425686785.849,-4.286289
1425686785.865,3.8345566
1425686785.881,13.330242
1425686785.896,24.55616
1425686785.912,37.063313
1425686785.927,49.852257
1425686785.943,61.828083
1425686785.959,72.33054
1425686785.974,81.33589
1425686785.99,89.44099
1425686786.006,97.61809
1425686786.021,107.06094
1425686786.037,118.70621
1425686786.052,132.78825
1425686786.068,148.36493
1425686786.084,163.02914
1425686786.099,173.35104
1425686786.115,175.63837
1425686786.131,167.05359
1425686786.146,146.63046
1425686786.162,115.690956
1425686786.178,77.56433
1425686786.193,36.65992
1425686786.209,-2.6536407
1425686786.224,-37.020138
1425686786.24,-64.55063
1425686786.256,-84.73384
1425686786.271,-98.073326
1425686786.287,-105.536865
1425686786.302,-108.192505
1425686786.318,-107.08673
1425686786.334,-103.13845
1425686786.349,-97.27556
1425686786.365,-90.34253
1425686786.381,-83.151924
1425686786.396,-76.35488
1425686786.412,-70.500656
1425686786.428,-65.94589
1425686786.443,-62.89285
1425686786.459,-61.364784
1425686786.474,-61.135307
1425686786.49,-61.742264
1425686786.506,-62.572773
1425686786.521,-62.98103
1425686786.537,-62.451
1425686786.553,-60.660366
1425686786.568,-57.465206
1425686786.584,-52.83957
1425686786.599,-46.8256
1425686786.615,-39.410866
1425686786.631,-30.610249
1425686786.646,-20.506672
1425686786.662,-9.311951
1425686786.678,2.6093712
1425686786.693,14.727398
1425686786.709,26.442444
1425686786.724,37.26379
1425686786.74,46.898067
1425686786.756,55.46387
1425686786.771,63.498222
1425686786.787,71.93253
1425686786.803,81.92063
1425686786.818,94.43523
1425686786.834,109.747086
1425686786.849,126.91963
1425686786.865,143.59167
1425686786.881,156.18558
1425686786.896,160.79787
1425686786.912,154.39188
1425686786.928,135.86078
1425686786.943,106.59271
1425686786.959,70.14569
1425686786.974,31.181385
1425686786.99,-5.859997
1425686787.006,-37.787235
1425686787.021,-63.03239
1425686787.037,-81.38449
1425686787.053,-93.40848
1425686787.068,-99.878235
1425686787.084,-101.55597
1425686787.099,-99.223015
1425686787.115,-93.78735
1425686787.131,-86.327515
1425686787.146,-77.944466
1425686787.162,-69.69985
1425686787.178,-62.36589
1425686787.193,-56.413254
1425686787.209,-52.054077
1425686787.224,-49.264084
1425686787.24,-47.9179
1425686787.256,-47.793236
1425686787.271,-48.60502
1425686787.287,-49.960197
1425686787.303,-51.382553
1425686787.318,-52.327164
1425686787.334,-52.20999
1425686787.349,-50.56842
1425686787.365,-47.193726
1425686787.381,-42.129425
1425686787.396,-35.63491
1425686787.412,-28.029945
1425686787.428,-19.519775
1425686787.443,-10.203545
1425686787.459,-0.12491608
