1427150555.045,0.0
1427150555.06,0.0
1427150555.076,0.0
1427150555.092,0.0
1427150555.107,0.0
1427150555.123,0.0
1427150555.138,0.0
1427150555.154,0.0
1427150555.17,0.0
1427150555.185,0.0022315353
1427150555.201,-0.0045169927
1427150555.217,-0.011265522
1427150555.232,-0.011383951
1427150555.248,0.0011864507
1427150555.263,0.025910312
1427150555.279,0.050634187
1427150555.295,0.051362894
1427150555.31,-0.0014929791
1427150555.326,-0.1302426
1427150555.342,-0.35562757
1427150555.357,-0.6591247
1427150555.373,-1.0095103
1427150555.388,-1.3709826
1427150555.404,-1.7197359
1427150555.42,-2.0551105
1427150555.435,-2.39945
1427150555.451,-2.7866635
1427150555.467,-3.2399073
1427150555.482,-3.796012
1427150555.498,-4.418684
1427150555.513,-5.0592937
1427150555.529,-5.6644096
1427150555.545,-6.2021537
1427150555.56,-6.6808796
1427150555.576,-7.149598
1427150555.592,-7.6782336
1427150555.607,-8.310739
1427150555.623,-9.143657
1427150555.638,-10.089731
1427150555.654,-11.041313
1427150555.67,-11.8842125
1427150555.685,-12.564316
1427150555.701,-13.13563
1427150555.717,-13.760044
1427150555.732,-14.65232
1427150555.748,-15.962056
1427150555.763,-17.914442
1427150555.779,-20.317299
1427150555.795,-22.903854
1427150555.81,-25.37947
1427150555.826,-27.578028
1427150555.842,-29.57246
1427150555.857,-31.675173
1427150555.873,-34.31779
1427150555.888,-37.8136
1427150555.904,-42.54119
1427150555.92,-48.146286
1427150555.935,-54.105022
1427150555.951,-59.833954
1427150555.967,-64.973976
1427150555.982,-69.58482
1427150555.998,-74.14454
1427150556.013,-79.34364
1427150556.029,-85.70326
1427150556.045,-93.75767
1427150556.06,-102.99871
1427150556.076,-112.62988
1427150556.092,-121.75605
1427150556.107,-129.79779
1427150556.123,-136.76971
1427150556.138,-143.28134
1427150556.154,-150.65541
1427150556.17,-157.59634
1427150556.185,-166.3799
1427150556.201,-177.617
1427150556.217,-191.4213
1427150556.232,-206.58546
1427150556.248,-220.18088
1427150556.263,-227.84843
1427150556.279,-224.92372
1427150556.295,-208.02393
1427150556.31,-176.27414
1427150556.326,-132.08424
1427150556.342,-79.32008
1427150556.357,-22.329742
1427150556.373,35.660797
1427150556.388,93.13205
1427150556.404,149.87186
1427150556.42,206.03714
1427150556.435,261.35287
1427150556.451,314.9457
1427150556.467,365.28674
1427150556.482,411.38092
1427150556.498,452.485
1427150556.514,488.03174
1427150556.529,517.2239
1427150556.545,538.7804
1427150556.56,551.0346
1427150556.576,552.24207
1427150556.592,541.2377
1427150556.607,517.6415
1427150556.623,482.50153
1427150556.638,437.84833
1427150556.654,386.3655
1427150556.67,330.86185
1427150556.685,273.8221
1427150556.701,217.14117
1427150556.717,162.10663
1427150556.732,109.59189
1427150556.748,60.16635
1427150556.764,14.522644
1427150556.779,-26.61612
1427150556.795,-62.506744
1427150556.81,-92.56299
1427150556.826,-116.52835
1427150556.842,-134.6084
1427150556.857,-147.4628
1427150556.873,-156.05252
1427150556.889,-161.44951
1427150556.904,-164.46008
1427150556.92,-165.59848
1427150556.935,-165.00296
1427150556.951,-162.61841
1427150556.967,-158.35402
1427150556.982,-152.23695
1427150556.998,-144.40176
1427150557.014,-135.03284
1427150557.029,-124.444214
1427150557.045,-113.2581
1427150557.06,-102.61842
1427150557.076,-94.08641
1427150557.092,-89.19006
1427150557.107,-88.72471
1427150557.123,-92.24759
1427150557.139,-98.08124
1427150557.154,-103.915955
1427150557.17,-107.73931
1427150557.185,-108.51807
1427150557.201,-106.41865
1427150557.217,-102.34614
1427150557.232,-97.26685
1427150557.248,-91.698715
1427150557.264,-85.63909
1427150557.279,-78.886734
1427150557.295,-71.39527
1427150557.31,-63.639877
1427150557.326,-56.19439
1427150557.342,-49.621773
1427150557.357,-44.227776
1427150557.373,-39.97146
1427150557.389,-36.531025
1427150557.404,-33.452843
1427150557.42,-30.385124
1427150557.435,-27.174992
1427150557.451,-23.947002
1427150557.467,-20.939884
1427150557.482,-18.419086
1427150557.498,-16.491901
1427150557.514,-15.016834
1427150557.529,-13.661213
1427150557.545,-12.072731
1427150557.56,-10.0723
1427150557.576,-7.7449913
1427150557.592,-5.404217
1427150557.607,-3.4102173
1427150557.623,-2.018402
1427150557.639,-1.2616272
1427150557.654,-0.9388809
1427150557.67,-0.74684143
1427150557.685,-0.39907455
1427150557.701,0.23434067
1427150557.717,1.1071167
1427150557.732,2.0626297
1427150557.748,2.9300804
1427150557.764,3.597927
1427150557.779,4.027729
1427150557.795,4.27985
1427150557.81,4.4283295
1427150557.826,4.544098
1427150557.842,4.6400146
1427150557.857,4.6710167
1427150557.873,4.576866
1427150557.889,4.316147
1427150557.904,3.9197235
1427150557.92,3.486763
1427150557.935,3.166195
1427150557.951,3.0623245
1427150557.967,3.1903114
1427150557.982,3.4738693
1427150557.998,3.7837677
1427150558.014,3.99572
1427150558.029,4.022835
1427150558.045,3.8466911
1427150558.06,3.4980278
1427150558.076,3.0642662
1427150558.092,2.677658
1427150558.107,2.4490623
1427150558.123,2.4789848
1427150558.139,2.752308
1427150558.154,3.1908798
1427150558.17,3.634613
1427150558.185,3.925228
1427150558.201,3.9160042
1427150558.217,3.5103378
1427150558.232,2.683445
1427150558.248,1.4747028
1427150558.264,0.038511276
1427150558.279,-1.3887291
1427150558.295,-2.5571003
1427150558.31,-3.2898235
1427150558.326,-3.537691
1427150558.342,-3.4155407
1427150558.357,-3.1301727
1427150558.373,-2.8405323
1427150558.389,-2.6325893
1427150558.404,-2.435648
1427150558.42,-2.1459694
1427150558.435,-1.6894169
1427150558.451,-1.0988617
1427150558.467,-0.48022652
1427150558.482,0.032316208
1427150558.498,0.3555069
1427150558.514,0.47849274
1427150558.529,0.42887878
1427150558.545,0.26285362
1427150558.56,0.059225082
1427150558.576,-0.1296711
1427150558.592,-0.2600708
1427150558.607,-0.31201744
1427150558.623,-0.28131294
1427150558.639,-0.17773819
1427150558.654,-0.0015048981
1427150558.67,0.22385597
1427150558.685,0.47181702
1427150558.701,0.6860428
1427150558.717,0.8183956
1427150558.732,0.842844
1427150558.748,0.8234043
1427150558.764,0.83720016
1427150558.779,0.9921112
1427150558.795,1.3076382
1427150558.81,1.7155781
1427150558.826,2.0758781
1427150558.842,2.274006
1427150558.857,2.2643566
1427150558.873,2.1475754
1427150558.889,2.0717373
1427150558.904,2.1705723
1427150558.92,2.4645386
1427150558.935,2.8719044
1427150558.951,3.2360592
1427150558.967,3.4320126
1427150558.982,3.429884
1427150558.998,3.2932339
1427150559.014,3.1686249
1427150559.029,3.151165
1427150559.045,3.266121
1427150559.06,3.4688225
1427150559.076,3.653143
1427150559.092,3.773676
1427150559.107,3.840145
1427150559.123,3.9512043
1427150559.139,4.2130146
1427150559.154,4.6636868
1427150559.17,5.1777344
1427150559.186,5.5414906
1427150559.201,5.4778767
1427150559.217,4.8145676
1427150559.232,3.5302792
1427150559.248,1.8267155
1427150559.264,0.027721405
1427150559.279,-1.4998341
1427150559.295,-2.48942
1427150559.31,-2.8202438
1427150559.326,-2.5709515
1427150559.342,-1.9344959
1427150559.357,-1.1483345
1427150559.373,-0.41854095
1427150559.389,0.13581657
1427150559.404,0.48400497
1427150559.42,0.64543724
1427150559.436,0.67642784
1427150559.451,0.5700035
1427150559.467,0.33280373
1427150559.482,-0.09211731
1427150559.498,-0.7253494
1427150559.514,-1.612978
1427150559.529,-2.7529163
1427150559.545,-4.1013412
1427150559.561,-5.556986
1427150559.576,-6.970936
1427150559.592,-8.188757
1427150559.607,-9.086243
1427150559.623,-9.643793
1427150559.639,-9.938404
1427150559.654,-10.130388
1427150559.67,-10.3556595
1427150559.686,-10.652578
1427150559.701,-10.991755
1427150559.717,-11.274414
1427150559.732,-11.440371
1427150559.748,-11.487438
1427150559.764,-11.483124
1427150559.779,-11.452761
1427150559.795,-11.407459
1427150559.811,-11.2384205
1427150559.826,-10.810896
1427150559.842,-9.991028
1427150559.857,-8.71846
1427150559.873,-7.0190125
1427150559.889,-4.9627476
1427150559.904,-2.6981068
1427150559.92,-0.29808998
1427150559.936,2.0931883
1427150559.951,4.3148947
1427150559.967,6.231841
1427150559.982,7.7637196
1427150559.998,8.964802
1427150560.014,9.93234
1427150560.029,10.816162
1427150560.045,11.659708
1427150560.061,12.418098
1427150560.076,12.881025
1427150560.092,12.812517
1427150560.107,12.025878
1427150560.123,10.502106
1427150560.139,8.415225
1427150560.154,6.075034
1427150560.17,3.8555064
1427150560.186,2.066412
1427150560.201,0.9046626
1427150560.217,0.38831282
1427150560.232,0.4135666
1427150560.248,0.79602766
1427150560.264,1.3277454
1427150560.279,1.8750768
1427150560.295,2.325818
1427150560.311,2.6536937
1427150560.326,2.806556
1427150560.342,2.790404
1427150560.357,2.5886393
1427150560.373,2.229411
1427150560.389,1.7638001
1427150560.404,1.2776484
1427150560.42,0.8510599
1427150560.436,0.5343807
1427150560.451,0.32065082
1427150560.467,0.16633391
1427150560.482,-0.003946781
1427150560.498,-0.18817592
1427150560.514,-0.35703373
1427150560.529,-0.4287637
1427150560.545,-0.34181666
1427150560.561,-0.082666576
1427150560.576,0.25791532
1427150560.592,0.557325
1427150560.607,0.7047529
1427150560.623,0.693378
1427150560.639,0.6307578
1427150560.654,0.6957856
1427150560.67,1.0050197
1427150560.686,1.5577314
1427150560.701,2.2116582
1427150560.717,2.7810104
1427150560.732,3.1061277
1427150560.748,3.17945
1427150560.764,3.097173
1427150560.779,3.099031
1427150560.795,3.3607945
1427150560.811,3.9741833
1427150560.826,4.8773365
1427150560.842,5.919439
1427150560.857,6.947984
1427150560.873,7.9099765
1427150560.889,8.8835945
1427150560.904,9.880262
1427150560.92,11.011298
1427150560.936,12.396121
1427150560.951,14.101906
1427150560.967,16.092274
1427150560.982,18.253178
1427150560.998,20.40287
1427150561.014,22.259176
1427150561.029,23.462492
1427150561.045,23.632965
1427150561.061,22.50535
1427150561.076,19.990765
1427150561.092,16.267868
1427150561.107,11.742772
1427150561.123,6.9585695
1427150561.139,2.3927193
1427150561.154,-1.657094
1427150561.17,-5.1285076
1427150561.186,-8.099223
1427150561.201,-10.662047
1427150561.217,-12.856446
1427150561.232,-14.647372
1427150561.248,-15.989796
1427150561.264,-16.890297
1427150561.279,-17.419079
1427150561.295,-17.718811
1427150561.311,-17.92
1427150561.326,-18.102354
1427150561.342,-18.231842
1427150561.357,-18.233767
1427150561.373,-18.031454
1427150561.389,-17.646294
1427150561.404,-17.175188
1427150561.42,-16.804436
1427150561.436,-16.700142
1427150561.451,-16.918598
1427150561.467,-17.362238
1427150561.482,-17.837744
1427150561.498,-18.097727
1427150561.514,-17.973888
1427150561.529,-17.425951
1427150561.545,-16.54267
1427150561.561,-15.481672
1427150561.576,-14.399895
1427150561.592,-13.389368
1427150561.607,-12.473328
1427150561.623,-11.581131
1427150561.639,-10.612192
1427150561.654,-9.451529
1427150561.67,-8.046034
1427150561.686,-6.403801
1427150561.701,-4.6278267
1427150561.717,-2.8560448
1427150561.732,-1.2231369
1427150561.748,0.20540237
1427150561.764,1.4263868
1427150561.779,2.5289755
1427150561.795,3.615922
1427150561.811,4.786619
1427150561.826,6.0845413
1427150561.842,7.5226965
1427150561.857,9.063458
1427150561.873,10.652435
1427150561.889,12.232504
1427150561.904,13.755938
1427150561.92,15.19295
1427150561.936,16.545444
1427150561.951,17.834387
1427150561.967,19.14521
1427150561.982,20.572111
1427150561.998,22.247921
1427150562.014,24.248913
1427150562.029,26.588219
1427150562.045,29.11543
1427150562.061,31.525791
1427150562.076,33.36126
1427150562.092,34.150238
1427150562.108,33.509354
1427150562.123,31.269756
1427150562.139,27.53311
1427150562.154,22.637245
1427150562.17,17.07698
1427150562.186,11.385324
1427150562.201,6.034092
1427150562.217,1.3850327
1427150562.233,-2.3722525
1427150562.248,-5.200079
1427150562.264,-7.2399044
1427150562.279,-8.727217
1427150562.295,-9.924452
1427150562.311,-11.025866
1427150562.326,-12.092096
1427150562.342,-13.041166
1427150562.358,-13.770494
1427150562.373,-14.23708
1427150562.389,-14.524988
1427150562.404,-14.809742
1427150562.42,-15.2722225
1427150562.436,-15.972353
1427150562.451,-16.826126
1427150562.467,-17.656519
1427150562.483,-18.287933
1427150562.498,-18.645237
1427150562.514,-18.776205
1427150562.529,-18.781397
1427150562.545,-18.763727
1427150562.561,-18.713356
1427150562.576,-18.554564
1427150562.592,-18.177217
1427150562.608,-17.53342
1427150562.623,-16.666729
1427150562.639,-15.726835
1427150562.654,-14.878227
1427150562.67,-14.20718
1427150562.686,-13.668468
1427150562.701,-13.116941
1427150562.717,-12.371126
1427150562.733,-11.322742
1427150562.748,-9.979847
1427150562.764,-8.46093
1427150562.779,-6.926262
1427150562.795,-5.4921
1427150562.811,-4.1849174
1427150562.826,-2.9711132
1427150562.842,-1.796238
1427150562.858,-0.6514549
1427150562.873,0.4548111
1427150562.889,1.5102406
1427150562.904,2.5973454
1427150562.92,3.8409538
1427150562.936,5.389889
1427150562.951,7.2974243
1427150562.967,9.487614
1427150562.983,11.728439
1427150562.998,13.787157
1427150563.014,15.508703
1427150563.029,16.937567
1427150563.045,18.296907
1427150563.061,19.885952
1427150563.076,21.936348
1427150563.092,24.492865
1427150563.108,27.368216
1427150563.123,30.191816
1427150563.139,32.486534
1427150563.154,33.76306
1427150563.17,33.611958
1427150563.186,31.800907
1427150563.201,28.328526
1427150563.217,23.475918
1427150563.233,17.73056
1427150563.248,11.72003
1427150563.264,6.015686
1427150563.279,1.0441303
1427150563.295,-2.9968605
1427150563.311,-6.094242
1427150563.326,-8.35528
1427150563.342,-9.928625
1427150563.358,-10.988319
1427150563.373,-11.683939
1427150563.389,-12.160444
1427150563.404,-12.539614
1427150563.42,-12.896639
1427150563.436,-13.256334
1427150563.451,-13.623081
1427150563.467,-13.999321
1427150563.483,-14.414196
1427150563.498,-14.885551
1427150563.514,-15.447893
1427150563.529,-16.069408
1427150563.545,-16.685564
1427150563.561,-17.20819
1427150563.576,-17.574596
1427150563.592,-17.749754
1427150563.608,-17.758404
1427150563.623,-17.625647
1427150563.639,-17.373459
1427150563.654,-16.991013
1427150563.67,-16.468391
1427150563.686,-15.777246
1427150563.701,-14.905819
1427150563.717,-13.849812
1427150563.733,-12.617323
1427150563.748,-11.20351
1427150563.764,-9.649666
1427150563.779,-7.9861965
1427150563.795,-6.306305
1427150563.811,-4.720724
1427150563.826,-3.3166695
1427150563.842,-2.1306896
1427150563.858,-1.0907288
1427150563.873,-0.02320385
1427150563.889,1.2774754
1427150563.904,2.9200659
1427150563.92,4.871621
1427150563.936,6.96572
1427150563.951,8.984758
1427150563.967,10.769298
1427150563.983,12.276607
1427150563.998,13.596615
1427150564.014,14.868036
1427150564.029,16.260445
1427150564.045,17.888649
1427150564.061,19.83894
1427150564.076,22.081669
1427150564.092,24.46601
1427150564.108,26.663353
1427150564.123,28.232628
1427150564.139,28.725574
1427150564.154,27.859673
1427150564.17,25.619904
1427150564.186,22.258423
1427150564.201,18.174503
1427150564.217,13.791177
1427150564.233,9.431775
1427150564.248,5.3314276
1427150564.264,1.6428032
1427150564.279,-1.4802074
1427150564.295,-3.9404364
1427150564.311,-5.7170362
1427150564.326,-6.9007206
1427150564.342,-7.6365805
1427150564.358,-8.099574
1427150564.373,-8.394313
1427150564.389,-8.566243
1427150564.404,-8.664347
1427150564.42,-8.780117
1427150564.436,-9.041266
1427150564.451,-9.576656
1427150564.467,-10.412129
1427150564.483,-11.486048
1427150564.498,-12.633828
1427150564.514,-13.701999
1427150564.529,-14.598103
1427150564.545,-15.330466
1427150564.561,-15.954012
1427150564.576,-16.496708
1427150564.592,-16.915604
1427150564.608,-17.091614
1427150564.623,-16.881863
1427150564.639,-16.232065
1427150564.654,-15.186141
1427150564.67,-13.879315
1427150564.686,-12.457449
1427150564.701,-11.020134
1427150564.717,-9.561705
1427150564.733,-8.040147
1427150564.748,-6.43013
1427150564.764,-4.7847376
1427150564.78,-3.2309294
1427150564.795,-1.9065533
1427150564.811,-0.84466743
1427150564.826,0.06521416
1427150564.842,1.0694432
1427150564.858,2.4086533
1427150564.873,4.2032256
1427150564.889,6.353149
1427150564.905,8.595873
1427150564.92,10.604147
1427150564.936,12.186978
1427150564.951,13.3619995
1427150564.967,14.35684
1427150564.983,15.476355
1427150564.998,16.993662
1427150565.014,19.02004
1427150565.03,21.49559
1427150565.045,24.251068
1427150565.061,27.053562
1427150565.076,29.623438
1427150565.092,31.657776
1427150565.108,32.81063
1427150565.123,32.76908
1427150565.139,31.3294
1427150565.155,28.524067
1427150565.17,24.650814
1427150565.186,20.214916
1427150565.201,15.730439
1427150565.217,11.580679
1427150565.233,7.8960714
1427150565.248,4.5852556
1427150565.264,1.4561615
1427150565.28,-1.5974836
1427150565.295,-4.5331945
1427150565.311,-7.145109
1427150565.326,-9.196416
1427150565.342,-10.557375
1427150565.358,-11.278069
1427150565.373,-11.564504
1427150565.389,-11.685762
1427150565.405,-11.849195
1427150565.42,-12.166872
1427150565.436,-12.626259
1427150565.451,-13.183779
1427150565.467,-13.788406
1427150565.483,-14.434193
1427150565.498,-15.088871
1427150565.514,-15.707758
1427150565.53,-16.203918
1427150565.545,-16.478704
1427150565.561,-16.436596
1427150565.576,-16.067455
1427150565.592,-15.4051075
1427150565.608,-14.548187
1427150565.623,-13.601435
1427150565.639,-12.659481
1427150565.655,-11.785494
1427150565.67,-10.985592
1427150565.686,-10.195545
1427150565.701,-9.303083
1427150565.717,-8.188738
1427150565.733,-6.777178
1427150565.748,-5.0804787
1427150565.764,-3.2389278
1427150565.78,-1.4172325
1427150565.795,0.21849251
1427150565.811,1.6118069
1427150565.826,2.7967224
1427150565.842,3.8860989
1427150565.858,4.9666786
1427150565.873,6.093897
1427150565.889,7.2513447
1427150565.905,8.413538
1427150565.92,9.579859
1427150565.936,10.811287
1427150565.951,12.192583
1427150565.967,13.820969
1427150565.983,15.755156
1427150565.998,18.02786
1427150566.014,20.659426
1427150566.03,23.640923
1427150566.045,26.864407
1427150566.061,30.08406
1427150566.076,32.883198
1427150566.092,34.768356
1427150566.108,35.25442
1427150566.123,34.0456
1427150566.139,31.116035
1427150566.155,26.737442
1427150566.17,21.382992
1427150566.186,15.636902
1427150566.201,10.041069
1427150566.217,5.0222435
1427150566.233,0.81253815
1427150566.248,-2.5504189
1427150566.264,-5.184307
1427150566.28,-7.3226166
1427150566.295,-9.217545
1427150566.311,-11.024715
1427150566.326,-12.774017
1427150566.342,-14.323357
1427150566.358,-15.485561
1427150566.373,-16.093876
1427150566.389,-16.15512
1427150566.405,-15.868179
1427150566.42,-15.581371
1427150566.436,-15.636639
1427150566.451,-16.2658
1427150566.467,-17.461369
1427150566.483,-19.014809
1427150566.498,-20.584904
1427150566.514,-21.880184
1427150566.53,-22.752407
1427150566.545,-23.209595
1427150566.561,-23.381039
1427150566.576,-23.405869
1427150566.592,-23.317516
1427150566.608,-23.042439
1427150566.623,-22.457718
1427150566.639,-21.488628
1427150566.655,-20.16441
1427150566.67,-18.647644
1427150566.686,-17.140358
1427150566.701,-15.8124695
1427150566.717,-14.667782
1427150566.733,-13.58387
1427150566.748,-12.404476
1427150566.764,-11.028172
1427150566.78,-9.508362
1427150566.795,-8.027134
1427150566.811,-6.789421
1427150566.826,-5.8935432
1427150566.842,-5.2534065
1427150566.858,-4.640663
1427150566.873,-3.7900314
1427150566.889,-2.5162544
1427150566.905,-0.79190445
1427150566.92,1.2363625
1427150566.936,3.3532104
1427150566.951,5.347519
1427150566.967,7.1013527
1427150566.983,8.605774
1427150566.998,9.989735
1427150567.014,11.443272
1427150567.03,13.186726
1427150567.045,15.403614
1427150567.061,18.15438
1427150567.076,21.297325
1427150567.092,24.47847
1427150567.108,27.15406
1427150567.123,28.727322
1427150567.139,28.727417
1427150567.155,26.960518
1427150567.17,23.577137
1427150567.186,19.057346
1427150567.201,14.008488
1427150567.217,9.0359535
1427150567.233,4.546509
1427150567.248,0.72278595
1427150567.264,-2.4832878
1427150567.28,-5.191456
1427150567.295,-7.5315094
1427150567.311,-9.550823
1427150567.326,-11.248657
1427150567.342,-12.588608
1427150567.358,-13.553059
1427150567.373,-14.179424
1427150567.389,-14.525097
1427150567.405,-14.646893
1427150567.42,-14.584988
1427150567.436,-14.366219
1427150567.452,-14.029541
1427150567.467,-13.647163
1427150567.483,-13.354607
1427150567.498,-13.273609
1427150567.514,-13.497154
1427150567.53,-14.012497
1427150567.545,-14.704388
1427150567.561,-15.374416
1427150567.577,-15.827515
1427150567.592,-15.89333
1427150567.608,-15.485569
1427150567.623,-14.61512
1427150567.639,-13.359741
1427150567.655,-11.850685
1427150567.67,-10.232246
1427150567.686,-8.621807
1427150567.702,-7.08585
1427150567.717,-5.624237
1427150567.733,-4.195019
1427150567.748,-2.7206802
1427150567.764,-1.1794968
1427150567.78,0.41382217
1427150567.795,1.9830894
1427150567.811,3.457611
1427150567.827,4.791603
1427150567.842,6.0024834
1427150567.858,7.144371
1427150567.873,8.295715
1427150567.889,9.506004
1427150567.905,10.821419
1427150567.92,12.287144
1427150567.936,13.974297
1427150567.952,15.972618
1427150567.967,18.323471
1427150567.983,20.940979
1427150567.998,23.588081
1427150568.014,25.83347
1427150568.03,27.184961
1427150568.045,27.224674
1427150568.061,25.76262
1427150568.077,22.89293
1427150568.092,18.972754
1427150568.108,14.482292
1427150568.123,9.893955
1427150568.139,5.5570965
1427150568.155,1.6925526
1427150568.17,-1.6157913
1427150568.186,-4.365103
1427150568.202,-6.589901
1427150568.217,-8.337957
1427150568.233,-9.67013
1427150568.248,-10.628004
1427150568.264,-11.259905
1427150568.28,-11.595427
1427150568.295,-11.708134
1427150568.311,-11.685017
1427150568.327,-11.648544
1427150568.342,-11.717899
1427150568.358,-11.971519
1427150568.373,-12.384853
1427150568.389,-12.871407
1427150568.405,-13.309664
1427150568.42,-13.60626
1427150568.436,-13.738182
1427150568.452,-13.729652
1427150568.467,-13.611399
1427150568.483,-13.40432
1427150568.498,-13.0836735
1427150568.514,-12.632496
1427150568.53,-12.040356
1427150568.545,-11.343288
1427150568.561,-10.596169
1427150568.577,-9.85429
1427150568.592,-9.093391
1427150568.608,-8.24469
1427150568.623,-7.1935987
1427150568.639,-5.8831224
1427150568.655,-4.3263006
1427150568.67,-2.6458244
1427150568.686,-0.97309303
1427150568.702,0.61385727
1427150568.717,2.1444016
1427150568.733,3.7235131
1427150568.748,5.4511538
1427150568.764,7.3645477
1427150568.78,9.404802
1427150568.795,11.452724
1427150568.811,13.401646
1427150568.827,15.205821
1427150568.842,16.926952
1427150568.858,18.663334
1427150568.873,20.565184
1427150568.889,22.73515
1427150568.905,25.235888
1427150568.92,28.00919
1427150568.936,30.88548
1427150568.952,33.51835
1427150568.967,35.452984
1427150568.983,36.182808
1427150568.998,35.327347
1427150569.014,32.751324
1427150569.03,28.653927
1427150569.045,23.537523
1427150569.061,18.06217
1427150569.077,12.852387
1427150569.092,8.340704
1427150569.108,4.6508274
1427150569.123,1.6696601
1427150569.139,-0.8615458
1427150569.155,-3.130316
1427150569.17,-5.203912
1427150569.186,-6.9972363
1427150569.202,-8.367918
1427150569.217,-9.229375
1427150569.233,-9.621079
1427150569.248,-9.713171
1427150569.264,-9.737921
1427150569.28,-9.886963
1427150569.295,-10.250242
1427150569.311,-10.81918
1427150569.327,-11.553886
1427150569.342,-12.393163
1427150569.358,-13.333735
1427150569.373,-14.368061
1427150569.389,-15.460175
1427150569.405,-16.488514
1427150569.42,-17.30666
1427150569.436,-17.759134
1427150569.452,-17.791046
1427150569.467,-17.462234
1427150569.483,-16.925255
1427150569.498,-16.35054
1427150569.514,-15.834217
1427150569.53,-15.337068
1427150569.545,-14.745803
1427150569.561,-13.931074
1427150569.577,-12.857098
1427150569.592,-11.572131
1427150569.608,-10.210557
1427150569.623,-8.894368
1427150569.639,-7.6933265
1427150569.655,-6.616214
1427150569.67,-5.6471543
1427150569.686,-4.766342
1427150569.702,-3.9942632
1427150569.717,-3.3313003
1427150569.733,-2.7625027
1427150569.748,-2.1913474
1427150569.764,-1.4967957
1427150569.78,-0.5462723
1427150569.795,0.7364011
1427150569.811,2.361123
1427150569.827,4.242342
1427150569.842,6.250928
1427150569.858,8.228187
1427150569.873,10.049957
1427150569.889,11.638337
1427150569.905,13.01972
1427150569.92,14.31736
1427150569.936,15.739805
1427150569.952,17.52548
1427150569.967,19.851759
1427150569.983,22.74008
1427150569.998,25.99709
1427150570.014,29.206131
1427150570.03,31.83089
1427150570.045,33.3396
1427150570.061,33.365623
1427150570.077,31.756697
1427150570.092,28.633894
1427150570.108,24.316477
1427150570.124,19.267082
1427150570.139,13.981308
1427150570.155,8.924005
1427150570.17,4.439715
1427150570.186,0.7059969
1427150570.202,-2.3013537
1427150570.217,-4.735504
1427150570.233,-6.824177
1427150570.248,-8.737979
1427150570.264,-10.524776
1427150570.28,-12.099394
1427150570.295,-13.352714
1427150570.311,-14.205254
1427150570.327,-14.723368
1427150570.342,-15.04324
1427150570.358,-15.32427
1427150570.374,-15.639442
1427150570.389,-15.98904
1427150570.405,-16.332392
1427150570.42,-16.6499
1427150570.436,-16.982754
1427150570.452,-17.392582
1427150570.467,-17.908638
1427150570.483,-18.503372
1427150570.499,-19.055767
1427150570.514,-19.431337
1427150570.53,-19.510063
1427150570.545,-19.259441
1427150570.561,-18.683771
1427150570.577,-17.858059
1427150570.592,-16.835636
1427150570.608,-15.677993
1427150570.624,-14.408786
1427150570.639,-13.069504
1427150570.655,-11.685513
1427150570.67,-10.305752
1427150570.686,-9.004382
1427150570.702,-7.8353434
1427150570.717,-6.8597536
1427150570.733,-6.0608883
1427150570.749,-5.350365
1427150570.764,-4.5954924
1427150570.78,-3.6542516
1427150570.795,-2.4860244
1427150570.811,-1.132864
1427150570.827,0.25774527
1427150570.842,1.5488362
1427150570.858,2.6398993
1427150570.874,3.5458503
1427150570.889,4.3238792
1427150570.905,5.0603657
1427150570.92,5.7988005
1427150570.936,6.543561
1427150570.952,7.2838736
1427150570.967,8.053201
1427150570.983,8.925892
1427150570.999,10.01223
1427150571.014,11.387816
1427150571.03,13.079919
1427150571.045,15.053409
1427150571.061,17.271797
1427150571.077,19.683773
1427150571.092,22.257713
1427150571.108,24.855965
1427150571.124,27.241186
1427150571.139,29.039488
1427150571.155,29.866585
1427150571.17,29.402245
1427150571.186,27.526016
1427150571.202,24.380795
1427150571.217,20.307037
1427150571.233,15.764908
1427150571.249,11.200579
1427150571.264,6.948263
1427150571.28,3.1989517
1427150571.295,-0.0029315948
1427150571.311,-2.6901035
1427150571.327,-4.9333744
1427150571.342,-6.767002
1427150571.358,-8.202709
1427150571.374,-9.1993885
1427150571.389,-9.760679
1427150571.405,-9.946556
1427150571.42,-9.912703
1427150571.436,-9.839062
1427150571.452,-9.87896
1427150571.467,-10.087936
1427150571.483,-10.43693
1427150571.499,-10.838144
1427150571.514,-11.220352
1427150571.53,-11.569778
1427150571.545,-11.944626
1427150571.561,-12.407726
1427150571.577,-13.001196
1427150571.592,-13.658878
1427150571.608,-14.243843
1427150571.624,-14.600531
1427150571.639,-14.628149
1427150571.655,-14.3316345
1427150571.67,-13.811701
1427150571.686,-13.197554
1427150571.702,-12.593542
1427150571.717,-12.015329
1427150571.733,-11.42486
1427150571.749,-10.745554
1427150571.764,-9.942383
1427150571.78,-9.039318
1427150571.795,-8.111483
1427150571.811,-7.2411766
1427150571.827,-6.459017
1427150571.842,-5.696041
1427150571.858,-4.8313694
1427150571.874,-3.7592182
1427150571.889,-2.4799423
1427150571.905,-1.1203327
1427150571.92,0.11490059
1427150571.936,1.0738888
1427150571.952,1.7523594
1427150571.967,2.3341122
1427150571.983,3.0895042
1427150571.999,4.226513
1427150572.014,5.7471848
1427150572.03,7.4660378
1427150572.045,9.081882
1427150572.061,10.390015
1427150572.077,11.3488655
1427150572.092,12.129131
1427150572.108,12.993187
1427150572.124,14.17667
1427150572.139,15.796738
1427150572.155,17.822075
1427150572.17,20.072475
1427150572.186,22.262108
1427150572.202,24.004929
1427150572.217,24.89569
1427150572.233,24.566704
1427150572.249,22.817482
1427150572.264,19.684864
1427150572.28,15.460316
1427150572.295,10.625092
1427150572.311,5.735649
1427150572.327,1.2644653
1427150572.342,-2.4662857
1427150572.358,-5.318901
1427150572.374,-7.3021164
1427150572.389,-8.534031
1427150572.405,-9.174988
1427150572.42,-9.40517
1427150572.436,-9.399044
1427150572.452,-9.292801
1427150572.467,-9.160526
1427150572.483,-9.039368
1427150572.499,-8.928665
1427150572.514,-8.864948
1427150572.53,-8.896011
1427150572.545,-9.088383
1427150572.561,-9.469425
1427150572.577,-10.012974
1427150572.592,-10.625195
1427150572.608,-11.2138405
1427150572.624,-11.738705
1427150572.639,-12.195477
1427150572.655,-12.606739
1427150572.67,-12.979118
1427150572.686,-13.267906
1427150572.702,-13.380447
1427150572.717,-13.228928
1427150572.733,-12.777256
1427150572.749,-12.032543
1427150572.764,-11.06839
1427150572.78,-9.969906
1427150572.795,-8.822636
1427150572.811,-7.655834
1427150572.827,-6.478752
1427150572.842,-5.264885
1427150572.858,-3.9692955
1427150572.874,-2.5465965
1427150572.889,-0.9903488
1427150572.905,0.69812775
1427150572.92,2.496933
1427150572.936,4.362198
1427150572.952,6.2389565
1427150572.967,8.056129
1427150572.983,9.7055435
1427150572.999,11.108143
1427150573.014,12.237099
1427150573.03,13.198669
1427150573.046,14.199112
1427150573.061,15.47715
1427150573.077,17.131569
1427150573.092,19.061356
1427150573.108,20.920715
1427150573.124,22.21106
1427150573.139,22.462189
1427150573.155,21.39795
1427150573.171,19.003761
1427150573.186,15.54734
1427150573.202,11.482193
1427150573.217,7.3140182
1427150573.233,3.4713287
1427150573.249,0.24250793
1427150573.264,-2.2654648
1427150573.28,-4.0731125
1427150573.296,-5.313179
1427150573.311,-6.1413345
1427150573.327,-6.712616
1427150573.342,-7.1322937
1427150573.358,-7.4572144
1427150573.374,-7.685364
1427150573.389,-7.818527
1427150573.405,-7.861023
1427150573.421,-7.865616
1427150573.436,-7.907593
1427150573.452,-8.065079
1427150573.467,-8.35498
1427150573.483,-8.725464
1427150573.499,-9.057373
1427150573.514,-9.234535
1427150573.53,-9.171875
1427150573.546,-8.910065
1427150573.561,-8.551506
1427150573.577,-8.244713
1427150573.592,-8.042717
1427150573.608,-7.8871307
1427150573.624,-7.6192703
1427150573.639,-7.055023
1427150573.655,-6.0847015
1427150573.671,-4.7525787
1427150573.686,-3.2136383
1427150573.702,-1.6730118
1427150573.717,-0.28577423
1427150573.733,0.8868866
1427150573.749,1.8817596
1427150573.764,2.7721024
1427150573.78,3.64402
1427150573.796,4.548317
1427150573.811,5.5165787
1427150573.827,6.5330276
1427150573.842,7.5639954
1427150573.858,8.546265
1427150573.874,9.424614
1427150573.889,10.169373
1427150573.905,10.848129
1427150573.921,11.608894
1427150573.936,12.64138
1427150573.952,14.11499
1427150573.967,16.069588
1427150573.983,18.365807
1427150573.999,20.67762
1427150574.014,22.524422
1427150574.03,23.432121
1427150574.046,23.0429
1427150574.061,21.267021
1427150574.077,18.318855
1427150574.092,14.689117
1427150574.108,10.944885
1427150574.124,7.5863113
1427150574.139,4.8673706
1427150574.155,2.79908
1427150574.171,1.2054062
1427150574.186,-0.12966919
1427150574.202,-1.3706055
1427150574.217,-2.558876
1427150574.233,-3.6579895
1427150574.249,-4.605591
1427150574.264,-5.375412
1427150574.28,-5.996689
1427150574.296,-6.52269
1427150574.311,-7.002327
1427150574.327,-7.4729767
1427150574.342,-7.9436035
1427150574.358,-8.4240265
1427150574.374,-8.920158
1427150574.389,-9.461937
1427150574.405,-10.047287
1427150574.421,-10.661766
1427150574.436,-11.250961
1427150574.452,-11.751846
1427150574.467,-12.07579
1427150574.483,-12.169273
1427150574.499,-11.984756
1427150574.514,-11.530968
1427150574.53,-10.852837
1427150574.546,-10.047226
1427150574.561,-9.252373
1427150574.577,-8.606079
1427150574.592,-8.176521
1427150574.608,-7.939163
1427150574.624,-7.7258835
1427150574.639,-7.3071747
1427150574.655,-6.4723816
1427150574.671,-5.165123
1427150574.686,-3.484314
1427150574.702,-1.6749573
1427150574.717,0.01524353
1427150574.733,1.4415436
1427150574.749,2.6354675
1427150574.764,3.7509384
1427150574.78,4.9595337
1427150574.796,6.3412857
1427150574.811,7.838188
1427150574.827,9.306259
1427150574.842,10.620773
1427150574.858,11.739914
1427150574.874,12.744774
1427150574.889,13.792206
1427150574.905,15.0407715
1427150574.921,16.595047
1427150574.936,18.460678
1427150574.952,20.51815
1427150574.967,22.562141
1427150574.983,24.30133
1427150574.999,25.442726
1427150575.014,25.731972
1427150575.03,25.044456
1427150575.046,23.382614
1427150575.061,20.864326
1427150575.077,17.687752
1427150575.092,14.10714
1427150575.108,10.38604
1427150575.124,6.7969284
1427150575.139,3.5667572
1427150575.155,0.8444824
1427150575.171,-1.3812943
1427150575.186,-3.2335892
1427150575.202,-4.887985
1427150575.217,-6.4503174
1427150575.233,-7.8887024
1427150575.249,-9.041801
1427150575.264,-9.751198
1427150575.28,-9.983429
1427150575.296,-9.889343
1427150575.311,-9.752243
1427150575.327,-9.863373
1427150575.342,-10.3669815
1427150575.358,-11.2276
1427150575.374,-12.240059
1427150575.389,-13.18438
1427150575.405,-13.914513
1427150575.421,-14.421135
1427150575.436,-14.77816
1427150575.452,-15.05442
1427150575.467,-15.223709
1427150575.483,-15.184822
1427150575.499,-14.820168
1427150575.514,-14.10434
1427150575.53,-13.141762
1427150575.546,-12.125717
1427150575.561,-11.248299
1427150575.577,-10.584366
1427150575.592,-10.094231
1427150575.608,-9.66964
1427150575.624,-9.214966
1427150575.639,-8.702835
1427150575.655,-8.135544
1427150575.671,-7.5089417
1427150575.686,-6.7498093
1427150575.702,-5.7591248
1427150575.718,-4.483383
1427150575.733,-3.010292
1427150575.749,-1.5383377
1427150575.764,-0.2970047
1427150575.78,0.574234
1427150575.796,1.0688324
1427150575.811,1.3145294
1427150575.827,1.4752121
1427150575.843,1.713417
1427150575.858,2.1487885
1427150575.874,2.8728333
1427150575.889,3.9404755
1427150575.905,5.3416977
1427150575.921,6.985237
1427150575.936,8.69854
1427150575.952,10.303505
1427150575.968,11.724434
1427150575.983,13.006638
1427150575.999,14.313927
1427150576.014,15.832069
1427150576.03,17.651001
1427150576.046,19.706024
1427150576.061,21.763802
1427150576.077,23.50602
1427150576.093,24.623642
1427150576.108,24.865112
1427150576.124,24.10138
1427150576.139,22.352974
1427150576.155,19.781975
1427150576.171,16.682419
1427150576.186,13.387772
1427150576.202,10.183945
1427150576.218,7.254471
1427150576.233,4.6445923
1427150576.249,2.308113
1427150576.264,0.18108368
1427150576.28,-1.770752
1427150576.296,-3.544571
1427150576.311,-5.1091995
1427150576.327,-6.451477
1427150576.343,-7.5886154
1427150576.358,-8.534302
1427150576.374,-9.305725
1427150576.389,-9.895081
1427150576.405,-10.298294
1427150576.421,-10.539032
1427150576.436,-10.699272
1427150576.452,-10.900253
1427150576.468,-11.249916
1427150576.483,-11.796654
1427150576.499,-12.502235
1427150576.514,-13.224491
1427150576.53,-13.817226
1427150576.546,-14.167229
1427150576.561,-14.256008
1427150576.577,-14.153404
1427150576.593,-13.964436
1427150576.608,-13.780022
1427150576.624,-13.635933
1427150576.639,-13.490757
1427150576.655,-13.264366
1427150576.671,-12.879246
1427150576.686,-12.286091
1427150576.702,-11.475906
1427150576.718,-10.500744
1427150576.733,-9.415398
1427150576.749,-8.304935
1427150576.764,-7.2352524
1427150576.78,-6.275017
1427150576.796,-5.459358
1427150576.811,-4.804722
1427150576.827,-4.2907333
1427150576.843,-3.9031487
1427150576.858,-3.5773354
1427150576.874,-3.221367
1427150576.889,-2.7242584
1427150576.905,-2.003418
1427150576.921,-1.0418129
1427150576.936,0.080020905
1427150576.952,1.2159691
1427150576.968,2.2248688
1427150576.983,3.0567665
1427150576.999,3.7747383
1427150577.014,4.5479736
1427150577.03,5.567772
1427150577.046,6.9572525
1427150577.061,8.717232
1427150577.077,10.777878
1427150577.093,12.949966
1427150577.108,14.997559
1427150577.124,16.634422
1427150577.139,17.56794
1427150577.155,17.555214
1427150577.171,16.513817
1427150577.186,14.554497
1427150577.202,12.010284
1427150577.218,9.288223
1427150577.233,6.7410965
1427150577.249,4.5193787
1427150577.264,2.5952759
1427150577.28,0.80259705
1427150577.296,-0.98435974
1427150577.311,-2.7654724
1427150577.327,-4.3895035
1427150577.343,-5.671814
1427150577.358,-6.486122
1427150577.374,-6.8493195
1427150577.389,-6.8824463
1427150577.405,-6.7377625
1427150577.421,-6.528763
1427150577.436,-6.318016
1427150577.452,-6.1004333
1427150577.468,-5.928444
1427150577.483,-5.8834305
1427150577.499,-6.059204
1427150577.514,-6.538231
1427150577.53,-7.3073273
1427150577.546,-8.246567
1427150577.561,-9.1801605
1427150577.577,-9.857269
1427150577.593,-10.088158
1427150577.608,-9.783943
1427150577.624,-9.026352
1427150577.639,-8.012253
1427150577.655,-7.0125732
1427150577.671,-6.207466
1427150577.686,-5.6295395
1427150577.702,-5.154228
1427150577.718,-4.6042557
1427150577.733,-3.8541946
1427150577.749,-2.8965683
1427150577.764,-1.7644882
1427150577.78,-0.49621582
1427150577.796,0.9179077
1427150577.811,2.482689
1427150577.827,4.138336
1427150577.843,5.700943
1427150577.858,6.941475
1427150577.874,7.6911774
1427150577.889,7.957321
1427150577.905,7.9434204
1427150577.921,7.979065
1427150577.936,8.32164
1427150577.952,9.15712
1427150577.968,10.507416
1427150577.983,12.293785
1427150577.999,14.39357
1427150578.014,16.626625
1427150578.03,18.739105
1427150578.046,20.404343
1427150578.061,21.255745
1427150578.077,21.009682
1427150578.093,19.538666
1427150578.108,16.962479
1427150578.124,13.584991
1427150578.139,9.885162
1427150578.155,6.3309937
1427150578.171,3.2934036
1427150578.186,0.9340668
1427150578.202,-0.7820358
1427150578.218,-2.0620346
1427150578.233,-3.1529922
1427150578.249,-4.2386703
1427150578.264,-5.383522
1427150578.28,-6.529335
1427150578.296,-7.5336075
1427150578.311,-8.271011
1427150578.327,-8.686188
1427150578.343,-8.827415
1427150578.358,-8.8172
1427150578.374,-8.802391
1427150578.39,-8.8570175
1427150578.405,-8.999992
1427150578.421,-9.159782
1427150578.436,-9.287186
1427150578.452,-9.359535
1427150578.468,-9.447571
1427150578.483,-9.642082
1427150578.499,-10.006172
1427150578.515,-10.493881
1427150578.53,-10.972794
1427150578.546,-11.262413
1427150578.561,-11.235489
1427150578.577,-10.869705
1427150578.593,-10.229668
1427150578.608,-9.419754
1427150578.624,-8.510544
1427150578.64,-7.5180283
1427150578.655,-6.425621
1427150578.671,-5.228195
1427150578.686,-3.9674911
1427150578.702,-2.715599
1427150578.718,-1.5807953
1427150578.733,-0.6221695
1427150578.749,0.15239716
1427150578.765,0.8186264
1427150578.78,1.5333862
1427150578.796,2.5189514
1427150578.811,3.9825668
1427150578.827,6.051399
1427150578.843,8.696892
1427150578.858,11.762085
1427150578.874,14.988312
1427150578.89,18.141205
1427150578.905,21.06073
1427150578.921,23.737679
1427150578.936,26.22371
1427150578.952,28.58339
1427150578.968,30.756516
1427150578.983,32.571014
1427150578.999,33.753143
1427150579.015,34.020813
1427150579.03,33.179405
1427150579.046,31.181831
1427150579.061,28.135315
1427150579.077,24.26413
1427150579.093,19.860077
1427150579.108,15.24115
1427150579.124,10.726631
1427150579.14,6.6037827
1427150579.155,3.0908966
1427150579.171,0.29777145
1427150579.186,-1.8139496
1427150579.202,-3.407566
1427150579.218,-4.7210846
1427150579.233,-5.9294662
1427150579.249,-7.1154404
1427150579.265,-8.243832
1427150579.28,-9.251671
1427150579.296,-10.128651
1427150579.311,-10.939384
1427150579.327,-11.776405
1427150579.343,-12.681728
1427150579.358,-13.570187
1427150579.374,-14.28545
1427150579.39,-14.709164
1427150579.405,-14.862217
1427150579.421,-14.90321
1427150579.436,-15.056202
1427150579.452,-15.441334
1427150579.468,-16.01979
1427150579.483,-16.60839
1427150579.499,-17.00528
1427150579.515,-17.062782
1427150579.53,-16.809822
1427150579.546,-16.33326
1427150579.561,-15.749222
1427150579.577,-15.104435
1427150579.593,-14.416195
1427150579.608,-13.660538
1427150579.624,-12.818069
1427150579.64,-11.841251
1427150579.655,-10.686077
1427150579.671,-9.318356
1427150579.686,-7.7766724
1427150579.702,-6.172344
1427150579.718,-4.690113
1427150579.733,-3.457775
1427150579.749,-2.5012512
1427150579.765,-1.7279434
1427150579.78,-0.9908905
1427150579.796,-0.16394806
1427150579.811,0.81344986
1427150579.827,1.9869194
1427150579.843,3.38805
1427150579.858,5.054901
1427150579.874,6.961609
1427150579.89,8.988438
1427150579.905,10.907284
1427150579.921,12.515701
1427150579.936,13.745533
1427150579.952,14.756096
1427150579.968,15.877155
1427150579.983,17.42912
1427150579.999,19.51642
1427150580.015,21.98549
1427150580.03,24.436102
1427150580.046,26.41423
1427150580.061,27.569422
1427150580.077,27.745823
1427150580.093,26.933855
1427150580.108,25.238592
1427150580.124,22.772804
1427150580.14,19.663504
1427150580.155,16.081467
1427150580.171,12.262606
1427150580.186,8.48312
1427150580.202,5.0407295
1427150580.218,2.109562
1427150580.233,-0.26924896
1427150580.249,-2.2205086
1427150580.265,-3.944313
1427150580.28,-5.614851
1427150580.296,-7.2918205
1427150580.311,-8.939281
1427150580.327,-10.441218
1427150580.343,-11.701561
1427150580.358,-12.702907
1427150580.374,-13.493102
1427150580.39,-14.140174
1427150580.405,-14.707583
1427150580.421,-15.227802
1427150580.436,-15.7221985
1427150580.452,-16.210968
1427150580.468,-16.723248
1427150580.483,-17.25056
1427150580.499,-17.764885
1427150580.515,-18.195436
1427150580.53,-18.47446
1427150580.546,-18.546715
1427150580.561,-18.415836
1427150580.577,-18.110325
1427150580.593,-17.691423
1427150580.608,-17.205982
1427150580.624,-16.676569
1427150580.64,-16.08812
1427150580.655,-15.388767
1427150580.671,-14.520021
1427150580.686,-13.441621
1427150580.702,-12.173538
1427150580.718,-10.798163
1427150580.733,-9.431003
1427150580.749,-8.155533
1427150580.765,-6.96468
1427150580.78,-5.777524
1427150580.796,-4.476196
1427150580.811,-3.0143542
1427150580.827,-1.4643426
1427150580.843,0.029800177
1427150580.858,1.3372738
1427150580.874,2.4379277
1427150580.89,3.4587808
1427150580.905,4.5757813
1427150580.921,5.929265
1427150580.936,7.511673
1427150580.952,9.193089
1427150580.968,10.785819
1427150580.983,12.178379
1427150580.999,13.385436
1427150581.015,14.563961
1427150581.03,15.919404
1427150581.046,17.653902
1427150581.062,19.842674
1427150581.077,22.410936
1427150581.093,25.120766
1427150581.108,27.589727
1427150581.124,29.365002
1427150581.14,30.025412
1427150581.155,29.26654
1427150581.171,27.043442
1427150581.186,23.565205
1427150581.202,19.274055
1427150581.218,14.679645
1427150581.233,10.233436
1427150581.249,6.2006407
1427150581.265,2.654398
1427150581.28,-0.45600033
1427150581.296,-3.1960497
1427150581.312,-5.5768967
1427150581.327,-7.5641594
1427150581.343,-9.115827
1427150581.358,-10.26145
1427150581.374,-11.094536
1427150581.39,-11.733498
1427150581.405,-12.283155
1427150581.421,-12.76462
1427150581.437,-13.183735
1427150581.452,-13.549023
1427150581.468,-13.916861
1427150581.483,-14.34763
1427150581.499,-14.886345
1427150581.515,-15.477957
1427150581.53,-16.02346
1427150581.546,-16.425697
1427150581.562,-16.649035
1427150581.577,-16.747324
1427150581.593,-16.81555
1427150581.608,-16.909044
1427150581.624,-17.01021
1427150581.64,-17.058357
1427150581.655,-17.01106
1427150581.671,-16.873217
1427150581.687,-16.724033
1427150581.702,-16.604702
1427150581.718,-16.484217
1427150581.733,-16.232733
1427150581.749,-15.696655
1427150581.765,-14.761621
1427150581.78,-13.474369
1427150581.796,-11.973394
1427150581.812,-10.441891
1427150581.827,-8.995047
1427150581.843,-7.6350803
1427150581.858,-6.2627106
1427150581.874,-4.7712593
1427150581.89,-3.0801868
1427150581.905,-1.2183285
1427150581.921,0.72543144
1427150581.937,2.6214352
1427150581.952,4.34647
1427150581.968,5.781309
1427150581.983,6.8715534
1427150581.999,7.6134872
1427150582.015,8.11507
1427150582.03,8.576565
1427150582.046,9.222626
1427150582.062,10.207882
1427150582.077,11.563873
1427150582.093,13.169811
1427150582.108,14.855883
1427150582.124,16.520931
1427150582.14,18.218866
1427150582.155,20.079979
1427150582.171,22.19293
1427150582.187,24.421492
1427150582.202,26.378859
1427150582.218,27.519667
1427150582.233,27.387426
1427150582.249,25.78238
1427150582.265,22.887455
1427150582.28,19.10667
1427150582.296,14.897299
1427150582.312,10.591946
1427150582.327,6.411272
1427150582.343,2.5028534
1427150582.358,-0.954731
1427150582.374,-3.7765846
1427150582.39,-5.8125954
1427150582.405,-7.06513
1427150582.421,-7.690956
1427150582.437,-7.933077
1427150582.452,-7.9750767
1427150582.468,-7.922369
1427150582.483,-7.8027554
1427150582.499,-7.6465683
1427150582.515,-7.5572567
1427150582.53,-7.6829224
1427150582.546,-8.132395
1427150582.562,-8.933716
1427150582.577,-9.989483
1427150582.593,-11.18903
1427150582.608,-12.410677
1427150582.624,-13.586145
1427150582.64,-14.628912
1427150582.655,-15.428335
1427150582.671,-15.841095
1427150582.687,-15.776329
1427150582.702,-15.242762
1427150582.718,-14.409803
1427150582.733,-13.514486
1427150582.749,-12.777279
1427150582.765,-12.293516
1427150582.78,-11.980982
1427150582.796,-11.652752
1427150582.812,-11.147858
1427150582.827,-10.398973
1427150582.843,-9.49547
1427150582.858,-8.603563
1427150582.874,-7.8555393
1427150582.89,-7.2431946
1427150582.905,-6.6080017
1427150582.921,-5.685608
1427150582.937,-4.248068
1427150582.952,-2.2216167
1427150582.968,0.25838852
1427150582.983,2.9079475
1427150582.999,5.3939323
1427150583.015,7.510193
1427150583.03,9.220366
1427150583.046,10.655367
1427150583.062,11.992538
1427150583.077,13.426728
1427150583.093,15.0517025
1427150583.108,16.936314
1427150583.124,19.107704
1427150583.14,21.503693
1427150583.155,23.922577
1427150583.171,25.989084
1427150583.187,27.205624
1427150583.202,27.144428
1427150583.218,25.612656
1427150583.233,22.737587
1427150583.249,18.910572
1427150583.265,14.6553955
1427150583.28,10.400219
1427150583.296,6.4317837
1427150583.312,2.866744
1427150583.327,-0.266222
1427150583.343,-2.9631758
1427150583.358,-5.195139
1427150583.374,-6.9160185
1427150583.39,-8.066598
1427150583.405,-8.612043
1427150583.421,-8.593191
1427150583.437,-8.177505
1427150583.452,-7.620927
1427150583.468,-7.2596455
1427150583.483,-7.3472824
1427150583.499,-7.948036
1427150583.515,-8.91079
1427150583.53,-9.965018
1427150583.546,-10.866147
1427150583.562,-11.555107
1427150583.577,-12.08951
1427150583.593,-12.579098
1427150583.608,-13.042319
1427150583.624,-13.399922
1427150583.64,-13.496376
1427150583.655,-13.292418
1427150583.671,-12.870105
1427150583.687,-12.433288
1427150583.702,-12.1678
1427150583.718,-12.125221
1427150583.733,-12.140241
1427150583.749,-11.964624
1427150583.765,-11.307174
1427150583.78,-10.055192
1427150583.796,-8.323198
1427150583.812,-6.418412
1427150583.827,-4.6585283
1427150583.843,-3.267908
1427150583.858,-2.2012167
1427150583.874,-1.2304983
1427150583.89,-0.076931
1427150583.905,1.4333458
1427150583.921,3.2914248
1427150583.937,5.313677
1427150583.952,7.345147
1427150583.968,9.3053665
1427150583.984,11.234972
1427150583.999,13.1974945
1427150584.015,15.20535
1427150584.03,17.171978
1427150584.046,19.043728
1427150584.062,20.874527
1427150584.077,22.83014
1427150584.093,25.06787
1427150584.109,27.524559
1427150584.124,29.78135
1427150584.14,31.200878
1427150584.155,31.138203
1427150584.171,29.284676
1427150584.187,25.790504
1427150584.202,21.20392
1427150584.218,16.185991
1427150584.234,11.316648
1427150584.249,6.907425
1427150584.265,3.0693235
1427150584.28,-0.19496346
1427150584.296,-2.8881865
1427150584.312,-5.043726
1427150584.327,-6.6861935
1427150584.343,-7.940489
1427150584.359,-8.9692
1427150584.374,-9.923462
1427150584.39,-10.88467
1427150584.405,-11.850054
1427150584.421,-12.773067
1427150584.437,-13.626247
1427150584.452,-14.408701
1427150584.468,-15.151865
1427150584.484,-15.882673
1427150584.499,-16.650095
1427150584.515,-17.495378
1427150584.53,-18.477383
1427150584.546,-19.596119
1427150584.562,-20.806347
1427150584.577,-21.961739
1427150584.593,-22.903057
1427150584.609,-23.48597
1427150584.624,-23.6807
1427150584.64,-23.557533
1427150584.655,-23.26536
1427150584.671,-22.92888
1427150584.687,-22.615446
1427150584.702,-22.272964
1427150584.718,-21.81953
1427150584.734,-21.158375
1427150584.749,-20.247887
1427150584.765,-19.063168
1427150584.78,-17.605486
1427150584.796,-15.861003
1427150584.812,-13.862967
1427150584.827,-11.702017
1427150584.843,-9.547682
1427150584.859,-7.557721
1427150584.874,-5.822127
1427150584.89,-4.276857
1427150584.905,-2.7351527
1427150584.921,-0.9942608
1427150584.937,1.0476177
1427150584.952,3.357439
1427150584.968,5.769847
1427150584.984,8.135014
1427150584.999,10.370847
1427150585.015,12.499954
1427150585.03,14.55833
1427150585.046,16.57372
1427150585.062,18.530512
1427150585.077,20.451916
1427150585.093,22.442207
1427150585.109,24.724545
1427150585.124,27.511425
1427150585.14,30.869217
1427150585.155,34.579273
1427150585.171,38.146183
1427150585.187,40.8967
1427150585.202,42.226173
1427150585.218,41.768593
1427150585.234,39.54613
1427150585.249,35.919228
1427150585.265,31.512115
1427150585.28,26.97755
1427150585.296,22.858961
1427150585.312,19.429293
1427150585.327,16.701342
1427150585.343,14.485318
1427150585.359,12.549909
1427150585.374,10.71781
1427150585.39,8.92893
1427150585.405,7.1984186
1427150585.421,5.57356
1427150585.437,4.049623
1427150585.452,2.5924594
1427150585.468,1.118006
1427150585.484,-0.41847658
1427150585.499,-2.0389276
1427150585.515,-3.7075987
1427150585.53,-5.420335
1427150585.546,-7.1732225
1427150585.562,-8.993868
1427150585.577,-10.872503
1427150585.593,-12.758273
1427150585.609,-14.513931
1427150585.624,-15.96054
1427150585.64,-16.917007
1427150585.655,-17.294071
1427150585.671,-17.128319
1427150585.687,-16.598812
1427150585.702,-15.940316
1427150585.718,-15.391407
1427150585.734,-15.059028
1427150585.749,-14.906562
1427150585.765,-14.770216
1427150585.78,-14.476292
1427150585.796,-13.884775
1427150585.812,-12.937959
1427150585.827,-11.63634
1427150585.843,-10.04933
1427150585.859,-8.262739
1427150585.874,-6.4390507
1427150585.89,-4.745859
1427150585.905,-3.3733616
1427150585.921,-2.3898544
1427150585.937,-1.7399712
1427150585.952,-1.2294712
1427150585.968,-0.6258354
1427150585.984,0.22138977
1427150585.999,1.3132324
1427150586.015,2.5867348
1427150586.03,3.9612503
1427150586.046,5.4834137
1427150586.062,7.2971764
1427150586.077,9.596325
1427150586.093,12.51457
1427150586.109,16.082434
1427150586.124,20.197884
1427150586.14,24.655533
1427150586.155,29.143368
1427150586.171,33.223274
1427150586.187,36.33779
1427150586.202,37.919777
1427150586.218,37.516964
1427150586.234,34.978886
1427150586.249,30.533306
1427150586.265,24.78527
1427150586.28,18.510399
1427150586.296,12.466656
1427150586.312,7.16362
1427150586.327,2.8147507
1427150586.343,-0.6833229
1427150586.359,-3.578041
1427150586.374,-6.1372986
1427150586.39,-8.491005
1427150586.405,-10.636723
1427150586.421,-12.440739
1427150586.437,-13.762836
1427150586.452,-14.531582
1427150586.468,-14.805069
1427150586.484,-14.755791
1427150586.499,-14.645512
1427150586.515,-14.705879
1427150586.53,-15.105194
1427150586.546,-15.864853
1427150586.562,-16.907833
1427150586.577,-18.07145
1427150586.593,-19.2122
1427150586.609,-20.2215
1427150586.624,-21.0663
1427150586.64,-21.723629
1427150586.656,-22.163685
1427150586.671,-22.296818
1427150586.687,-22.035076
1427150586.702,-21.324635
1427150586.718,-20.257755
1427150586.734,-19.022373
1427150586.749,-17.881207
1427150586.765,-16.983986
1427150586.781,-16.331444
1427150586.796,-15.754173
1427150586.812,-15.049561
1427150586.827,-14.085857
1427150586.843,-12.880405
1427150586.859,-11.570381
1427150586.874,-10.316338
1427150586.89,-9.224007
1427150586.906,-8.312805
1427150586.921,-7.5267487
1427150586.937,-6.807209
1427150586.952,-6.0951996
1427150586.968,-5.3231964
1427150586.984,-4.40551
1427150586.999,-3.2855492
1427150587.015,-1.9496689
1427150587.031,-0.51094055
1427150587.046,0.8296318
1427150587.062,1.8750763
1427150587.077,2.541504
1427150587.093,2.9329643
1427150587.109,3.32127
1427150587.124,3.9890747
1427150587.14,5.1100426
1427150587.156,6.6688156
1427150587.171,8.460602
1427150587.187,10.164131
1427150587.202,11.420265
1427150587.218,11.870831
1427150587.234,11.237038
1427150587.249,9.338516
1427150587.265,6.1793404
1427150587.281,1.9352341
1427150587.296,-3.0451431
1427150587.312,-8.386665
1427150587.327,-13.774399
1427150587.343,-19.038929
1427150587.359,-24.124275
1427150587.374,-29.013641
1427150587.39,-33.597816
1427150587.406,-37.708557
1427150587.421,-41.15973
1427150587.437,-43.881737
1427150587.452,-45.965393
1427150587.468,-47.6348
1427150587.484,-49.08296
1427150587.499,-50.39373
1427150587.515,-51.450314
1427150587.531,-51.94755
1427150587.546,-51.492676
1427150587.562,-49.754875
1427150587.577,-46.585667
1427150587.593,-42.152573
1427150587.609,-36.934555
1427150587.624,-31.649673
1427150587.64,-27.08485
1427150587.656,-23.8676
1427150587.671,-22.23233
1427150587.687,-21.885689
1427150587.702,-21.963703
1427150587.718,-21.269232
1427150587.734,-18.622604
1427150587.749,-13.34944
1427150587.765,-5.4839134
1427150587.781,4.1506443
1427150587.796,14.330761
1427150587.812,23.959248
1427150587.827,32.62754
1427150587.843,40.785458
1427150587.859,49.552464
1427150587.874,60.13436
1427150587.89,73.23729
1427150587.906,88.74266
1427150587.921,105.75899
1427150587.937,122.966965
1427150587.952,139.0387
1427150587.968,152.81927
1427150587.984,163.36617
1427150587.999,169.85477
1427150588.015,171.4978
1427150588.031,167.67804
1427150588.046,158.18216
1427150588.062,143.41333
1427150588.077,124.48326
1427150588.093,103.00215
1427150588.109,80.63971
1427150588.124,58.696648
1427150588.14,37.85678
1427150588.156,18.309322
1427150588.171,0.11709213
1427150588.187,-16.417961
1427150588.202,-30.612347
1427150588.218,-41.58549
1427150588.234,-48.69072
1427150588.249,-51.938457
1427150588.265,-52.05414
1427150588.281,-50.28382
1427150588.296,-47.962563
1427150588.312,-46.0897
1427150588.327,-45.08737
1427150588.343,-44.83156
1427150588.359,-44.865826
1427150588.374,-44.647102
1427150588.39,-43.815834
1427150588.406,-42.263424
1427150588.421,-40.194534
1427150588.437,-37.981907
1427150588.452,-35.968952
1427150588.468,-34.282738
1427150588.484,-32.788322
1427150588.499,-31.198917
1427150588.515,-29.353424
1427150588.531,-27.342285
1427150588.546,-25.486444
1427150588.562,-24.081985
1427150588.577,-23.160925
1427150588.593,-22.389744
1427150588.609,-21.283419
1427150588.624,-19.481804
1427150588.64,-16.994633
1427150588.656,-14.191244
1427150588.671,-11.603083
1427150588.687,-9.61528
1427150588.702,-8.341667
1427150588.718,-7.650223
1427150588.734,-7.4002647
1427150588.749,-7.606018
1427150588.765,-8.520611
1427150588.781,-10.4363785
1427150588.796,-13.4672165
1427150588.812,-17.349834
1427150588.827,-21.446007
1427150588.843,-24.908665
1427150588.859,-26.935207
1427150588.874,-27.003586
1427150588.89,-24.997063
1427150588.906,-21.162209
1427150588.921,-16.006199
1427150588.937,-10.134567
1427150588.952,-4.185299
1427150588.968,1.245842
1427150588.984,5.60347
1427150588.999,8.450096
1427150589.015,9.541912
1427150589.031,8.935806
1427150589.046,7.008877
1427150589.062,4.372013
1427150589.077,1.6738853
1427150589.093,-0.5726166
1427150589.109,-2.1438408
1427150589.124,-3.1185646
1427150589.14,-3.8060608
1427150589.156,-4.527458
1427150589.171,-5.4418564
1427150589.187,-6.438961
1427150589.202,-7.2065086
1427150589.218,-7.3726616
1427150589.234,-6.7309837
1427150589.249,-5.3326263
1427150589.265,-3.5011063
1427150589.281,-1.6622086
1427150589.296,-0.15991974
1427150589.312,0.90566254
1427150589.328,1.6502266
1427150589.343,2.2907429
1427150589.359,2.9651833
1427150589.374,3.6653748
1427150589.39,4.282158
1427150589.406,4.760126
1427150589.421,5.176405
1427150589.437,5.76952
1427150589.453,6.794218
1427150589.468,8.332075
1427150589.484,10.19175
1427150589.499,11.922289
1427150589.515,12.942926
1427150589.531,12.783051
1427150589.546,11.306335
1427150589.562,8.785839
1427150589.578,5.7997036
1427150589.593,3.0015717
1427150589.609,0.830225
1427150589.624,-0.60746384
1427150589.64,-1.5022526
1427150589.656,-2.1554565
1427150589.671,-2.7701283
1427150589.687,-3.324358
1427150589.703,-3.635622
1427150589.718,-3.5127258
1427150589.734,-2.9364395
1427150589.749,-2.0683823
1427150589.765,-1.1352043
1427150589.781,-0.2295742
1427150589.796,0.8004112
1427150589.812,2.323904
1427150589.828,4.729706
1427150589.843,8.173241
1427150589.859,12.409653
1427150589.874,16.827623
1427150589.89,20.597788
1427150589.906,22.996021
1427150589.921,23.596771
1427150589.937,22.424385
1427150589.953,19.877087
1427150589.968,16.543526
1427150589.984,12.951946
1427150589.999,9.443651
1427150590.015,6.12451
1427150590.031,2.9557781
1427150590.046,-0.085739136
1427150590.062,-2.9320564
1427150590.078,-5.452772
1427150590.093,-7.5136604
1427150590.109,-9.083855
1427150590.124,-10.21747
1427150590.14,-11.01874
1427150590.156,-11.562607
1427150590.171,-11.886814
1427150590.187,-12.012184
1427150590.203,-12.007551
1427150590.218,-11.9766865
1427150590.234,-12.052746
1427150590.249,-12.319399
1427150590.265,-12.796864
1427150590.281,-13.416065
1427150590.296,-14.108246
1427150590.312,-14.785114
1427150590.328,-15.341278
1427150590.343,-15.62919
1427150590.359,-15.5048065
1427150590.374,-14.857967
1427150590.39,-13.716497
1427150590.406,-12.251787
1427150590.421,-10.732233
1427150590.437,-9.403816
1427150590.453,-8.401016
1427150590.468,-7.6908226
1427150590.484,-7.1240788
1427150590.499,-6.516344
1427150590.515,-5.723919
1427150590.531,-4.7059155
1427150590.546,-3.529686
1427150590.562,-2.318327
1427150590.578,-1.2023964
1427150590.593,-0.24607086
1427150590.609,0.54725647
1427150590.624,1.2613182
1427150590.64,2.0074654
1427150590.656,2.8885632
1427150590.671,3.9533901
1427150590.687,5.199766
1427150590.703,6.563349
1427150590.718,7.9682255
1427150590.734,9.346964
1427150590.749,10.678543
1427150590.765,12.004962
1427150590.781,13.4628105
1427150590.796,15.195966
1427150590.812,17.285952
1427150590.828,19.595093
1427150590.843,21.773304
1427150590.859,23.291481
1427150590.874,23.662823
1427150590.89,22.636127
1427150590.906,20.299053
1427150590.921,17.018925
1427150590.937,13.300218
1427150590.953,9.594824
1427150590.968,6.243348
1427150590.984,3.4293938
1427150590.999,1.2244921
1427150591.015,-0.43083572
1427150591.031,-1.6789389
1427150591.046,-2.7358732
1427150591.062,-3.8004732
1427150591.078,-4.967021
1427150591.093,-6.182249
1427150591.109,-7.2814865
1427150591.124,-8.103558
1427150591.14,-8.60445
1427150591.156,-8.880845
1427150591.171,-9.1020155
1427150591.187,-9.394529
1427150591.203,-9.766726
1427150591.218,-10.130689
1427150591.234,-10.398404
1427150591.249,-10.547134
1427150591.265,-10.641932
1427150591.281,-10.74653
1427150591.296,-10.89088
1427150591.312,-11.0079
1427150591.328,-11.030873
1427150591.343,-10.885453
1427150591.359,-10.59339
1427150591.374,-10.229533
1427150591.39,-9.882167
1427150591.406,-9.577386
1427150591.421,-9.279207
1427150591.437,-8.886519
1427150591.453,-8.317441
1427150591.468,-7.5510254
1427150591.484,-6.648571
1427150591.499,-5.717417
1427150591.515,-4.8505225
1427150591.531,-4.0399733
1427150591.546,-3.2120657
1427150591.562,-2.2398105
1427150591.578,-1.068459
1427150591.593,0.27870178
1427150591.609,1.6669197
1427150591.624,2.9558845
1427150591.64,4.033344
1427150591.656,4.924756
1427150591.671,5.7373967
1427150591.687,6.6244907
1427150591.703,7.727915
1427150591.718,9.116449
1427150591.734,10.797504
1427150591.749,12.730921
1427150591.765,14.820985
1427150591.781,16.906822
1427150591.796,18.730726
1427150591.812,19.966915
1427150591.828,20.273518
1427150591.843,19.43739
1427150591.859,17.435139
1427150591.874,14.483531
1427150591.89,10.957923
1427150591.906,7.3059454
1427150591.921,3.888581
1427150591.937,0.9475632
1427150591.953,-1.429008
1427150591.968,-3.2598782
1427150591.984,-4.611692
1427150592,-5.5565333
1427150592.015,-6.178588
1427150592.031,-6.5621495
1427150592.046,-6.812802
1427150592.062,-7.049647
1427150592.078,-7.36078
1427150592.093,-7.7900248
1427150592.109,-8.339405
1427150592.124,-8.95341
1427150592.14,-9.5574255
1427150592.156,-10.061716
1427150592.171,-10.405668
1427150592.187,-10.555534
1427150592.203,-10.548773
1427150592.218,-10.442827
1427150592.234,-10.334922
1427150592.25,-10.293409
1427150592.265,-10.345239
1427150592.281,-10.450836
1427150592.296,-10.525238
1427150592.312,-10.458236
1427150592.328,-10.173849
1427150592.343,-9.633785
1427150592.359,-8.853115
1427150592.375,-7.89662
1427150592.39,-6.8678694
1427150592.406,-5.8636436
1427150592.421,-4.946784
1427150592.437,-4.117834
1427150592.453,-3.286972
1427150592.468,-2.3249035
1427150592.484,-1.1416779
1427150592.5,0.28770828
1427150592.515,1.8663082
1427150592.531,3.4434738
1427150592.546,4.8830147
1427150592.562,6.1153145
1427150592.578,7.166155
1427150592.593,8.154987
1427150592.609,9.232552
1427150592.625,10.552025
1427150592.64,12.212364
1427150592.656,14.240635
1427150592.671,16.516033
1427150592.687,18.795238
1427150592.703,20.672047
1427150592.718,21.715853
1427150592.734,21.55615
1427150592.75,20.044535
1427150592.765,17.302645
1427150592.781,13.698051
1427150592.796,9.71372
1427150592.812,5.8292847
1427150592.828,2.3903046
1427150592.843,-0.4248104
1427150592.859,-2.6107044
1427150592.875,-4.251337
1427150592.89,-5.49057
1427150592.906,-6.4407864
1427150592.921,-7.187416
1427150592.937,-7.7515907
1427150592.953,-8.121166
1427150592.968,-8.250305
1427150592.984,-8.118916
1427150593,-7.7356186
1427150593.015,-7.19981
1427150593.031,-6.6597176
1427150593.046,-6.306492
1427150593.062,-6.28294
1427150593.078,-6.6325836
1427150593.093,-7.253105
1427150593.109,-7.9623756
1427150593.125,-8.556705
1427150593.14,-8.905388
1427150593.156,-8.952881
1427150593.171,-8.749088
1427150593.187,-8.3635025
1427150593.203,-7.865795
1427150593.218,-7.2746887
1427150593.234,-6.6019897
1427150593.25,-5.846779
1427150593.265,-5.0457535
1427150593.281,-4.216297
1427150593.296,-3.376255
1427150593.312,-2.5025444
1427150593.328,-1.5543289
1427150593.343,-0.47767258
1427150593.359,0.7294426
1427150593.375,2.053608
1427150593.39,3.442131
1427150593.406,4.856598
1427150593.421,6.258686
1427150593.437,7.6340675
1427150593.453,8.964981
1427150593.468,10.260456
1427150593.484,11.531715
1427150593.5,12.83913
1427150593.515,14.267109
1427150593.531,15.921501
1427150593.546,17.849613
1427150593.562,19.974361
1427150593.578,22.062317
1427150593.593,23.75599
1427150593.609,24.649387
1427150593.625,24.440098
1427150593.64,22.994995
1427150593.656,20.407372
1427150593.671,16.95642
1427150593.687,13.047199
1427150593.703,9.105011
1427150593.718,5.515152
1427150593.734,2.5151367
1427150593.75,0.16574478
1427150593.765,-1.6415901
1427150593.781,-3.1106796
1427150593.796,-4.4441566
1427150593.812,-5.718689
1427150593.828,-6.8873405
1427150593.843,-7.8247185
1427150593.859,-8.462532
1427150593.875,-8.846268
1427150593.89,-9.138996
1427150593.906,-9.519478
1427150593.921,-10.063736
1427150593.937,-10.706223
1427150593.953,-11.292576
1427150593.968,-11.667381
1427150593.984,-11.817169
1427150594,-11.83395
1427150594.015,-11.88015
1427150594.031,-12.080551
1427150594.046,-12.450737
1427150594.062,-12.899776
1427150594.078,-13.273853
1427150594.093,-13.417118
1427150594.109,-13.235283
1427150594.125,-12.71059
1427150594.14,-11.913624
1427150594.156,-10.9629135
1427150594.171,-10.015976
1427150594.187,-9.171173
1427150594.203,-8.471973
1427150594.218,-7.8565865
1427150594.234,-7.2121162
1427150594.25,-6.3935013
1427150594.265,-5.292938
1427150594.281,-3.8855286
1427150594.296,-2.2415314
1427150594.312,-0.5066948
1427150594.328,1.1601715
1427150594.343,2.6577492
1427150594.359,3.9650345
1427150594.375,5.1385994
1427150594.39,6.260849
1427150594.406,7.369766
1427150594.421,8.438213
1427150594.437,9.398537
1427150594.453,10.205055
1427150594.468,10.881107
1427150594.484,11.489258
1427150594.5,12.117657
1427150594.515,12.812393
1427150594.531,13.604488
1427150594.546,14.537796
1427150594.562,15.706074
1427150594.578,17.214108
1427150594.593,19.117882
1427150594.609,21.282112
1427150594.625,23.348454
1427150594.64,24.822601
1427150594.656,25.229618
1427150594.672,24.284634
1427150594.687,22.01883
1427150594.703,18.726704
1427150594.718,14.868889
1427150594.734,10.905315
1427150594.75,7.2134056
1427150594.765,4.008377
1427150594.781,1.3797188
1427150594.796,-0.70360947
1427150594.812,-2.3204765
1427150594.828,-3.5879745
1427150594.843,-4.5982895
1427150594.859,-5.4395866
1427150594.875,-6.1614914
1427150594.89,-6.7946167
1427150594.906,-7.3640175
1427150594.922,-7.887577
1427150594.937,-8.390678
1427150594.953,-8.89463
1427150594.968,-9.400101
1427150594.984,-9.890106
1427150595,-10.337929
1427150595.015,-10.713112
1427150595.031,-11.029213
1427150595.047,-11.33094
1427150595.062,-11.667141
1427150595.078,-12.079529
1427150595.093,-12.523361
1427150595.109,-12.875324
1427150595.125,-12.974136
1427150595.14,-12.725212
1427150595.156,-12.134773
1427150595.172,-11.350365
1427150595.187,-10.563278
1427150595.203,-9.92659
1427150595.218,-9.462078
1427150595.234,-9.110615
1427150595.25,-8.718006
1427150595.265,-8.188087
1427150595.281,-7.496765
1427150595.297,-6.7079315
1427150595.312,-5.881344
1427150595.328,-5.060253
1427150595.343,-4.2245026
1427150595.359,-3.3470993
1427150595.375,-2.4341164
1427150595.39,-1.5575027
1427150595.406,-0.80073166
1427150595.422,-0.2285614
1427150595.437,0.16781235
1427150595.453,0.44688797
1427150595.468,0.72753525
1427150595.484,1.1050453
1427150595.5,1.6423416
1427150595.515,2.35392
1427150595.531,3.2186623
1427150595.547,4.172352
1427150595.562,5.161846
1427150595.578,6.1251373
1427150595.593,7.022888
1427150595.609,7.833832
1427150595.625,8.618881
1427150595.64,9.507542
1427150595.656,10.698738
1427150595.672,12.358955
1427150595.687,14.51321
1427150595.703,16.947048
1427150595.718,19.250751
1427150595.734,20.910343
1427150595.75,21.525005
1427150595.765,20.903275
1427150595.781,19.138206
1427150595.797,16.49775
1427150595.812,13.316479
1427150595.828,9.855888
1427150595.843,6.3234863
1427150595.859,2.9021034
1427150595.875,-0.19371033
1427150595.89,-2.7597847
1427150595.906,-4.663975
1427150595.922,-5.960697
1427150595.937,-6.835335
1427150595.953,-7.521679
1427150595.968,-8.145012
1427150595.984,-8.684383
1427150596,-9.008163
1427150596.015,-9.006378
1427150596.031,-8.687744
1427150596.047,-8.207779
1427150596.062,-7.753433
1427150596.078,-7.5005264
1427150596.093,-7.4921684
1427150596.109,-7.714512
1427150596.125,-8.107323
1427150596.14,-8.626392
1427150596.156,-9.22776
1427150596.172,-9.835045
1427150596.187,-10.337955
1427150596.203,-10.635391
1427150596.218,-10.681999
1427150596.234,-10.531288
1427150596.25,-10.27961
1427150596.265,-10.0504
1427150596.281,-9.910221
1427150596.297,-9.861111
1427150596.312,-9.839081
1427150596.328,-9.752399
1427150596.343,-9.480381
1427150596.359,-8.92688
1427150596.375,-8.039528
1427150596.39,-6.842861
1427150596.406,-5.4250374
1427150596.422,-3.9536514
1427150596.437,-2.5793
1427150596.453,-1.4111977
1427150596.468,-0.44112396
1427150596.484,0.39559555
1427150596.5,1.1738167
1427150596.515,1.9293251
1427150596.531,2.636383
1427150596.547,3.2589684
1427150596.562,3.816967
1427150596.578,4.4027863
1427150596.593,5.15699
1427150596.609,6.185955
1427150596.625,7.5274925
1427150596.64,9.118366
1427150596.656,10.831802
1427150596.672,12.499496
1427150596.687,13.958817
1427150596.703,15.058132
1427150596.718,15.661053
1427150596.734,15.62339
1427150596.75,14.818436
1427150596.765,13.167213
1427150596.781,10.710716
1427150596.797,7.615326
1427150596.812,4.203644
1427150596.828,0.84132385
1427150596.843,-2.1142807
1427150596.859,-4.436981
1427150596.875,-6.0286026
1427150596.89,-6.9053345
1427150596.906,-7.112129
1427150596.922,-6.7511673
1427150596.937,-5.9499207
1427150596.953,-4.8994675
1427150596.968,-3.8408127
1427150596.984,-3.0022202
1427150597,-2.5395966
1427150597.015,-2.5049362
1427150597.031,-2.851326
1427150597.047,-3.5089874
1427150597.062,-4.369835
1427150597.078,-5.3233795
1427150597.093,-6.2071304
1427150597.109,-6.8531265
1427150597.125,-7.104904
1427150597.14,-6.924347
1427150597.156,-6.3983
1427150597.172,-5.7154083
1427150597.187,-5.0332336
1427150597.203,-4.4262543
1427150597.218,-3.8373184
1427150597.234,-3.1876297
1427150597.25,-2.4367828
1427150597.265,-1.6415405
1427150597.281,-0.8894806
1427150597.297,-0.26516724
1427150597.312,0.23844147
1427150597.328,0.70693207
1427150597.343,1.2669067
1427150597.359,2.0016403
1427150597.375,2.929222
1427150597.39,3.9584885
1427150597.406,4.982956
1427150597.422,5.8803406
1427150597.437,6.592705
1427150597.453,7.1201553
1427150597.468,7.532776
1427150597.484,7.9040375
1427150597.5,8.336235
1427150597.515,8.938522
1427150597.531,9.855415
1427150597.547,11.202332
1427150597.562,13.041641
1427150597.578,15.267944
1427150597.594,17.595139
1427150597.609,19.584274
1427150597.625,20.805466
1427150597.64,20.983002
1427150597.656,20.108894
1427150597.672,18.388931
1427150597.687,16.136086
1427150597.703,13.597984
1427150597.719,10.909447
1427150597.734,8.113846
1427150597.75,5.2818985
1427150597.765,2.5488586
1427150597.781,0.1524353
1427150597.797,-1.6896744
1427150597.812,-2.8738785
1427150597.828,-3.4818954
1427150597.844,-3.7256851
1427150597.859,-3.8861694
1427150597.875,-4.157585
1427150597.89,-4.610367
1427150597.906,-5.182762
1427150597.922,-5.7611084
1427150597.937,-6.249832
1427150597.953,-6.6550293
1427150597.969,-7.0558243
1427150597.984,-7.6072617
1427150598,-8.436104
1427150598.015,-9.58503
1427150598.031,-10.947144
1427150598.047,-12.323074
1427150598.062,-13.463379
1427150598.078,-14.170296
1427150598.094,-14.366539
1427150598.109,-14.118118
1427150598.125,-13.5297165
1427150598.14,-12.726715
1427150598.156,-11.764252
1427150598.172,-10.677284
1427150598.187,-9.470642
1427150598.203,-8.166443
1427150598.219,-6.7970734
1427150598.234,-5.436348
1427150598.25,-4.1464157
1427150598.265,-2.9960136
1427150598.281,-2.0436554
1427150598.297,-1.3095398
1427150598.312,-0.7642479
1427150598.328,-0.34033203
1427150598.344,0.047786713
1427150598.359,0.4592209
1427150598.375,0.9308853
1427150598.39,1.5157051
1427150598.406,2.314495
1427150598.422,3.446724
1427150598.437,5.00893
1427150598.453,6.956295
1427150598.469,9.067875
1427150598.484,11.003277
1427150598.5,12.468555
1427150598.515,13.34977
1427150598.531,13.816204
1427150598.547,14.241783
1427150598.562,15.020248
1427150598.578,16.407204
1427150598.594,18.404243
1427150598.609,20.753895
1427150598.625,23.078568
1427150598.64,24.973946
1427150598.656,26.109653
1427150598.672,26.252712
1427150598.687,25.30603
1427150598.703,23.281605
1427150598.719,20.334835
1427150598.734,16.724327
1427150598.75,12.798851
1427150598.765,8.96587
1427150598.781,5.595333
1427150598.797,2.9117546
1427150598.812,0.9304886
1427150598.828,-0.5592537
1427150598.844,-1.8878212
1427150598.859,-3.3513527
1427150598.875,-5.0482826
1427150598.89,-6.8478775
1427150598.906,-8.434284
1427150598.922,-9.5187
1427150598.937,-9.993263
1427150598.953,-10.008804
1427150598.969,-9.887527
1427150598.984,-9.976799
1427150599,-10.471775
1427150599.015,-11.352852
1427150599.031,-12.446186
1427150599.047,-13.545673
1427150599.062,-14.517811
1427150599.078,-15.351921
1427150599.094,-16.097984
1427150599.109,-16.816174
1427150599.125,-17.476295
1427150599.14,-17.94357
1427150599.156,-18.032555
1427150599.172,-17.600225
1427150599.187,-16.61116
1427150599.203,-15.198179
1427150599.219,-13.579269
1427150599.234,-11.983088
1427150599.25,-10.541586
1427150599.265,-9.2625675
1427150599.281,-8.070538
1427150599.297,-6.9096413
1427150599.312,-5.805683
1427150599.328,-4.8716927
1427150599.344,-4.1968193
1427150599.359,-3.7756882
1427150599.375,-3.4501228
1427150599.39,-2.999096
1427150599.406,-2.2409592
1427150599.422,-1.15411
1427150599.437,0.13508797
1427150599.453,1.3941765
1427150599.469,2.4725761
1427150599.484,3.3338604
1427150599.5,4.0818024
1427150599.515,4.881731
1427150599.531,5.862303
1427150599.547,7.0088882
1427150599.562,8.211889
1427150599.578,9.32077
1427150599.594,10.276644
1427150599.609,11.159283
1427150599.625,12.221348
1427150599.64,13.728651
1427150599.656,15.860325
1427150599.672,18.542038
1427150599.687,21.46794
1427150599.703,24.175743
1427150599.719,26.223415
1427150599.734,27.27249
1427150599.75,27.160463
1427150599.765,25.843945
1427150599.781,23.383831
1427150599.797,19.933529
1427150599.812,15.775697
1427150599.828,11.296272
1427150599.844,6.9898376
1427150599.859,3.2752075
1427150599.875,0.4400797
1427150599.89,-1.4782524
1427150599.906,-2.6357203
1427150599.922,-3.3362308
1427150599.937,-3.8999214
1427150599.953,-4.5715537
1427150599.969,-5.480453
1427150599.984,-6.620739
1427150600,-7.8751535
1427150600.015,-9.109698
1427150600.031,-10.181722
1427150600.047,-11.035252
1427150600.062,-11.692316
1427150600.078,-12.218139
1427150600.094,-12.665999
1427150600.109,-13.074235
1427150600.125,-13.443716
1427150600.14,-13.804747
1427150600.156,-14.205915
1427150600.172,-14.742035
1427150600.187,-15.447447
1427150600.203,-16.282398
1427150600.219,-17.102055
1427150600.234,-17.713224
1427150600.25,-17.947258
1427150600.266,-17.713589
1427150600.281,-17.048471
1427150600.297,-16.11744
1427150600.312,-15.1275625
1427150600.328,-14.261024
1427150600.344,-13.581288
1427150600.359,-13.043148
1427150600.375,-12.483809
1427150600.391,-11.781724
1427150600.406,-10.892653
1427150600.422,-9.897392
1427150600.437,-8.931199
1427150600.453,-8.051327
1427150600.469,-7.185109
1427150600.484,-6.1533833
1427150600.5,-4.780716
1427150600.516,-3.035759
1427150600.531,-1.0751438
1427150600.547,0.8192539
1427150600.562,2.384472
1427150600.578,3.4978685
1427150600.594,4.2466555
1427150600.609,4.83327
1427150600.625,5.4619913
1427150600.641,6.263505
1427150600.656,7.282097
1427150600.672,8.518954
1427150600.687,10.008216
1427150600.703,11.827921
1427150600.719,14.019083
1427150600.734,16.501291
1427150600.75,18.998104
1427150600.766,21.062468
1427150600.781,22.199862
1427150600.797,22.024147
1427150600.812,20.434921
1427150600.828,17.65852
1427150600.844,14.169378
1427150600.859,10.477082
1427150600.875,6.9786367
1427150600.891,3.8132935
1427150600.906,0.96628857
1427150600.922,-1.6223326
1427150600.937,-3.931242
1427150600.953,-5.8510857
1427150600.969,-7.247555
1427150600.984,-8.095173
1427150601,-8.521746
1427150601.016,-8.748675
1427150601.031,-8.958655
1427150601.047,-9.2216015
1427150601.062,-9.459898
1427150601.078,-9.572775
1427150601.094,-9.520972
1427150601.109,-9.399073
1427150601.125,-9.375432
1427150601.141,-9.608936
1427150601.156,-10.138102
1427150601.172,-10.900533
1427150601.187,-11.740063
1427150601.203,-12.486984
1427150601.219,-13.032654
1427150601.234,-13.326941
1427150601.25,-13.384052
1427150601.266,-13.224372
1427150601.281,-12.872445
1427150601.297,-12.364619
1427150601.312,-11.72813
1427150601.328,-11.012094
1427150601.344,-10.246423
1427150601.359,-9.457444
1427150601.375,-8.6096325
1427150601.391,-7.6425524
1427150601.406,-6.4869356
1427150601.422,-5.1137385
1427150601.437,-3.5436096
1427150601.453,-1.8808885
1427150601.469,-0.22006178
1427150601.484,1.3627405
1427150601.5,2.855484
1427150601.516,4.283015
1427150601.531,5.6804824
1427150601.547,7.041572
1427150601.562,8.329468
1427150601.578,9.514093
1427150601.594,10.627256
1427150601.609,11.7621765
1427150601.625,13.075993
1427150601.641,14.694087
1427150601.656,16.658405
1427150601.672,18.850536
1427150601.687,21.014116
1427150601.703,22.784637
1427150601.719,23.790312
1427150601.734,23.7335
1427150601.75,22.451769
1427150601.766,19.963917
1427150601.781,16.494938
1427150601.797,12.397551
1427150601.812,8.128901
1427150601.828,4.1159253
1427150601.844,0.6855817
1427150601.859,-2.0139441
1427150601.875,-3.9821138
1427150601.891,-5.336147
1427150601.906,-6.239904
1427150601.922,-6.855549
1427150601.937,-7.2903533
1427150601.953,-7.607134
1427150601.969,-7.802126
1427150601.984,-7.86739
1427150602,-7.814141
1427150602.016,-7.6864166
1427150602.031,-7.5650434
1427150602.047,-7.5700064
1427150602.062,-7.798977
1427150602.078,-8.330733
1427150602.094,-9.170118
1427150602.109,-10.242113
1427150602.125,-11.387962
1427150602.141,-12.392736
1427150602.156,-13.021554
1427150602.172,-13.116876
1427150602.187,-12.640335
1427150602.203,-11.703433
1427150602.219,-10.530228
1427150602.234,-9.37204
1427150602.25,-8.401899
1427150602.266,-7.6948347
1427150602.281,-7.191083
1427150602.297,-6.7695045
1427150602.312,-6.269397
1427150602.328,-5.5587854
1427150602.344,-4.539402
1427150602.359,-3.199372
1427150602.375,-1.6175122
1427150602.391,0.05656433
1427150602.406,1.6646361
1427150602.422,3.094325
1427150602.437,4.3624697
1427150602.453,5.5359464
1427150602.469,6.7240996
1427150602.484,7.9667583
1427150602.5,9.210999
1427150602.516,10.396902
1427150602.531,11.526621
1427150602.547,12.693499
1427150602.562,14.085889
1427150602.578,15.877201
1427150602.594,18.148922
1427150602.609,20.812687
1427150602.625,23.601337
1427150602.641,26.11522
1427150602.656,27.923729
1427150602.672,28.627523
1427150602.687,27.997637
1427150602.703,26.045033
1427150602.719,23.011368
1427150602.734,19.270058
1427150602.75,15.220177
1427150602.766,11.183885
1427150602.781,7.3549995
1427150602.797,3.8589177
1427150602.812,0.79695606
1427150602.828,-1.7618558
1427150602.844,-3.7988834
1427150602.859,-5.391435
1427150602.875,-6.6835537
1427150602.891,-7.8005424
1427150602.906,-8.778711
1427150602.922,-9.581531
1427150602.938,-10.129312
1427150602.953,-10.436152
1427150602.969,-10.624248
1427150602.984,-10.904803
1427150603,-11.456308
1427150603.016,-12.342142
1427150603.031,-13.461601
1427150603.047,-14.629224
1427150603.062,-15.652634
1427150603.078,-16.42144
1427150603.094,-16.924873
1427150603.109,-17.213768
1427150603.125,-17.334911
1427150603.141,-17.279036
1427150603.156,-16.98908
1427150603.172,-16.431473
1427150603.188,-15.621775
1427150603.203,-14.681959
1427150603.219,-13.781361
1427150603.234,-13.074854
1427150603.25,-12.589233
1427150603.266,-12.188258
1427150603.281,-11.6472
1427150603.297,-10.771421
1427150603.313,-9.536192
1427150603.328,-8.12304
1427150603.344,-6.798639
1427150603.359,-5.770929
1427150603.375,-5.0623617
1427150603.391,-4.520496
1427150603.406,-3.903983
1427150603.422,-3.0461788
1427150603.438,-1.9105946
1427150603.453,-0.5934167
1427150603.469,0.7853999
1427150603.484,2.1508617
1427150603.5,3.5309443
1427150603.516,4.9926763
1427150603.531,6.615506
1427150603.547,8.417418
1427150603.563,10.333372
1427150603.578,12.246077
1427150603.594,14.032494
1427150603.609,15.616107
1427150603.625,17.030933
1427150603.641,18.43853
1427150603.656,20.061031
1427150603.672,22.081991
1427150603.688,24.525494
1427150603.703,27.174206
1427150603.719,29.609425
1427150603.734,31.30955
1427150603.75,31.854404
1427150603.766,31.026001
1427150603.781,28.8612
1427150603.797,25.582825
1427150603.813,21.534668
1427150603.828,17.077648
1427150603.844,12.565704
1427150603.859,8.313792
1427150603.875,4.598085
1427150603.891,1.5853755
1427150603.906,-0.67411566
1427150603.922,-2.2697153
1427150603.938,-3.383625
1427150603.953,-4.251346
1427150603.969,-5.064562
1427150603.984,-5.9593816
1427150604,-6.961248
1427150604.016,-8.041662
1427150604.031,-9.133994
1427150604.047,-10.180122
1427150604.063,-11.148564
1427150604.078,-12.03303
1427150604.094,-12.850777
1427150604.109,-13.641834
1427150604.125,-14.435147
1427150604.141,-15.265775
1427150604.156,-16.134958
1427150604.172,-17.011997
1427150604.188,-17.79826
1427150604.203,-18.342491
1427150604.219,-18.46597
1427150604.234,-18.06597
1427150604.25,-17.156256
1427150604.266,-15.917103
1427150604.281,-14.630902
1427150604.297,-13.598163
1427150604.313,-12.98646
1427150604.328,-12.797911
1427150604.344,-12.852436
1427150604.359,-12.91022
1427150604.375,-12.7485485
1427150604.391,-12.241564
1427150604.406,-11.351157
1427150604.422,-10.133322
1427150604.438,-8.676657
1427150604.453,-7.116307
1427150604.469,-5.579618
1427150604.484,-4.2064366
1427150604.5,-3.0462222
1427150604.516,-2.073938
1427150604.531,-1.1801305
1427150604.547,-0.23724985
1427150604.563,0.8618741
1427150604.578,2.1712632
1427150604.594,3.7034163
1427150604.609,5.4453564
1427150604.625,7.3815036
1427150604.641,9.455722
1427150604.656,11.577073
1427150604.672,13.594388
1427150604.688,15.381654
1427150604.703,16.88958
1427150604.719,18.228228
1427150604.734,19.616272
1427150604.75,21.294174
1427150604.766,23.357716
1427150604.781,25.667114
1427150604.797,27.800179
1427150604.813,29.196884
1427150604.828,29.327444
1427150604.844,27.910847
1427150604.859,25.003391
1427150604.875,21.004105
1427150604.891,16.483849
1427150604.906,12.014343
1427150604.922,7.982526
1427150604.938,4.5443273
1427150604.953,1.6710467
1427150604.969,-0.73048735
1427150604.984,-2.7664275
1427150605,-4.4796124
1427150605.016,-5.9042015
1427150605.031,-7.0617733
1427150605.047,-7.9967184
1427150605.063,-8.7453985
1427150605.078,-9.352897
1427150605.094,-9.824824
1427150605.109,-10.187754
1427150605.125,-10.457002
1427150605.141,-10.68622
1427150605.156,-10.930912
1427150605.172,-11.278127
1427150605.188,-11.814494
1427150605.203,-12.630921
1427150605.219,-13.7569275
1427150605.234,-15.136426
1427150605.25,-16.58787
1427150605.266,-17.881222
1427150605.281,-18.783936
1427150605.297,-19.172295
1427150605.313,-19.03822
1427150605.328,-18.46576
1427150605.344,-17.553814
1427150605.359,-16.39293
1427150605.375,-15.046144
1427150605.391,-13.611501
1427150605.406,-12.188752
1427150605.422,-10.9046545
1427150605.438,-9.818848
1427150605.453,-8.910282
1427150605.469,-8.043645
1427150605.484,-7.069972
1427150605.5,-5.887438
1427150605.516,-4.5115094
1427150605.531,-3.0523267
1427150605.547,-1.6718001
1427150605.563,-0.4790058
1427150605.578,0.48409653
1427150605.594,1.2718034
1427150605.61,1.9759254
1427150605.625,2.7042332
1427150605.641,3.5216098
1427150605.656,4.4664016
1427150605.672,5.511473
1427150605.688,6.6411724
1427150605.703,7.8240495
1427150605.719,9.067309
1427150605.734,10.385252
1427150605.75,11.828074
1427150605.766,13.414351
1427150605.781,15.169132
1427150605.797,17.077202
1427150605.813,19.112173
1427150605.828,21.165337
1427150605.844,23.09193
1427150605.86,24.663836
1427150605.875,25.607948
1427150605.891,25.634874
1427150605.906,24.554955
1427150605.922,22.34585
1427150605.938,19.209772
1427150605.953,15.502032
1427150605.969,11.6562
1427150605.985,8.029827
1427150606,4.8185515
1427150606.016,2.0589993
1427150606.031,-0.29696298
1427150606.047,-2.3168988
1427150606.063,-4.0065756
1427150606.078,-5.333668
1427150606.094,-6.262251
1427150606.11,-6.8220887
1427150606.125,-7.089896
1427150606.141,-7.2084503
1427150606.156,-7.2993116
1427150606.172,-7.4697495
1427150606.188,-7.7696953
1427150606.203,-8.263346
1427150606.219,-9.007359
1427150606.235,-10.069897
1427150606.25,-11.435427
1427150606.266,-12.996701
1427150606.281,-14.516598
1427150606.297,-15.729433
1427150606.313,-16.404049
1427150606.328,-16.46569
1427150606.344,-15.990334
1427150606.36,-15.184521
1427150606.375,-14.239462
1427150606.391,-13.287011
1427150606.406,-12.341224
1427150606.422,-11.372442
1427150606.438,-10.319515
1427150606.453,-9.156741
1427150606.469,-7.8896155
1427150606.485,-6.519303
1427150606.5,-5.0464077
1427150606.516,-3.4648466
1427150606.531,-1.7834873
1427150606.547,-0.04941702
1427150606.563,1.6787281
1427150606.578,3.3383427
1427150606.594,4.8908787
1427150606.61,6.2983146
1427150606.625,7.5645294
1427150606.641,8.727017
1427150606.656,9.88409
1427150606.672,11.163824
1427150606.688,12.732691
1427150606.703,14.6955185
1427150606.719,17.086248
1427150606.735,19.76654
1427150606.75,22.493704
1427150606.766,24.941074
1427150606.781,26.76662
1427150606.797,27.663853
1427150606.813,27.407587
1427150606.828,25.902256
1427150606.844,23.23449
1427150606.86,19.66559
1427150606.875,15.605486
1427150606.891,11.51055
1427150606.906,7.772664
1427150606.922,4.612083
1427150606.938,2.0676517
1427150606.953,0.013435364
1427150606.969,-1.7374887
1427150606.985,-3.350646
1427150607,-4.8840694
1427150607.016,-6.313178
1427150607.031,-7.53648
1427150607.047,-8.467096
1427150607.063,-9.08895
1427150607.078,-9.481736
1427150607.094,-9.778911
1427150607.11,-10.137418
1427150607.125,-10.666688
1427150607.141,-11.398933
1427150607.156,-12.278534
1427150607.172,-13.215346
1427150607.188,-14.106282
1427150607.203,-14.871702
1427150607.219,-15.448082
1427150607.235,-15.818203
1427150607.25,-15.977326
1427150607.266,-15.92833
1427150607.281,-15.68563
1427150607.297,-15.266563
1427150607.313,-14.6861
1427150607.328,-13.975702
1427150607.344,-13.173674
1427150607.36,-12.350464
1427150607.375,-11.545446
1427150607.391,-10.743549
1427150607.406,-9.849466
1427150607.422,-8.749519
1427150607.438,-7.3382225
1427150607.453,-5.6415997
1427150607.469,-3.8069172
1427150607.485,-2.0610332
1427150607.5,-0.59612083
1427150607.516,0.5238762
1427150607.531,1.406353
1427150607.547,2.280634
1427150607.563,3.3789272
1427150607.578,4.8074665
1427150607.594,6.5142784
1427150607.61,8.321285
1427150607.625,10.032637
1427150607.641,11.529375
1427150607.656,12.832396
1427150607.672,14.036833
1427150607.688,15.26227
1427150607.703,16.580294
1427150607.719,18.02439
1427150607.735,19.634697
1427150607.75,21.475723
1427150607.766,23.629747
1427150607.781,26.116673
1427150607.797,28.7594
1427150607.813,31.155972
1427150607.828,32.7358
1427150607.844,32.966866
1427150607.86,31.556732
1427150607.875,28.587166
1427150607.891,24.44831
1427150607.906,19.708784
1427150607.922,14.887739
1427150607.938,10.349655
1427150607.953,6.2505302
1427150607.969,2.6139603
1427150607.985,-0.595562
1427150608,-3.4019585
1427150608.016,-5.8114758
1427150608.031,-7.817518
1427150608.047,-9.458527
1427150608.063,-10.788183
1427150608.078,-11.902786
1427150608.094,-12.882694
1427150608.11,-13.7951355
1427150608.125,-14.661842
1427150608.141,-15.49313
1427150608.156,-16.277073
1427150608.172,-17.024933
1427150608.188,-17.7496
1427150608.203,-18.462418
1427150608.219,-19.144203
1427150608.235,-19.755486
1427150608.25,-20.222412
1427150608.266,-20.499691
1427150608.281,-20.586838
1427150608.297,-20.525455
1427150608.313,-20.346195
1427150608.328,-20.039341
1427150608.344,-19.528393
1427150608.36,-18.734432
1427150608.375,-17.615005
1427150608.391,-16.217236
1427150608.406,-14.648426
1427150608.422,-13.026978
1427150608.438,-11.418457
1427150608.453,-9.860413
1427150608.469,-8.375164
1427150608.485,-7.0320396
1427150608.5,-5.9141884
1427150608.516,-5.0862846
1427150608.532,-4.502327
1427150608.547,-4.0321007
1427150608.563,-3.4609108
1427150608.578,-2.6180573
1427150608.594,-1.433567
1427150608.61,0.038627625
1427150608.625,1.6717834
1427150608.641,3.322895
1427150608.657,4.907795
1427150608.672,6.405159
1427150608.688,7.8527756
1427150608.703,9.30888
1427150608.719,10.834225
1427150608.735,12.439514
1427150608.75,14.124222
1427150608.766,15.859131
1427150608.782,17.661884
1427150608.797,19.60286
1427150608.813,21.811535
1427150608.828,24.361591
1427150608.844,27.183971
1427150608.86,29.95871
1427150608.875,32.161118
1427150608.891,33.199615
1427150608.907,32.651066
1427150608.922,30.401688
1427150608.938,26.709328
1427150608.953,22.08834
1427150608.969,17.099953
1427150608.985,12.205055
1427150609,7.6854744
1427150609.016,3.6425972
1427150609.032,0.089271545
1427150609.047,-2.997242
1427150609.063,-5.6291885
1427150609.078,-7.80011
1427150609.094,-9.49651
1427150609.11,-10.73996
1427150609.125,-11.589447
1427150609.141,-12.170391
1427150609.157,-12.640949
1427150609.172,-13.160774
1427150609.188,-13.816162
1427150609.203,-14.619083
1427150609.219,-15.47868
1427150609.235,-16.290066
1427150609.25,-16.983803
1427150609.266,-17.580372
1427150609.282,-18.132675
1427150609.297,-18.707058
1427150609.313,-19.295692
1427150609.328,-19.811256
1427150609.344,-20.12138
1427150609.36,-20.14574
1427150609.375,-19.872017
1427150609.391,-19.382767
1427150609.407,-18.785553
1427150609.422,-18.16909
1427150609.438,-17.548714
1427150609.453,-16.889977
1427150609.469,-16.151077
1427150609.485,-15.349594
1427150609.5,-14.535919
1427150609.516,-13.782677
1427150609.532,-13.106728
1427150609.547,-12.447823
1427150609.563,-11.680199
1427150609.578,-10.678463
1427150609.594,-9.369221
1427150609.61,-7.794842
1427150609.625,-6.0533524
1427150609.641,-4.2943306
1427150609.657,-2.6205406
1427150609.672,-1.0800362
1427150609.688,0.38347244
1427150609.703,1.8556938
1427150609.719,3.44833
1427150609.735,5.2228775
1427150609.75,7.160324
1427150609.766,9.1675415
1427150609.782,11.122692
1427150609.797,12.931614
1427150609.813,14.5824585
1427150609.828,16.159077
1427150609.844,17.831902
1427150609.86,19.749962
1427150609.875,21.99936
1427150609.891,24.504879
1427150609.907,27.071732
1427150609.922,29.35786
1427150609.938,30.961563
1427150609.953,31.464947
1427150609.969,30.571766
1427150609.985,28.153034
1427150610,24.329987
1427150610.016,19.46939
1427150610.032,14.091015
1427150610.047,8.750893
1427150610.063,3.9115067
1427150610.078,-0.13994598
1427150610.094,-3.3133278
1427150610.11,-5.6866455
1427150610.125,-7.4241524
1427150610.141,-8.720974
1427150610.157,-9.725277
1427150610.172,-10.533886
1427150610.188,-11.150974
1427150610.203,-11.577049
1427150610.219,-11.817516
1427150610.235,-11.939823
1427150610.25,-12.06501
1427150610.266,-12.332348
1427150610.282,-12.844799
1427150610.297,-13.62521
1427150610.313,-14.587635
1427150610.328,-15.612335
1427150610.344,-16.579998
1427150610.36,-17.433453
1427150610.375,-18.127861
1427150610.391,-18.617214
1427150610.407,-18.79995
1427150610.422,-18.589699
1427150610.438,-17.941895
1427150610.453,-16.939709
1427150610.469,-15.742485
1427150610.485,-14.549561
1427150610.5,-13.485222
1427150610.516,-12.571175
1427150610.532,-11.718391
1427150610.547,-10.810505
1427150610.563,-9.755638
1427150610.578,-8.525631
1427150610.594,-7.136688
1427150610.61,-5.644039
1427150610.625,-4.0802803
1427150610.641,-2.4779892
1427150610.657,-0.8314438
1427150610.672,0.86047363
1427150610.688,2.6277695
1427150610.703,4.463993
1427150610.719,6.369217
1427150610.735,8.286282
1427150610.75,10.154934
1427150610.766,11.9551735
1427150610.782,13.73735
1427150610.797,15.601585
1427150610.813,17.692017
1427150610.828,20.101776
1427150610.844,22.810802
1427150610.86,25.679714
1427150610.875,28.444492
1427150610.891,30.750141
1427150610.907,32.21704
1427150610.922,32.508247
1427150610.938,31.410637
1427150610.953,28.909359
1427150610.969,25.197483
1427150610.985,20.625275
1427150611,15.6359825
1427150611.016,10.643082
1427150611.032,5.9855766
1427150611.047,1.8934517
1427150611.063,-1.4943047
1427150611.078,-4.159912
1427150611.094,-6.1518326
1427150611.11,-7.5997353
1427150611.125,-8.653736
1427150611.141,-9.4352455
1427150611.157,-10.013393
1427150611.172,-10.444214
1427150611.188,-10.768681
1427150611.204,-11.07486
1427150611.219,-11.483402
1427150611.235,-12.108406
1427150611.25,-12.989288
1427150611.266,-14.0774765
1427150611.282,-15.236309
1427150611.297,-16.335632
1427150611.313,-17.253098
1427150611.329,-17.926003
1427150611.344,-18.319458
1427150611.36,-18.43034
1427150611.375,-18.25304
1427150611.391,-17.811695
1427150611.407,-17.146402
1427150611.422,-16.306604
1427150611.438,-15.344004
1427150611.454,-14.2983055
1427150611.469,-13.226109
1427150611.485,-12.199053
1427150611.5,-11.301891
1427150611.516,-10.582834
1427150611.532,-9.998316
1427150611.547,-9.430382
1427150611.563,-8.696388
1427150611.579,-7.675083
1427150611.594,-6.359249
1427150611.61,-4.879875
1427150611.625,-3.4074497
1427150611.641,-2.092163
1427150611.657,-0.9481926
1427150611.672,0.08547211
1427150611.688,1.1139774
1427150611.704,2.193758
1427150611.719,3.317936
1427150611.735,4.444975
1427150611.75,5.573536
1427150611.766,6.7623024
1427150611.782,8.119242
1427150611.797,9.696123
1427150611.813,11.469334
1427150611.829,13.324151
1427150611.844,15.164126
1427150611.86,16.985
1427150611.875,18.924427
1427150611.891,21.187195
1427150611.907,23.92521
1427150611.922,27.102015
1427150611.938,30.470406
1427150611.954,33.614407
1427150611.969,36.05143
1427150611.985,37.342392
1427150612,37.179573
1427150612.016,35.42518
1427150612.032,32.153805
1427150612.047,27.636572
1427150612.063,22.336872
1427150612.079,16.814072
1427150612.094,11.61875
1427150612.11,7.1157827
1427150612.125,3.4701023
1427150612.141,0.59576035
1427150612.157,-1.6844625
1427150612.172,-3.5872993
1427150612.188,-5.252634
1427150612.204,-6.757313
1427150612.219,-8.092034
1427150612.235,-9.234987
1427150612.25,-10.172206
1427150612.266,-10.93511
1427150612.282,-11.58791
1427150612.297,-12.208753
1427150612.313,-12.841559
1427150612.329,-13.492269
1427150612.344,-14.146926
1427150612.36,-14.807274
1427150612.375,-15.5152
1427150612.391,-16.369417
1427150612.407,-17.419199
1427150612.422,-18.619831
1427150612.438,-19.76034
1427150612.454,-20.534227
1427150612.469,-20.64803
1427150612.485,-20.005522
1427150612.5,-18.760887
1427150612.516,-17.29197
1427150612.532,-16.02878
1427150612.547,-15.29261
1427150612.563,-15.169447
1427150612.579,-15.520723
1427150612.594,-16.051682
1427150612.61,-16.459988
1427150612.625,-16.505695
1427150612.641,-16.085098
1427150612.657,-15.222217
1427150612.672,-14.056209
1427150612.688,-12.787119
1427150612.704,-11.616512
1427150612.719,-10.644655
1427150612.735,-9.842879
1427150612.75,-9.040279
1427150612.766,-8.011679
1427150612.782,-6.595418
1427150612.797,-4.772982
1427150612.813,-2.666318
1427150612.829,-0.44472837
1427150612.844,1.7732763
1427150612.86,3.9856365
1427150612.875,6.273444
1427150612.891,8.698332
1427150612.907,11.260478
1427150612.922,13.847582
1427150612.938,16.312199
1427150612.954,18.522259
1427150612.969,20.4502
1427150612.985,22.139484
1427150613,23.704002
1427150613.016,25.297379
1427150613.032,27.05074
1427150613.047,29.04104
1427150613.063,31.221554
1427150613.079,33.41106
1427150613.094,35.30225
1427150613.11,36.50682
1427150613.125,36.67189
1427150613.141,35.575977
1427150613.157,33.20948
1427150613.172,29.785503
1427150613.188,25.732014
1427150613.204,21.543558
1427150613.219,17.675655
1427150613.235,14.401672
1427150613.25,11.780888
1427150613.266,9.654727
1427150613.282,7.791736
1427150613.297,5.992788
1427150613.313,4.2069955
1427150613.329,2.5011957
1427150613.344,1.011168
1427150613.36,-0.20664501
1427150613.375,-1.2129045
1427150613.391,-2.1646438
1427150613.407,-3.230236
1427150613.422,-4.4859123
1427150613.438,-5.9064236
1427150613.454,-7.3955984
1427150613.469,-8.875408
1427150613.485,-10.324904
1427150613.5,-11.759943
1427150613.516,-13.2035
1427150613.532,-14.6045065
1427150613.547,-15.844715
1427150613.563,-16.749725
1427150613.579,-17.147823
1427150613.594,-16.934689
1427150613.61,-16.130362
1427150613.625,-14.879948
1427150613.641,-13.39609
1427150613.657,-11.913252
1427150613.672,-10.619354
1427150613.688,-9.5852165
1427150613.704,-8.768
1427150613.719,-8.049549
1427150613.735,-7.305546
1427150613.75,-6.4554443
1427150613.766,-5.517309
1427150613.782,-4.550543
1427150613.797,-3.680624
1427150613.813,-2.9790306
1427150613.829,-2.4936237
1427150613.844,-2.1896744
1427150613.86,-2.0073872
1427150613.876,-1.8918476
1427150613.891,-1.8192253
1427150613.907,-1.7866726
1427150613.922,-1.7983494
1427150613.938,-1.8111687
1427150613.954,-1.6984024
1427150613.969,-1.298914
1427150613.985,-0.4879036
1427150614.001,0.7603798
1427150614.016,2.3317947
1427150614.032,4.0479507
1427150614.047,5.764843
1427150614.063,7.4936295
1427150614.079,9.40712
1427150614.094,11.736443
1427150614.11,14.571037
1427150614.126,17.722607
1427150614.141,20.729187
1427150614.157,22.96513
1427150614.172,23.834114
1427150614.188,22.98368
1427150614.204,20.380959
1427150614.219,16.320255
1427150614.235,11.2720375
1427150614.251,5.771946
1427150614.266,0.2937889
1427150614.282,-4.773182
1427150614.297,-9.143021
1427150614.313,-12.58728
1427150614.329,-14.958233
1427150614.344,-16.222935
1427150614.36,-16.49271
1427150614.376,-16.027367
1427150614.391,-15.18372
1427150614.407,-14.306786
1427150614.422,-13.652271
1427150614.438,-13.321533
1427150614.454,-13.291298
1427150614.469,-13.441006
1427150614.485,-13.67189
1427150614.501,-13.91214
1427150614.516,-14.136314
1427150614.532,-14.329243
1427150614.547,-14.485592
1427150614.563,-14.620502
1427150614.579,-14.782169
1427150614.594,-15.041393
1427150614.61,-15.464825
1427150614.626,-16.04956
1427150614.641,-16.679565
1427150614.657,-17.12416
1427150614.672,-17.122986
1427150614.688,-16.44514
1427150614.704,-15.013737
1427150614.719,-12.932301
1427150614.735,-10.484184
1427150614.751,-8.022808
1427150614.766,-5.8580437
1427150614.782,-4.116577
1427150614.797,-2.7221603
1427150614.813,-1.4440498
1427150614.829,-0.04569626
1427150614.844,1.5767326
1427150614.86,3.3296432
1427150614.876,4.99012
1427150614.891,6.3826447
1427150614.907,7.494686
1427150614.922,8.519989
1427150614.938,9.755604
1427150614.954,11.432285
1427150614.969,13.625519
1427150614.985,16.200806
1427150615.001,18.902687
1427150615.016,21.424374
1427150615.032,23.472958
1427150615.047,24.76294
1427150615.063,25.023758
1427150615.079,24.02734
1427150615.094,21.69992
1427150615.11,18.147575
1427150615.126,13.717686
1427150615.141,8.892593
1427150615.157,4.16835
1427150615.172,-0.079818726
1427150615.188,-3.627102
1427150615.204,-6.433811
1427150615.219,-8.555225
1427150615.235,-10.0928
1427150615.251,-11.1295395
1427150615.266,-11.722977
1427150615.282,-11.888283
1427150615.297,-11.668118
1427150615.313,-11.1220665
1427150615.329,-10.394833
1427150615.344,-9.658131
1427150615.36,-9.087959
1427150615.376,-8.784634
1427150615.391,-8.786644
1427150615.407,-9.047911
1427150615.422,-9.507542
1427150615.438,-10.080805
1427150615.454,-10.709002
1427150615.469,-11.300344
1427150615.485,-11.747021
1427150615.501,-11.937742
1427150615.516,-11.796822
1427150615.532,-11.287584
1427150615.547,-10.443516
1427150615.563,-9.334591
1427150615.579,-8.033037
1427150615.594,-6.5624866
1427150615.61,-4.9366646
1427150615.626,-3.1275215
1427150615.641,-1.1102581
1427150615.657,1.1107006
1427150615.672,3.4517422
1427150615.688,5.794344
1427150615.704,7.962118
1427150615.719,9.815062
1427150615.735,11.289053
1427150615.751,12.462139
1427150615.766,13.523745
1427150615.782,14.739483
1427150615.797,16.322077
1427150615.813,18.391052
1427150615.829,20.904358
1427150615.844,23.649395
1427150615.86,26.253033
1427150615.876,28.246595
1427150615.891,29.107563
1427150615.907,28.449898
1427150615.922,26.118738
1427150615.938,22.297594
1427150615.954,17.438517
1427150615.969,12.147146
1427150615.985,6.9728413
1427150616.001,2.2965012
1427150616.016,-1.68787
1427150616.032,-4.930298
1427150616.047,-7.443285
1427150616.063,-9.256767
1427150616.079,-10.44585
1427150616.094,-11.117495
1427150616.11,-11.459476
1427150616.126,-11.659554
1427150616.141,-11.87995
1427150616.157,-12.172218
1427150616.172,-12.502502
1427150616.188,-12.7777195
1427150616.204,-12.890224
1427150616.219,-12.777987
1427150616.235,-12.470381
1427150616.251,-12.066111
1427150616.266,-11.72331
1427150616.282,-11.588837
1427150616.297,-11.737059
1427150616.313,-12.120298
1427150616.329,-12.585594
1427150616.344,-12.937763
1427150616.36,-13.016535
1427150616.376,-12.723244
1427150616.391,-12.085701
1427150616.407,-11.146816
1427150616.422,-10.005583
1427150616.438,-8.736742
1427150616.454,-7.4015694
1427150616.469,-6.009943
1427150616.485,-4.571682
1427150616.501,-3.0445423
1427150616.516,-1.4010353
1427150616.532,0.39484215
1427150616.548,2.320387
1427150616.563,4.3182297
1427150616.579,6.294983
1427150616.594,8.18125
1427150616.61,9.919159
1427150616.626,11.509516
1427150616.641,12.995565
1427150616.657,14.499559
1427150616.672,16.18247
1427150616.688,18.250027
1427150616.704,20.838804
1427150616.719,23.931442
1427150616.735,27.263603
1427150616.751,30.354713
1427150616.766,32.585365
1427150616.782,33.394253
1427150616.798,32.41836
1427150616.813,29.623316
1427150616.829,25.29097
1427150616.844,19.943174
1427150616.86,14.188576
1427150616.876,8.621305
1427150616.891,3.6554604
1427150616.907,-0.4697876
1427150616.923,-3.725151
1427150616.938,-6.229082
1427150616.954,-8.174562
1427150616.969,-9.749659
1427150616.985,-11.096367
1427150617.001,-12.271246
1427150617.016,-13.275579
1427150617.032,-14.071445
1427150617.048,-14.65999
1427150617.063,-15.08736
1427150617.079,-15.457214
1427150617.094,-15.881414
1427150617.11,-16.464272
1427150617.126,-17.227358
1427150617.141,-18.109404
1427150617.157,-18.968424
1427150617.173,-19.668442
1427150617.188,-20.104012
1427150617.204,-20.259048
1427150617.219,-20.202932
1427150617.235,-20.041868
1427150617.251,-19.848536
1427150617.266,-19.651676
1427150617.282,-19.398043
1427150617.298,-19.017124
1427150617.313,-18.433092
1427150617.329,-17.603474
1427150617.344,-16.523655
1427150617.36,-15.261456
1427150617.376,-13.889496
1427150617.391,-12.492765
1427150617.407,-11.124157
1427150617.423,-9.827923
1427150617.438,-8.619055
1427150617.454,-7.5214252
1427150617.469,-6.540474
1427150617.485,-5.6617737
1427150617.501,-4.8450966
1427150617.516,-4.0186777
1427150617.532,-3.0997562
1427150617.548,-2.0510197
1427150617.563,-0.88347244
1427150617.579,0.3110962
1427150617.594,1.4290714
1427150617.61,2.3890848
1427150617.626,3.1868734
1427150617.641,3.8954725
1427150617.657,4.6483517
1427150617.673,5.559422
1427150617.688,6.7072053
1427150617.704,8.0927
1427150617.719,9.658325
1427150617.735,11.306257
1427150617.751,12.955026
1427150617.766,14.542195
1427150617.782,16.08442
1427150617.798,17.635847
1427150617.813,19.301357
1427150617.829,21.17537
1427150617.844,23.347885
1427150617.86,25.845684
1427150617.876,28.619154
1427150617.891,31.50419
1427150617.907,34.21864
1427150617.923,36.35869
1427150617.938,37.500862
1427150617.954,37.257435
1427150617.969,35.42457
1427150617.985,32.045067
1427150618.001,27.413433
1427150618.016,21.9877
1427150618.032,16.315546
1427150618.048,10.887518
1427150618.063,6.093568
1427150618.079,2.1445842
1427150618.094,-0.9170177
1427150618.11,-3.2099237
1427150618.126,-4.9391193
1427150618.141,-6.343367
1427150618.157,-7.5950055
1427150618.173,-8.789205
1427150618.188,-9.915766
1427150618.204,-10.919772
1427150618.219,-11.742286
1427150618.235,-12.383311
1427150618.251,-12.893271
1427150618.266,-13.349698
1427150618.282,-13.839854
1427150618.298,-14.436569
1427150618.313,-15.156918
1427150618.329,-15.994107
1427150618.344,-16.860836
1427150618.36,-17.64986
1427150618.376,-18.23808
1427150618.391,-18.574223
1427150618.407,-18.677612
1427150618.423,-18.63529
1427150618.438,-18.51198
1427150618.454,-18.312353
1427150618.469,-17.947374
1427150618.485,-17.295736
1427150618.501,-16.290459
1427150618.516,-14.982456
1427150618.532,-13.530949
1427150618.548,-12.155349
1427150618.563,-11.002615
1427150618.579,-10.102613
1427150618.594,-9.350697
1427150618.61,-8.593391
1427150618.626,-7.6729536
1427150618.641,-6.537131
1427150618.657,-5.2105036
1427150618.673,-3.822702
1427150618.688,-2.5357082
1427150618.704,-1.4908056
1427150618.719,-0.74069643
1427150618.735,-0.22871065
1427150618.751,0.18819427
1427150618.766,0.67501926
1427150618.782,1.3135476
1427150618.798,2.072618
1427150618.813,2.8644047
1427150618.829,3.6003337
1427150618.844,4.293562
1427150618.86,5.026129
1427150618.876,5.912286
1427150618.891,6.9819174
1427150618.907,8.190368
1427150618.923,9.429862
1427150618.938,10.656337
1427150618.954,11.920001
1427150618.969,13.363668
1427150618.985,15.174629
1427150619.001,17.455536
1427150619.016,20.19562
1427150619.032,23.228638
1427150619.048,26.254936
1427150619.063,28.899612
1427150619.079,30.754349
1427150619.094,31.45993
1427150619.11,30.76898
1427150619.126,28.648146
1427150619.141,25.278534
1427150619.157,21.053387
1427150619.173,16.456013
1427150619.188,11.970329
1427150619.204,7.947274
1427150619.219,4.5752497
1427150619.235,1.8659639
1427150619.251,-0.29084206
1427150619.266,-2.0709734
1427150619.282,-3.670847
1427150619.298,-5.241542
1427150619.313,-6.861598
1427150619.329,-8.527597
1427150619.344,-10.171422
1427150619.36,-11.687074
1427150619.376,-12.96851
1427150619.391,-13.931619
1427150619.407,-14.546617
1427150619.423,-14.82962
1427150619.438,-14.855425
1427150619.454,-14.750107
1427150619.47,-14.645665
1427150619.485,-14.632645
1427150619.501,-14.73351
1427150619.516,-14.887656
1427150619.532,-14.991009
1427150619.548,-14.969972
1427150619.563,-14.814427
1427150619.579,-14.597425
1427150619.595,-14.421272
1427150619.61,-14.352036
1427150619.626,-14.364593
1427150619.641,-14.3567915
1427150619.657,-14.17707
1427150619.673,-13.73191
1427150619.688,-12.98167
1427150619.704,-11.968531
1427150619.72,-10.749602
1427150619.735,-9.384253
1427150619.751,-7.894273
1427150619.766,-6.289977
1427150619.782,-4.6003428
1427150619.798,-2.890252
1427150619.813,-1.2508183
1427150619.829,0.20052338
1427150619.845,1.3661833
1427150619.86,2.1999884
1427150619.876,2.744586
1427150619.891,3.1337414
1427150619.907,3.5341072
1427150619.923,4.101799
1427150619.938,4.9268036
1427150619.954,5.9682064
1427150619.97,7.130787
1427150619.985,8.263861
1427150620.001,9.281776
1427150620.016,10.191784
1427150620.032,11.131388
1427150620.048,12.278284
1427150620.063,13.825787
1427150620.079,15.851807
1427150620.095,18.298828
1427150620.11,20.990452
1427150620.126,23.648878
1427150620.141,25.972778
1427150620.157,27.667038
1427150620.173,28.457521
1427150620.188,28.142065
1427150620.204,26.607687
1427150620.22,23.898787
1427150620.235,20.188951
1427150620.251,15.798765
1427150620.266,11.124994
1427150620.282,6.593231
1427150620.298,2.5340767
1427150620.313,-0.8142719
1427150620.329,-3.390171
1427150620.345,-5.2511177
1427150620.36,-6.5569706
1427150620.376,-7.478737
1427150620.391,-8.147808
1427150620.407,-8.617786
1427150620.423,-8.887337
1427150620.438,-8.91148
1427150620.454,-8.716375
1427150620.47,-8.3996105
1427150620.485,-8.15366
1427150620.501,-8.190819
1427150620.516,-8.661272
1427150620.532,-9.564743
1427150620.548,-10.772249
1427150620.563,-12.037478
1427150620.579,-13.120348
1427150620.595,-13.837011
1427150620.61,-14.152874
1427150620.626,-14.134029
1427150620.641,-13.934637
1427150620.657,-13.680117
1427150620.673,-13.431339
1427150620.688,-13.147956
1427150620.704,-12.733226
1427150620.72,-12.106981
1427150620.735,-11.236922
1427150620.751,-10.183773
1427150620.766,-9.052845
1427150620.782,-7.943269
1427150620.798,-6.9377966
1427150620.813,-6.0470934
1427150620.829,-5.235937
1427150620.845,-4.441971
1427150620.86,-3.5926847
1427150620.876,-2.5897408
1427150620.891,-1.3747606
1427150620.907,0.074643135
1427150620.923,1.7011938
1427150620.938,3.3894062
1427150620.954,4.969904
1427150620.97,6.3212357
1427150620.985,7.408533
1427150621.001,8.351786
1427150621.016,9.382315
1427150621.032,10.780218
1427150621.048,12.738123
1427150621.063,15.266666
1427150621.079,18.146833
1427150621.095,20.970242
1427150621.11,23.242289
1427150621.126,24.540754
1427150621.141,24.600174
1427150621.157,23.393282
1427150621.173,21.081736
1427150621.188,17.955929
1427150621.204,14.357721
1427150621.22,10.6116295
1427150621.235,6.9820957
1427150621.251,3.6788216
1427150621.266,0.8379059
1427150621.282,-1.4794483
1427150621.298,-3.2955513
1427150621.313,-4.6971893
1427150621.329,-5.812378
1427150621.345,-6.7378426
1427150621.36,-7.544201
1427150621.376,-8.217379
1427150621.391,-8.732564
1427150621.407,-9.069655
1427150621.423,-9.25905
1427150621.438,-9.369456
1427150621.454,-9.499362
1427150621.47,-9.7348
1427150621.485,-10.136883
1427150621.501,-10.713102
1427150621.516,-11.433868
1427150621.532,-12.234459
1427150621.548,-13.035074
1427150621.563,-13.728003
1427150621.579,-14.216925
1427150621.595,-14.417239
1427150621.61,-14.300984
1427150621.626,-13.859416
1427150621.641,-13.137437
1427150621.657,-12.193213
1427150621.673,-11.090784
1427150621.688,-9.890115
1427150621.704,-8.628407
1427150621.72,-7.3003893
1427150621.735,-5.9090796
1427150621.751,-4.426512
1427150621.766,-2.8603525
1427150621.782,-1.248045
1427150621.798,0.332016
1427150621.813,1.8034801
1427150621.829,3.1187077
1427150621.845,4.28533
1427150621.86,5.3603535
1427150621.876,6.4401283
1427150621.891,7.625931
1427150621.907,8.994083
1427150621.923,10.571108
1427150621.938,12.332157
1427150621.954,14.23834
1427150621.97,16.28124
1427150621.985,18.471594
1427150622.001,20.849026
1427150622.016,23.399967
1427150622.032,26.006302
1427150622.048,28.378038
1427150622.063,30.126568
1427150622.079,30.827808
1427150622.095,30.220684
1427150622.11,28.2556
1427150622.126,25.149426
1427150622.142,21.271236
1427150622.157,17.033209
1427150622.173,12.800284
1427150622.188,8.829027
1427150622.204,5.2786016
1427150622.22,2.2237062
1427150622.235,-0.32910633
1427150622.251,-2.4271898
1427150622.267,-4.147751
1427150622.282,-5.552043
1427150622.298,-6.695856
1427150622.313,-7.5883994
1427150622.329,-8.268548
1427150622.345,-8.784955
1427150622.36,-9.229038
1427150622.376,-9.679291
1427150622.392,-10.208687
1427150622.407,-10.822775
1427150622.423,-11.478764
1427150622.438,-12.118725
1427150622.454,-12.717659
1427150622.47,-13.279118
1427150622.485,-13.842731
1427150622.501,-14.430237
1427150622.517,-15.033612
1427150622.532,-15.558798
1427150622.548,-15.900801
1427150622.563,-15.956907
1427150622.579,-15.697196
1427150622.595,-15.165891
1427150622.61,-14.47777
1427150622.626,-13.737314
1427150622.642,-13.012467
1427150622.657,-12.282764
1427150622.673,-11.47926
1427150622.688,-10.528826
1427150622.704,-9.419224
1427150622.72,-8.19487
1427150622.735,-6.940283
1427150622.751,-5.7329464
1427150622.767,-4.625843
1427150622.782,-3.6255188
1427150622.798,-2.7569408
1427150622.813,-2.0231519
1427150622.829,-1.4202986
1427150622.845,-0.87203026
1427150622.86,-0.2567978
1427150622.876,0.5924845
1427150622.892,1.7931828
1427150622.907,3.3812013
1427150622.923,5.2821503
1427150622.938,7.37045
1427150622.954,9.532797
1427150622.97,11.726699
1427150622.985,13.973777
1427150623.001,16.340271
1427150623.017,18.854454
1427150623.032,21.517391
1427150623.048,24.255236
1427150623.063,26.940676
1427150623.079,29.370716
1427150623.095,31.268063
1427150623.11,32.29478
1427150623.126,32.144855
1427150623.142,30.637066
1427150623.157,27.807196
1427150623.173,23.915424
1427150623.188,19.39588
1427150623.204,14.708023
1427150623.22,10.234689
1427150623.235,6.196439
1427150623.251,2.6746426
1427150623.267,-0.36311913
1427150623.282,-2.9665298
1427150623.298,-5.1882133
1427150623.313,-7.056368
1427150623.329,-8.624699
1427150623.345,-9.953499
1427150623.36,-11.127363
1427150623.376,-12.16737
1427150623.392,-13.069525
1427150623.407,-13.77108
1427150623.423,-14.214706
1427150623.438,-14.405712
1427150623.454,-14.447195
1427150623.47,-14.486582
1427150623.485,-14.6966305
1427150623.501,-15.208181
1427150623.517,-16.073246
1427150623.532,-17.235268
1427150623.548,-18.554382
1427150623.563,-19.782118
1427150623.579,-20.668846
1427150623.595,-21.018177
1427150623.61,-20.769445
1427150623.626,-20.013924
1427150623.642,-18.969563
1427150623.657,-17.85877
1427150623.673,-16.829529
1427150623.688,-15.8974495
1427150623.704,-14.999319
1427150623.72,-14.069357
1427150623.735,-13.10685
1427150623.751,-12.159168
1427150623.767,-11.278671
1427150623.782,-10.4602585
1427150623.798,-9.657597
1427150623.813,-8.824089
1427150623.829,-7.990408
1427150623.845,-7.2078285
1427150623.86,-6.509962
1427150623.876,-5.803644
1427150623.892,-4.9203568
1427150623.907,-3.6720467
1427150623.923,-1.9872704
1427150623.938,0.057767868
1427150623.954,2.2492065
1427150623.97,4.376234
1427150623.985,6.313341
1427150624.001,8.060776
1427150624.017,9.681282
1427150624.032,11.242537
1427150624.048,12.728682
1427150624.063,14.091339
1427150624.079,15.311302
1427150624.095,16.44568
1427150624.11,17.661533
1427150624.126,19.181646
1427150624.142,21.16708
1427150624.157,23.673738
1427150624.173,26.541023
1427150624.188,29.41657
1427150624.204,31.802902
1427150624.22,33.17434
1427150624.235,33.10592
1427150624.251,31.433058
1427150624.267,28.272528
1427150624.282,23.98297
1427150624.298,19.043852
1427150624.313,13.9326725
1427150624.329,9.023987
1427150624.345,4.5868835
1427150624.36,0.7924175
1427150624.376,-2.2696648
1427150624.392,-4.6169815
1427150624.407,-6.3720207
1427150624.423,-7.745449
1427150624.438,-8.940998
1427150624.454,-10.104549
1427150624.47,-11.241585
1427150624.485,-12.298416
1427150624.501,-13.187473
1427150624.517,-13.91571
1427150624.532,-14.528076
1427150624.548,-15.091583
1427150624.563,-15.615623
1427150624.579,-16.03973
1427150624.595,-16.297894
1427150624.61,-16.392136
1427150624.626,-16.408794
1427150624.642,-16.487228
1427150624.657,-16.725101
1427150624.673,-17.099327
1427150624.688,-17.473873
1427150624.704,-17.66143
1427150624.72,-17.517418
1427150624.735,-17.0318
1427150624.751,-16.290527
1427150624.767,-15.426708
1427150624.782,-14.527241
1427150624.798,-13.6212845
1427150624.814,-12.668118
1427150624.829,-11.64838
1427150624.845,-10.576229
1427150624.86,-9.504475
1427150624.876,-8.491749
1427150624.892,-7.5636635
1427150624.907,-6.6831017
1427150624.923,-5.791355
1427150624.939,-4.8347816
1427150624.954,-3.8296852
1427150624.97,-2.8087196
1427150624.985,-1.8172531
1427150625.001,-0.8540878
1427150625.017,0.11267471
1427150625.032,1.1240387
1427150625.048,2.1741142
1427150625.064,3.2183533
1427150625.079,4.1847
1427150625.095,5.063755
1427150625.11,5.908352
1427150625.126,6.8326263
1427150625.142,7.935913
1427150625.157,9.279846
1427150625.173,10.834568
1427150625.189,12.531448
1427150625.204,14.315752
1427150625.22,16.224792
1427150625.235,18.35421
1427150625.251,20.785582
1427150625.267,23.462393
1427150625.282,26.105118
1427150625.298,28.236576
1427150625.314,29.331995
1427150625.329,28.98277
1427150625.345,27.075148
1427150625.36,23.830208
1427150625.376,19.715185
1427150625.392,15.293312
1427150625.407,11.022448
1427150625.423,7.1506042
1427150625.439,3.7291946
1427150625.454,0.67440224
1427150625.47,-2.0807076
1427150625.485,-4.531557
1427150625.501,-6.5802917
1427150625.517,-8.124657
1427150625.532,-9.111919
1427150625.548,-9.600101
1427150625.564,-9.736309
1427150625.579,-9.73064
1427150625.595,-9.762421
1427150625.61,-9.940063
1427150625.626,-10.285606
1427150625.642,-10.784153
1427150625.657,-11.414867
1427150625.673,-12.1850395
1427150625.689,-13.102211
1427150625.704,-14.138401
1427150625.72,-15.182167
1427150625.735,-16.076256
1427150625.751,-16.638233
1427150625.767,-16.750324
1427150625.782,-16.401329
1427150625.798,-15.706387
1427150625.814,-14.857468
1427150625.829,-14.0419655
1427150625.845,-13.339264
1427150625.86,-12.71944
1427150625.876,-12.039181
1427150625.892,-11.1675
1427150625.907,-10.034946
1427150625.923,-8.698349
1427150625.939,-7.282032
1427150625.954,-5.9122887
1427150625.97,-4.6480103
1427150625.985,-3.4841347
1427150626.001,-2.372589
1427150626.017,-1.2985249
1427150626.032,-0.27773666
1427150626.048,0.6550312
1427150626.064,1.5190792
1427150626.079,2.3985748
1427150626.095,3.4359398
1427150626.11,4.727972
1427150626.126,6.2721043
1427150626.142,7.933342
1427150626.157,9.545349
1427150626.173,10.97529
1427150626.189,12.250977
1427150626.204,13.535179
1427150626.22,15.095062
1427150626.235,17.108969
1427150626.251,19.58767
1427150626.267,22.292809
1427150626.282,24.793318
1427150626.298,26.571249
1427150626.314,27.160246
1427150626.329,26.28058
1427150626.345,23.915936
1427150626.36,20.315386
1427150626.376,15.920351
1427150626.392,11.243727
1427150626.407,6.7708263
1427150626.423,2.810482
1427150626.439,-0.47654343
1427150626.454,-3.1039066
1427150626.47,-5.151985
1427150626.485,-6.727928
1427150626.501,-7.9178715
1427150626.517,-8.804981
1427150626.532,-9.4711
1427150626.548,-9.9988365
1427150626.564,-10.456024
1427150626.579,-10.852842
1427150626.595,-11.154823
1427150626.61,-11.310383
1427150626.626,-11.3174095
1427150626.642,-11.263453
1427150626.657,-11.287241
1427150626.673,-11.534531
1427150626.689,-12.037691
1427150626.704,-12.7176
1427150626.72,-13.370966
1427150626.735,-13.808943
1427150626.751,-13.923855
1427150626.767,-13.757343
1427150626.782,-13.431648
1427150626.798,-13.08847
1427150626.814,-12.759043
1427150626.829,-12.376024
1427150626.845,-11.799034
1427150626.86,-10.914356
1427150626.876,-9.704023
1427150626.892,-8.253269
1427150626.907,-6.695591
1427150626.923,-5.146948
1427150626.939,-3.6365738
1427150626.954,-2.1515083
1427150626.97,-0.64100075
1427150626.985,0.89115715
1427150627.001,2.399149
1427150627.017,3.8073902
1427150627.032,5.094021
1427150627.048,6.301571
1427150627.064,7.5472317
1427150627.079,8.938242
1427150627.095,10.536047
1427150627.11,12.28702
1427150627.126,14.076176
1427150627.142,15.789333
1427150627.157,17.403032
1427150627.173,19.025066
1427150627.189,20.846832
1427150627.204,22.99867
1427150627.22,25.432556
1427150627.235,27.808878
1427150627.251,29.592968
1427150627.267,30.235178
1427150627.282,29.390272
1427150627.298,27.052639
1427150627.314,23.553381
1427150627.329,19.394285
1427150627.345,15.055563
1427150627.36,10.84346
1427150627.376,6.8970356
1427150627.392,3.2546082
1427150627.407,-0.024009705
1427150627.423,-2.8339958
1427150627.439,-5.0585117
1427150627.454,-6.6775646
1427150627.47,-7.774193
1427150627.486,-8.549789
1427150627.501,-9.187391
1427150627.517,-9.813879
1427150627.532,-10.4425125
1427150627.548,-11.050768
1427150627.564,-11.641005
1427150627.579,-12.288654
1427150627.595,-13.0931
1427150627.61,-14.117796
1427150627.626,-15.312393
1427150627.642,-16.505644
1427150627.657,-17.457663
1427150627.673,-17.979664
1427150627.689,-18.01232
1427150627.704,-17.661114
1427150627.72,-17.129175
1427150627.736,-16.616938
1427150627.751,-16.218845
1427150627.767,-15.869904
1427150627.782,-15.383602
1427150627.798,-14.568232
1427150627.814,-13.347509
1427150627.829,-11.816912
1427150627.845,-10.164503
1427150627.861,-8.597467
1427150627.876,-7.188696
1427150627.892,-5.8635063
1427150627.907,-4.4560204
1427150627.923,-2.8650284
1427150627.939,-1.1134243
1427150627.954,0.6046829
1427150627.97,2.077467
1427150627.986,3.1920795
1427150628.001,4.030155
1427150628.017,4.8072147
1427150628.032,5.7755184
1427150628.048,7.062746
1427150628.064,8.626518
1427150628.079,10.294088
1427150628.095,11.899124
1427150628.111,13.37402
1427150628.126,14.810398
1427150628.142,16.375818
1427150628.157,18.263147
1427150628.173,20.553602
1427150628.189,23.197592
1427150628.204,26.004662
1427150628.22,28.71166
1427150628.236,30.985138
1427150628.251,32.481316
1427150628.267,32.873333
1427150628.282,31.94756
1427150628.298,29.658405
1427150628.314,26.170616
1427150628.329,21.812431
1427150628.345,17.019634
1427150628.361,12.206371
1427150628.376,7.6847916
1427150628.392,3.628971
1427150628.407,0.09789276
1427150628.423,-2.9407806
1427150628.439,-5.5397873
1427150628.454,-7.7625313
1427150628.47,-9.640915
1427150628.486,-11.211399
1427150628.501,-12.492283
1427150628.517,-13.532249
1427150628.532,-14.370796
1427150628.548,-15.074516
1427150628.564,-15.6971855
1427150628.579,-16.30618
1427150628.595,-16.938847
1427150628.611,-17.622944
1427150628.626,-18.333439
1427150628.642,-19.041618
1427150628.657,-19.668243
1427150628.673,-20.14286
1427150628.689,-20.411865
1427150628.704,-20.469093
1427150628.72,-20.323677
1427150628.736,-20.01876
1427150628.751,-19.562355
1427150628.767,-18.952389
1427150628.782,-18.179058
1427150628.798,-17.252739
1427150628.814,-16.221188
1427150628.829,-15.149979
1427150628.845,-14.08202
1427150628.861,-13.029587
1427150628.876,-11.958805
1427150628.892,-10.843403
1427150628.907,-9.6873665
1427150628.923,-8.526405
1427150628.939,-7.415764
1427150628.954,-6.4321365
1427150628.97,-5.6108704
1427150628.986,-4.9837227
1427150629.001,-4.5076447
1427150629.017,-4.124874
1427150629.032,-3.7108688
1427150629.048,-3.1691437
1427150629.064,-2.4195633
1427150629.079,-1.494545
1427150629.095,-0.48928833
1427150629.111,0.45996094
1427150629.126,1.2487946
1427150629.142,1.8555679
1427150629.157,2.3481255
1427150629.173,2.8551102
1427150629.189,3.5128212
1427150629.204,4.4267197
1427150629.22,5.6456604
1427150629.236,7.1584473
1427150629.251,8.894566
1427150629.267,10.720596
1427150629.282,12.493336
1427150629.298,14.087376
1427150629.314,15.474548
1427150629.329,16.76046
1427150629.345,18.179825
1427150629.361,19.998394
1427150629.376,22.402626
1427150629.392,25.362701
1427150629.407,28.589325
1427150629.423,31.571571
1427150629.439,33.729397
1427150629.454,34.54844
1427150629.47,33.752167
1427150629.486,31.358593
1427150629.501,27.654049
1427150629.517,23.093094
1427150629.532,18.166069
