1435187580.534,0.0
1435187580.55,0.0
1435187580.566,0.0
1435187580.581,0.0
1435187580.597,0.0
1435187580.612,0.0
1435187580.628,0.0
1435187580.644,0.0
1435187580.659,0.0
1435187580.675,0.0022315353
1435187580.691,-0.0045169927
1435187580.706,-0.011265522
1435187580.722,-0.011383951
1435187580.737,0.0011864507
1435187580.753,0.025910312
1435187580.769,0.050634187
1435187580.784,0.051362894
1435187580.8,-0.0014929791
1435187580.816,-0.1302426
1435187580.831,-0.35562757
1435187580.847,-0.6591247
1435187580.862,-1.0095103
1435187580.878,-1.3709826
1435187580.894,-1.7197359
1435187580.909,-2.0551105
1435187580.925,-2.39945
1435187580.941,-2.7866635
1435187580.956,-3.2399073
1435187580.972,-3.796012
1435187580.987,-4.418684
1435187581.003,-5.0592937
1435187581.019,-5.6644096
1435187581.034,-6.2021537
1435187581.05,-6.6808786
1435187581.066,-7.149597
1435187581.081,-7.6782284
1435187581.097,-8.310725
1435187581.112,-9.143782
1435187581.128,-10.09025
1435187581.144,-11.042467
1435187581.159,-11.885973
1435187581.175,-12.566048
1435187581.191,-13.136128
1435187581.206,-13.758256
1435187581.222,-14.648699
1435187581.237,-15.95961
1435187581.253,-17.918394
1435187581.269,-20.332283
1435187581.284,-22.929447
1435187581.3,-25.406193
1435187581.316,-27.586239
1435187581.331,-29.536
1435187581.347,-31.568983
1435187581.362,-34.126442
1435187581.378,-37.53651
1435187581.394,-42.191734
1435187581.409,-47.744083
1435187581.425,-53.665115
1435187581.441,-59.358494
1435187581.456,-64.45011
1435187581.472,-68.99075
1435187581.487,-73.46078
1435187581.503,-78.564156
1435187581.519,-84.84001
1435187581.534,-92.83643
1435187581.55,-102.04568
1435187581.566,-111.65653
1435187581.581,-120.75024
1435187581.597,-128.72504
1435187581.612,-135.58737
1435187581.628,-141.95908
1435187581.644,-149.19395
1435187581.659,-156.03282
1435187581.675,-164.77557
1435187581.691,-176.0254
1435187581.706,-189.85104
1435187581.722,-204.97636
1435187581.737,-218.40553
1435187581.753,-225.74765
1435187581.769,-222.36365
1435187581.784,-204.9522
1435187581.8,-172.74399
1435187581.816,-128.23065
1435187581.831,-75.28615
1435187581.847,-18.176422
1435187581.862,40.01361
1435187581.878,97.90524
1435187581.894,155.35202
1435187581.909,212.46039
1435187581.925,268.7987
1435187581.941,323.29904
1435187581.956,374.29376
1435187581.972,420.78418
1435187581.987,462.17233
1435187582.003,498.11673
1435187582.019,528.0219
1435187582.034,550.6736
1435187582.05,564.29474
1435187582.066,566.896
1435187582.081,557.0771
1435187582.097,534.3303
1435187582.112,499.7534
1435187582.128,455.55997
1435187582.144,404.61417
1435187582.159,349.8257
1435187582.175,293.7045
1435187582.191,238.20569
1435187582.206,184.75632
1435187582.222,134.33481
1435187582.237,87.31543
1435187582.253,43.65213
1435187582.269,2.8127441
1435187582.284,-35.878967
1435187582.3,-72.78758
1435187582.316,-107.6315
1435187582.331,-139.48706
1435187582.347,-167.15599
1435187582.362,-189.71106
1435187582.378,-206.92764
1435187582.394,-219.19756
1435187582.409,-227.24684
1435187582.425,-231.68121
1435187582.441,-232.76517
1435187582.456,-230.55222
1435187582.472,-225.22336
1435187582.488,-217.3436
1435187582.503,-207.83583
1435187582.519,-197.67807
1435187582.534,-187.51822
1435187582.55,-177.51057
1435187582.566,-167.41699
1435187582.581,-156.8515
1435187582.597,-145.64014
1435187582.613,-133.965
1435187582.628,-122.27704
1435187582.644,-111.09605
1435187582.659,-100.77762
1435187582.675,-91.38778
1435187582.691,-82.78075
1435187582.706,-74.71906
1435187582.722,-66.997604
1435187582.738,-59.530815
1435187582.753,-52.372772
1435187582.769,-45.667698
1435187582.784,-39.566925
1435187582.8,-34.254284
1435187582.816,-29.654202
1435187582.831,-25.576569
1435187582.847,-21.796974
1435187582.863,-18.133488
1435187582.878,-14.548328
1435187582.894,-11.142033
1435187582.909,-8.08725
1435187582.925,-5.491131
1435187582.941,-3.3335342
1435187582.956,-1.4587746
1435187582.972,0.2837181
1435187582.988,1.9620628
1435187583.003,3.5402565
1435187583.019,4.9108734
1435187583.034,5.9901466
1435187583.05,6.766865
1435187583.066,7.2673683
1435187583.081,7.5140266
1435187583.097,7.477066
1435187583.113,7.078743
1435187583.128,6.2649345
1435187583.144,5.101879
1435187583.159,3.7568817
1435187583.175,2.5051613
1435187583.191,1.5886574
1435187583.206,1.1285667
1435187583.222,1.1194572
1435187583.238,1.4521141
1435187583.253,1.9592094
1435187583.269,2.4834595
1435187583.284,2.918232
1435187583.3,3.2208328
1435187583.316,3.4023857
1435187583.331,3.530243
1435187583.347,3.6374588
1435187583.363,3.738575
1435187583.378,3.7701874
1435187583.394,3.6422844
1435187583.409,3.2632065
1435187583.425,2.6411896
1435187583.441,1.8681946
1435187583.456,1.1274204
1435187583.472,0.6130161
1435187583.488,0.44506073
1435187583.503,0.618248
1435187583.519,0.9932327
1435187583.534,1.3701687
1435187583.55,1.5962105
1435187583.566,1.6137581
1435187583.581,1.5230694
1435187583.597,1.4858894
1435187583.613,1.6688747
1435187583.628,2.1134567
1435187583.644,2.7251987
1435187583.659,3.2706413
1435187583.675,3.569254
1435187583.691,3.5242786
1435187583.706,3.2310238
1435187583.722,2.9133663
1435187583.738,2.7820358
1435187583.753,2.910717
1435187583.769,3.192501
1435187583.784,3.3695679
1435187583.8,3.1770477
1435187583.816,2.4774227
1435187583.831,1.3251591
1435187583.847,-0.07987976
1435187583.863,-1.4321709
1435187583.878,-2.51305
1435187583.894,-3.2095394
1435187583.909,-3.5277214
1435187583.925,-3.505722
1435187583.941,-3.2012863
1435187583.956,-2.6159096
1435187583.972,-1.8057823
1435187583.988,-0.8835964
1435187584.003,-0.021539688
1435187584.019,0.5646057
1435187584.034,0.7128563
1435187584.05,0.43788147
1435187584.066,-0.0705452
1435187584.081,-0.4942379
1435187584.097,-0.5541191
1435187584.113,-0.15489578
1435187584.128,0.5427246
1435187584.144,1.2304211
1435187584.159,1.598774
1435187584.175,1.5369587
1435187584.191,1.1302719
1435187584.206,0.62081337
1435187584.222,0.22558403
1435187584.238,0.07182884
1435187584.253,0.1197319
1435187584.269,0.2684536
1435187584.284,0.428442
1435187584.3,0.57105255
1435187584.316,0.73452187
1435187584.331,0.9573631
1435187584.347,1.2194118
1435187584.363,1.484312
1435187584.378,1.693819
1435187584.394,1.8472538
1435187584.409,1.9619713
1435187584.425,2.057108
1435187584.441,2.0919476
1435187584.456,2.033104
1435187584.472,1.8106022
1435187584.488,1.4036655
1435187584.503,0.8417282
1435187584.519,0.18272018
1435187584.534,-0.5196228
1435187584.55,-1.1987572
1435187584.566,-1.7935829
1435187584.581,-2.2195244
1435187584.597,-2.402401
1435187584.613,-2.2956047
1435187584.628,-1.9118824
1435187584.644,-1.3339405
1435187584.659,-0.6717529
1435187584.675,0.0136470795
1435187584.691,0.68680954
1435187584.706,1.3613243
1435187584.722,2.022049
1435187584.738,2.6305828
1435187584.753,3.1115093
1435187584.769,3.4073353
1435187584.784,3.5396824
1435187584.8,3.5587711
1435187584.816,3.5492458
1435187584.831,3.5271645
1435187584.847,3.443348
1435187584.863,3.2337704
1435187584.878,2.8595963
1435187584.894,2.3861885
1435187584.909,1.9331875
1435187584.925,1.6478767
1435187584.941,1.5649147
1435187584.956,1.6129608
1435187584.972,1.5800667
1435187584.988,1.2872868
1435187585.003,0.6454296
1435187585.019,-0.27099037
1435187585.034,-1.284977
1435187585.05,-2.1761398
1435187585.066,-2.805811
1435187585.081,-3.1673203
1435187585.097,-3.3806229
1435187585.113,-3.6015148
1435187585.128,-3.9926147
1435187585.144,-4.649063
1435187585.16,-5.6258364
1435187585.175,-6.9042454
1435187585.191,-8.446178
1435187585.206,-10.148314
1435187585.222,-11.847814
1435187585.238,-13.332961
1435187585.253,-14.383353
1435187585.269,-14.83753
1435187585.285,-14.616786
1435187585.3,-13.740838
1435187585.316,-12.33261
1435187585.331,-10.504073
1435187585.347,-8.415798
1435187585.363,-6.204114
1435187585.378,-3.9404345
1435187585.394,-1.7093039
1435187585.41,0.37621307
1435187585.425,2.227006
1435187585.441,3.775364
1435187585.456,5.009943
1435187585.472,5.9663744
1435187585.488,6.7138767
1435187585.503,7.307516
1435187585.519,7.7794333
1435187585.535,8.086467
1435187585.55,8.1873865
1435187585.566,8.06572
1435187585.581,7.781608
1435187585.597,7.427244
1435187585.613,7.1328406
1435187585.628,6.943075
1435187585.644,6.867242
1435187585.66,6.826367
1435187585.675,6.7603345
1435187585.691,6.6055217
1435187585.706,6.383194
1435187585.722,6.132045
1435187585.738,5.90392
1435187585.753,5.727319
1435187585.769,5.62433
1435187585.785,5.5754747
1435187585.8,5.5287046
1435187585.816,5.3791723
1435187585.831,4.9842763
1435187585.847,4.1991444
1435187585.863,2.9708745
1435187585.878,1.3631395
1435187585.894,-0.40913236
1435187585.91,-2.0830326
1435187585.925,-3.4170685
1435187585.941,-4.2827334
1435187585.956,-4.6579413
1435187585.972,-4.642229
1435187585.988,-4.3340416
1435187586.003,-3.8273358
1435187586.019,-3.2052152
1435187586.035,-2.524018
1435187586.05,-1.8456919
1435187586.066,-1.2316562
1435187586.081,-0.7271433
1435187586.097,-0.31860793
1435187586.113,0.023349106
1435187586.128,0.30943826
1435187586.144,0.5515405
1435187586.16,0.72612846
1435187586.175,0.8535006
1435187586.191,0.96455747
1435187586.206,1.1311594
1435187586.222,1.3806806
1435187586.238,1.7195756
1435187586.253,2.067471
1435187586.269,2.3706887
1435187586.285,2.6046414
1435187586.3,2.7995915
1435187586.316,3.0253518
1435187586.331,3.3629336
1435187586.347,3.8808029
1435187586.363,4.5550013
1435187586.378,5.381022
1435187586.394,6.379402
1435187586.41,7.578203
1435187586.425,9.0000105
1435187586.441,10.576768
1435187586.456,12.130945
1435187586.472,13.33522
1435187586.488,13.858482
1435187586.503,13.41971
1435187586.519,11.917797
1435187586.535,9.431259
1435187586.55,6.2233133
1435187586.566,2.6482592
1435187586.581,-0.9414191
1435187586.597,-4.2647004
1435187586.613,-7.154626
1435187586.628,-9.560165
1435187586.644,-11.513164
1435187586.66,-13.038918
1435187586.675,-14.138987
1435187586.691,-14.792598
1435187586.706,-14.974861
1435187586.722,-14.734474
1435187586.738,-14.163809
1435187586.753,-13.415878
1435187586.769,-12.615486
1435187586.785,-11.841513
1435187586.8,-11.069174
1435187586.816,-10.239998
1435187586.831,-9.304663
1435187586.847,-8.274101
1435187586.863,-7.2141566
1435187586.878,-6.21711
1435187586.894,-5.3113956
1435187586.91,-4.4473786
1435187586.925,-3.5004907
1435187586.941,-2.3322144
1435187586.956,-0.8638325
1435187586.972,0.8401208
1435187586.988,2.6447124
1435187587.003,4.37804
1435187587.019,5.9740906
1435187587.035,7.50278
1435187587.05,9.1493025
1435187587.066,11.071539
1435187587.081,13.272689
1435187587.097,15.48353
1435187587.113,17.243599
1435187587.128,18.050419
1435187587.144,17.560833
1435187587.16,15.744511
1435187587.175,12.870371
1435187587.191,9.390587
1435187587.206,5.7527
1435187587.222,2.238933
1435187587.238,-1.0357933
1435187587.253,-4.0731635
1435187587.269,-6.86209
1435187587.285,-9.335781
1435187587.3,-11.3828
1435187587.316,-12.904908
1435187587.331,-13.864589
1435187587.347,-14.312324
1435187587.363,-14.323801
1435187587.378,-13.99124
1435187587.394,-13.374435
1435187587.41,-12.546819
1435187587.425,-11.583155
1435187587.441,-10.579218
1435187587.456,-9.62167
1435187587.472,-8.752004
1435187587.488,-7.950108
1435187587.503,-7.1629324
1435187587.519,-6.335909
1435187587.535,-5.458376
1435187587.55,-4.5530615
1435187587.566,-3.6380863
1435187587.581,-2.6710691
1435187587.597,-1.5735642
1435187587.613,-0.25084758
1435187587.628,1.3170779
1435187587.644,3.0646327
1435187587.66,4.81971
1435187587.675,6.4271736
1435187587.691,7.819311
1435187587.706,9.084744
1435187587.722,10.411419
1435187587.738,11.994596
1435187587.753,13.883596
1435187587.769,15.94955
1435187587.785,17.88821
1435187587.8,19.341654
1435187587.816,20.002195
1435187587.832,19.690088
1435187587.847,18.328413
1435187587.863,15.960644
1435187587.878,12.708727
1435187587.894,8.813276
1435187587.91,4.6299767
1435187587.925,0.5848808
1435187587.941,-2.947032
1435187587.956,-5.7554545
1435187587.972,-7.857911
1435187587.988,-9.440689
1435187588.003,-10.742428
1435187588.019,-11.908552
1435187588.035,-12.9497795
1435187588.05,-13.752618
1435187588.066,-14.214495
1435187588.082,-14.303525
1435187588.097,-14.0996475
1435187588.113,-13.743721
1435187588.128,-13.370713
1435187588.144,-13.028322
1435187588.16,-12.701507
1435187588.175,-12.319541
1435187588.191,-11.820946
1435187588.207,-11.155277
1435187588.222,-10.320532
1435187588.238,-9.335484
1435187588.253,-8.2682
1435187588.269,-7.1970778
1435187588.285,-6.191251
1435187588.3,-5.2802477
1435187588.316,-4.449483
1435187588.332,-3.6201887
1435187588.347,-2.7276688
1435187588.363,-1.70681
1435187588.378,-0.54454327
1435187588.394,0.7655258
1435187588.41,2.1975203
1435187588.425,3.7192574
1435187588.441,5.2642746
1435187588.457,6.7425337
1435187588.472,8.058594
1435187588.488,9.194114
1435187588.503,10.245279
1435187588.519,11.41403
1435187588.535,12.908648
1435187588.55,14.815559
1435187588.566,16.995255
1435187588.582,19.09463
1435187588.597,20.66603
1435187588.613,21.331041
1435187588.628,20.898422
1435187588.644,19.405817
1435187588.66,17.02581
1435187588.675,13.993624
1435187588.691,10.524788
1435187588.707,6.8258705
1435187588.722,3.1074657
1435187588.738,-0.40522766
1435187588.753,-3.5301838
1435187588.769,-6.16308
1435187588.785,-8.304142
1435187588.8,-10.04003
1435187588.816,-11.478443
1435187588.832,-12.662188
1435187588.847,-13.563328
1435187588.863,-14.103151
1435187588.878,-14.211466
1435187588.894,-13.895603
1435187588.91,-13.267338
1435187588.925,-12.487112
1435187588.941,-11.731138
1435187588.957,-11.108574
1435187588.972,-10.651083
1435187588.988,-10.30772
1435187589.003,-10.009287
1435187589.019,-9.701689
1435187589.035,-9.376139
1435187589.05,-9.045151
1435187589.066,-8.701668
1435187589.082,-8.284258
1435187589.097,-7.6886787
1435187589.113,-6.8188972
1435187589.128,-5.6624546
1435187589.144,-4.3105907
1435187589.16,-2.932516
1435187589.175,-1.6798859
1435187589.191,-0.60388184
1435187589.207,0.37083054
1435187589.222,1.3958359
1435187589.238,2.5954819
1435187589.253,3.9785652
1435187589.269,5.42918
1435187589.285,6.7742577
1435187589.3,7.8964005
1435187589.316,8.812294
1435187589.332,9.702423
1435187589.347,10.826168
1435187589.363,12.408363
1435187589.378,14.499325
1435187589.394,16.927078
1435187589.41,19.30299
1435187589.425,21.187607
1435187589.441,22.209064
1435187589.457,22.17181
1435187589.472,21.089424
1435187589.488,19.104504
1435187589.503,16.409393
1435187589.519,13.195988
1435187589.535,9.646488
1435187589.55,5.9755173
1435187589.566,2.4208565
1435187589.582,-0.77726746
1435187589.597,-3.451931
1435187589.613,-5.5293655
1435187589.628,-7.048115
1435187589.644,-8.104904
1435187589.66,-8.791069
1435187589.675,-9.181301
1435187589.691,-9.339111
1435187589.707,-9.339947
1435187589.722,-9.277206
1435187589.738,-9.241158
1435187589.753,-9.264477
1435187589.769,-9.323048
1435187589.785,-9.36824
1435187589.8,-9.371605
1435187589.816,-9.349564
1435187589.832,-9.321648
1435187589.847,-9.287636
1435187589.863,-9.187752
1435187589.878,-8.945381
1435187589.894,-8.489655
1435187589.91,-7.8327065
1435187589.925,-7.0416794
1435187589.941,-6.215626
1435187589.957,-5.4200897
1435187589.972,-4.638603
1435187589.988,-3.7878494
1435187590.003,-2.774643
1435187590.019,-1.559967
1435187590.035,-0.19673538
1435187590.05,1.2030411
1435187590.066,2.5242538
1435187590.082,3.7149506
1435187590.097,4.8028107
1435187590.113,5.891514
1435187590.128,7.096657
1435187590.144,8.52747
1435187590.16,10.226433
1435187590.175,12.148575
1435187590.191,14.1403885
1435187590.207,15.977192
1435187590.222,17.378357
1435187590.238,18.064075
1435187590.253,17.83844
1435187590.269,16.630268
1435187590.285,14.515282
1435187590.3,11.706661
1435187590.316,8.484032
1435187590.332,5.126869
1435187590.347,1.8645477
1435187590.363,-1.1168022
1435187590.378,-3.7141418
1435187590.394,-5.8459435
1435187590.41,-7.496319
1435187590.425,-8.681267
1435187590.441,-9.475994
1435187590.457,-9.980171
1435187590.472,-10.291954
1435187590.488,-10.470451
1435187590.503,-10.533035
1435187590.519,-10.464233
1435187590.535,-10.255547
1435187590.55,-9.941921
1435187590.566,-9.601486
1435187590.582,-9.3236885
1435187590.597,-9.168465
1435187590.613,-9.141174
1435187590.628,-9.1828575
1435187590.644,-9.161701
1435187590.66,-8.941902
1435187590.675,-8.4071045
1435187590.691,-7.535389
1435187590.707,-6.395733
1435187590.722,-5.141754
1435187590.738,-3.933239
1435187590.754,-2.8714943
1435187590.769,-1.9336128
1435187590.785,-1.0195274
1435187590.8,-5.79834E-4
1435187590.816,1.1737556
1435187590.832,2.4649162
1435187590.847,3.7562447
1435187590.863,4.966545
1435187590.879,6.0838623
1435187590.894,7.1967697
1435187590.91,8.407524
1435187590.925,9.809246
1435187590.941,11.419895
1435187590.957,13.221287
1435187590.972,15.152771
1435187590.988,17.132278
1435187591.004,19.012856
1435187591.019,20.571068
1435187591.035,21.534683
1435187591.05,21.638756
1435187591.066,20.720772
1435187591.082,18.80008
1435187591.097,16.051292
1435187591.113,12.766495
1435187591.129,9.22654
1435187591.144,5.65757
1435187591.16,2.2020721
1435187591.175,-1.0234451
1435187591.191,-3.8984833
1435187591.207,-6.269806
1435187591.222,-8.024689
1435187591.238,-9.146339
1435187591.254,-9.762672
1435187591.269,-10.098831
1435187591.285,-10.414253
1435187591.3,-10.859604
1435187591.316,-11.429077
1435187591.332,-11.976715
1435187591.347,-12.314934
1435187591.363,-12.31633
1435187591.379,-11.997406
1435187591.394,-11.480431
1435187591.41,-10.946877
1435187591.425,-10.512749
1435187591.441,-10.215408
1435187591.457,-9.9969635
1435187591.472,-9.745377
1435187591.488,-9.33313
1435187591.504,-8.684868
1435187591.519,-7.7841873
1435187591.535,-6.715561
1435187591.55,-5.612259
1435187591.566,-4.606537
1435187591.582,-3.7423248
1435187591.597,-2.9651718
1435187591.613,-2.1326752
1435187591.629,-1.1123581
1435187591.644,0.17697906
1435187591.66,1.7009659
1435187591.675,3.3624496
1435187591.691,5.0197525
1435187591.707,6.5644913
1435187591.722,7.9332733
1435187591.738,9.102501
1435187591.754,10.100136
1435187591.769,11.001236
1435187591.785,11.923454
1435187591.8,13.019218
1435187591.816,14.416916
1435187591.832,16.14685
1435187591.847,18.067032
1435187591.863,19.890915
1435187591.879,21.226616
1435187591.894,21.734276
1435187591.91,21.17762
1435187591.925,19.523048
1435187591.941,16.898254
1435187591.957,13.559601
1435187591.972,9.818108
1435187591.988,5.986252
1435187592.004,2.3212662
1435187592.019,-0.9813385
1435187592.035,-3.8136673
1435187592.05,-6.144676
1435187592.066,-7.9916153
1435187592.082,-9.41024
1435187592.097,-10.460335
1435187592.113,-11.16951
1435187592.129,-11.58567
1435187592.144,-11.748634
1435187592.16,-11.74868
1435187592.175,-11.681702
1435187592.191,-11.645508
1435187592.207,-11.658516
1435187592.222,-11.692665
1435187592.238,-11.666115
1435187592.254,-11.495888
1435187592.269,-11.162605
1435187592.285,-10.712959
1435187592.3,-10.238899
1435187592.316,-9.823349
1435187592.332,-9.483971
1435187592.347,-9.163101
1435187592.363,-8.738426
1435187592.379,-8.112862
1435187592.394,-7.235504
1435187592.41,-6.155632
1435187592.425,-4.9774323
1435187592.441,-3.8294983
1435187592.457,-2.7749023
1435187592.472,-1.8086014
1435187592.488,-0.84137726
1435187592.504,0.23077393
1435187592.519,1.4747543
1435187592.535,2.8720856
1435187592.55,4.3145065
1435187592.566,5.6673584
1435187592.582,6.832321
1435187592.597,7.7849655
1435187592.613,8.588699
1435187592.629,9.3725815
1435187592.644,10.298866
1435187592.66,11.485741
1435187592.675,13.01123
1435187592.691,14.8660965
1435187592.707,16.96199
1435187592.722,19.109535
1435187592.738,21.036934
1435187592.754,22.386482
1435187592.769,22.806358
1435187592.785,22.036377
1435187592.8,20.019974
1435187592.816,16.923134
1435187592.832,13.103203
1435187592.847,8.992195
1435187592.863,4.979912
1435187592.879,1.3095093
1435187592.894,-1.9070511
1435187592.91,-4.650337
1435187592.925,-6.912552
1435187592.941,-8.677208
1435187592.957,-9.925583
1435187592.972,-10.693192
1435187592.988,-11.07782
1435187593.004,-11.2258835
1435187593.019,-11.27095
1435187593.035,-11.280579
1435187593.05,-11.250389
1435187593.066,-11.1607895
1435187593.082,-10.992287
1435187593.097,-10.762741
1435187593.113,-10.517059
1435187593.129,-10.295868
1435187593.144,-10.108734
1435187593.16,-9.939278
1435187593.175,-9.733345
1435187593.191,-9.434929
1435187593.207,-8.99395
1435187593.222,-8.39389
1435187593.238,-7.612686
1435187593.254,-6.6653748
1435187593.269,-5.558853
1435187593.285,-4.334923
1435187593.3,-3.0408554
1435187593.316,-1.7240028
1435187593.332,-0.39508057
1435187593.347,0.95648193
1435187593.363,2.362442
1435187593.379,3.8192406
1435187593.394,5.301342
1435187593.41,6.760456
1435187593.426,8.182095
1435187593.441,9.611885
1435187593.457,11.140541
1435187593.472,12.836399
1435187593.488,14.690865
1435187593.504,16.55386
1435187593.519,18.151176
1435187593.535,19.149399
1435187593.551,19.28923
1435187593.566,18.443127
1435187593.582,16.681007
1435187593.597,14.210697
1435187593.613,11.314716
1435187593.629,8.251179
1435187593.644,5.2140694
1435187593.66,2.2971802
1435187593.676,-0.45078278
1435187593.691,-2.997448
1435187593.707,-5.2677193
1435187593.722,-7.1663284
1435187593.738,-8.585686
1435187593.754,-9.488743
1435187593.769,-9.948837
1435187593.785,-10.136021
1435187593.801,-10.238026
1435187593.816,-10.395084
1435187593.832,-10.638115
1435187593.847,-10.920368
1435187593.863,-11.114231
1435187593.879,-11.129585
1435187593.894,-10.8964
1435187593.91,-10.41341
1435187593.926,-9.723679
1435187593.941,-8.893032
1435187593.957,-8.013252
1435187593.972,-7.180275
1435187593.988,-6.4839745
1435187594.004,-5.963627
1435187594.019,-5.595455
1435187594.035,-5.2805595
1435187594.051,-4.8793335
1435187594.066,-4.2821503
1435187594.082,-3.434124
1435187594.097,-2.360611
1435187594.113,-1.1083145
1435187594.129,0.27197647
1435187594.144,1.7742195
1435187594.16,3.3853416
1435187594.176,5.080742
1435187594.191,6.7917976
1435187594.207,8.442696
1435187594.222,9.997005
1435187594.238,11.514282
1435187594.254,13.145142
1435187594.269,15.0399475
1435187594.285,17.227486
1435187594.301,19.534813
1435187594.316,21.567715
1435187594.332,22.841743
1435187594.347,22.929058
1435187594.363,21.64764
1435187594.379,19.08781
1435187594.394,15.601967
1435187594.41,11.654755
1435187594.426,7.6771164
1435187594.441,3.9616356
1435187594.457,0.63227844
1435187594.472,-2.29451
1435187594.488,-4.831608
1435187594.504,-6.9494133
1435187594.519,-8.596798
1435187594.535,-9.731972
1435187594.551,-10.380016
1435187594.566,-10.674152
1435187594.582,-10.79813
1435187594.597,-10.934929
1435187594.613,-11.172031
1435187594.629,-11.496952
1435187594.644,-11.802525
1435187594.66,-11.988823
1435187594.676,-12.004139
1435187594.691,-11.856941
1435187594.707,-11.591526
1435187594.722,-11.254139
1435187594.738,-10.828018
1435187594.754,-10.27721
1435187594.769,-9.549957
1435187594.785,-8.644234
1435187594.801,-7.5990067
1435187594.816,-6.4840965
1435187594.832,-5.3483696
1435187594.847,-4.2286797
1435187594.863,-3.1077232
1435187594.879,-1.9685783
1435187594.894,-0.78962326
1435187594.91,0.4224205
1435187594.926,1.6680031
1435187594.941,2.9471073
1435187594.957,4.26861
1435187594.972,5.654106
1435187594.988,7.124365
1435187595.004,8.702091
1435187595.019,10.424267
1435187595.035,12.315313
1435187595.051,14.385862
1435187595.066,16.57792
1435187595.082,18.748335
1435187595.097,20.65933
1435187595.113,22.041025
1435187595.129,22.643353
1435187595.144,22.32094
1435187595.16,21.069824
1435187595.176,18.997625
1435187595.191,16.282846
1435187595.207,13.120123
1435187595.222,9.677649
1435187595.238,6.113924
1435187595.254,2.5925426
1435187595.269,-0.7108593
1435187595.285,-3.636961
1435187595.301,-6.0762844
1435187595.316,-8.008854
1435187595.332,-9.483133
1435187595.347,-10.601227
1435187595.363,-11.43684
1435187595.379,-12.039887
1435187595.394,-12.400701
1435187595.41,-12.503219
1435187595.426,-12.348062
1435187595.441,-11.985094
1435187595.457,-11.496118
1435187595.472,-10.971497
1435187595.488,-10.459553
1435187595.504,-9.982879
1435187595.519,-9.506799
1435187595.535,-9.00465
1435187595.551,-8.443062
1435187595.566,-7.7995276
1435187595.582,-7.0573654
1435187595.597,-6.195119
1435187595.613,-5.1822925
1435187595.629,-3.9916544
1435187595.644,-2.6516685
1435187595.66,-1.2371805
1435187595.676,0.15427971
1435187595.691,1.4481257
1435187595.707,2.6543055
1435187595.722,3.8662739
1435187595.738,5.228218
1435187595.754,6.8511276
1435187595.769,8.766219
1435187595.785,10.87471
1435187595.801,12.98939
1435187595.816,14.848814
1435187595.832,16.187729
1435187595.847,16.769426
1435187595.863,16.436153
1435187595.879,15.128063
1435187595.894,12.904796
1435187595.91,9.970237
1435187595.926,6.614214
1435187595.941,3.1660385
1435187595.957,-0.09934902
1435187595.972,-3.002821
1435187595.988,-5.472719
1435187596.004,-7.5128345
1435187596.019,-9.135191
1435187596.035,-10.369651
1435187596.051,-11.247212
1435187596.066,-11.839277
1435187596.082,-12.231209
1435187596.098,-12.511108
1435187596.113,-12.71057
1435187596.129,-12.805368
1435187596.144,-12.718248
1435187596.16,-12.390394
1435187596.176,-11.819733
1435187596.191,-11.069122
1435187596.207,-10.255966
1435187596.223,-9.497051
1435187596.238,-8.854237
1435187596.254,-8.326944
1435187596.269,-7.851206
1435187596.285,-7.340456
1435187596.301,-6.687355
1435187596.316,-5.7959023
1435187596.332,-4.5758324
1435187596.348,-3.003872
1435187596.363,-1.1298637
1435187596.379,0.8912716
1435187596.394,2.860138
1435187596.41,4.5981827
1435187596.426,6.0415516
1435187596.441,7.2621555
1435187596.457,8.448151
1435187596.473,9.835876
1435187596.488,11.598034
1435187596.504,13.754761
1435187596.519,16.13633
1435187596.535,18.411974
1435187596.551,20.170477
1435187596.566,21.032766
1435187596.582,20.77734
1435187596.598,19.38869
1435187596.613,17.063503
1435187596.629,14.113373
1435187596.644,10.857666
1435187596.66,7.5247955
1435187596.676,4.2183647
1435187596.691,0.9571152
1435187596.707,-2.2214928
1435187596.723,-5.2249146
1435187596.738,-7.8954163
1435187596.754,-10.084209
1435187596.769,-11.709354
1435187596.785,-12.813709
1435187596.801,-13.518932
1435187596.816,-13.987991
1435187596.832,-14.327442
1435187596.848,-14.576847
1435187596.863,-14.698357
1435187596.879,-14.6499405
1435187596.894,-14.397343
1435187596.91,-13.975048
1435187596.926,-13.460114
1435187596.941,-12.938313
1435187596.957,-12.472408
1435187596.973,-12.068699
1435187596.988,-11.672417
1435187597.004,-11.208164
1435187597.019,-10.614971
1435187597.035,-9.875534
1435187597.051,-9.011108
1435187597.066,-8.080959
1435187597.082,-7.1006393
1435187597.098,-6.060154
1435187597.113,-4.890194
1435187597.129,-3.5220985
1435187597.144,-1.9317322
1435187597.16,-0.16899872
1435187597.176,1.6700859
1435187597.191,3.4478378
1435187597.207,5.091034
1435187597.223,6.599144
1435187597.238,8.06863
1435187597.254,9.622444
1435187597.269,11.380516
1435187597.285,13.34462
1435187597.301,15.401283
1435187597.316,17.3055
1435187597.332,18.78263
1435187597.348,19.594715
1435187597.363,19.610378
1435187597.379,18.822113
1435187597.394,17.324528
1435187597.41,15.253254
1435187597.426,12.753632
1435187597.441,9.933643
1435187597.457,6.898525
1435187597.473,3.7313194
1435187597.488,0.5257149
1435187597.504,-2.6179428
1435187597.519,-5.581417
1435187597.535,-8.262787
1435187597.551,-10.551258
1435187597.566,-12.372864
1435187597.582,-13.703857
1435187597.598,-14.591766
1435187597.613,-15.126762
1435187597.629,-15.421261
1435187597.644,-15.559811
1435187597.66,-15.571251
1435187597.676,-15.463753
1435187597.691,-15.249817
1435187597.707,-14.978298
1435187597.723,-14.72134
1435187597.738,-14.542183
1435187597.754,-14.444256
1435187597.769,-14.376617
1435187597.785,-14.25478
1435187597.801,-13.985214
1435187597.816,-13.538555
1435187597.832,-12.911564
1435187597.848,-12.137096
1435187597.863,-11.234764
1435187597.879,-10.208454
1435187597.894,-9.054066
1435187597.91,-7.7803726
1435187597.926,-6.3986244
1435187597.941,-4.942463
1435187597.957,-3.4328003
1435187597.973,-1.87854
1435187597.988,-0.29249573
1435187598.004,1.2904205
1435187598.019,2.8270798
1435187598.035,4.26466
1435187598.051,5.5830574
1435187598.066,6.8022385
1435187598.082,8.0035515
1435187598.098,9.286434
1435187598.113,10.76984
1435187598.129,12.520615
1435187598.144,14.545746
1435187598.16,16.759716
1435187598.176,18.976398
1435187598.191,20.936653
1435187598.207,22.338474
1435187598.223,22.904991
1435187598.238,22.458965
1435187598.254,20.976982
1435187598.269,18.59446
1435187598.285,15.552448
1435187598.301,12.138016
1435187598.316,8.582417
1435187598.332,5.0717278
1435187598.348,1.7300148
1435187598.363,-1.3332863
1435187598.379,-4.029579
1435187598.394,-6.2973175
1435187598.41,-8.133602
1435187598.426,-9.599403
1435187598.441,-10.778946
1435187598.457,-11.739216
1435187598.473,-12.496498
1435187598.488,-13.017315
1435187598.504,-13.288898
1435187598.519,-13.336357
1435187598.535,-13.272453
1435187598.551,-13.218784
1435187598.566,-13.266926
1435187598.582,-13.400158
1435187598.598,-13.525997
1435187598.613,-13.524349
1435187598.629,-13.315285
1435187598.644,-12.896519
1435187598.66,-12.334328
1435187598.676,-11.690758
1435187598.691,-11.013241
1435187598.707,-10.305679
1435187598.723,-9.552341
1435187598.738,-8.698273
1435187598.754,-7.7032814
1435187598.77,-6.5357475
1435187598.785,-5.21706
1435187598.801,-3.8153648
1435187598.816,-2.4543228
1435187598.832,-1.2466393
1435187598.848,-0.24623108
1435187598.863,0.59140396
1435187598.879,1.3795624
1435187598.894,2.2408333
1435187598.91,3.2385864
1435187598.926,4.372383
1435187598.941,5.5772705
1435187598.957,6.8074493
1435187598.973,8.089191
1435187598.988,9.522377
1435187599.004,11.208233
1435187599.02,13.216465
1435187599.035,15.4728775
1435187599.051,17.79964
1435187599.066,19.919773
1435187599.082,21.554317
1435187599.098,22.465385
1435187599.113,22.52025
1435187599.129,21.693626
1435187599.145,20.04053
1435187599.16,17.64942
1435187599.176,14.631868
1435187599.191,11.141811
1435187599.207,7.379118
1435187599.223,3.5981483
1435187599.238,0.088905334
1435187599.254,-2.9303513
1435187599.27,-5.363817
1435187599.285,-7.2685356
1435187599.301,-8.778587
1435187599.316,-10.054977
1435187599.332,-11.179352
1435187599.348,-12.170837
1435187599.363,-13.005371
1435187599.379,-13.6625595
1435187599.395,-14.136011
1435187599.41,-14.430885
1435187599.426,-14.517305
1435187599.441,-14.349794
1435187599.457,-13.906361
1435187599.473,-13.234768
1435187599.488,-12.479233
1435187599.504,-11.812466
1435187599.52,-11.357826
1435187599.535,-11.12405
1435187599.551,-10.9860325
1435187599.566,-10.7287655
1435187599.582,-10.1465
1435187599.598,-9.14588
1435187599.613,-7.770914
1435187599.629,-6.211855
1435187599.645,-4.6951923
1435187599.66,-3.3976936
1435187599.676,-2.3512936
1435187599.691,-1.4486904
1435187599.707,-0.48713684
1435187599.723,0.6923828
1435187599.738,2.1328297
1435187599.754,3.7168922
1435187599.77,5.253355
1435187599.785,6.5679646
1435187599.801,7.640563
1435187599.816,8.603896
1435187599.832,9.688802
1435187599.848,11.114366
1435187599.863,12.961659
1435187599.879,15.119251
1435187599.895,17.343906
1435187599.91,19.31601
1435187599.926,20.731709
1435187599.941,21.37171
1435187599.957,21.138718
1435187599.973,20.021969
1435187599.988,18.094841
1435187600.004,15.489108
1435187600.02,12.382025
1435187600.035,8.987682
1435187600.051,5.5332775
1435187600.066,2.2252693
1435187600.082,-0.75811386
1435187600.098,-3.3221827
1435187600.113,-5.440362
1435187600.129,-7.1674137
1435187600.145,-8.585596
1435187600.16,-9.809593
1435187600.176,-10.8966675
1435187600.191,-11.857303
1435187600.207,-12.619966
1435187600.223,-13.101949
1435187600.238,-13.226268
1435187600.254,-12.997723
1435187600.27,-12.506965
1435187600.285,-11.901689
1435187600.301,-11.330256
1435187600.316,-10.9072275
1435187600.332,-10.655838
1435187600.348,-10.524876
1435187600.363,-10.414539
1435187600.379,-10.230103
1435187600.395,-9.867673
1435187600.41,-9.275563
1435187600.426,-8.418869
1435187600.441,-7.326893
1435187600.457,-6.063967
1435187600.473,-4.7488728
1435187600.488,-3.4936683
1435187600.504,-2.38386
1435187600.52,-1.440831
1435187600.535,-0.6393368
1435187600.551,0.10294676
1435187600.566,0.866838
1435187600.582,1.7357087
1435187600.598,2.778843
1435187600.613,4.018569
1435187600.629,5.441893
1435187600.645,6.995983
1435187600.66,8.583985
1435187600.676,10.130568
1435187600.691,11.583563
1435187600.707,12.96588
1435187600.723,14.34096
1435187600.738,15.817166
1435187600.754,17.453526
1435187600.77,19.240736
1435187600.785,21.055363
1435187600.801,22.66034
1435187600.816,23.741583
1435187600.832,24.000694
1435187600.848,23.21489
1435187600.863,21.336655
1435187600.879,18.501583
1435187600.895,15.026447
1435187600.91,11.279935
1435187600.926,7.600564
1435187600.941,4.1840076
1435187600.957,1.0962572
1435187600.973,-1.7040052
1435187600.988,-4.2395954
1435187601.004,-6.505027
1435187601.02,-8.416011
1435187601.035,-9.896554
1435187601.051,-10.919852
1435187601.066,-11.542922
1435187601.082,-11.900394
1435187601.098,-12.138012
1435187601.113,-12.348017
1435187601.129,-12.53257
1435187601.145,-12.612376
1435187601.16,-12.500089
1435187601.176,-12.138476
1435187601.191,-11.572849
1435187601.207,-10.915514
1435187601.223,-10.316836
1435187601.238,-9.876097
1435187601.254,-9.630303
1435187601.27,-9.514786
1435187601.285,-9.421785
1435187601.301,-9.226665
1435187601.316,-8.842215
1435187601.332,-8.221669
1435187601.348,-7.3431883
1435187601.363,-6.2059603
1435187601.379,-4.8383303
1435187601.395,-3.2896156
1435187601.41,-1.6738844
1435187601.426,-0.1150074
1435187601.441,1.2716522
1435187601.457,2.4584312
1435187601.473,3.4736786
1435187601.488,4.4034595
1435187601.504,5.3440742
1435187601.52,6.3627357
1435187601.535,7.4502544
1435187601.551,8.552179
1435187601.566,9.607594
1435187601.582,10.611076
1435187601.598,11.622385
1435187601.613,12.792496
1435187601.629,14.269571
1435187601.645,16.135206
1435187601.66,18.285254
1435187601.676,20.459532
1435187601.692,22.250856
1435187601.707,23.268518
1435187601.723,23.22716
1435187601.738,22.014717
1435187601.754,19.681772
1435187601.77,16.393688
1435187601.785,12.381008
1435187601.801,7.919903
1435187601.817,3.3378468
1435187601.832,-1.0079021
1435187601.848,-4.7835617
1435187601.863,-7.771164
1435187601.879,-9.929611
1435187601.895,-11.347677
1435187601.91,-12.214176
1435187601.926,-12.697069
1435187601.942,-12.922438
1435187601.957,-12.95582
1435187601.973,-12.87335
1435187601.988,-12.771858
1435187602.004,-12.73728
1435187602.02,-12.774802
1435187602.035,-12.803167
1435187602.051,-12.689201
1435187602.067,-12.357863
1435187602.082,-11.862844
1435187602.098,-11.361018
1435187602.113,-11.008634
1435187602.129,-10.828606
1435187602.145,-10.6593485
1435187602.16,-10.260489
1435187602.176,-9.441992
1435187602.192,-8.2198
1435187602.207,-6.803422
1435187602.223,-5.4769783
1435187602.238,-4.428709
1435187602.254,-3.6465178
1435187602.27,-2.9501905
1435187602.285,-2.1177874
1435187602.301,-1.0059977
1435187602.317,0.37919903
1435187602.332,1.9297609
1435187602.348,3.5223303
1435187602.363,5.0914936
1435187602.379,6.604046
1435187602.395,8.091736
1435187602.41,9.559061
1435187602.426,11.017651
1435187602.442,12.47756
1435187602.457,13.988849
1435187602.473,15.610616
1435187602.488,17.370312
1435187602.504,19.203026
1435187602.52,20.937832
1435187602.535,22.29866
1435187602.551,22.999432
1435187602.567,22.815525
1435187602.582,21.652351
1435187602.598,19.570414
1435187602.613,16.738455
1435187602.629,13.389295
1435187602.645,9.769243
1435187602.66,6.088173
1435187602.676,2.5327272
1435187602.692,-0.7449732
1435187602.707,-3.612564
1435187602.723,-5.9879675
1435187602.738,-7.8409443
1435187602.754,-9.207851
1435187602.77,-10.168452
1435187602.785,-10.848393
1435187602.801,-11.366535
1435187602.817,-11.838239
1435187602.832,-12.317577
1435187602.848,-12.800375
1435187602.863,-13.235613
1435187602.879,-13.534401
1435187602.895,-13.616184
1435187602.91,-13.468512
1435187602.926,-13.123525
1435187602.942,-12.696997
1435187602.957,-12.301282
1435187602.973,-12.011126
1435187602.988,-11.803006
1435187603.004,-11.580348
1435187603.02,-11.179573
1435187603.035,-10.490549
1435187603.051,-9.499867
1435187603.067,-8.317793
1435187603.082,-7.110199
1435187603.098,-6.0252275
1435187603.113,-5.1130095
1435187603.129,-4.2997103
1435187603.145,-3.4565964
1435187603.16,-2.4736338
1435187603.176,-1.3067026
1435187603.192,-0.019823074
1435187603.207,1.3014507
1435187603.223,2.5818968
1435187603.238,3.8116102
1435187603.254,5.0238075
1435187603.27,6.288865
1435187603.285,7.6514597
1435187603.301,9.149231
1435187603.317,10.789968
1435187603.332,12.571222
1435187603.348,14.492681
1435187603.363,16.547436
1435187603.379,18.690723
1435187603.395,20.808594
1435187603.41,22.689678
1435187603.426,24.0284
1435187603.442,24.496964
1435187603.457,23.851484
1435187603.473,22.02907
1435187603.488,19.196362
1435187603.504,15.66962
1435187603.52,11.828534
1435187603.535,7.9857845
1435187603.551,4.322295
1435187603.567,0.9094877
1435187603.582,-2.1994185
1435187603.598,-4.9457755
1435187603.613,-7.257851
1435187603.629,-9.074785
1435187603.645,-10.393886
1435187603.66,-11.301912
1435187603.676,-11.902481
1435187603.692,-12.298784
1435187603.707,-12.5366335
1435187603.723,-12.633515
1435187603.738,-12.600966
1435187603.754,-12.49343
1435187603.77,-12.4017315
1435187603.785,-12.434901
1435187603.801,-12.659212
1435187603.817,-13.054651
1435187603.832,-13.503297
1435187603.848,-13.824362
1435187603.863,-13.819992
1435187603.879,-13.368356
1435187603.895,-12.450765
1435187603.91,-11.166392
1435187603.926,-9.682048
1435187603.942,-8.182798
1435187603.957,-6.8025227
1435187603.973,-5.6023455
1435187603.988,-4.5832076
1435187604.004,-3.6847582
1435187604.02,-2.8093905
1435187604.035,-1.853858
1435187604.051,-0.72209585
1435187604.067,0.6210691
1435187604.082,2.1693988
1435187604.098,3.8402667
1435187604.113,5.5162916
1435187604.129,7.090415
1435187604.145,8.505769
1435187604.16,9.774287
1435187604.176,10.989853
1435187604.192,12.283555
1435187604.207,13.80427
1435187604.223,15.640396
1435187604.238,17.76891
1435187604.254,20.015108
1435187604.27,22.062273
1435187604.285,23.473557
1435187604.301,23.847603
1435187604.317,22.917204
1435187604.332,20.67207
1435187604.348,17.351368
1435187604.364,13.40715
1435187604.379,9.303899
1435187604.395,5.423877
1435187604.41,1.9488726
1435187604.426,-1.1177177
1435187604.442,-3.8707814
1435187604.457,-6.3782926
1435187604.473,-8.609851
1435187604.489,-10.440084
1435187604.504,-11.724426
1435187604.52,-12.378801
1435187604.535,-12.472121
1435187604.551,-12.206666
1435187604.567,-11.86824
1435187604.582,-11.684678
1435187604.598,-11.760791
1435187604.614,-12.031159
1435187604.629,-12.329502
1435187604.645,-12.454483
1435187604.66,-12.307492
1435187604.676,-11.907753
1435187604.692,-11.391143
1435187604.707,-10.916177
1435187604.723,-10.566497
1435187604.739,-10.288031
1435187604.754,-9.917062
1435187604.77,-9.243856
1435187604.785,-8.140259
1435187604.801,-6.6334915
1435187604.817,-4.913046
1435187604.832,-3.2111387
1435187604.848,-1.7073717
1435187604.864,-0.40989876
1435187604.879,0.808383
1435187604.895,2.1384792
1435187604.91,3.6942024
1435187604.926,5.481303
1435187604.942,7.4189615
1435187604.957,9.449386
1435187604.973,11.596176
1435187604.989,13.925871
1435187605.004,16.399406
1435187605.02,18.796988
1435187605.035,20.687056
1435187605.051,21.584232
1435187605.067,21.155607
1435187605.082,19.383081
1435187605.098,16.539856
1435187605.114,13.069832
1435187605.129,9.387835
1435187605.145,5.778696
1435187605.16,2.371233
1435187605.176,-0.76156616
1435187605.192,-3.5639458
1435187605.207,-5.943804
1435187605.223,-7.835491
1435187605.239,-9.246946
1435187605.254,-10.250107
1435187605.27,-10.937881
1435187605.285,-11.397003
1435187605.301,-11.636564
1435187605.317,-11.651915
1435187605.332,-11.383369
1435187605.348,-10.814739
1435187605.364,-9.940132
1435187605.379,-8.833895
1435187605.395,-7.616047
1435187605.41,-6.4643555
1435187605.426,-5.547472
1435187605.442,-4.97188
1435187605.457,-4.748953
1435187605.473,-4.7599754
1435187605.489,-4.8092003
1435187605.504,-4.6783867
1435187605.52,-4.1819153
1435187605.535,-3.247425
1435187605.551,-1.9220428
1435187605.567,-0.38962746
1435187605.582,1.1315174
1435187605.598,2.423418
1435187605.614,3.3818855
1435187605.629,4.005335
1435187605.645,4.4142666
1435187605.66,4.7792664
1435187605.676,5.27619
1435187605.692,6.013487
1435187605.707,7.0602856
1435187605.723,8.447599
1435187605.739,10.154625
1435187605.754,12.100208
1435187605.77,14.093336
1435187605.785,15.804165
1435187605.801,16.849598
1435187605.817,16.868904
1435187605.832,15.697485
1435187605.848,13.417133
1435187605.864,10.354826
1435187605.879,6.939083
1435187605.895,3.591854
1435187605.91,0.5832176
1435187605.926,-1.9936066
1435187605.942,-4.181137
1435187605.957,-6.0690613
1435187605.973,-7.7119713
1435187605.989,-9.111454
1435187606.004,-10.230045
1435187606.02,-11.055065
1435187606.035,-11.63485
1435187606.051,-12.066357
1435187606.067,-12.447323
1435187606.082,-12.7962265
1435187606.098,-13.059273
1435187606.114,-13.1223755
1435187606.129,-12.877708
1435187606.145,-12.295021
1435187606.16,-11.456242
1435187606.176,-10.509903
1435187606.192,-9.636559
1435187606.207,-8.959599
1435187606.223,-8.494335
1435187606.239,-8.137009
1435187606.254,-7.6937256
1435187606.27,-6.9497833
1435187606.285,-5.774708
1435187606.301,-4.1715393
1435187606.317,-2.300663
1435187606.332,-0.4027176
1435187606.348,1.2952156
1435187606.364,2.692276
1435187606.379,3.8500786
1435187606.395,4.964367
1435187606.41,6.267044
1435187606.426,7.9207687
1435187606.442,9.964291
1435187606.457,12.315567
1435187606.473,14.789467
1435187606.489,17.101707
1435187606.504,18.927986
1435187606.52,19.944347
1435187606.535,19.906574
1435187606.551,18.735516
1435187606.567,16.529358
1435187606.582,13.540451
1435187606.598,10.065754
1435187606.614,6.3747444
1435187606.629,2.6590996
1435187606.645,-0.93433
1435187606.66,-4.280224
1435187606.676,-7.2362328
1435187606.692,-9.689388
1435187606.707,-11.561298
1435187606.723,-12.866947
1435187606.739,-13.702072
1435187606.754,-14.196072
1435187606.77,-14.477661
1435187606.785,-14.647709
1435187606.801,-14.763035
1435187606.817,-14.852539
1435187606.832,-14.888813
1435187606.848,-14.802437
1435187606.864,-14.520908
1435187606.879,-14.028
1435187606.895,-13.369675
1435187606.91,-12.663456
1435187606.926,-12.00272
1435187606.942,-11.412128
1435187606.957,-10.785019
1435187606.973,-9.970058
1435187606.989,-8.817787
1435187607.004,-7.283142
1435187607.02,-5.430702
1435187607.036,-3.40522
1435187607.051,-1.3712387
1435187607.067,0.5461807
1435187607.082,2.314499
1435187607.098,3.9972801
1435187607.114,5.731964
1435187607.129,7.668541
1435187607.145,9.899586
1435187607.161,12.364021
1435187607.176,14.856972
1435187607.192,17.028679
1435187607.207,18.539589
1435187607.223,19.13338
1435187607.239,18.744152
1435187607.254,17.441936
1435187607.27,15.398315
1435187607.286,12.789505
1435187607.301,9.761528
1435187607.317,6.446808
1435187607.332,2.9934464
1435187607.348,-0.40730667
1435187607.364,-3.5525627
1435187607.379,-6.2602806
1435187607.395,-8.382584
1435187607.411,-9.861389
1435187607.426,-10.710236
1435187607.442,-11.035931
1435187607.457,-10.985943
1435187607.473,-10.712246
1435187607.489,-10.301659
1435187607.504,-9.788807
1435187607.52,-9.162079
1435187607.536,-8.429192
1435187607.551,-7.6464653
1435187607.567,-6.9014397
1435187607.582,-6.257908
1435187607.598,-5.7006073
1435187607.614,-5.1212807
1435187607.629,-4.394169
1435187607.645,-3.4255104
1435187607.661,-2.2131767
1435187607.676,-0.8086853
1435187607.692,0.69734955
1435187607.707,2.2511406
1435187607.723,3.8242645
1435187607.739,5.417267
1435187607.754,7.0284576
1435187607.77,8.665035
1435187607.786,10.335304
1435187607.801,12.058754
1435187607.817,13.800716
1435187607.832,15.431946
1435187607.848,16.712448
1435187607.864,17.32574
1435187607.879,16.977322
1435187607.895,15.523296
1435187607.911,13.003033
1435187607.926,9.668327
1435187607.942,5.8747597
1435187607.957,2.0034866
1435187607.973,-1.6414604
1435187607.989,-4.8484535
1435187608.004,-7.5418625
1435187608.02,-9.711376
1435187608.036,-11.384483
1435187608.051,-12.577938
1435187608.067,-13.276131
1435187608.082,-13.4667015
1435187608.098,-13.174358
1435187608.114,-12.487522
1435187608.129,-11.552021
1435187608.145,-10.526142
1435187608.161,-9.534504
1435187608.176,-8.622871
1435187608.192,-7.8018913
1435187608.207,-7.05167
1435187608.223,-6.354126
1435187608.239,-5.677227
1435187608.254,-4.9621277
1435187608.27,-4.120884
1435187608.286,-3.0729141
1435187608.301,-1.7846031
1435187608.317,-0.3008995
1435187608.332,1.293045
1435187608.348,2.9192543
1435187608.364,4.5753174
1435187608.379,6.3582687
1435187608.395,8.394451
1435187608.411,10.725361
1435187608.426,13.237663
1435187608.442,15.628586
1435187608.457,17.493576
1435187608.473,18.439545
1435187608.489,18.22533
1435187608.504,16.79942
1435187608.52,14.324648
1435187608.536,11.083704
1435187608.551,7.4153595
1435187608.567,3.6505165
1435187608.582,0.050172806
1435187608.598,-3.214489
1435187608.614,-6.0403957
1435187608.629,-8.398651
1435187608.645,-10.293097
1435187608.661,-11.7449875
1435187608.676,-12.757446
1435187608.692,-13.327265
1435187608.707,-13.468096
1435187608.723,-13.23134
1435187608.739,-12.725544
1435187608.754,-12.083109
1435187608.77,-11.421509
1435187608.786,-10.805819
1435187608.801,-10.223608
1435187608.817,-9.625271
1435187608.832,-8.936983
1435187608.848,-8.1260605
1435187608.864,-7.1849346
1435187608.879,-6.121193
1435187608.895,-4.9156647
1435187608.911,-3.5412502
1435187608.926,-1.9511223
1435187608.942,-0.14450073
1435187608.957,1.8396416
1435187608.973,3.9272003
1435187608.989,6.050997
1435187609.004,8.184139
1435187609.02,10.348976
1435187609.036,12.56818
1435187609.051,14.7964
1435187609.067,16.890928
1435187609.082,18.605549
1435187609.098,19.645866
1435187609.114,19.762371
1435187609.129,18.793846
1435187609.145,16.740341
1435187609.161,13.730234
1435187609.176,10.0246105
1435187609.192,5.957672
1435187609.207,1.8823528
1435187609.223,-1.901537
1435187609.239,-5.196678
1435187609.254,-7.9344997
1435187609.27,-10.112558
1435187609.286,-11.780334
1435187609.301,-12.993046
1435187609.317,-13.795769
1435187609.332,-14.23049
1435187609.348,-14.333879
1435187609.364,-14.146252
1435187609.379,-13.717964
1435187609.395,-13.090963
1435187609.411,-12.319773
1435187609.426,-11.457041
1435187609.442,-10.578976
1435187609.457,-9.748325
1435187609.473,-8.995636
1435187609.489,-8.288334
1435187609.504,-7.571165
1435187609.52,-6.7677517
1435187609.536,-5.8353024
1435187609.551,-4.7527466
1435187609.567,-3.5348797
1435187609.582,-2.1927643
1435187609.598,-0.7226505
1435187609.614,0.8856802
1435187609.629,2.6450758
1435187609.645,4.5917377
1435187609.661,6.748871
1435187609.676,9.133574
1435187609.692,11.709582
1435187609.708,14.365897
1435187609.723,16.889793
1435187609.739,18.991173
1435187609.754,20.33806
1435187609.77,20.6567
1435187609.786,19.786385
1435187609.801,17.758114
1435187609.817,14.781088
1435187609.832,11.190264
1435187609.848,7.344865
1435187609.864,3.558797
1435187609.879,0.0593853
1435187609.895,-3.0028505
1435187609.911,-5.5660467
1435187609.926,-7.598466
1435187609.942,-9.148602
1435187609.958,-10.297623
1435187609.973,-11.172666
1435187609.989,-11.865863
1435187610.004,-12.411848
1435187610.02,-12.734507
1435187610.036,-12.713949
1435187610.051,-12.252468
1435187610.067,-11.373518
1435187610.083,-10.236805
1435187610.098,-9.093094
1435187610.114,-8.176694
1435187610.129,-7.6009727
1435187610.145,-7.288518
1435187610.161,-7.0277443
1435187610.176,-6.5746355
1435187610.192,-5.763098
1435187610.208,-4.568486
1435187610.223,-3.1015582
1435187610.239,-1.520117
1435187610.254,0.03466344
1435187610.27,1.511611
1435187610.286,2.9226513
1435187610.301,4.326128
1435187610.317,5.7609057
1435187610.333,7.2709126
1435187610.348,8.897654
1435187610.364,10.68151
1435187610.379,12.635839
1435187610.395,14.692417
1435187610.411,16.630741
1435187610.426,18.088802
1435187610.442,18.648205
1435187610.458,17.989145
1435187610.473,16.009108
1435187610.489,12.879262
1435187610.504,9.004186
1435187610.52,4.880702
1435187610.536,0.9591336
1435187610.551,-2.4721346
1435187610.567,-5.321644
1435187610.583,-7.6568274
1435187610.598,-9.612104
1435187610.614,-11.2744875
1435187610.629,-12.657724
1435187610.645,-13.648498
1435187610.661,-14.115771
1435187610.676,-13.967438
1435187610.692,-13.256327
1435187610.708,-12.16853
1435187610.723,-10.996043
1435187610.739,-9.99514
1435187610.754,-9.310099
1435187610.77,-8.923643
1435187610.786,-8.692633
1435187610.801,-8.4460745
1435187610.817,-8.054297
1435187610.833,-7.46266
1435187610.848,-6.681383
1435187610.864,-5.732174
1435187610.879,-4.6165924
1435187610.895,-3.3290539
1435187610.911,-1.8900185
1435187610.926,-0.36614227
1435187610.942,1.1283665
1435187610.958,2.5221214
1435187610.973,3.8190594
1435187610.989,5.13439
1435187611.004,6.627903
1435187611.02,8.465403
1435187611.036,10.675318
1435187611.051,13.130369
1435187611.067,15.55245
1435187611.083,17.570457
1435187611.098,18.825777
1435187611.114,19.062311
1435187611.129,18.186535
1435187611.145,16.298807
1435187611.161,13.627293
1435187611.176,10.479195
1435187611.192,7.1324234
1435187611.208,3.8077126
1435187611.223,0.6106243
1435187611.239,-2.4116516
1435187611.254,-5.2504425
1435187611.27,-7.8692055
1435187611.286,-10.194515
1435187611.301,-12.120026
1435187611.317,-13.546505
1435187611.333,-14.376806
1435187611.348,-14.5837345
1435187611.364,-14.195755
1435187611.379,-13.348644
1435187611.395,-12.227463
1435187611.411,-11.077431
1435187611.426,-10.105309
1435187611.442,-9.436325
1435187611.458,-9.06245
1435187611.473,-8.871422
1435187611.489,-8.687889
1435187611.504,-8.3767395
1435187611.52,-7.8447227
1435187611.536,-7.0700264
1435187611.551,-6.074959
1435187611.567,-4.903816
1435187611.583,-3.592949
1435187611.598,-2.1836052
1435187611.614,-0.7024269
1435187611.629,0.8083954
1435187611.645,2.3120193
1435187611.661,3.7515793
1435187611.676,5.088932
1435187611.692,6.300968
1435187611.708,7.4634895
1435187611.723,8.706032
1435187611.739,10.189346
1435187611.754,11.9933815
1435187611.77,14.064453
1435187611.786,16.175293
1435187611.801,18.007656
1435187611.817,19.247856
1435187611.833,19.696331
1435187611.848,19.296745
1435187611.864,18.101704
1435187611.879,16.187916
1435187611.895,13.652725
1435187611.911,10.591099
1435187611.926,7.164963
1435187611.942,3.6043015
1435187611.958,0.19609451
1435187611.973,-2.8339272
1435187611.989,-5.3429375
1435187612.004,-7.3299828
1435187612.02,-8.862602
1435187612.036,-10.035522
1435187612.051,-10.889229
1435187612.067,-11.411446
1435187612.083,-11.553013
1435187612.098,-11.310272
1435187612.114,-10.747902
1435187612.129,-10.039967
1435187612.145,-9.387283
1435187612.161,-8.954834
1435187612.176,-8.788769
1435187612.192,-8.801773
1435187612.208,-8.822151
1435187612.223,-8.689888
1435187612.239,-8.331421
1435187612.254,-7.7883835
1435187612.27,-7.1256866
1435187612.286,-6.3828506
1435187612.301,-5.5029907
1435187612.317,-4.4014053
1435187612.333,-3.041092
1435187612.348,-1.5193253
1435187612.364,-0.03715515
1435187612.38,1.2043457
1435187612.395,2.1338043
1435187612.411,2.862648
1435187612.426,3.632515
1435187612.442,4.6733856
1435187612.458,6.0998383
1435187612.473,7.839676
1435187612.489,9.721085
1435187612.504,11.580421
1435187612.52,13.346283
1435187612.536,15.047836
1435187612.551,16.710869
1435187612.567,18.265793
1435187612.583,19.520851
1435187612.598,20.198044
1435187612.614,20.076035
1435187612.63,19.05075
1435187612.645,17.20797
1435187612.661,14.743286
1435187612.676,11.903236
1435187612.692,8.875916
1435187612.708,5.7882767
1435187612.723,2.6923141
1435187612.739,-0.35742188
1435187612.755,-3.2833328
1435187612.77,-5.943466
1435187612.786,-8.173599
1435187612.801,-9.808525
1435187612.817,-10.740471
1435187612.833,-10.946693
1435187612.848,-10.525513
1435187612.864,-9.703049
1435187612.88,-8.787811
1435187612.895,-8.058075
1435187612.911,-7.7006683
1435187612.926,-7.7123337
1435187612.942,-7.943947
1435187612.958,-8.171059
1435187612.973,-8.225044
1435187612.989,-8.050049
1435187613.005,-7.704872
1435187613.02,-7.277954
1435187613.036,-6.8120804
1435187613.051,-6.262718
1435187613.067,-5.541992
1435187613.083,-4.570732
1435187613.098,-3.3727112
1435187613.114,-2.0361938
1435187613.13,-0.6915283
1435187613.145,0.56923676
1435187613.161,1.730896
1435187613.176,2.8573685
1435187613.192,4.0137405
1435187613.208,5.286911
1435187613.223,6.717682
1435187613.239,8.312515
1435187613.255,10.022018
1435187613.27,11.744972
1435187613.286,13.319008
1435187613.301,14.575119
1435187613.317,15.362778
1435187613.333,15.600601
1435187613.348,15.274216
1435187613.364,14.401474
1435187613.38,13.005547
1435187613.395,11.125343
1435187613.411,8.794449
1435187613.426,6.096794
1435187613.442,3.1750412
1435187613.458,0.24389648
1435187613.473,-2.4846115
1435187613.489,-4.8296814
1435187613.505,-6.7043686
1435187613.52,-8.12442
1435187613.536,-9.171516
1435187613.551,-9.921272
1435187613.567,-10.417519
1435187613.583,-10.6330185
1435187613.598,-10.533287
1435187613.614,-10.131714
1435187613.63,-9.539337
1435187613.645,-8.926582
1435187613.661,-8.465897
1435187613.676,-8.201645
1435187613.692,-8.063034
1435187613.708,-7.8817215
1435187613.723,-7.5062256
1435187613.739,-6.9020615
1435187613.755,-6.144554
1435187613.77,-5.3403015
1435187613.786,-4.544609
1435187613.801,-3.7026367
1435187613.817,-2.7257004
1435187613.833,-1.5532455
1435187613.848,-0.23537445
1435187613.864,1.1082764
1435187613.88,2.3503113
1435187613.895,3.4416504
1435187613.911,4.417557
1435187613.926,5.3529434
1435187613.942,6.324188
1435187613.958,7.404114
1435187613.973,8.664009
1435187613.989,10.194435
1435187614.005,12.048813
1435187614.02,14.171593
1435187614.036,16.343536
1435187614.051,18.231865
1435187614.067,19.48716
1435187614.083,19.872803
1435187614.098,19.30896
1435187614.114,17.875877
1435187614.13,15.729858
1435187614.145,13.070633
1435187614.161,10.091843
1435187614.176,7.003372
1435187614.192,3.9998245
1435187614.208,1.2092972
1435187614.223,-1.3225708
1435187614.239,-3.6359406
1435187614.255,-5.767601
1435187614.27,-7.6868744
1435187614.286,-9.296417
1435187614.301,-10.459648
1435187614.317,-11.137283
1435187614.333,-11.400269
1435187614.348,-11.4225235
1435187614.364,-11.366547
1435187614.38,-11.316498
1435187614.395,-11.225143
1435187614.411,-11.012436
1435187614.426,-10.633331
1435187614.442,-10.153862
1435187614.458,-9.714767
1435187614.473,-9.449539
1435187614.489,-9.371933
1435187614.505,-9.356529
1435187614.52,-9.174461
1435187614.536,-8.610374
1435187614.551,-7.5825577
1435187614.567,-6.1812897
1435187614.583,-4.602165
1435187614.598,-3.0736465
1435187614.614,-1.7076187
1435187614.63,-0.4852066
1435187614.645,0.71845245
1435187614.661,2.0088959
1435187614.676,3.4154205
1435187614.692,4.8552628
1435187614.708,6.2210846
1435187614.723,7.4699326
1435187614.739,8.677048
1435187614.755,10.001129
1435187614.77,11.617966
1435187614.786,13.578644
1435187614.801,15.80294
1435187614.817,18.056358
1435187614.833,20.026192
1435187614.848,21.3871
1435187614.864,21.889046
1435187614.88,21.399864
1435187614.895,19.941833
1435187614.911,17.67472
1435187614.926,14.863846
1435187614.942,11.774078
1435187614.958,8.639923
1435187614.973,5.582596
1435187614.989,2.6650162
1435187615.005,-0.08620453
1435187615.02,-2.6194687
1435187615.036,-4.875084
1435187615.051,-6.7875366
1435187615.067,-8.332382
1435187615.083,-9.494682
1435187615.098,-10.250092
1435187615.114,-10.5722275
1435187615.13,-10.450325
1435187615.145,-9.940582
1435187615.161,-9.210915
1435187615.176,-8.490173
1435187615.192,-8.007805
1435187615.208,-7.8713074
1435187615.223,-8.027283
1435187615.239,-8.286118
1435187615.255,-8.4357605
1435187615.27,-8.310654
1435187615.286,-7.873024
1435187615.302,-7.165642
1435187615.317,-6.2771606
1435187615.333,-5.2560806
1435187615.348,-4.127846
1435187615.364,-2.8915482
1435187615.38,-1.5685959
1435187615.395,-0.21842957
1435187615.411,1.0728455
1435187615.427,2.2429123
1435187615.442,3.279007
1435187615.458,4.261879
1435187615.473,5.329155
1435187615.489,6.61998
1435187615.505,8.198158
1435187615.52,10.036865
1435187615.536,12.004868
1435187615.552,13.933716
1435187615.567,15.629929
1435187615.583,16.9338
1435187615.598,17.716171
1435187615.614,17.884293
1435187615.63,17.370201
1435187615.645,16.166962
1435187615.661,14.313599
1435187615.677,11.924744
1435187615.692,9.15934
1435187615.708,6.2064896
1435187615.723,3.2407227
1435187615.739,0.40673065
1435187615.755,-2.2037354
1435187615.77,-4.5435715
1435187615.786,-6.5941086
1435187615.802,-8.32431
1435187615.817,-9.701569
1435187615.833,-10.663116
1435187615.848,-11.179634
1435187615.864,-11.2745285
1435187615.88,-11.049171
1435187615.895,-10.649155
1435187615.911,-10.215393
1435187615.927,-9.841583
1435187615.942,-9.554642
1435187615.958,-9.340073
1435187615.973,-9.180405
1435187615.989,-9.062447
1435187616.005,-8.957382
1435187616.02,-8.803032
1435187616.036,-8.525131
1435187616.052,-8.041939
1435187616.067,-7.3204575
1435187616.083,-6.377968
1435187616.098,-5.2776413
1435187616.114,-4.069557
1435187616.13,-2.7828293
1435187616.145,-1.421463
1435187616.161,0.018203735
1435187616.177,1.5288696
1435187616.192,3.0934982
1435187616.208,4.715904
1435187616.223,6.3979416
1435187616.239,8.159523
1435187616.255,9.968025
1435187616.27,11.761063
1435187616.286,13.37719
1435187616.302,14.643318
1435187616.317,15.370705
1435187616.333,15.417
1435187616.348,14.715553
1435187616.364,13.298347
1435187616.38,11.274757
1435187616.395,8.824913
1435187616.411,6.1383896
1435187616.427,3.3834763
1435187616.442,0.6822128
1435187616.458,-1.8877754
1435187616.473,-4.288414
1435187616.489,-6.467476
1435187616.505,-8.362141
1435187616.52,-9.8829155
1435187616.536,-10.989918
1435187616.552,-11.679695
1435187616.567,-12.037537
1435187616.583,-12.160309
1435187616.598,-12.1479225
1435187616.614,-12.035313
1435187616.63,-11.805267
1435187616.645,-11.414635
1435187616.661,-10.840931
1435187616.677,-10.122124
1435187616.692,-9.348549
1435187616.708,-8.614033
1435187616.723,-7.966587
1435187616.739,-7.3740234
1435187616.755,-6.763073
1435187616.77,-6.0394096
1435187616.786,-5.180229
1435187616.802,-4.20665
1435187616.817,-3.1716042
1435187616.833,-2.103695
1435187616.848,-1.0017204
1435187616.864,0.17977142
1435187616.88,1.4871483
1435187616.895,2.9586105
1435187616.911,4.594303
1435187616.927,6.365635
1435187616.942,8.231728
1435187616.958,10.157131
1435187616.973,12.109886
1435187616.989,14.033531
1435187617.005,15.786697
1435187617.02,17.18737
1435187617.036,17.969212
1435187617.052,17.919693
1435187617.067,16.901566
1435187617.083,14.950451
1435187617.098,12.249756
1435187617.114,9.109158
1435187617.13,5.87146
1435187617.145,2.8407974
1435187617.161,0.19745636
1435187617.177,-2.0209885
1435187617.192,-3.9043274
1435187617.208,-5.576885
1435187617.223,-7.169407
1435187617.239,-8.7271385
1435187617.255,-10.220787
1435187617.27,-11.544678
1435187617.286,-12.583908
1435187617.302,-13.251934
1435187617.317,-13.515259
1435187617.333,-13.377052
1435187617.348,-12.847641
1435187617.364,-11.953526
1435187617.38,-10.773884
1435187617.395,-9.469379
1435187617.411,-8.283524
1435187617.427,-7.4551964
1435187617.442,-7.107601
1435187617.458,-7.1783066
1435187617.473,-7.4359283
1435187617.489,-7.558319
1435187617.505,-7.2874985
1435187617.52,-6.473568
1435187617.536,-5.136917
1435187617.552,-3.398056
1435187617.567,-1.4474258
1435187617.583,0.53948593
1435187617.598,2.4094925
1435187617.614,4.0558205
1435187617.63,5.4314957
1435187617.645,6.584099
1435187617.661,7.6496696
1435187617.677,8.839886
1435187617.692,10.340908
1435187617.708,12.261543
1435187617.723,14.543156
1435187617.739,16.956772
1435187617.755,19.143093
1435187617.77,20.711151
1435187617.786,21.326572
1435187617.802,20.80798
1435187617.817,19.156673
1435187617.833,16.555534
1435187617.848,13.289242
1435187617.864,9.683281
1435187617.88,6.011589
1435187617.895,2.5252113
1435187617.911,-0.61825943
1435187617.927,-3.3148804
1435187617.942,-5.522846
1435187617.958,-7.2601013
1435187617.974,-8.568333
1435187617.989,-9.478264
1435187618.005,-10.031921
1435187618.02,-10.266117
1435187618.036,-10.2799835
1435187618.052,-10.201565
1435187618.067,-10.185478
1435187618.083,-10.288647
1435187618.099,-10.447777
1435187618.114,-10.484543
1435187618.13,-10.219234
1435187618.145,-9.584862
1435187618.161,-8.719543
1435187618.177,-7.8705063
1435187618.192,-7.265234
1435187618.208,-6.958456
1435187618.224,-6.7830906
1435187618.239,-6.4435463
1435187618.255,-5.6813946
1435187618.27,-4.400856
1435187618.286,-2.728899
1435187618.302,-0.91104126
1435187618.317,0.78150177
1435187618.333,2.190525
1435187618.349,3.2654705
1435187618.364,4.110178
1435187618.38,4.8646393
1435187618.395,5.725691
1435187618.411,6.848879
1435187618.427,8.341658
1435187618.442,10.200159
1435187618.458,12.282728
1435187618.474,14.312136
1435187618.489,15.919903
1435187618.505,16.747894
1435187618.52,16.539707
1435187618.536,15.221975
1435187618.552,12.923637
1435187618.567,9.907536
1435187618.583,6.517912
1435187618.599,3.0679054
1435187618.614,-0.205307
1435187618.63,-3.1627903
1435187618.645,-5.7227077
1435187618.661,-7.8635006
1435187618.677,-9.578766
1435187618.692,-10.873455
1435187618.708,-11.759985
1435187618.724,-12.268101
1435187618.739,-12.438852
1435187618.755,-12.33112
1435187618.77,-12.023256
1435187618.786,-11.609533
1435187618.802,-11.1737385
1435187618.817,-10.764528
1435187618.833,-10.372154
1435187618.849,-9.969082
1435187618.864,-9.51075
1435187618.88,-8.99431
1435187618.895,-8.444536
1435187618.911,-7.886568
1435187618.927,-7.3258324
1435187618.942,-6.7336407
1435187618.958,-6.044382
1435187618.974,-5.2034664
1435187618.989,-4.1729965
1435187619.005,-2.9383926
1435187619.02,-1.5006523
1435187619.036,0.12065029
1435187619.052,1.8963766
1435187619.067,3.7545853
1435187619.083,5.6095047
1435187619.099,7.382292
1435187619.114,9.032907
1435187619.13,10.580495
1435187619.145,12.076687
1435187619.161,13.513876
1435187619.177,14.79098
1435187619.192,15.687138
1435187619.208,15.947851
1435187619.224,15.37221
1435187619.239,13.894768
1435187619.255,11.622533
1435187619.27,8.790048
1435187619.286,5.672305
1435187619.302,2.509695
1435187619.317,-0.5437765
1435187619.333,-3.4049711
1435187619.349,-6.045781
1435187619.364,-8.422528
1435187619.38,-10.443648
1435187619.395,-11.966391
1435187619.411,-12.85182
1435187619.427,-13.034849
1435187619.442,-12.640771
1435187619.458,-11.903521
1435187619.474,-11.15429
1435187619.489,-10.641409
1435187619.505,-10.418512
1435187619.52,-10.357421
1435187619.536,-10.252685
1435187619.552,-9.949731
1435187619.567,-9.425658
1435187619.583,-8.76469
1435187619.599,-8.050956
1435187619.614,-7.3134336
1435187619.63,-6.5168324
1435187619.645,-5.598487
1435187619.661,-4.5701694
1435187619.677,-3.4828472
1435187619.692,-2.420826
1435187619.708,-1.4172249
1435187619.724,-0.44564342
1435187619.739,0.55221176
1435187619.755,1.6044807
1435187619.77,2.7110415
1435187619.786,3.8591576
1435187619.802,5.0738373
1435187619.817,6.4373837
1435187619.833,8.062428
1435187619.849,10.002071
1435187619.864,12.217025
1435187619.88,14.5353365
1435187619.895,16.684126
1435187619.911,18.347076
1435187619.927,19.23116
1435187619.942,19.101727
1435187619.958,17.906845
1435187619.974,15.741764
1435187619.989,12.856493
1435187620.005,9.579877
1435187620.02,6.2413607
1435187620.036,3.0693989
1435187620.052,0.1880703
1435187620.067,-2.381011
1435187620.083,-4.659788
1435187620.099,-6.6788387
1435187620.114,-8.439971
1435187620.13,-9.906944
1435187620.145,-10.995912
1435187620.161,-11.645583
1435187620.177,-11.834842
1435187620.192,-11.629627
1435187620.208,-11.169401
1435187620.224,-10.635434
1435187620.239,-10.149447
1435187620.255,-9.768231
1435187620.27,-9.453429
1435187620.286,-9.159014
1435187620.302,-8.862612
1435187620.317,-8.592581
1435187620.333,-8.353159
1435187620.349,-8.099343
1435187620.364,-7.6882277
1435187620.38,-6.9803696
1435187620.395,-5.904193
1435187620.411,-4.5242443
1435187620.427,-3.0205984
1435187620.442,-1.5824232
1435187620.458,-0.32245064
1435187620.474,0.77454567
1435187620.489,1.8033543
1435187620.505,2.868063
1435187620.52,4.0501356
1435187620.536,5.385048
1435187620.552,6.903345
1435187620.567,8.631884
1435187620.583,10.591353
1435187620.599,12.72933
1435187620.614,14.896293
1435187620.63,16.825727
1435187620.646,18.239197
1435187620.661,18.880997
1435187620.677,18.643013
1435187620.692,17.556782
1435187620.708,15.785736
1435187620.724,13.555294
1435187620.739,11.04949
1435187620.755,8.379539
1435187620.77,5.581539
1435187620.786,2.6908855
1435187620.802,-0.20816326
1435187620.817,-2.9500322
1435187620.833,-5.3252525
1435187620.849,-7.1909018
1435187620.864,-8.486321
1435187620.88,-9.292334
1435187620.896,-9.732557
1435187620.911,-9.942862
1435187620.927,-9.994592
1435187620.942,-9.926546
1435187620.958,-9.753956
1435187620.974,-9.508601
1435187620.989,-9.239349
1435187621.005,-8.993512
1435187621.021,-8.802796
1435187621.036,-8.675348
1435187621.052,-8.592127
1435187621.067,-8.521786
1435187621.083,-8.41306
1435187621.099,-8.193523
1435187621.114,-7.7791452
1435187621.13,-7.1147203
1435187621.146,-6.151862
1435187621.161,-4.915416
1435187621.177,-3.4604168
1435187621.192,-1.903925
1435187621.208,-0.3697014
1435187621.224,1.0366583
1435187621.239,2.2922535
1435187621.255,3.4718037
1435187621.271,4.74284
1435187621.286,6.287092
1435187621.302,8.18443
1435187621.317,10.321718
1435187621.333,12.439977
1435187621.349,14.162801
1435187621.364,15.186678
1435187621.38,15.336405
1435187621.396,14.629866
1435187621.411,13.159233
1435187621.427,11.0697565
1435187621.442,8.499102
1435187621.458,5.6089544
1435187621.474,2.59307
1435187621.489,-0.32832336
1435187621.505,-2.9675388
1435187621.521,-5.2198153
1435187621.536,-7.0829363
1435187621.552,-8.612789
1435187621.567,-9.858601
1435187621.583,-10.803228
1435187621.599,-11.394943
1435187621.614,-11.590904
1435187621.63,-11.4204445
1435187621.646,-10.990051
1435187621.661,-10.455179
1435187621.677,-9.896886
1435187621.692,-9.349844
1435187621.708,-8.759138
1435187621.724,-8.0909395
1435187621.739,-7.354889
1435187621.755,-6.64989
1435187621.771,-6.075369
1435187621.786,-5.6866846
1435187621.802,-5.445898
1435187621.817,-5.2286634
1435187621.833,-4.857252
1435187621.849,-4.2032795
1435187621.864,-3.1872768
1435187621.88,-1.8567839
1435187621.896,-0.31791878
1435187621.911,1.270009
1435187621.927,2.774477
1435187621.942,4.103053
1435187621.958,5.2635574
1435187621.974,6.346689
1435187621.989,7.518173
1435187622.005,8.941589
1435187622.021,10.731611
1435187622.036,12.8553915
1435187622.052,15.137439
1435187622.067,17.267931
1435187622.083,18.880816
1435187622.099,19.63524
1435187622.114,19.317062
1435187622.13,17.895912
1435187622.146,15.540751
1435187622.161,12.5582075
1435187622.177,9.32193
1435187622.192,6.133112
1435187622.208,3.1762676
1435187622.224,0.49005222
1435187622.239,-1.9600611
1435187622.255,-4.213237
1435187622.271,-6.238659
1435187622.286,-7.970257
1435187622.302,-9.324495
1435187622.317,-10.268678
1435187622.333,-10.834192
1435187622.349,-11.120051
1435187622.364,-11.217726
1435187622.38,-11.208496
1435187622.396,-11.103882
1435187622.411,-10.908347
1435187622.427,-10.611396
1435187622.442,-10.230141
1435187622.458,-9.7988615
1435187622.474,-9.365545
1435187622.489,-8.953376
1435187622.505,-8.566807
1435187622.521,-8.168302
1435187622.536,-7.7175674
1435187622.552,-7.1546307
1435187622.567,-6.4471188
1435187622.583,-5.5655384
1435187622.599,-4.5029774
1435187622.614,-3.2523003
1435187622.63,-1.8254776
1435187622.646,-0.23688126
1435187622.661,1.4446735
1435187622.677,3.1256924
1435187622.692,4.7092037
1435187622.708,6.143936
1435187622.724,7.4455967
1435187622.739,8.711294
1435187622.755,10.093979
1435187622.771,11.736736
1435187622.786,13.667926
1435187622.802,15.786068
1435187622.817,17.817303
1435187622.833,19.41684
1435187622.849,20.238815
1435187622.864,20.049686
1435187622.88,18.78733
1435187622.896,16.576153
1435187622.911,13.643961
1435187622.927,10.294581
1435187622.942,6.8404274
1435187622.958,3.5759516
1435187622.974,0.71221066
1435187622.989,-1.628768
1435187623.005,-3.4749918
1435187623.021,-4.952429
1435187623.036,-6.2407866
1435187623.052,-7.482132
1435187623.067,-8.714656
1435187623.083,-9.857212
1435187623.099,-10.76467
1435187623.114,-11.311888
1435187623.13,-11.475447
1435187623.146,-11.310323
1435187623.161,-10.931758
1435187623.177,-10.461709
1435187623.192,-9.994148
1435187623.208,-9.569734
1435187623.224,-9.212591
1435187623.239,-8.906684
1435187623.255,-8.616446
1435187623.271,-8.284012
1435187623.286,-7.8715706
1435187623.302,-7.3549395
1435187623.318,-6.7579584
1435187623.333,-6.0733585
1435187623.349,-5.290325
1435187623.364,-4.369958
1435187623.38,-3.3035336
1435187623.396,-2.0969057
1435187623.411,-0.81412125
1435187623.427,0.4687996
1435187623.442,1.6853495
1435187623.458,2.8100138
1435187623.474,3.862485
1435187623.489,4.9136677
1435187623.505,6.05136
1435187623.521,7.3901424
1435187623.536,9.016851
1435187623.552,10.948681
1435187623.568,13.045272
1435187623.583,15.042059
1435187623.599,16.552792
1435187623.614,17.255335
1435187623.63,16.975908
1435187623.646,15.773439
1435187623.661,13.867033
1435187623.677,11.511019
1435187623.693,8.888262
1435187623.708,6.0894566
1435187623.724,3.1514883
1435187623.739,0.1426897
1435187623.755,-2.799697
1435187623.771,-5.4935293
1435187623.786,-7.7919493
1435187623.802,-9.615217
1435187623.818,-10.998888
1435187623.833,-11.997963
1435187623.849,-12.664702
1435187623.864,-12.999824
1435187623.88,-13.0020275
1435187623.896,-12.697894
1435187623.911,-12.189059
1435187623.927,-11.625252
1435187623.943,-11.159613
1435187623.958,-10.872428
1435187623.974,-10.74633
1435187623.989,-10.683569
1435187624.005,-10.5529585
1435187624.021,-10.269049
1435187624.036,-9.835981
1435187624.052,-9.307201
1435187624.068,-8.756802
1435187624.083,-8.165552
1435187624.099,-7.459465
1435187624.114,-6.509527
1435187624.13,-5.27137
1435187624.146,-3.7939243
1435187624.161,-2.233652
1435187624.177,-0.7421684
1435187624.193,0.60123634
1435187624.208,1.8424587
1435187624.224,3.0821304
1435187624.239,4.403097
1435187624.255,5.8040714
1435187624.271,7.230238
1435187624.286,8.625446
1435187624.302,10.01429
1435187624.318,11.470535
1435187624.333,13.115736
1435187624.349,14.973965
1435187624.364,16.947521
1435187624.38,18.804417
1435187624.396,20.258337
1435187624.411,21.016796
1435187624.427,20.914394
1435187624.443,19.894558
1435187624.458,18.045332
1435187624.474,15.52906
1435187624.489,12.552593
1435187624.505,9.325428
1435187624.521,6.0387383
1435187624.536,2.8577728
1435187624.552,-0.07793999
1435187624.568,-2.6686783
1435187624.583,-4.8608704
1435187624.599,-6.6720543
1435187624.614,-8.162638
1435187624.63,-9.437521
1435187624.646,-10.545139
1435187624.661,-11.485609
1435187624.677,-12.172052
1435187624.693,-12.533424
1435187624.708,-12.539822
1435187624.724,-12.23892
1435187624.739,-11.767788
1435187624.755,-11.2727375
1435187624.771,-10.873283
1435187624.786,-10.619205
1435187624.802,-10.469292
1435187624.818,-10.35606
1435187624.833,-10.170879
1435187624.849,-9.83651
1435187624.864,-9.296848
1435187624.88,-8.545496
1435187624.896,-7.571787
1435187624.911,-6.4237823
1435187624.927,-5.157774
1435187624.943,-3.8700905
1435187624.958,-2.6534443
1435187624.974,-1.5762177
1435187624.989,-0.63038063
1435187625.005,0.27306175
1435187625.021,1.2690487
1435187625.036,2.4770107
1435187625.052,3.9211235
1435187625.068,5.5282784
1435187625.083,7.1840687
1435187625.099,8.77944
1435187625.114,10.317804
1435187625.13,11.868599
1435187625.146,13.526915
1435187625.161,15.296791
1435187625.177,17.074678
1435187625.193,18.625898
1435187625.208,19.683313
1435187625.224,20.012455
1435187625.239,19.487854
1435187625.255,18.094648
1435187625.271,15.92251
1435187625.286,13.112822
1435187625.302,9.831253
1435187625.318,6.255718
1435187625.333,2.6015682
1435187625.349,-0.8769779
1435187625.364,-3.9061031
1435187625.38,-6.2667847
1435187625.396,-7.840313
1435187625.411,-8.675474
1435187625.427,-8.973314
1435187625.443,-9.021158
1435187625.458,-9.051193
1435187625.474,-9.199352
1435187625.489,-9.464903
1435187625.505,-9.776876
1435187625.521,-10.09095
1435187625.536,-10.397724
1435187625.552,-10.702248
1435187625.568,-10.963583
1435187625.583,-11.063538
1435187625.599,-10.87561
1435187625.614,-10.329035
1435187625.63,-9.501545
1435187625.646,-8.567343
1435187625.661,-7.731098
1435187625.677,-7.0847015
1435187625.693,-6.575779
1435187625.708,-6.0317936
1435187625.724,-5.284912
1435187625.739,-4.2497272
1435187625.755,-2.9847412
1435187625.771,-1.6224213
1435187625.786,-0.29750252
1435187625.802,0.9332638
1435187625.818,2.0768776
1435187625.833,3.1905136
1435187625.849,4.326391
1435187625.864,5.5168076
1435187625.88,6.7681713
1435187625.896,8.091248
1435187625.911,9.50934
1435187625.927,11.071156
1435187625.943,12.812563
1435187625.958,14.75242
1435187625.974,16.791338
1435187625.989,18.713135
1435187626.005,20.197815
1435187626.021,20.915014
1435187626.036,20.613647
1435187626.052,19.220448
1435187626.068,16.853786
1435187626.083,13.795683
1435187626.099,10.379126
1435187626.114,6.9345646
1435187626.13,3.7075558
1435187626.146,0.8608303
1435187626.161,-1.5412292
1435187626.177,-3.518219
1435187626.193,-5.1763725
1435187626.208,-6.635727
1435187626.224,-8.004501
1435187626.24,-9.282061
1435187626.255,-10.373983
1435187626.271,-11.127136
1435187626.286,-11.447371
1435187626.302,-11.346306
1435187626.318,-10.970764
1435187626.333,-10.499683
1435187626.349,-10.0880165
1435187626.365,-9.778082
1435187626.38,-9.534561
1435187626.396,-9.265881
1435187626.411,-8.914728
1435187626.427,-8.466024
1435187626.443,-7.9491158
1435187626.458,-7.409498
1435187626.474,-6.873331
1435187626.49,-6.321617
1435187626.505,-5.7030087
1435187626.521,-4.9491024
1435187626.536,-4.031986
1435187626.552,-2.9719048
1435187626.568,-1.8511286
1435187626.583,-0.7531986
1435187626.599,0.28459167
1435187626.615,1.3041649
1435187626.63,2.4367228
1435187626.646,3.8243484
1435187626.661,5.546793
1435187626.677,7.5847654
1435187626.693,9.793191
1435187626.708,11.987848
1435187626.724,13.957223
1435187626.74,15.519071
1435187626.755,16.486435
1435187626.771,16.701805
1435187626.786,16.05777
1435187626.802,14.558188
1435187626.818,12.341872
1435187626.833,9.662284
1435187626.849,6.775934
1435187626.865,3.8754864
1435187626.88,1.0443411
1435187626.896,-1.7012186
1435187626.911,-4.3364296
1435187626.927,-6.7615595
1435187626.943,-8.825798
1435187626.958,-10.380299
1435187626.974,-11.348248
1435187626.99,-11.745535
1435187627.005,-11.704411
1435187627.021,-11.389747
1435187627.036,-10.977306
1435187627.052,-10.606663
1435187627.068,-10.372227
1435187627.083,-10.295711
1435187627.099,-10.339632
1435187627.115,-10.399201
1435187627.13,-10.347835
1435187627.146,-10.069974
1435187627.161,-9.520536
1435187627.177,-8.719987
1435187627.193,-7.7480097
1435187627.208,-6.70537
1435187627.224,-5.6614094
1435187627.24,-4.6356583
1435187627.255,-3.6080284
1435187627.271,-2.541541
1435187627.286,-1.4250774
1435187627.302,-0.26946926
1435187627.318,0.88131046
1435187627.333,2.0220184
1435187627.349,3.1657743
1435187627.365,4.384506
1435187627.38,5.7410316
1435187627.396,7.2520657
1435187627.411,8.853267
1435187627.427,10.474479
1435187627.443,12.092119
1435187627.458,13.766926
1435187627.474,15.582424
1435187627.49,17.533697
1435187627.505,19.401142
1435187627.521,20.790325
1435187627.536,21.234123
1435187627.552,20.411951
1435187627.568,18.29059
1435187627.583,15.162248
1435187627.599,11.497382
1435187627.615,7.788745
1435187627.63,4.3624535
1435187627.646,1.3663158
1435187627.661,-1.2424631
1435187627.677,-3.553422
1435187627.693,-5.661091
1435187627.708,-7.580329
1435187627.724,-9.280909
1435187627.74,-10.691782
1435187627.755,-11.739986
1435187627.771,-12.3913355
1435187627.786,-12.668941
1435187627.802,-12.643428
1435187627.818,-12.40644
1435187627.833,-11.999836
1435187627.849,-11.449907
1435187627.865,-10.785716
1435187627.88,-10.084941
1435187627.896,-9.468092
1435187627.911,-9.070236
1435187627.927,-8.9363
1435187627.943,-9.008927
1435187627.958,-9.112122
1435187627.974,-9.035368
1435187627.99,-8.605032
1435187628.005,-7.771368
1435187628.021,-6.560088
1435187628.036,-5.0734415
1435187628.052,-3.4256682
1435187628.068,-1.7330308
1435187628.083,-0.086940765
1435187628.099,1.4365511
1435187628.115,2.8135314
1435187628.13,4.090594
1435187628.146,5.378277
1435187628.161,6.815798
1435187628.177,8.512399
1435187628.193,10.4786625
1435187628.208,12.656551
1435187628.224,14.891451
1435187628.24,16.99596
1435187628.255,18.743881
1435187628.271,19.93067
1435187628.286,20.35114
1435187628.302,19.870981
1435187628.318,18.45494
1435187628.333,16.194595
1435187628.349,13.295952
1435187628.365,10.036973
1435187628.38,6.6873407
1435187628.396,3.440464
1435187628.411,0.38763952
1435187628.427,-2.436803
1435187628.443,-5.002444
1435187628.458,-7.2317
1435187628.474,-9.010263
1435187628.49,-10.215534
1435187628.505,-10.824328
1435187628.521,-10.920275
1435187628.536,-10.700509
1435187628.552,-10.373188
1435187628.568,-10.078633
1435187628.583,-9.83087
1435187628.599,-9.562398
1435187628.615,-9.190199
1435187628.63,-8.690431
1435187628.646,-8.115324
1435187628.661,-7.574897
1435187628.677,-7.1521606
1435187628.693,-6.867061
1435187628.708,-6.6495595
1435187628.724,-6.3842077
1435187628.74,-5.959382
1435187628.755,-5.329431
1435187628.771,-4.4822884
1435187628.786,-3.4475486
1435187628.802,-2.2427137
1435187628.818,-0.87972
1435187628.833,0.65684175
1435187628.849,2.3334758
1435187628.865,4.0829916
1435187628.88,5.8094215
1435187628.896,7.4418435
1435187628.912,8.976475
1435187628.927,10.511084
1435187628.943,12.159349
1435187628.958,13.979146
1435187628.974,15.856951
1435187628.99,17.511927
1435187629.005,18.557064
1435187629.021,18.657133
1435187629.037,17.634546
1435187629.052,15.538715
1435187629.068,12.604503
1435187629.083,9.159281
1435187629.099,5.542307
1435187629.115,2.0330133
1435187629.13,-1.185194
1435187629.146,-4.004284
1435187629.162,-6.3826456
1435187629.177,-8.319547
1435187629.193,-9.81604
1435187629.208,-10.847435
1435187629.224,-11.390154
1435187629.24,-11.440136
1435187629.255,-11.088494
1435187629.271,-10.537919
1435187629.287,-10.073604
1435187629.302,-9.913952
1435187629.318,-10.131724
1435187629.333,-10.564082
1435187629.349,-10.910267
1435187629.365,-10.880817
1435187629.38,-10.35561
1435187629.396,-9.4280405
1435187629.412,-8.348649
1435187629.427,-7.3502445
1435187629.443,-6.5276413
1435187629.458,-5.807044
1435187629.474,-5.0213175
1435187629.49,-4.0165415
1435187629.505,-2.7552042
1435187629.521,-1.3011122
1435187629.537,0.23339939
1435187629.552,1.777092
1435187629.568,3.3439217
1435187629.583,5.025429
1435187629.599,6.925802
1435187629.615,9.099527
1435187629.63,11.463469
1435187629.646,13.803438
1435187629.662,15.800978
1435187629.677,17.12579
1435187629.693,17.5446
1435187629.708,17.011381
1435187629.724,15.629042
1435187629.74,13.601112
1435187629.755,11.1066
1435187629.771,8.267544
1435187629.787,5.1198654
1435187629.802,1.7228394
1435187629.818,-1.7984505
1435187629.833,-5.201645
1435187629.849,-8.197454
1435187629.865,-10.536808
1435187629.88,-12.118208
1435187629.896,-12.971106
1435187629.912,-13.260336
1435187629.927,-13.186834
1435187629.943,-12.907129
1435187629.958,-12.524109
1435187629.974,-12.080652
1435187629.99,-11.585131
1435187630.005,-11.049175
1435187630.021,-10.490749
1435187630.037,-9.92556
1435187630.052,-9.376055
1435187630.068,-8.861677
1435187630.083,-8.372753
1435187630.099,-7.893299
1435187630.115,-7.364355
1435187630.13,-6.7440453
1435187630.146,-5.964384
1435187630.162,-4.999506
1435187630.177,-3.8271255
1435187630.193,-2.455145
1435187630.208,-0.8927288
1435187630.224,0.83016014
1435187630.24,2.6597404
1435187630.255,4.49634
1435187630.271,6.261753
1435187630.287,7.91144
1435187630.302,9.486776
1435187630.318,11.099728
1435187630.333,12.859743
1435187630.349,14.762152
1435187630.365,16.643562
1435187630.38,18.172129
1435187630.396,18.974945
1435187630.412,18.778965
1435187630.427,17.502283
1435187630.443,15.292311
1435187630.458,12.43244
1435187630.474,9.233007
1435187630.49,5.9574986
1435187630.505,2.7801476
1435187630.521,-0.19566345
1435187630.537,-2.9155807
1435187630.552,-5.353077
1435187630.568,-7.5001106
1435187630.583,-9.347216
1435187630.599,-10.890629
1435187630.615,-12.0812
1435187630.63,-12.893723
1435187630.646,-13.289402
1435187630.662,-13.301167
1435187630.677,-13.021708
1435187630.693,-12.597265
1435187630.708,-12.157797
1435187630.724,-11.783159
1435187630.74,-11.445471
1435187630.755,-11.067892
1435187630.771,-10.543913
1435187630.787,-9.835863
1435187630.802,-8.992481
1435187630.818,-8.1164875
1435187630.833,-7.2916756
1435187630.849,-6.5261955
1435187630.865,-5.7375126
1435187630.88,-4.7923584
1435187630.896,-3.604866
1435187630.912,-2.1673203
1435187630.927,-0.5743046
1435187630.943,1.0267658
1435187630.958,2.541031
1435187630.974,3.9541988
1435187630.99,5.347212
1435187631.005,6.8316574
1435187631.021,8.518375
1435187631.037,10.429613
1435187631.052,12.533306
1435187631.068,14.710674
1435187631.083,16.809265
1435187631.099,18.5993
1435187631.115,19.826357
1435187631.13,20.210287
1435187631.146,19.55908
1435187631.162,17.823408
1435187631.177,15.164383
1435187631.193,11.92028
1435187631.208,8.506617
1435187631.224,5.258171
1435187631.24,2.3581982
1435187631.255,-0.20796394
1435187631.271,-2.556919
1435187631.287,-4.7758083
1435187631.302,-6.8475056
1435187631.318,-8.642174
1435187631.333,-10.013176
1435187631.349,-10.892509
1435187631.365,-11.329229
1435187631.38,-11.457741
1435187631.396,-11.37793
1435187631.412,-11.141214
1435187631.427,-10.724857
1435187631.443,-10.127451
1435187631.458,-9.401283
1435187631.474,-8.686398
1435187631.49,-8.132786
1435187631.505,-7.839613
1435187631.521,-7.775297
1435187631.537,-7.796461
1435187631.552,-7.6943684
1435187631.568,-7.28644
1435187631.584,-6.4282265
1435187631.599,-5.1073856
1435187631.615,-3.406845
1435187631.63,-1.5225716
1435187631.646,0.34747887
1435187631.662,2.0166187
1435187631.677,3.4324398
1435187631.693,4.6816387
1435187631.709,5.939497
1435187631.724,7.3726807
1435187631.74,9.0453
1435187631.755,10.854494
1435187631.771,12.589062
1435187631.787,13.97122
1435187631.802,14.757078
1435187631.818,14.759222
1435187631.834,13.906353
1435187631.849,12.209234
1435187631.865,9.80924
1435187631.88,6.9181786
1435187631.896,3.8161316
1435187631.912,0.7470741
1435187631.927,-2.0955486
1435187631.943,-4.611908
1435187631.959,-6.7253914
1435187631.974,-8.393648
1435187631.99,-9.588924
1435187632.005,-10.335329
1435187632.021,-10.717665
1435187632.037,-10.876949
1435187632.052,-10.940523
1435187632.068,-10.954048
1435187632.084,-10.872574
1435187632.099,-10.598408
1435187632.115,-10.071489
1435187632.13,-9.34716
1435187632.146,-8.554344
1435187632.162,-7.8698425
1435187632.177,-7.391739
1435187632.193,-7.087963
1435187632.209,-6.816845
1435187632.224,-6.4293594
1435187632.24,-5.8090267
1435187632.255,-4.9435215
1435187632.271,-3.8665352
1435187632.287,-2.6337814
1435187632.302,-1.2398396
1435187632.318,0.34356117
1435187632.334,2.1729717
1435187632.349,4.230734
1435187632.365,6.4321537
1435187632.38,8.653688
1435187632.396,10.786911
1435187632.412,12.781494
1435187632.427,14.642891
1435187632.443,16.332895
1435187632.459,17.712858
1435187632.474,18.515173
1435187632.49,18.44574
1435187632.505,17.300728
1435187632.521,15.134909
1435187632.537,12.222322
1435187632.552,8.978313
1435187632.568,5.7817173
1435187632.584,2.8276653
1435187632.599,0.14791298
1435187632.615,-2.3302097
1435187632.63,-4.6468143
1435187632.646,-6.752616
1435187632.662,-8.546962
1435187632.677,-9.946936
1435187632.693,-10.936174
1435187632.709,-11.562397
1435187632.724,-11.898366
1435187632.74,-11.973055
1435187632.755,-11.807962
1435187632.771,-11.401361
1435187632.787,-10.797636
1435187632.802,-10.067724
1435187632.818,-9.311091
1435187632.834,-8.579153
1435187632.849,-7.898672
1435187632.865,-7.251836
1435187632.88,-6.591489
1435187632.896,-5.852764
1435187632.912,-4.95555
1435187632.927,-3.8343687
1435187632.943,-2.4730816
1435187632.959,-0.95470047
1435187632.974,0.54808044
1435187632.99,1.8461885
1435187633.005,2.8192825
1435187633.021,3.5263968
1435187633.037,4.1647377
1435187633.052,5.029187
1435187633.068,6.3491907
1435187633.084,8.195041
1435187633.099,10.450428
1435187633.115,12.85001
1435187633.13,15.074269
1435187633.146,16.81849
1435187633.162,17.825735
1435187633.177,17.917465
1435187633.193,17.02456
1435187633.209,15.197916
1435187633.224,12.612675
1435187633.24,9.56297
1435187633.255,6.3408375
1435187633.271,3.1984968
1435187633.287,0.26674938
1435187633.302,-2.4206448
1435187633.318,-4.8776503
1435187633.334,-7.076792
1435187633.349,-8.924585
1435187633.365,-10.288154
1435187633.38,-11.093009
1435187633.396,-11.359134
1435187633.412,-11.224218
1435187633.427,-10.872129
1435187633.443,-10.441116
1435187633.459,-9.970116
1435187633.474,-9.412974
1435187633.49,-8.708385
1435187633.505,-7.8688164
1435187633.521,-6.966378
1435187633.537,-6.1277857
1435187633.552,-5.448572
1435187633.568,-4.946557
1435187633.584,-4.5521793
1435187633.599,-4.164567
1435187633.615,-3.6899796
1435187633.63,-3.0809221
1435187633.646,-2.2974262
1435187633.662,-1.311842
1435187633.677,-0.08656502
1435187633.693,1.382206
1435187633.709,3.0675097
1435187633.724,4.8726664
1435187633.74,6.705632
1435187633.755,8.481832
1435187633.771,10.170674
1435187633.787,11.765906
1435187633.802,13.263331
1435187633.818,14.604458
1435187633.834,15.6721735
1435187633.849,16.288662
1435187633.865,16.257078
1435187633.88,15.384098
1435187633.896,13.599191
1435187633.912,10.965198
1435187633.927,7.7276025
1435187633.943,4.2346277
1435187633.959,0.8575525
1435187633.974,-2.1178174
1435187633.99,-4.546194
1435187634.005,-6.424584
1435187634.021,-7.7948422
1435187634.037,-8.723591
1435187634.052,-9.264301
1435187634.068,-9.498778
1435187634.084,-9.538872
1435187634.099,-9.520788
1435187634.115,-9.530237
1435187634.13,-9.571789
1435187634.146,-9.561037
1435187634.162,-9.402701
1435187634.177,-9.048515
1435187634.193,-8.569265
1435187634.209,-8.078369
1435187634.224,-7.6834435
1435187634.24,-7.373043
1435187634.256,-7.068
1435187634.271,-6.637782
1435187634.287,-6.002678
1435187634.302,-5.137223
1435187634.318,-4.083823
1435187634.334,-2.8895898
1435187634.349,-1.5827565
1435187634.365,-0.18031788
1435187634.38,1.2870026
1435187634.396,2.8109846
1435187634.412,4.3836675
1435187634.427,6.0288715
1435187634.443,7.7794275
1435187634.459,9.630188
1435187634.474,11.490692
1435187634.49,13.173881
1435187634.506,14.405535
1435187634.521,14.901902
1435187634.537,14.449635
1435187634.552,12.96734
1435187634.568,10.531342
1435187634.584,7.381948
1435187634.599,3.869006
1435187634.615,0.38183475
1435187634.631,-2.7507277
1435187634.646,-5.31021
1435187634.662,-7.247177
1435187634.677,-8.637316
1435187634.693,-9.621927
1435187634.709,-10.346894
1435187634.724,-10.923834
1435187634.74,-11.382681
1435187634.756,-11.709066
1435187634.771,-11.828806
1435187634.787,-11.681309
1435187634.802,-11.229347
1435187634.818,-10.504721
1435187634.834,-9.601426
1435187634.849,-8.671042
1435187634.865,-7.853883
1435187634.881,-7.2609663
1435187634.896,-6.9299393
1435187634.912,-6.81777
1435187634.927,-6.8147836
1435187634.943,-6.7388506
1435187634.959,-6.390314
1435187634.974,-5.6003575
1435187634.99,-4.3114357
1435187635.006,-2.622353
1435187635.021,-0.76144505
1435187635.037,0.98630285
1435187635.052,2.4550862
1435187635.068,3.6423078
1435187635.084,4.724104
1435187635.099,5.9345512
1435187635.115,7.4453454
1435187635.131,9.263498
1435187635.146,11.276146
1435187635.162,13.291227
1435187635.177,15.134869
1435187635.193,16.671978
1435187635.209,17.7785
1435187635.224,18.315256
1435187635.24,18.127375
1435187635.256,17.077793
1435187635.271,15.1366825
1435187635.287,12.402177
1435187635.302,9.114542
1435187635.318,5.563734
1435187635.334,2.0665903
1435187635.349,-1.1521902
1435187635.365,-3.945385
1435187635.381,-6.2562885
1435187635.396,-8.08148
1435187635.412,-9.443987
1435187635.427,-10.372122
1435187635.443,-10.901776
1435187635.459,-11.111055
1435187635.474,-11.109844
1435187635.49,-11.026346
1435187635.506,-10.977709
1435187635.521,-10.999203
1435187635.537,-11.058853
1435187635.552,-11.067364
1435187635.568,-10.928488
1435187635.584,-10.547646
1435187635.599,-9.903118
1435187635.615,-9.020266
1435187635.631,-7.9872246
1435187635.646,-6.9307156
1435187635.662,-5.9871693
1435187635.677,-5.245901
1435187635.693,-4.721691
1435187635.709,-4.3175316
1435187635.724,-3.8512821
1435187635.74,-3.141985
1435187635.756,-2.0910168
1435187635.771,-0.714241
1435187635.787,0.82632065
1435187635.802,2.3613033
1435187635.818,3.7558784
1435187635.834,4.979477
1435187635.849,6.0723553
1435187635.865,7.143608
1435187635.881,8.2987385
1435187635.896,9.673639
1435187635.912,11.376287
1435187635.927,13.4596405
1435187635.943,15.839067
1435187635.959,18.26101
1435187635.974,20.31235
1435187635.99,21.543545
1435187636.006,21.602022
1435187636.021,20.349571
1435187636.037,17.91235
1435187636.052,14.617727
1435187636.068,10.87426
1435187636.084,7.0964794
1435187636.099,3.5829945
1435187636.115,0.54219055
1435187636.131,-1.9540997
1435187636.146,-3.9153938
1435187636.162,-5.448639
1435187636.177,-6.6751747
1435187636.193,-7.7358513
1435187636.209,-8.709049
1435187636.224,-9.591366
1435187636.24,-10.319229
1435187636.256,-10.812115
1435187636.271,-11.001907
1435187636.287,-10.898281
1435187636.302,-10.57793
1435187636.318,-10.150585
1435187636.334,-9.689594
1435187636.349,-9.229935
1435187636.365,-8.720749
1435187636.381,-8.120251
1435187636.396,-7.419197
1435187636.412,-6.685894
1435187636.427,-6.001381
1435187636.443,-5.412903
1435187636.459,-4.8274193
1435187636.474,-4.0573196
1435187636.49,-2.9100037
1435187636.506,-1.3236275
1435187636.521,0.5532379
1435187636.537,2.42284
1435187636.552,3.988266
1435187636.568,5.1038246
1435187636.584,5.8562965
1435187636.599,6.4858932
1435187636.615,7.2855034
1435187636.631,8.42403
1435187636.646,9.922394
1435187636.662,11.627827
1435187636.677,13.337791
1435187636.693,14.826347
1435187636.709,15.90596
1435187636.724,16.385666
1435187636.74,16.117065
1435187636.756,14.988407
1435187636.771,12.984711
1435187636.787,10.204983
1435187636.802,6.8787346
1435187636.818,3.3332443
1435187636.834,-0.038928986
1435187636.849,-2.8839684
1435187636.865,-4.9605827
1435187636.881,-6.2344246
1435187636.896,-6.8960876
1435187636.912,-7.296871
1435187636.927,-7.7572174
1435187636.943,-8.435711
1435187636.959,-9.249897
1435187636.974,-9.956863
1435187636.99,-10.310505
1435187637.006,-10.241116
1435187637.021,-9.882519
1435187637.037,-9.460213
1435187637.052,-9.14888
1435187637.068,-8.957623
1435187637.084,-8.7439575
1435187637.099,-8.365059
1435187637.115,-7.772938
1435187637.131,-7.040806
1435187637.146,-6.28767
1435187637.162,-5.5833054
1435187637.178,-4.8683777
1435187637.193,-4.0215263
1435187637.209,-2.8984833
1435187637.224,-1.4500237
1435187637.24,0.25382996
1435187637.256,2.0204124
1435187637.271,3.6515083
1435187637.287,4.967678
1435187637.303,5.9189453
1435187637.318,6.5982285
1435187637.334,7.229084
1435187637.349,8.085907
1435187637.365,9.379005
1435187637.381,11.122787
1435187637.396,13.097015
1435187637.412,14.869659
1435187637.428,15.948257
1435187637.443,15.950329
1435187637.459,14.769226
1435187637.474,12.546684
1435187637.49,9.670666
1435187637.506,6.5623817
1435187637.521,3.5349808
1435187637.537,0.7407074
1435187637.553,-1.7817917
1435187637.568,-4.009804
1435187637.584,-5.807209
1435187637.599,-6.9761505
1435187637.615,-7.3798676
1435187637.631,-7.0701637
1435187637.646,-6.3469315
1435187637.662,-5.6821136
1435187637.678,-5.457634
1435187637.693,-5.794014
1435187637.709,-6.5081673
1435187637.724,-7.235157
1435187637.74,-7.629818
1435187637.756,-7.5603294
1435187637.771,-7.0645676
1435187637.787,-6.2956123
1435187637.803,-5.4089546
1435187637.818,-4.5204926
1435187637.834,-3.717205
1435187637.849,-3.0936432
1435187637.865,-2.7307892
1435187637.881,-2.602333
1435187637.896,-2.5709953
1435187637.912,-2.3970413
1435187637.928,-1.8448524
1435187637.943,-0.79738617
1435187637.959,0.7487526
1435187637.974,2.6626282
1435187637.99,4.7666206
1435187638.006,6.860653
1435187638.021,8.821098
1435187638.037,10.547066
1435187638.053,12.030903
1435187638.068,13.300816
1435187638.084,14.41341
1435187638.099,15.351791
1435187638.115,16.008793
1435187638.131,16.179909
1435187638.146,15.709461
1435187638.162,14.558369
1435187638.178,12.839668
1435187638.193,10.757427
1435187638.209,8.479343
1435187638.224,6.0643883
1435187638.24,3.4884796
1435187638.256,0.7445221
1435187638.271,-2.0527
1435187638.287,-4.669792
1435187638.303,-6.8160973
1435187638.318,-8.330879
1435187638.334,-9.177063
1435187638.349,-9.477482
1435187638.365,-9.418591
1435187638.381,-9.155937
1435187638.396,-8.783382
1435187638.412,-8.355267
1435187638.428,-7.9168854
1435187638.443,-7.5109673
1435187638.459,-7.17601
1435187638.474,-6.9197044
1435187638.49,-6.7079544
1435187638.506,-6.4822693
1435187638.521,-6.161049
1435187638.537,-5.7030983
1435187638.553,-5.0964622
1435187638.568,-4.3866005
1435187638.584,-3.6147537
1435187638.599,-2.833435
1435187638.615,-2.0361252
1435187638.631,-1.1910057
1435187638.646,-0.25341415
1435187638.662,0.8201065
1435187638.678,2.038803
1435187638.693,3.38488
1435187638.709,4.8224754
1435187638.724,6.3047714
1435187638.74,7.788307
1435187638.756,9.246853
1435187638.771,10.704277
1435187638.787,12.201698
1435187638.803,13.766483
1435187638.818,15.314617
1435187638.834,16.634113
1435187638.849,17.394463
1435187638.865,17.268257
1435187638.881,16.064816
1435187638.896,13.835453
1435187638.912,10.86726
1435187638.928,7.5768585
1435187638.943,4.34116
1435187638.959,1.4188309
1435187638.974,-1.0983582
1435187638.99,-3.2043
1435187639.006,-4.930313
1435187639.021,-6.2854614
1435187639.037,-7.2681427
1435187639.053,-7.884739
1435187639.068,-8.182816
1435187639.084,-8.209301
1435187639.099,-8.044094
1435187639.115,-7.761593
1435187639.131,-7.466732
1435187639.146,-7.239971
1435187639.162,-7.117466
1435187639.178,-7.055794
1435187639.193,-6.973156
1435187639.209,-6.7919464
1435187639.224,-6.5096207
1435187639.24,-6.1891212
1435187639.256,-5.915119
1435187639.271,-5.698345
1435187639.287,-5.439049
1435187639.303,-4.9599953
1435187639.318,-4.1201363
1435187639.334,-2.8909492
1435187639.349,-1.3914757
1435187639.365,0.18408203
1435187639.381,1.6604614
1435187639.396,2.9617996
1435187639.412,4.118065
1435187639.428,5.240803
1435187639.443,6.432934
1435187639.459,7.7792625
1435187639.474,9.285805
1435187639.49,10.872372
1435187639.506,12.320507
1435187639.521,13.334244
1435187639.537,13.550579
1435187639.553,12.70771
1435187639.568,10.727993
1435187639.584,7.810726
1435187639.599,4.340519
1435187639.615,0.81136703
1435187639.631,-2.3696327
1435187639.646,-4.9445724
1435187639.662,-6.8541718
1435187639.678,-8.180477
1435187639.693,-9.110046
1435187639.709,-9.819378
1435187639.724,-10.444199
1435187639.74,-11.020561
1435187639.756,-11.490509
1435187639.771,-11.781876
1435187639.787,-11.872803
1435187639.803,-11.786184
1435187639.818,-11.589722
1435187639.834,-11.286186
1435187639.85,-10.814592
1435187639.865,-10.070166
1435187639.881,-9.033543
1435187639.896,-7.80031
1435187639.912,-6.612398
1435187639.928,-5.705599
1435187639.943,-5.1950817
1435187639.959,-4.985199
1435187639.975,-4.8269405
1435187639.99,-4.4379635
1435187640.006,-3.651123
1435187640.021,-2.4317322
1435187640.037,-0.88528633
1435187640.053,0.86610985
1435187640.068,2.6754093
1435187640.084,4.461052
1435187640.1,6.121313
1435187640.115,7.605398
1435187640.131,8.901312
1435187640.146,10.083178
1435187640.162,11.259441
1435187640.178,12.531815
1435187640.193,13.913105
1435187640.209,15.322472
1435187640.225,16.568594
1435187640.24,17.37615
1435187640.256,17.446947
1435187640.271,16.526794
1435187640.287,14.486891
1435187640.303,11.3986225
1435187640.318,7.547249
1435187640.334,3.3834343
1435187640.35,-0.6178379
1435187640.365,-4.0632515
1435187640.381,-6.7811813
1435187640.396,-8.765226
1435187640.412,-10.1608925
1435187640.428,-11.134483
1435187640.443,-11.810165
1435187640.459,-12.237154
1435187640.475,-12.420818
1435187640.49,-12.343531
1435187640.506,-12.020397
1435187640.521,-11.50507
1435187640.537,-10.891718
1435187640.553,-10.26469
1435187640.568,-9.703848
1435187640.584,-9.212776
1435187640.6,-8.756805
1435187640.615,-8.266779
1435187640.631,-7.7125187
1435187640.646,-7.089758
1435187640.662,-6.4405212
1435187640.678,-5.7914734
1435187640.693,-5.1275883
1435187640.709,-4.3770275
1435187640.725,-3.474451
1435187640.74,-2.3754787
1435187640.756,-1.1035881
1435187640.771,0.2963066
1435187640.787,1.767601
1435187640.803,3.278965
1435187640.818,4.8133583
1435187640.834,6.368248
1435187640.85,7.933012
1435187640.865,9.525787
1435187640.881,11.181618
1435187640.896,12.933346
1435187640.912,14.745157
1435187640.928,16.468996
1435187640.943,17.830942
1435187640.959,18.509174
1435187640.975,18.25955
1435187640.99,17.01386
1435187641.006,14.916666
1435187641.021,12.26503
1435187641.037,9.365383
1435187641.053,6.461672
1435187641.068,3.672924
1435187641.084,1.0278568
1435187641.1,-1.468441
1435187641.115,-3.7853413
1435187641.131,-5.8635654
1435187641.146,-7.592251
1435187641.162,-8.886776
1435187641.178,-9.706369
1435187641.193,-10.094841
1435187641.209,-10.173807
1435187641.225,-10.096226
1435187641.24,-9.983555
1435187641.256,-9.8762455
1435187641.271,-9.7327175
1435187641.287,-9.487869
1435187641.303,-9.101984
1435187641.318,-8.605211
1435187641.334,-8.066183
1435187641.35,-7.529581
1435187641.365,-6.9784775
1435187641.381,-6.3396835
1435187641.396,-5.52668
1435187641.412,-4.5162277
1435187641.428,-3.3514156
1435187641.443,-2.1323967
1435187641.459,-0.9531536
1435187641.475,0.14764404
1435187641.49,1.2012329
1435187641.506,2.253912
1435187641.521,3.3568993
1435187641.537,4.519306
1435187641.553,5.736843
1435187641.568,7.0282097
1435187641.584,8.452976
1435187641.6,10.073666
1435187641.615,11.908525
1435187641.631,13.808531
1435187641.646,15.474739
1435187641.662,16.490557
1435187641.678,16.463902
1435187641.693,15.184391
1435187641.709,12.740412
1435187641.725,9.494698
1435187641.74,5.950962
1435187641.756,2.559637
1435187641.771,-0.4181404
1435187641.787,-2.9510326
1435187641.803,-5.1486225
1435187641.818,-7.116102
1435187641.834,-8.859348
1435187641.85,-10.283922
1435187641.865,-11.25572
1435187641.881,-11.715721
1435187641.896,-11.716509
1435187641.912,-11.416355
1435187641.928,-10.985561
1435187641.943,-10.546238
1435187641.959,-10.132883
1435187641.975,-9.720985
1435187641.99,-9.25976
1435187642.006,-8.754673
1435187642.021,-8.252972
1435187642.037,-7.8181343
1435187642.053,-7.4729786
1435187642.068,-7.166273
1435187642.084,-6.7460537
1435187642.1,-6.0376396
1435187642.115,-4.9119873
1435187642.131,-3.3998642
1435187642.146,-1.6659985
1435187642.162,0.029455185
1435187642.178,1.4875984
1435187642.193,2.6625538
1435187642.209,3.6730194
1435187642.225,4.7344227
1435187642.24,6.0351334
1435187642.256,7.629261
1435187642.271,9.451935
1435187642.287,11.334417
1435187642.303,13.051811
1435187642.318,14.379278
1435187642.334,15.1045685
1435187642.35,15.042742
1435187642.365,14.098965
1435187642.381,12.295336
1435187642.396,9.817619
1435187642.412,6.935358
1435187642.428,3.9637356
1435187642.443,1.1215096
1435187642.459,-1.4440022
1435187642.475,-3.705124
1435187642.49,-5.648079
1435187642.506,-7.2697697
1435187642.522,-8.550915
1435187642.537,-9.485962
1435187642.553,-10.071537
1435187642.568,-10.335094
1435187642.584,-10.313652
1435187642.6,-10.067112
1435187642.615,-9.659483
1435187642.631,-9.16461
1435187642.647,-8.604683
1435187642.662,-7.991205
1435187642.678,-7.312975
1435187642.693,-6.5748672
1435187642.709,-5.8280544
1435187642.725,-5.151264
1435187642.74,-4.610773
1435187642.756,-4.2002487
1435187642.772,-3.8109035
1435187642.787,-3.266838
1435187642.803,-2.404354
1435187642.818,-1.1750145
1435187642.834,0.3454399
1435187642.85,1.9601154
1435187642.865,3.4756947
1435187642.881,4.784853
1435187642.897,5.9417515
1435187642.912,7.117098
1435187642.928,8.510763
1435187642.943,10.209177
1435187642.959,12.15094
1435187642.975,14.112959
1435187642.99,15.784605
1435187643.006,16.853498
1435187643.022,17.104483
1435187643.037,16.42855
1435187643.053,14.836428
1435187643.068,12.441006
1435187643.084,9.475513
1435187643.1,6.256695
1435187643.115,3.1380196
1435187643.131,0.3993435
1435187643.147,-1.8200817
1435187643.162,-3.5639782
1435187643.178,-4.9916573
1435187643.193,-6.2712574
1435187643.209,-7.460207
1435187643.225,-8.496559
1435187643.24,-9.265455
1435187643.256,-9.688719
1435187643.272,-9.778145
1435187643.287,-9.63059
1435187643.303,-9.333719
1435187643.318,-8.931675
1435187643.334,-8.396782
1435187643.35,-7.715851
1435187643.365,-6.9186993
1435187643.381,-6.118181
1435187643.397,-5.449518
1435187643.412,-4.9952717
1435187643.428,-4.728409
1435187643.443,-4.524416
1435187643.459,-4.211279
1435187643.475,-3.6328964
1435187643.49,-2.7134476
1435187643.506,-1.4841633
1435187643.522,-0.050317764
1435187643.537,1.4391537
1435187643.553,2.8670826
1435187643.568,4.1903
1435187643.584,5.470463
1435187643.6,6.835335
1435187643.615,8.43993
1435187643.631,10.341896
1435187643.647,12.469479
1435187643.662,14.582558
1435187643.678,16.357203
1435187643.693,17.487268
1435187643.709,17.757498
1435187643.725,17.103079
1435187643.74,15.5908375
1435187643.756,13.383354
1435187643.772,10.710588
1435187643.787,7.8241463
1435187643.803,4.967127
1435187643.818,2.3157806
1435187643.834,-0.03327751
1435187643.85,-2.0939865
1435187643.865,-3.932602
1435187643.881,-5.614851
1435187643.897,-7.1282005
1435187643.912,-8.383644
1435187643.928,-9.243219
1435187643.943,-9.617762
1435187643.959,-9.502769
1435187643.975,-9.010992
1435187643.99,-8.330731
1435187644.006,-7.653907
1435187644.022,-7.1003256
1435187644.037,-6.7214947
1435187644.053,-6.4931917
1435187644.068,-6.353709
1435187644.084,-6.22847
1435187644.1,-6.0643005
1435187644.115,-5.8036413
1435187644.131,-5.414913
1435187644.147,-4.833828
1435187644.162,-4.0120487
1435187644.178,-2.9206505
1435187644.193,-1.5844345
1435187644.209,-0.08523655
1435187644.225,1.4476385
1435187644.24,2.8973207
1435187644.256,4.2133503
1435187644.272,5.435171
1435187644.287,6.647586
1435187644.303,7.9602194
1435187644.318,9.3807125
1435187644.334,10.839245
1435187644.35,12.122467
1435187644.365,12.972437
1435187644.381,13.096388
1435187644.397,12.300929
1435187644.412,10.512497
1435187644.428,7.867362
1435187644.443,4.667656
1435187644.459,1.3212976
1435187644.475,-1.7813034
1435187644.49,-4.3818455
1435187644.506,-6.4186172
1435187644.522,-7.9674892
1435187644.537,-9.172005
1435187644.553,-10.151146
1435187644.568,-10.9731655
1435187644.584,-11.612056
1435187644.6,-12.029915
1435187644.615,-12.183622
1435187644.631,-12.059887
1435187644.647,-11.659805
1435187644.662,-11.005878
1435187644.678,-10.127318
1435187644.693,-9.089561
1435187644.709,-7.9638257
1435187644.725,-6.828964
1435187644.74,-5.7633753
1435187644.756,-4.813331
1435187644.772,-3.9738216
1435187644.787,-3.2116413
1435187644.803,-2.438201
1435187644.818,-1.567832
1435187644.834,-0.5388651
1435187644.85,0.6544509
1435187644.865,1.9856539
1435187644.881,3.3902655
1435187644.897,4.863613
1435187644.912,6.4268064
1435187644.928,8.144678
1435187644.943,10.044082
1435187644.959,12.057202
1435187644.975,13.992527
1435187644.99,15.562527
1435187645.006,16.462103
1435187645.022,16.44486
1435187645.037,15.425469
1435187645.053,13.480604
1435187645.068,10.829069
1435187645.084,7.7838416
1435187645.1,4.6481676
1435187645.115,1.6720905
1435187645.131,-1.0205884
1435187645.147,-3.3903043
1435187645.162,-5.477218
1435187645.178,-7.2955885
1435187645.194,-8.840028
1435187645.209,-10.058964
1435187645.225,-10.90954
1435187645.24,-11.382748
1435187645.256,-11.521316
1435187645.272,-11.407233
1435187645.287,-11.1135435
1435187645.303,-10.704201
1435187645.318,-10.188856
1435187645.334,-9.541442
1435187645.35,-8.720001
1435187645.365,-7.6833625
1435187645.381,-6.458588
1435187645.397,-5.117304
1435187645.412,-3.8063793
1435187645.428,-2.6522694
1435187645.444,-1.7554424
1435187645.459,-1.0897279
1435187645.475,-0.5529631
1435187645.49,0.020736217
1435187645.506,0.77314734
1435187645.522,1.7765663
1435187645.537,3.0353196
1435187645.553,4.5063634
1435187645.569,6.1592116
1435187645.584,7.9739056
1435187645.6,9.923584
1435187645.615,11.943931
1435187645.631,13.891077
1435187645.647,15.568143
1435187645.662,16.750877
1435187645.678,17.25814
1435187645.694,16.9557
1435187645.709,15.812043
1435187645.725,13.876427
1435187645.74,11.304037
1435187645.756,8.303541
1435187645.772,5.0993223
1435187645.787,1.8841038
1435187645.803,-1.1919029
1435187645.819,-4.014469
1435187645.834,-6.4373765
1435187645.85,-8.312197
1435187645.865,-9.511238
1435187645.881,-10.007217
1435187645.897,-9.904853
1435187645.912,-9.439019
1435187645.928,-8.883526
1435187645.944,-8.440817
1435187645.959,-8.196746
1435187645.975,-8.107903
1435187645.99,-8.063045
1435187646.006,-7.951833
1435187646.022,-7.6939254
1435187646.037,-7.259957
1435187646.053,-6.650083
1435187646.069,-5.910252
1435187646.084,-5.0840726
1435187646.1,-4.231462
1435187646.115,-3.3634562
1435187646.131,-2.4743438
1435187646.147,-1.5183315
1435187646.162,-0.47695446
1435187646.178,0.6485748
1435187646.194,1.8253841
1435187646.209,3.0709486
1435187646.225,4.454562
1435187646.24,6.062335
1435187646.256,7.934225
1435187646.272,9.995033
1435187646.287,12.027066
1435187646.303,13.730889
1435187646.319,14.81445
1435187646.334,15.084517
1435187646.35,14.453592
1435187646.365,12.950556
1435187646.381,10.674606
1435187646.397,7.833558
1435187646.412,4.685665
1435187646.428,1.5433102
1435187646.444,-1.3158073
1435187646.459,-3.7229767
1435187646.475,-5.6631613
1435187646.49,-7.2330074
1435187646.506,-8.580519
1435187646.522,-9.784662
1435187646.537,-10.826429
1435187646.553,-11.598376
1435187646.569,-11.982163
1435187646.584,-11.927535
1435187646.6,-11.511574
1435187646.615,-10.887179
1435187646.631,-10.246926
1435187646.647,-9.700056
1435187646.662,-9.2739525
1435187646.678,-8.896115
1435187646.694,-8.488148
1435187646.709,-8.005887
1435187646.725,-7.4812765
1435187646.74,-6.9706697
1435187646.756,-6.5071535
1435187646.772,-6.0174265
1435187646.787,-5.3525095
1435187646.803,-4.3509912
1435187646.819,-2.9586897
1435187646.834,-1.253768
1435187646.85,0.55866146
1435187646.865,2.2542534
1435187646.881,3.6985836
1435187646.897,4.948821
1435187646.912,6.1897917
1435187646.928,7.6515236
1435187646.944,9.419094
1435187646.959,11.3642025
1435187646.975,13.120819
1435187646.99,14.222261
1435187647.006,14.274086
1435187647.022,13.134292
1435187647.037,10.945318
1435187647.053,8.076755
1435187647.069,4.9851074
1435187647.084,2.0283365
1435187647.1,-0.60852337
1435187647.115,-2.8973036
1435187647.131,-4.906023
1435187647.147,-6.663107
1435187647.162,-8.141959
1435187647.178,-9.259494
1435187647.194,-9.946905
1435187647.209,-10.208579
1435187647.225,-10.163646
1435187647.24,-9.970897
1435187647.256,-9.789142
1435187647.272,-9.692574
1435187647.287,-9.67002
1435187647.303,-9.66153
1435187647.319,-9.619887
1435187647.334,-9.528386
1435187647.35,-9.409398
1435187647.365,-9.281009
1435187647.381,-9.126291
1435187647.397,-8.846283
1435187647.412,-8.315904
1435187647.428,-7.4262733
1435187647.444,-6.136202
1435187647.459,-4.4855003
1435187647.475,-2.5922103
1435187647.49,-0.59495544
1435187647.506,1.361269
1435187647.522,3.1708984
1435187647.537,4.7734904
1435187647.553,6.1613417
1435187647.569,7.390994
1435187647.584,8.586937
1435187647.6,9.904464
1435187647.615,11.464265
1435187647.631,13.257112
1435187647.647,15.117203
1435187647.662,16.701925
1435187647.678,17.612246
1435187647.694,17.5076
1435187647.709,16.25259
1435187647.725,13.938526
1435187647.74,10.877975
1435187647.756,7.485195
1435187647.772,4.1594896
1435187647.787,1.1707499
1435187647.803,-1.3866341
1435187647.819,-3.577907
1435187647.834,-5.5267296
1435187647.85,-7.340921
1435187647.865,-9.003792
1435187647.881,-10.396864
1435187647.897,-11.342957
1435187647.912,-11.725584
1435187647.928,-11.555323
1435187647.944,-11.011714
1435187647.959,-10.344678
1435187647.975,-9.781845
1435187647.99,-9.419236
1435187648.006,-9.220549
1435187648.022,-9.048041
1435187648.037,-8.794061
1435187648.053,-8.402775
1435187648.069,-7.905636
1435187648.084,-7.3515835
1435187648.1,-6.756778
1435187648.116,-6.0770206
1435187648.131,-5.2579026
1435187648.147,-4.2463613
1435187648.162,-3.0564413
1435187648.178,-1.750885
1435187648.194,-0.42263508
1435187648.209,0.85866165
1435187648.225,2.040948
1435187648.241,3.1158047
1435187648.256,4.1126847
1435187648.272,5.1042366
1435187648.287,6.1927433
1435187648.303,7.494877
1435187648.319,9.079916
1435187648.334,10.949763
1435187648.35,12.973772
1435187648.366,14.948297
1435187648.381,16.62172
1435187648.397,17.764238
1435187648.412,18.170723
1435187648.428,17.7294
1435187648.444,16.390173
1435187648.459,14.244514
1435187648.475,11.493867
1435187648.491,8.443591
1435187648.506,5.407114
1435187648.522,2.621604
1435187648.537,0.16802216
1435187648.553,-2.0041761
1435187648.569,-4.0083723
1435187648.584,-5.898247
1435187648.6,-7.6352043
1435187648.616,-9.069946
1435187648.631,-10.083644
1435187648.647,-10.60685
1435187648.662,-10.708338
1435187648.678,-10.508328
1435187648.694,-10.147396
1435187648.709,-9.696577
1435187648.725,-9.186008
1435187648.741,-8.621795
1435187648.756,-8.031527
1435187648.772,-7.4850388
1435187648.787,-7.0516434
1435187648.803,-6.757532
1435187648.819,-6.5517254
1435187648.834,-6.2655067
1435187648.85,-5.714138
1435187648.866,-4.743025
1435187648.881,-3.3500996
1435187648.897,-1.6702194
1435187648.912,0.019704819
1435187648.928,1.4461861
1435187648.944,2.425497
1435187648.959,2.9670296
1435187648.975,3.2428455
1435187648.991,3.5124836
1435187649.006,4.0354347
1435187649.022,4.9639683
1435187649.037,6.3155346
1435187649.053,8.01421
1435187649.069,9.90028
1435187649.084,11.782352
1435187649.1,13.437838
1435187649.116,14.643175
1435187649.131,15.184425
1435187649.147,14.925573
1435187649.162,13.817816
1435187649.178,11.952299
1435187649.194,9.495176
1435187649.209,6.6909924
1435187649.225,3.7688885
1435187649.241,0.94314194
1435187649.256,-1.6323376
1435187649.272,-3.861164
1435187649.287,-5.7221336
1435187649.303,-7.2395287
1435187649.319,-8.477861
1435187649.334,-9.493267
1435187649.35,-10.285456
1435187649.366,-10.794018
1435187649.381,-10.942944
1435187649.397,-10.657043
1435187649.412,-9.99077
1435187649.428,-9.103437
1435187649.444,-8.248596
1435187649.459,-7.6037865
1435187649.475,-7.2255783
1435187649.491,-6.98905
1435187649.506,-6.6959476
1435187649.522,-6.188366
1435187649.537,-5.474165
1435187649.553,-4.6781254
1435187649.569,-3.9510784
1435187649.584,-3.3303661
1435187649.6,-2.717596
1435187649.616,-1.9296932
1435187649.631,-0.8666668
1435187649.647,0.41225243
1435187649.662,1.7196655
1435187649.678,2.882122
1435187649.694,3.842886
1435187649.709,4.7483673
1435187649.725,5.822996
1435187649.741,7.2573757
1435187649.756,9.04895
1435187649.772,11.039961
1435187649.787,12.943146
1435187649.803,14.4831295
1435187649.819,15.430386
1435187649.834,15.628201
1435187649.85,15.007557
1435187649.866,13.572704
1435187649.881,11.413044
1435187649.897,8.738335
1435187649.912,5.8172073
1435187649.928,2.9265175
1435187649.944,0.2573738
1435187649.959,-2.0822258
1435187649.975,-4.09457
1435187649.991,-5.802147
1435187650.006,-7.2083015
1435187650.022,-8.281708
1435187650.037,-9.008911
1435187650.053,-9.410412
1435187650.069,-9.571156
1435187650.084,-9.594276
1435187650.1,-9.5696945
1435187650.116,-9.519623
1435187650.131,-9.421196
1435187650.147,-9.226982
1435187650.162,-8.928398
1435187650.178,-8.5264015
1435187650.194,-8.057449
1435187650.209,-7.537052
1435187650.225,-6.9840355
1435187650.241,-6.4267387
1435187650.256,-5.8952637
1435187650.272,-5.3966103
1435187650.287,-4.897251
1435187650.303,-4.293335
1435187650.319,-3.4752808
1435187650.334,-2.3489723
1435187650.35,-0.9237938
1435187650.366,0.6973381
1435187650.381,2.3396301
1435187650.397,3.8618355
1435187650.412,5.1881332
1435187650.428,6.3261223
1435187650.444,7.3495407
1435187650.459,8.366539
1435187650.475,9.472851
1435187650.491,10.743778
1435187650.506,12.206844
1435187650.522,13.839985
1435187650.537,15.527142
1435187650.553,17.050327
1435187650.569,18.108158
1435187650.584,18.399708
1435187650.6,17.696255
1435187650.616,15.95105
1435187650.631,13.288673
1435187650.647,10.0156975
1435187650.662,6.5115395
1435187650.678,3.1358566
1435187650.694,0.12692642
1435187650.709,-2.3978882
1435187650.725,-4.44973
1435187650.741,-6.101013
1435187650.756,-7.4273148
1435187650.772,-8.476051
1435187650.788,-9.274124
1435187650.803,-9.830151
1435187650.819,-10.158016
1435187650.834,-10.266548
1435187650.85,-10.191345
1435187650.866,-9.945915
1435187650.881,-9.577301
1435187650.897,-9.122505
1435187650.913,-8.624519
1435187650.928,-8.111717
1435187650.944,-7.591194
1435187650.959,-7.0400505
1435187650.975,-6.426674
1435187650.991,-5.7378807
1435187651.006,-4.990082
1435187651.022,-4.229622
1435187651.038,-3.5056305
1435187651.053,-2.814289
1435187651.069,-2.0992966
1435187651.084,-1.257328
1435187651.1,-0.21752548
1435187651.116,1.0192146
1435187651.131,2.3284264
1435187651.147,3.568081
1435187651.163,4.6223984
1435187651.178,5.49559
1435187651.194,6.2885513
1435187651.209,7.148876
1435187651.225,8.162991
1435187651.241,9.338921
1435187651.256,10.622135
1435187651.272,11.984772
1435187651.288,13.426708
1435187651.303,14.944626
1435187651.319,16.415417
1435187651.334,17.57381
1435187651.35,18.029755
1435187651.366,17.457073
1435187651.381,15.7271
1435187651.397,13.010967
1435187651.413,9.715088
1435187651.428,6.320938
1435187651.444,3.2065086
1435187651.459,0.5654068
1435187651.475,-1.5800858
1435187651.491,-3.2972221
1435187651.506,-4.672371
1435187651.522,-5.7376137
1435187651.538,-6.5077934
1435187651.553,-6.9889336
1435187651.569,-7.2196884
1435187651.584,-7.2874413
1435187651.6,-7.313198
1435187651.616,-7.4076614
1435187651.631,-7.629341
1435187651.647,-7.9019394
1435187651.663,-8.081303
1435187651.678,-7.9849434
1435187651.694,-7.5367966
1435187651.709,-6.8241234
1435187651.725,-6.070656
1435187651.741,-5.517021
1435187651.756,-5.2768974
1435187651.772,-5.269867
1435187651.788,-5.250736
1435187651.803,-4.962818
1435187651.819,-4.2944717
1435187651.834,-3.3033028
1435187651.85,-2.184658
1435187651.866,-1.1280899
1435187651.881,-0.23015594
1435187651.897,0.5470505
1435187651.913,1.3315048
1435187651.928,2.2657013
1435187651.944,3.4388504
1435187651.959,4.864563
1435187651.975,6.4814034
1435187651.991,8.185772
1435187652.006,9.833984
1435187652.022,11.28978
1435187652.038,12.400402
1435187652.053,13.012882
1435187652.069,12.966774
1435187652.084,12.16481
1435187652.1,10.584133
1435187652.116,8.338707
1435187652.131,5.649582
1435187652.147,2.807293
1435187652.163,0.07004547
1435187652.178,-2.4019852
1435187652.194,-4.5478897
1435187652.209,-6.363041
1435187652.225,-7.8347015
1435187652.241,-8.922543
1435187652.256,-9.594662
1435187652.272,-9.847073
1435187652.288,-9.797249
1435187652.303,-9.586784
1435187652.319,-9.380035
1435187652.334,-9.255081
1435187652.35,-9.217224
1435187652.366,-9.19445
1435187652.381,-9.101753
1435187652.397,-8.837791
1435187652.413,-8.359833
1435187652.428,-7.6700783
1435187652.444,-6.8522377
1435187652.459,-6.021717
1435187652.475,-5.318142
1435187652.491,-4.8005333
1435187652.506,-4.44104
1435187652.522,-4.0953484
1435187652.538,-3.5927925
1435187652.553,-2.7868004
1435187652.569,-1.6448936
1435187652.584,-0.22268677
1435187652.6,1.375454
1435187652.616,3.0531807
1435187652.631,4.7228584
1435187652.647,6.3267784
1435187652.663,7.8041954
1435187652.678,9.116188
1435187652.694,10.291267
1435187652.709,11.431686
1435187652.725,12.663975
1435187652.741,14.077
1435187652.756,15.579735
1435187652.772,16.95551
1435187652.788,17.854786
1435187652.803,17.953293
1435187652.819,17.05212
1435187652.834,15.15604
1435187652.85,12.458946
1435187652.866,9.254295
1435187652.881,5.8632164
1435187652.897,2.5715408
1435187652.913,-0.39393997
1435187652.928,-2.8713722
1435187652.944,-4.7984085
1435187652.959,-6.1875496
1435187652.975,-7.1724434
1435187652.991,-7.9159317
1435187653.006,-8.57811
1435187653.022,-9.192894
1435187653.038,-9.721294
1435187653.053,-10.045666
1435187653.069,-10.111019
1435187653.084,-9.960079
1435187653.1,-9.744465
1435187653.116,-9.628208
1435187653.131,-9.680286
1435187653.147,-9.795631
1435187653.163,-9.775463
1435187653.178,-9.433891
1435187653.194,-8.735531
1435187653.209,-7.812149
1435187653.225,-6.901333
1435187653.241,-6.1620407
1435187653.256,-5.6359215
1435187653.272,-5.1994286
1435187653.288,-4.6777496
1435187653.303,-3.939972
1435187653.319,-2.9741135
1435187653.334,-1.8634224
1435187653.35,-0.69721985
1435187653.366,0.45845413
1435187653.381,1.6026039
1435187653.397,2.7701378
1435187653.413,3.9836311
1435187653.428,5.246025
1435187653.444,6.541706
1435187653.46,7.862526
1435187653.475,9.224785
1435187653.491,10.680386
1435187653.506,12.283325
1435187653.522,14.088165
1435187653.538,16.049717
1435187653.553,17.989555
1435187653.569,19.56683
1435187653.585,20.377472
1435187653.6,20.051243
1435187653.616,18.449165
1435187653.631,15.720467
1435187653.647,12.278725
1435187653.663,8.6255
1435187653.678,5.214531
1435187653.694,2.3152466
1435187653.71,0.031707764
1435187653.725,-1.6874218
1435187653.741,-2.9466877
1435187653.756,-3.8982944
1435187653.772,-4.69993
1435187653.788,-5.5059204
1435187653.803,-6.416189
1435187653.819,-7.4271564
1435187653.835,-8.450787
1435187653.85,-9.32019
1435187653.866,-9.911736
1435187653.881,-10.215794
1435187653.897,-10.320774
1435187653.913,-10.383562
1435187653.928,-10.509699
1435187653.944,-10.701002
1435187653.96,-10.858456
1435187653.975,-10.818695
1435187653.991,-10.470774
1435187654.006,-9.806711
1435187654.022,-8.92239
1435187654.038,-7.9530334
1435187654.053,-7.013773
1435187654.069,-6.141197
1435187654.085,-5.2735558
1435187654.1,-4.307432
1435187654.116,-3.1639671
1435187654.131,-1.8329086
1435187654.147,-0.3466549
1435187654.163,1.2159481
1435187654.178,2.7769222
1435187654.194,4.259758
1435187654.21,5.620758
1435187654.225,6.830908
1435187654.241,7.9331894
1435187654.256,9.0394
1435187654.272,10.32992
1435187654.288,11.951801
1435187654.303,13.916012
1435187654.319,16.022385
1435187654.335,17.912806
1435187654.35,19.152151
1435187654.366,19.43586
1435187654.381,18.665413
1435187654.397,16.966854
1435187654.413,14.59037
1435187654.428,11.820667
1435187654.444,8.871444
1435187654.46,5.9065313
1435187654.475,3.0783777
1435187654.491,0.521472
1435187654.506,-1.6761694
1435187654.522,-3.4946928
1435187654.538,-5.010833
1435187654.553,-6.3461666
1435187654.569,-7.58842
1435187654.585,-8.7427435
1435187654.6,-9.741381
1435187654.616,-10.48021
1435187654.631,-10.912839
1435187654.647,-10.991166
1435187654.663,-10.717853
1435187654.678,-10.12114
1435187654.694,-9.302169
1435187654.71,-8.418949
1435187654.725,-7.710302
1435187654.741,-7.381879
1435187654.756,-7.5448613
1435187654.772,-8.099974
1435187654.788,-8.791553
1435187654.803,-9.280964
1435187654.819,-9.323281
1435187654.835,-8.809851
1435187654.85,-7.7976584
1435187654.866,-6.4265866
1435187654.881,-4.8684683
1435187654.897,-3.2265604
1435187654.913,-1.5918818
1435187654.928,-0.018146873
1435187654.944,1.4494978
1435187654.96,2.7753232
1435187654.975,3.9555888
1435187654.991,5.0676527
1435187655.006,6.229195
1435187655.022,7.6420455
1435187655.038,9.457896
1435187655.053,11.683981
1435187655.069,14.084541
1435187655.085,16.221045
1435187655.1,17.551075
1435187655.116,17.670334
1435187655.131,16.424953
1435187655.147,14.004873
1435187655.163,10.82085
1435187655.178,7.3530264
