1425332918.752,0.0
1425332918.767,0.0
1425332918.783,0.0
1425332918.798,0.0
1425332918.814,0.0
1425332918.83,0.0
1425332918.845,0.0
1425332918.861,0.0
1425332918.877,0.0
1425332918.892,0.0022315353
1425332918.908,-0.0045169927
1425332918.923,-0.011265522
1425332918.939,-0.011383951
1425332918.955,0.0011864507
1425332918.97,0.025910312
1425332918.986,0.050634187
1425332919.002,0.051362894
1425332919.017,-0.0014929791
1425332919.033,-0.1302426
1425332919.048,-0.35562757
1425332919.064,-0.6591247
1425332919.08,-1.0095103
1425332919.095,-1.3709826
1425332919.111,-1.7197359
1425332919.127,-2.0551105
1425332919.142,-2.39945
1425332919.158,-2.7866635
1425332919.173,-3.2399073
1425332919.189,-3.796012
1425332919.205,-4.418684
1425332919.22,-5.0592937
1425332919.236,-5.6644096
1425332919.252,-6.2021537
1425332919.267,-6.6808796
1425332919.283,-7.149598
1425332919.298,-7.6782336
1425332919.314,-8.310739
1425332919.33,-9.143657
1425332919.345,-10.089731
1425332919.361,-11.041313
1425332919.377,-11.8842125
1425332919.392,-12.564316
1425332919.408,-13.13563
1425332919.424,-13.760044
1425332919.439,-14.65232
1425332919.455,-15.962056
1425332919.47,-17.914442
1425332919.486,-20.317299
1425332919.502,-22.903854
1425332919.517,-25.37947
1425332919.533,-27.578028
1425332919.549,-29.57246
1425332919.564,-31.675173
1425332919.58,-34.3178
1425332919.595,-37.813618
1425332919.611,-42.541233
1425332919.627,-48.1463
1425332919.642,-54.104755
1425332919.658,-59.83309
1425332919.674,-64.972374
1425332919.689,-69.58293
1425332919.705,-74.14353
1425332919.72,-79.344986
1425332919.736,-85.70726
1425332919.752,-93.76193
1425332919.767,-102.99779
1425332919.783,-112.61757
1425332919.799,-121.73034
1425332919.814,-129.76602
1425332919.83,-136.75102
1425332919.845,-143.30344
1425332919.861,-150.74623
1425332919.877,-157.77356
1425332919.892,-166.64323
1425332919.908,-177.94798
1425332919.924,-191.79102
1425332919.939,-206.96808
1425332919.955,-220.56592
1425332919.97,-228.24644
1425332919.986,-225.36154
1425332920.002,-208.53198
1425332920.017,-176.87024
1425332920.033,-132.76222
1425332920.049,-80.04997
1425332920.064,-23.069275
1425332920.08,34.94339
1425332920.095,92.43695
1425332920.111,149.15695
1425332920.127,205.22772
1425332920.142,260.36963
1425332920.158,313.74133
1425332920.174,363.87396
1425332920.189,409.83353
1425332920.205,450.90775
1425332920.22,486.50244
1425332920.236,515.73865
1425332920.252,537.2274
1425332920.267,549.22
1425332920.283,549.9613
1425332920.299,538.367
1425332920.314,514.2055
1425332920.33,478.674
1425332920.345,433.87952
1425332920.361,382.45126
1425332920.377,327.02106
1425332920.392,269.84186
1425332920.408,212.63379
1425332920.424,156.6594
1425332920.439,102.95233
1425332920.455,52.373596
1425332920.47,5.9046936
1425332920.486,-35.580414
1425332920.502,-71.42584
1425332920.517,-101.35184
1425332920.533,-125.50113
1425332920.549,-144.3797
1425332920.564,-158.69403
1425332920.58,-169.15071
1425332920.595,-176.3711
1425332920.611,-180.75139
1425332920.627,-182.57419
1425332920.642,-182.06863
1425332920.658,-179.5066
1425332920.674,-175.23325
1425332920.689,-169.65286
1425332920.705,-163.17691
1425332920.72,-156.14568
1425332920.736,-148.80681
1425332920.752,-141.29686
1425332920.767,-133.68983
1425332920.783,-126.01962
1425332920.799,-118.33268
1425332920.814,-110.68864
1425332920.83,-103.15572
1425332920.845,-95.80455
1425332920.861,-88.684166
1425332920.877,-81.82744
1425332920.892,-75.24594
1425332920.908,-68.9526
1425332920.924,-62.949085
1425332920.939,-57.247494
1425332920.955,-51.857185
1425332920.97,-46.78282
1425332920.986,-42.02776
1425332921.002,-37.58521
1425332921.017,-33.451748
1425332921.033,-29.613855
1425332921.049,-26.070963
1425332921.064,-22.808779
1425332921.08,-19.824995
1425332921.095,-17.113392
1425332921.111,-14.666497
1425332921.127,-12.47932
1425332921.142,-10.538469
1425332921.158,-8.833674
1425332921.174,-7.3478527
1425332921.189,-6.067689
1425332921.205,-4.9734235
1425332921.22,-4.046258
1425332921.236,-3.2673752
1425332921.252,-2.6211367
1425332921.267,-2.088365
1425332921.283,-1.6507506
1425332921.299,-1.2976913
1425332921.314,-1.0147024
1425332921.33,-0.79105926
1425332921.345,-0.6133206
1425332921.361,-0.47516227
1425332921.377,-0.3684653
1425332921.392,-0.28461677
1425332921.408,-0.22397345
1425332921.424,-0.17647654
1425332921.439,-0.14055526
1425332921.455,-0.11251485
1425332921.47,-0.0926249
1425332921.486,-0.07977182
1425332921.502,-0.06783539
1425332921.517,-0.05929327
1425332921.533,-0.052183747
1425332921.549,-0.046860814
1425332921.564,-0.044131815
1425332921.58,-0.040358156
1425332921.595,-0.039164305
1425332921.611,-0.034330726
1425332921.627,-0.03515649
1425332921.642,-0.03181714
1425332921.658,-0.030750751
1425332921.674,-0.02810505
1425332921.689,-0.029290557
1425332921.705,-0.027453512
1425332921.72,-0.026081413
1425332921.736,-0.023851603
1425332921.752,-0.022989094
1425332921.767,-0.022172749
1425332921.783,-0.022157341
1425332921.799,-0.020828396
1425332921.814,-0.020277172
1425332921.83,-0.01940465
1425332921.845,-0.018795371
1425332921.861,-0.019169807
1425332921.877,-0.017195046
1425332921.892,-0.016264498
1425332921.908,-0.01676847
1425332921.924,-0.016039208
1425332921.939,-0.016356274
1425332921.955,-0.012255222
1425332921.97,-0.014495164
1425332921.986,-0.013811752
1425332922.002,-0.014701039
1425332922.017,-0.010335401
1425332922.033,-0.011975527
1425332922.049,-0.01032646
1425332922.064,-0.009920865
1425332922.08,-0.0100964755
1425332922.096,-0.01202333
1425332922.111,-0.014572993
1425332922.127,-0.01769188
1425332922.142,-0.027080357
1425332922.158,-0.038997173
1425332922.174,-0.05310744
1425332922.189,-0.077539206
1425332922.205,-0.099327385
1425332922.22,-0.1289675
1425332922.236,-0.16101918
1425332922.252,-0.19922101
1425332922.267,-0.23801324
1425332922.283,-0.28645593
1425332922.299,-0.3271458
1425332922.314,-0.37456566
1425332922.33,-0.42392975
1425332922.346,-0.47290528
1425332922.361,-0.5235279
1425332922.377,-0.5762747
1425332922.392,-0.63569057
1425332922.408,-0.68794376
1425332922.424,-0.7541981
1425332922.439,-0.81734914
1425332922.455,-0.8934157
1425332922.471,-0.97405374
1425332922.486,-1.0567387
1425332922.502,-1.1510425
1425332922.517,-1.2603307
1425332922.533,-1.3759316
1425332922.549,-1.5105131
1425332922.564,-1.6596211
1425332922.58,-1.8245137
1425332922.596,-2.0020587
1425332922.611,-2.205381
1425332922.627,-2.4302008
1425332922.642,-2.683176
1425332922.658,-2.976662
1425332922.674,-3.3057535
1425332922.689,-3.6559339
1425332922.705,-4.0163765
1425332922.721,-4.3706107
1425332922.736,-4.7158356
1425332922.752,-5.069922
1425332922.767,-5.449819
1425332922.783,-5.8973565
1425332922.799,-6.440779
1425332922.814,-7.066011
1425332922.83,-7.767729
1425332922.846,-8.502503
1425332922.861,-9.232475
1425332922.877,-9.946972
1425332922.892,-10.664726
1425332922.908,-11.419402
1425332922.924,-12.250258
1425332922.939,-13.212031
1425332922.955,-14.290527
1425332922.971,-15.453656
1425332922.986,-16.6284
1425332923.002,-17.749792
1425332923.017,-18.769876
1425332923.033,-19.700666
1425332923.049,-20.55616
1425332923.064,-21.366552
1425332923.08,-22.089066
1425332923.096,-22.577066
1425332923.111,-22.580603
1425332923.127,-21.81496
1425332923.142,-20.025812
1425332923.158,-17.125786
1425332923.174,-13.207838
1425332923.189,-8.556038
1425332923.205,-3.5615692
1425332923.221,1.4119263
1425332923.236,6.2072563
1425332923.252,10.833813
1425332923.267,15.470394
1425332923.283,20.29021
1425332923.299,25.254635
1425332923.314,30.06974
1425332923.33,34.248238
1425332923.346,37.2755
1425332923.361,38.855087
1425332923.377,39.110348
1425332923.392,38.598293
1425332923.408,38.089764
1425332923.424,38.256138
1425332923.439,39.391438
1425332923.455,41.217167
1425332923.471,43.034943
1425332923.486,44.078735
1425332923.502,43.915802
1425332923.517,42.609802
1425332923.533,40.743336
1425332923.549,39.114315
1425332923.564,38.41688
1425332923.58,39.031452
1425332923.596,41.10382
1425332923.611,44.53136
1425332923.627,48.761204
1425332923.642,52.54868
1425332923.658,53.89721
1425332923.674,50.543312
1425332923.689,40.960747
1425332923.705,25.358204
1425332923.721,6.0509872
1425332923.736,-13.1993065
1425332923.752,-28.61995
1425332923.767,-38.046448
1425332923.783,-41.5354
1425332923.799,-40.984898
1425332923.814,-38.84134
1425332923.83,-36.8061
1425332923.846,-35.26647
1425332923.861,-33.66969
1425332923.877,-31.46268
1425332923.892,-28.751637
1425332923.908,-26.403465
1425332923.924,-25.414206
1425332923.939,-26.175037
1425332923.955,-28.132088
1425332923.971,-29.943457
1425332923.986,-30.14487
1425332924.002,-27.803698
1425332924.017,-23.047756
1425332924.033,-16.868057
1425332924.049,-10.7835865
1425332924.064,-6.1117935
1425332924.08,-3.524601
1425332924.096,-2.8289266
1425332924.111,-3.2215862
1425332924.127,-3.776804
1425332924.142,-3.9774284
1425332924.158,-4.0011377
1425332924.174,-4.6949787
1425332924.189,-7.157737
1425332924.205,-12.101612
1425332924.221,-19.540081
1425332924.236,-28.800419
1425332924.252,-38.711914
1425332924.267,-48.08872
1425332924.283,-56.04843
1425332924.299,-62.17319
1425332924.314,-66.455475
1425332924.33,-69.1452
1425332924.346,-70.58559
1425332924.361,-71.20249
1425332924.377,-71.41444
1425332924.392,-71.57548
1425332924.408,-71.880516
1425332924.424,-72.24725
1425332924.439,-72.32788
1425332924.455,-71.682396
1425332924.471,-70.05231
1425332924.486,-67.543625
1425332924.502,-64.57056
1425332924.517,-61.642715
1425332924.533,-58.937645
1425332924.549,-56.176308
1425332924.564,-52.657684
1425332924.58,-47.65252
1425332924.596,-40.685226
1425332924.611,-31.81334
1425332924.627,-21.483788
1425332924.642,-10.2896805
1425332924.658,1.2943192
1425332924.674,13.026047
1425332924.689,24.832031
1425332924.705,36.579437
1425332924.721,47.905815
1425332924.736,58.239487
1425332924.752,66.91592
1425332924.767,73.39511
1425332924.783,77.47342
1425332924.799,79.28842
1425332924.814,79.32834
1425332924.83,78.288025
1425332924.846,76.96922
1425332924.861,76.12517
1425332924.877,76.41075
1425332924.892,78.22313
1425332924.908,81.60069
1425332924.924,86.13327
1425332924.939,90.9212
1425332924.955,94.69919
1425332924.971,96.12448
1425332924.986,94.173096
1425332925.002,88.398346
1425332925.018,79.16608
1425332925.033,67.43855
1425332925.049,54.481888
1425332925.064,41.510986
1425332925.08,29.425537
1425332925.096,18.75148
1425332925.111,9.721863
1425332925.127,2.3746338
1425332925.143,-3.3849335
1425332925.158,-7.739044
1425332925.174,-11.015762
1425332925.189,-13.618866
1425332925.205,-15.963547
1425332925.221,-18.316238
1425332925.236,-20.766373
1425332925.252,-23.134491
1425332925.268,-25.128754
1425332925.283,-26.454834
1425332925.299,-26.96318
1425332925.314,-26.695679
1425332925.33,-25.837784
1425332925.346,-24.626068
1425332925.361,-23.203156
1425332925.377,-21.608795
1425332925.393,-19.804184
1425332925.408,-17.69072
1425332925.424,-15.240387
1425332925.439,-12.451035
1425332925.455,-9.390671
1425332925.471,-6.185913
1425332925.486,-3.03685
1425332925.502,-0.11160278
1425332925.518,2.494873
1425332925.533,4.926834
1425332925.549,7.524002
1425332925.564,10.760345
1425332925.58,15.052292
1425332925.596,20.509293
1425332925.611,26.82521
1425332925.627,33.237823
1425332925.643,38.681885
1425332925.658,42.072037
1425332925.674,42.540237
1425332925.689,39.694275
1425332925.705,33.70117
1425332925.721,25.313782
1425332925.736,15.631088
1425332925.752,5.886795
1425332925.768,-2.9802856
1425332925.783,-10.418243
1425332925.799,-16.350586
1425332925.814,-21.007019
1425332925.83,-24.67035
1425332925.846,-27.475784
1425332925.861,-29.402374
1425332925.877,-30.3638
1425332925.893,-30.354568
1425332925.908,-29.494308
1425332925.924,-28.07521
1425332925.939,-26.409256
1425332925.955,-24.774673
1425332925.971,-23.285583
1425332925.986,-21.97113
1425332926.002,-20.730545
1425332926.018,-19.495392
1425332926.033,-18.144928
1425332926.049,-16.636642
1425332926.064,-14.922882
1425332926.08,-12.994034
1425332926.096,-10.805771
1425332926.111,-8.296158
1425332926.127,-5.356201
1425332926.143,-1.8984528
1425332926.158,2.144455
1425332926.174,6.7467957
1425332926.189,11.851135
1425332926.205,17.374817
1425332926.221,23.263687
1425332926.236,29.435013
1425332926.252,35.697495
1425332926.268,41.559814
1425332926.283,46.236633
1425332926.299,48.779358
1425332926.314,48.373535
1425332926.33,44.629333
1425332926.346,37.821396
1425332926.361,28.774323
1425332926.377,18.63832
1425332926.393,8.529327
1425332926.408,-0.7205658
1425332926.424,-8.658127
1425332926.439,-15.12117
1425332926.455,-20.126389
1425332926.471,-23.728134
1425332926.486,-25.97705
1425332926.502,-26.931396
1425332926.518,-26.74855
1425332926.533,-25.643784
1425332926.549,-23.90915
1425332926.564,-21.816483
1425332926.58,-19.579819
1425332926.596,-17.365189
1425332926.611,-15.276947
1425332926.627,-13.404816
1425332926.643,-11.858185
1425332926.658,-10.711426
1425332926.674,-9.981125
1425332926.689,-9.5520935
1425332926.705,-9.17598
1425332926.721,-8.506195
1425332926.736,-7.2124786
1425332926.752,-5.06221
1425332926.768,-2.0603027
1425332926.783,1.5644836
1425332926.799,5.3986053
1425332926.814,9.067398
1425332926.83,12.345566
1425332926.846,15.396454
1425332926.861,18.67871
1425332926.877,22.810455
1425332926.893,28.205276
1425332926.908,34.794907
1425332926.924,41.811783
1425332926.939,47.98169
1425332926.955,51.85225
1425332926.971,52.283707
1425332926.986,48.83931
1425332927.002,41.857635
1425332927.018,32.316315
1425332927.033,21.494263
1425332927.049,10.601105
1425332927.064,0.55737305
1425332927.08,-8.128464
1425332927.096,-15.283936
1425332927.111,-21.00415
1425332927.127,-25.422623
1425332927.143,-28.700531
1425332927.158,-30.889786
1425332927.174,-32.062622
1425332927.189,-32.311737
1425332927.205,-31.842255
1425332927.221,-30.952621
1425332927.236,-29.924988
1425332927.252,-28.931305
1425332927.268,-27.998596
1425332927.283,-26.99617
1425332927.299,-25.765015
1425332927.314,-24.250092
1425332927.33,-22.538498
1425332927.346,-20.781616
1425332927.361,-19.058487
1425332927.377,-17.271194
1425332927.393,-15.156815
1425332927.408,-12.382446
1425332927.424,-8.809692
1425332927.439,-4.528122
1425332927.455,0.1018219
1425332927.471,4.65654
1425332927.486,8.814835
1425332927.502,12.525589
1425332927.518,15.995926
1425332927.533,19.651428
1425332927.549,23.949509
1425332927.564,29.208542
1425332927.58,35.37332
1425332927.596,41.93831
1425332927.611,47.83809
1425332927.627,51.71733
1425332927.643,52.23198
1425332927.658,48.603424
1425332927.674,40.929
1425332927.69,30.20929
1425332927.705,18.022507
1425332927.721,5.9992676
1425332927.736,-4.6780853
1425332927.752,-13.447754
1425332927.768,-20.351242
1425332927.783,-25.711502
1425332927.799,-29.84523
1425332927.815,-32.892303
1425332927.83,-34.87007
1425332927.846,-35.783737
1425332927.861,-35.788223
1425332927.877,-35.145554
1425332927.893,-34.223007
1425332927.908,-33.274567
1425332927.924,-32.37082
1425332927.94,-31.376846
1425332927.955,-30.065079
1425332927.971,-28.236252
1425332927.986,-25.926865
1425332928.002,-23.372925
1425332928.018,-20.978378
1425332928.033,-19.113403
1425332928.049,-17.913834
1425332928.065,-17.162277
1425332928.08,-16.431305
1425332928.096,-15.151138
1425332928.111,-12.918854
1425332928.127,-9.602402
1425332928.143,-5.3742523
1425332928.158,-0.614624
1425332928.174,4.2450256
1425332928.19,8.929077
1425332928.205,13.327301
1425332928.221,17.521713
1425332928.236,21.67752
1425332928.252,25.984177
1425332928.268,30.596481
1425332928.283,35.647354
1425332928.299,41.099182
1425332928.315,46.71637
1425332928.33,51.886734
1425332928.346,55.73903
1425332928.361,57.255875
1425332928.377,55.667328
1425332928.393,50.66809
1425332928.408,42.54213
1425332928.424,32.112076
1425332928.44,20.481857
1425332928.455,8.786453
1425332928.471,-2.015854
1425332928.486,-11.295654
1425332928.502,-18.726837
1425332928.518,-24.325867
1425332928.533,-28.302902
1425332928.549,-31.002075
1425332928.565,-32.719864
1425332928.58,-33.675888
1425332928.596,-33.937912
1425332928.611,-33.547577
1425332928.627,-32.54518
1425332928.643,-31.087784
1425332928.658,-29.411514
1425332928.674,-27.764359
1425332928.69,-26.314941
1425332928.705,-25.103058
1425332928.721,-24.108658
1425332928.736,-23.209335
1425332928.752,-22.303299
1425332928.768,-21.340225
1425332928.783,-20.253983
1425332928.799,-19.008423
1425332928.815,-17.541977
1425332928.83,-15.751175
1425332928.846,-13.498566
1425332928.861,-10.751541
1425332928.877,-7.520096
1425332928.893,-3.969223
1425332928.908,-0.34091187
1425332928.924,3.1004639
1425332928.94,6.2222443
1425332928.955,9.0481415
1425332928.971,11.81839
1425332928.986,14.838699
1425332929.002,18.381287
1425332929.018,22.585724
1425332929.033,27.453018
1425332929.049,32.891968
1425332929.065,38.759293
1425332929.08,44.80754
1425332929.096,50.52716
1425332929.111,55.069153
1425332929.127,57.33429
1425332929.143,56.303787
1425332929.158,51.409927
1425332929.174,42.935883
1425332929.19,31.963837
1425332929.205,20.066528
1425332929.221,8.763382
1425332929.236,-0.9757385
1425332929.252,-8.851425
1425332929.268,-15.135681
1425332929.283,-20.232925
1425332929.299,-24.437073
1425332929.315,-27.800156
1425332929.33,-30.173004
1425332929.346,-31.420609
1425332929.361,-31.596695
1425332929.377,-30.890366
1425332929.393,-29.643951
1425332929.408,-28.18547
1425332929.424,-26.762085
1425332929.44,-25.492203
1425332929.455,-24.377869
1425332929.471,-23.366608
1425332929.486,-22.42035
1425332929.502,-21.550919
1425332929.518,-20.824493
1425332929.533,-20.280457
1425332929.549,-19.892838
1425332929.565,-19.4581
1425332929.58,-18.671051
1425332929.596,-17.179
1425332929.611,-14.762619
1425332929.627,-11.399612
1425332929.643,-7.3264008
1425332929.658,-2.9096832
1425332929.674,1.4563751
1425332929.69,5.5358124
1425332929.705,9.298355
1425332929.721,12.940338
1425332929.736,16.747406
1425332929.752,21.01712
1425332929.768,25.928162
1425332929.783,31.572922
1425332929.799,37.83252
1425332929.815,44.39099
1425332929.83,50.61464
1425332929.846,55.613922
1425332929.861,58.296356
1425332929.877,57.66263
1425332929.893,53.166656
1425332929.908,45.01947
1425332929.924,34.16327
1425332929.94,22.055542
1425332929.955,10.207413
1425332929.971,-0.28240967
1425332929.986,-8.952347
1425332930.002,-15.854172
1425332930.018,-21.314697
1425332930.033,-25.605667
1425332930.049,-28.834274
1425332930.065,-30.963882
1425332930.08,-31.997604
1425332930.096,-32.01985
1425332930.111,-31.273514
1425332930.127,-30.035172
1425332930.143,-28.530365
1425332930.158,-26.925293
1425332930.174,-25.324524
1425332930.19,-23.83139
1425332930.205,-22.536758
1425332930.221,-21.554092
1425332930.236,-20.932419
1425332930.252,-20.626373
1425332930.268,-20.532867
1425332930.283,-20.410995
1425332930.299,-20.052643
1425332930.315,-19.268753
1425332930.33,-17.97258
1425332930.346,-16.231995
1425332930.362,-14.179382
1425332930.377,-11.920242
1425332930.393,-9.425095
1425332930.408,-6.533142
1425332930.424,-3.031952
1425332930.44,1.1305237
1425332930.455,5.75058
1425332930.471,10.421722
1425332930.487,14.683426
1425332930.502,18.305649
1425332930.518,21.408081
1425332930.533,24.485046
1425332930.549,28.129562
1425332930.565,32.83513
1425332930.58,38.628418
1425332930.596,45.030594
1425332930.612,51.043335
1425332930.627,55.428177
1425332930.643,56.997253
1425332930.658,54.993576
1425332930.674,49.30591
1425332930.69,40.50345
1425332930.705,29.708557
1425332930.721,18.228271
1425332930.737,7.255142
1425332930.752,-2.353241
1425332930.768,-10.223816
1425332930.783,-16.265015
1425332930.799,-20.643768
1425332930.815,-23.626648
1425332930.83,-25.554398
1425332930.846,-26.784225
1425332930.862,-27.631653
1425332930.877,-28.302597
1425332930.893,-28.815369
1425332930.908,-29.044556
1425332930.924,-28.846283
1425332930.94,-28.156265
1425332930.955,-27.05127
1425332930.971,-25.735397
1425332930.987,-24.469406
1425332931.002,-23.42041
1425332931.018,-22.63324
1425332931.033,-22.016785
1425332931.049,-21.44783
1425332931.065,-20.764465
1425332931.08,-19.864975
1425332931.096,-18.621567
1425332931.112,-16.960114
1425332931.127,-14.796173
1425332931.143,-12.1410675
1425332931.158,-9.067215
1425332931.174,-5.7082825
1425332931.19,-2.1831665
1425332931.205,1.3871613
1425332931.221,4.9475403
1425332931.237,8.409973
1425332931.252,11.700867
1425332931.268,14.730026
1425332931.283,17.542084
1425332931.299,20.27681
1425332931.315,23.251434
1425332931.33,26.796066
1425332931.346,31.18686
1425332931.362,36.45172
1425332931.377,42.334793
1425332931.393,48.197266
1425332931.408,53.096985
1425332931.424,55.92247
1425332931.44,55.656372
1425332931.455,51.698715
1425332931.471,44.1427
1425332931.487,33.786804
1425332931.502,21.998138
1425332931.518,10.2382965
1425332931.533,-0.3049469
1425332931.549,-9.065842
1425332931.565,-15.967529
1425332931.58,-21.301727
1425332931.596,-25.379547
1425332931.612,-28.338562
1425332931.627,-30.188889
1425332931.643,-30.906357
1425332931.658,-30.622726
1425332931.674,-29.652267
1425332931.69,-28.402283
1425332931.705,-27.241928
1425332931.721,-26.367188
1425332931.737,-25.759766
1425332931.752,-25.24086
1425332931.768,-24.649612
1425332931.783,-23.87793
1425332931.799,-22.98436
1425332931.815,-22.050049
1425332931.83,-21.173569
1425332931.846,-20.332642
1425332931.862,-19.39888
1425332931.877,-18.186142
1425332931.893,-16.48613
1425332931.908,-14.14061
1425332931.924,-11.065552
1425332931.94,-7.283661
1425332931.955,-2.9378967
1425332931.971,1.6950684
1425332931.987,6.2474976
1425332932.002,10.42514
1425332932.018,14.088898
1425332932.033,17.359665
1425332932.049,20.534409
1425332932.065,24.016083
1425332932.08,28.109573
1425332932.096,32.97551
1425332932.112,38.51198
1425332932.127,44.355865
1425332932.143,49.87999
1425332932.158,54.197266
1425332932.174,56.305176
1425332932.19,55.294678
1425332932.205,50.65416
1425332932.221,42.541367
1425332932.237,31.812622
1425332932.252,19.87555
1425332932.268,8.217682
1425332932.283,-1.9755402
1425332932.299,-10.135605
1425332932.315,-16.315033
1425332932.33,-20.974792
1425332932.346,-24.614838
1425332932.362,-27.581757
1425332932.377,-29.917236
1425332932.393,-31.516312
1425332932.408,-32.29628
1425332932.424,-32.33252
1425332932.44,-31.846893
1425332932.455,-31.112747
1425332932.471,-30.298767
1425332932.487,-29.448761
1425332932.502,-28.544678
1425332932.518,-27.590073
1425332932.533,-26.660828
1425332932.549,-25.88086
1425332932.565,-25.26358
1425332932.58,-24.675385
1425332932.596,-23.845474
1425332932.612,-22.519806
1425332932.627,-20.552994
1425332932.643,-18.000214
1425332932.658,-15.053619
1425332932.674,-11.911362
1425332932.69,-8.677216
1425332932.705,-5.3835907
1425332932.721,-1.9746704
1425332932.737,1.5425262
1425332932.752,5.128647
1425332932.768,8.690704
1425332932.783,12.152374
1425332932.799,15.462036
1425332932.815,18.64624
1425332932.83,21.802475
1425332932.846,25.133392
1425332932.862,28.898712
1425332932.877,33.350418
1425332932.893,38.59288
1425332932.908,44.457123
1425332932.924,50.40222
1425332932.94,55.493317
1425332932.955,58.588898
1425332932.971,58.65094
1425332932.987,55.05568
1425332933.002,47.866913
1425332933.018,37.86348
1425332933.034,26.340012
1425332933.049,14.737747
1425332933.065,4.206131
1425332933.08,-4.613571
1425332933.096,-11.658783
1425332933.112,-17.215576
1425332933.127,-21.69455
1425332933.143,-25.346054
1425332933.158,-28.264603
1425332933.174,-30.393509
1425332933.19,-31.720184
1425332933.205,-32.380585
1425332933.221,-32.57469
1425332933.237,-32.5112
1425332933.252,-32.243774
1425332933.268,-31.692825
1425332933.284,-30.730179
1425332933.299,-29.365082
1425332933.315,-27.794067
1425332933.33,-26.373993
1425332933.346,-25.426422
1425332933.362,-25.02417
1425332933.377,-24.921661
1425332933.393,-24.642975
1425332933.409,-23.766037
1425332933.424,-22.08052
1425332933.44,-19.748047
1425332933.455,-17.130295
1425332933.471,-14.590576
1425332933.487,-12.292908
1425332933.502,-10.101868
1425332933.518,-7.723404
1425332933.534,-4.875061
1425332933.549,-1.453659
1425332933.565,2.4089813
1425332933.58,6.4634094
1425332933.596,10.423035
1425332933.612,14.16008
1425332933.627,17.684341
1425332933.643,21.115143
1425332933.659,24.632584
1425332933.674,28.448273
1425332933.69,32.755478
1425332933.705,37.761658
1425332933.721,43.49402
1425332933.737,49.710144
1425332933.752,55.716156
1425332933.768,60.430786
1425332933.784,62.586227
1425332933.799,61.146088
1425332933.815,55.691742
1425332933.83,46.65367
1425332933.846,35.17926
1425332933.862,22.821594
1425332933.877,11.033508
1425332933.893,0.84158325
1425332933.909,-7.360138
1425332933.924,-13.68454
1425332933.94,-18.542786
1425332933.955,-22.344788
1425332933.971,-25.400818
1425332933.987,-27.876068
1425332934.002,-29.8497
1425332934.018,-31.321548
1425332934.034,-32.306137
1425332934.049,-32.73427
1425332934.065,-32.544235
1425332934.08,-31.709457
1425332934.096,-30.34555
1425332934.112,-28.745148
1425332934.127,-27.280182
1425332934.143,-26.275345
1425332934.159,-25.774918
1425332934.174,-25.5634
1425332934.19,-25.207413
1425332934.205,-24.30133
1425332934.221,-22.664246
1425332934.237,-20.371506
1425332934.252,-17.74466
1425332934.268,-15.100204
1425332934.284,-12.623718
1425332934.299,-10.335724
1425332934.315,-8.110001
1425332934.33,-5.7605286
1425332934.346,-3.1387634
1425332934.362,-0.10848999
1425332934.377,3.3845673
1425332934.393,7.331482
1425332934.409,11.586655
1425332934.424,15.942169
1425332934.44,20.199432
1425332934.455,24.332428
1425332934.471,28.507126
1425332934.487,33.05464
1425332934.502,38.264603
1425332934.518,44.12256
1425332934.534,50.178284
1425332934.549,55.49698
1425332934.565,58.912033
1425332934.58,59.35901
1425332934.596,56.158234
1425332934.612,49.332077
1425332934.627,39.51799
1425332934.643,27.837097
1425332934.659,15.631149
1425332934.674,4.082077
1425332934.69,-5.9674683
1425332934.705,-14.140823
1425332934.721,-20.480865
1425332934.737,-25.226547
1425332934.752,-28.693893
1425332934.768,-31.095428
1425332934.784,-32.557648
1425332934.799,-33.155518
1425332934.815,-32.98941
1425332934.83,-32.22867
1425332934.846,-31.100098
1425332934.862,-29.795853
1425332934.877,-28.368744
1425332934.893,-26.753357
1425332934.909,-24.815628
1425332934.924,-22.506165
1425332934.94,-19.933945
1425332934.955,-17.402527
1425332934.971,-15.281326
1425332934.987,-13.814133
1425332935.002,-12.949936
1425332935.018,-12.34993
1425332935.034,-11.461227
1425332935.049,-9.746613
1425332935.065,-6.925415
1425332935.08,-3.0782776
1425332935.096,1.3599548
1425332935.112,5.844513
1425332935.127,9.921463
1425332935.143,13.376968
1425332935.159,16.312744
1425332935.174,19.059753
1425332935.19,22.040009
1425332935.205,25.63536
1425332935.221,30.086533
1425332935.237,35.429977
1425332935.252,41.34784
1425332935.268,47.213776
1425332935.284,52.01671
1425332935.299,54.60611
1425332935.315,53.97879
1425332935.33,49.62343
1425332935.346,41.73326
1425332935.362,31.248428
1425332935.377,19.51036
1425332935.393,7.881668
1425332935.409,-2.6058502
1425332935.424,-11.452698
1425332935.44,-18.601166
1425332935.455,-24.172516
1425332935.471,-28.297913
1425332935.487,-31.029465
1425332935.502,-32.374756
1425332935.518,-32.45912
1425332935.534,-31.5952
1425332935.549,-30.23558
1425332935.565,-28.82402
1425332935.58,-27.522125
1425332935.596,-26.257446
1425332935.612,-24.71222
1425332935.627,-22.65387
1425332935.643,-20.090866
1425332935.659,-17.358337
1425332935.674,-14.901947
1425332935.69,-13.126404
1425332935.706,-12.122482
1425332935.721,-11.687195
1425332935.737,-11.369659
1425332935.752,-10.729263
1425332935.768,-9.40918
1425332935.784,-7.2544556
1425332935.799,-4.2839966
1425332935.815,-0.6636505
1425332935.83,3.3284454
1425332935.846,7.3472137
1425332935.862,11.107895
1425332935.877,14.472107
1425332935.893,17.58165
1425332935.909,20.815292
1425332935.924,24.688171
1425332935.94,29.628922
1425332935.956,35.76187
1425332935.971,42.698715
1425332935.987,49.56482
1425332936.002,55.05757
1425332936.018,57.827713
1425332936.034,56.84503
1425332936.049,51.7854
1425332936.065,43.145325
1425332936.081,32.15497
1425332936.096,20.365158
1425332936.112,9.16394
1425332936.127,-0.5806427
1425332936.143,-8.625061
1425332936.159,-15.164444
1425332936.174,-20.58142
1425332936.19,-25.097107
1425332936.206,-28.747147
1425332936.221,-31.431473
1425332936.237,-33.06572
1425332936.252,-33.68315
1425332936.268,-33.481285
1425332936.284,-32.74231
1425332936.299,-31.694145
1425332936.315,-30.497368
1425332936.331,-29.221573
1425332936.346,-27.879494
1425332936.362,-26.480164
1425332936.377,-25.047852
1425332936.393,-23.662865
1425332936.409,-22.394348
1425332936.424,-21.335884
1425332936.44,-20.498009
1425332936.456,-19.824509
1425332936.471,-19.095161
1425332936.487,-17.941711
1425332936.502,-15.973106
1425332936.518,-12.9281845
1425332936.534,-8.800896
1425332936.549,-3.9198074
1425332936.565,1.1575241
1425332936.581,5.917923
1425332936.596,10.084724
1425332936.612,13.732353
1425332936.627,17.215553
1425332936.643,20.941055
1425332936.659,25.212303
1425332936.674,30.15683
1425332936.69,35.805527
1425332936.706,42.091522
1425332936.721,48.79146
1425332936.737,55.29203
1425332936.752,60.59491
1425332936.768,63.390114
1425332936.784,62.461243
1425332936.799,57.23809
1425332936.815,48.091805
1425332936.831,36.260735
1425332936.846,23.442589
1425332936.862,11.183556
1425332936.877,0.49206543
1425332936.893,-8.317673
1425332936.909,-15.375618
1425332936.924,-21.010582
1425332936.94,-25.537857
1425332936.956,-29.179863
1425332936.971,-32.09269
1425332936.987,-34.382477
1425332937.002,-36.082703
1425332937.018,-37.163002
1425332937.034,-37.521652
1425332937.049,-37.14377
1425332937.065,-36.116455
1425332937.081,-34.685287
1425332937.096,-33.15313
1425332937.112,-31.811615
1425332937.127,-30.804428
1425332937.143,-30.159195
1425332937.159,-29.734436
1425332937.174,-29.317451
1425332937.19,-28.638596
1425332937.206,-27.458313
1425332937.221,-25.66079
1425332937.237,-23.270836
1425332937.252,-20.488895
1425332937.268,-17.558064
1425332937.284,-14.659401
1425332937.299,-11.784561
1425332937.315,-8.731377
1425332937.331,-5.2151756
1425332937.346,-1.0601807
1425332937.362,3.6969566
1425332937.377,8.79652
1425332937.393,13.859371
1425332937.409,18.533878
1425332937.424,22.664715
1425332937.44,26.301193
1425332937.456,29.72733
1425332937.471,33.36731
1425332937.487,37.621586
1425332937.502,42.77325
1425332937.518,48.73804
1425332937.534,54.922695
1425332937.549,60.220093
1425332937.565,63.23441
1425332937.581,62.631184
1425332937.596,57.71159
1425332937.612,48.64966
1425332937.627,36.56726
1425332937.643,23.136238
1425332937.659,10.058773
1425332937.674,-1.4510841
1425332937.69,-10.867489
1425332937.706,-18.210361
1425332937.721,-23.796455
1425332937.737,-27.874294
1425332937.752,-30.560482
1425332937.768,-31.916332
1425332937.784,-32.095943
1425332937.799,-31.442255
1425332937.815,-30.405727
1425332937.831,-29.409725
1425332937.846,-28.653116
1425332937.862,-28.068485
1425332937.877,-27.439714
1425332937.893,-26.536041
1425332937.909,-25.214127
1425332937.924,-23.52249
1425332937.94,-21.635431
1425332937.956,-19.80888
1425332937.971,-18.276487
1425332937.987,-17.121094
1425332938.002,-16.292349
1425332938.018,-15.514845
1425332938.034,-14.459741
1425332938.049,-12.76578
1425332938.065,-10.210229
1425332938.081,-6.8114567
1425332938.096,-2.768611
1425332938.112,1.5979443
1425332938.127,5.973149
1425332938.143,10.197983
1425332938.159,14.266334
1425332938.174,18.331846
1425332938.19,22.638603
1425332938.206,27.43508
1425332938.221,32.942734
1425332938.237,39.22994
1425332938.252,46.075348
1425332938.268,52.793232
1425332938.284,58.295387
1425332938.299,61.22998
1425332938.315,60.45866
1425332938.331,55.43767
1425332938.346,46.518456
1425332938.362,34.86083
1425332938.377,22.08842
1425332938.393,9.743351
1425332938.409,-1.1025829
1425332938.424,-10.030148
1425332938.44,-17.127283
1425332938.456,-22.727678
1425332938.471,-27.130884
1425332938.487,-30.440899
1425332938.502,-32.58688
1425332938.518,-33.46811
1425332938.534,-33.103264
1425332938.549,-31.747467
1425332938.565,-29.823254
1425332938.581,-27.835178
1425332938.596,-26.1605
1425332938.612,-24.95597
1425332938.628,-24.084652
1425332938.643,-23.251862
1425332938.659,-22.144981
1425332938.674,-20.594402
1425332938.69,-18.601448
1425332938.706,-16.335579
1425332938.721,-13.9942665
1425332938.737,-11.64492
1425332938.753,-9.200714
1425332938.768,-6.470455
1425332938.784,-3.2171478
1425332938.799,0.6901512
1425332938.815,5.3066216
1425332938.831,10.566261
1425332938.846,16.349709
1425332938.862,22.498932
1425332938.878,28.856148
1425332938.893,35.242012
1425332938.909,41.524864
1425332938.924,47.711235
1425332938.94,53.97036
1425332938.956,60.67169
1425332938.971,68.20725
1425332938.987,76.72146
1425332939.003,85.83256
1425332939.018,94.51931
1425332939.034,101.26227
1425332939.049,104.394775
1425332939.065,102.6204
1425332939.081,95.39809
1425332939.096,83.18048
1425332939.112,67.23179
1425332939.128,49.346756
1425332939.143,31.391632
1425332939.159,14.970703
1425332939.174,1.1442566
1425332939.19,-9.610886
1425332939.206,-17.367645
1425332939.221,-22.65924
1425332939.237,-26.21576
1425332939.253,-28.813492
1425332939.268,-31.060715
1425332939.284,-33.284836
1425332939.299,-35.619263
1425332939.315,-38.054184
1425332939.331,-40.588272
1425332939.346,-43.268097
1425332939.362,-46.243164
1425332939.378,-49.621384
1425332939.393,-53.489807
1425332939.409,-57.80606
1425332939.424,-62.498978
1425332939.44,-67.56641
1425332939.456,-73.1434
1425332939.471,-79.46146
1425332939.487,-86.72351
1425332939.503,-94.86243
1425332939.518,-103.372665
1425332939.534,-111.324005
1425332939.549,-117.49759
1425332939.565,-120.73509
1425332939.581,-120.246765
1425332939.596,-115.78993
1425332939.612,-107.70299
1425332939.628,-96.68263
1425332939.643,-83.592606
1425332939.659,-69.14899
1425332939.674,-53.8871
1425332939.69,-38.12625
1425332939.706,-21.976227
1425332939.721,-5.536072
1425332939.737,11.073807
1425332939.753,27.58731
1425332939.768,43.45851
1425332939.784,57.861923
1425332939.799,69.71971
1425332939.815,77.954254
1425332939.831,81.70888
1425332939.846,80.692
1425332939.862,75.23332
1425332939.878,66.308304
1425332939.893,55.272003
1425332939.909,43.520737
1425332939.924,32.18625
1425332939.94,21.98233
1425332939.956,13.136093
1425332939.971,5.534958
1425332939.987,-1.0922852
1425332940.003,-6.9789276
1425332940.018,-12.253799
1425332940.034,-16.82135
1425332940.049,-20.49176
1425332940.065,-22.9803
1425332940.081,-24.042786
1425332940.096,-23.570343
1425332940.112,-21.670624
1425332940.128,-18.667831
1425332940.143,-15.098618
1425332940.159,-11.576248
1425332940.174,-8.706299
1425332940.19,-6.917038
1425332940.206,-6.356888
1425332940.221,-6.840332
1425332940.237,-7.8858643
1425332940.253,-8.887268
1425332940.268,-9.2778015
1425332940.284,-8.721298
1425332940.299,-7.139496
1425332940.315,-4.623871
1425332940.331,-1.3795624
1425332940.346,2.3941956
1425332940.362,6.4967346
1425332940.378,10.758072
1425332940.393,14.964035
1425332940.409,18.996994
1425332940.424,22.780243
1425332940.44,26.36911
1425332940.456,29.912506
1425332940.471,33.622223
1425332940.487,37.711914
1425332940.503,42.379593
1425332940.518,47.67964
1425332940.534,53.485123
1425332940.549,59.332443
1425332940.565,64.39052
1425332940.581,67.57124
1425332940.596,67.816864
1425332940.612,64.405136
1425332940.628,57.253494
1425332940.643,46.982315
1425332940.659,34.7585
1425332940.674,21.905151
1425332940.69,9.5885315
1425332940.706,-1.4666443
1425332940.721,-11.012878
1425332940.737,-19.14679
1425332940.753,-26.034698
1425332940.768,-31.716843
1425332940.784,-36.097458
1425332940.799,-39.05098
1425332940.815,-40.613678
1425332940.831,-41.104324
1425332940.846,-41.061554
1425332940.862,-41.026352
1425332940.878,-41.299957
1425332940.893,-41.83333
1425332940.909,-42.25067
1425332940.924,-42.116135
1425332940.94,-41.137543
1425332940.956,-39.35672
1425332940.971,-37.053757
1425332940.987,-34.631134
1425332941.003,-32.372787
1425332941.018,-30.33075
1425332941.034,-28.293762
1425332941.049,-25.906982
1425332941.065,-22.825989
1425332941.081,-18.85144
1425332941.096,-14.029755
1425332941.112,-8.601074
1425332941.128,-2.906372
1425332941.143,2.7399597
1425332941.159,8.150513
1425332941.174,13.2864685
1425332941.19,18.25595
1425332941.206,23.254883
1425332941.221,28.565857
1425332941.237,34.461792
1425332941.253,41.175476
1425332941.268,48.65033
1425332941.284,56.427948
1425332941.3,63.504974
1425332941.315,68.53226
1425332941.331,70.17493
1425332941.346,67.54205
1425332941.362,60.529755
1425332941.378,49.89383
1425332941.393,36.976257
1425332941.409,23.323547
1425332941.425,10.222229
1425332941.44,-1.4866333
1425332941.456,-11.499664
1425332941.471,-19.841034
1425332941.487,-26.713745
1425332941.503,-32.30426
1425332941.518,-36.71048
1425332941.534,-39.947296
1425332941.55,-42.03723
1425332941.565,-43.061615
1425332941.581,-43.227264
1425332941.596,-42.815094
1425332941.612,-42.167633
1425332941.628,-41.557312
1425332941.643,-41.11441
1425332941.659,-40.82019
1425332941.675,-40.54364
1425332941.69,-40.113068
1425332941.706,-39.41748
1425332941.721,-38.404846
1425332941.737,-37.110535
1425332941.753,-35.591553
1425332941.768,-33.876556
1425332941.784,-31.918182
1425332941.8,-29.590912
1425332941.815,-26.68631
1425332941.831,-23.050964
1425332941.846,-18.653564
1425332941.862,-13.691315
1425332941.878,-8.4756775
1425332941.893,-3.313202
1425332941.909,1.6873779
1425332941.925,6.585388
1425332941.94,11.532379
1425332941.956,16.65564
1425332941.971,21.992676
1425332941.987,27.597443
1425332942.003,33.608063
1425332942.018,40.25946
1425332942.034,47.721924
1425332942.05,55.749115
1425332942.065,63.500305
1425332942.081,69.58844
1425332942.096,72.49408
1425332942.112,71.115295
1425332942.128,65.18121
1425332942.143,55.375763
1425332942.159,43.039886
1425332942.175,29.641846
1425332942.19,16.415588
1425332942.206,4.1006775
1425332942.221,-6.9827576
1425332942.237,-16.759155
1425332942.253,-25.207153
1425332942.268,-32.233643
1425332942.284,-37.750336
1425332942.3,-41.803925
1425332942.315,-44.598663
1425332942.331,-46.515625
1425332942.346,-47.95056
1425332942.362,-49.142883
1425332942.378,-50.09851
1425332942.393,-50.700043
1425332942.409,-50.854034
1425332942.425,-50.626038
1425332942.44,-50.2695
1425332942.456,-50.062195
1425332942.471,-50.148224
1425332942.487,-50.425903
1425332942.503,-50.58792
1425332942.518,-50.2919
1425332942.534,-49.300964
1425332942.55,-47.54782
1425332942.565,-45.085327
1425332942.581,-42.0166
1425332942.596,-38.356567
1425332942.612,-34.101715
1425332942.628,-29.220367
1425332942.643,-23.748932
1425332942.659,-17.777832
1425332942.675,-11.499832
1425332942.69,-5.1278534
1425332942.706,1.1022186
1425332942.721,6.97023
1425332942.737,12.343994
1425332942.753,17.266846
1425332942.768,21.9458
1425332942.784,26.765106
1425332942.8,32.17079
1425332942.815,38.51277
1425332942.831,45.860825
1425332942.846,53.852142
1425332942.862,61.57245
1425332942.878,67.70102
1425332942.893,70.798615
1425332942.909,69.77878
1425332942.925,64.28371
1425332942.94,54.865417
1425332942.956,42.824234
1425332942.971,29.772797
1425332942.987,17.148285
1425332943.003,5.891281
1425332943.018,-3.6010284
1425332943.034,-11.361206
1425332943.05,-17.599243
1425332943.065,-22.512909
1425332943.081,-26.20848
1425332943.096,-28.728592
1425332943.112,-30.10315
1425332943.128,-30.392685
1425332943.143,-29.756134
1425332943.159,-28.410477
1425332943.175,-26.663742
1425332943.19,-24.775452
1425332943.206,-22.937973
1425332943.221,-21.190704
1425332943.237,-19.476212
1425332943.253,-17.730225
1425332943.268,-15.909683
1425332943.284,-14.088516
1425332943.3,-12.3927765
1425332943.315,-10.890335
1425332943.331,-9.553574
1425332943.346,-8.192398
1425332943.362,-6.5030823
1425332943.378,-4.1409454
1425332943.393,-0.7767792
1425332943.409,3.7606354
1425332943.425,9.359665
1425332943.44,15.6059265
1425332943.456,21.871765
1425332943.471,27.507828
1425332943.487,32.089417
1425332943.503,35.62346
1425332943.518,38.472214
1425332943.534,41.26535
1425332943.55,44.59465
1425332943.565,48.858505
1425332943.581,54.153625
1425332943.596,60.26129
1425332943.612,66.60977
1425332943.628,72.26842
1425332943.643,76.0204
1425332943.659,76.61246
1425332943.675,73.1082
1425332943.69,65.31285
1425332943.706,53.930893
1425332943.721,40.37802
1425332943.737,26.287872
1425332943.753,12.990067
1425332943.768,1.1879578
1425332943.784,-9.004395
1425332943.8,-17.802002
1425332943.815,-25.36055
1425332943.831,-31.681519
1425332943.846,-36.61522
1425332943.862,-40.110535
1425332943.878,-42.29692
1425332943.893,-43.489227
1425332943.909,-44.000214
1425332943.925,-44.003174
1425332943.94,-43.47316
1425332943.956,-42.287277
1425332943.972,-40.4093
1425332943.987,-38.017914
1425332944.003,-35.48648
1425332944.018,-33.206177
1425332944.034,-31.394867
1425332944.05,-29.97615
1425332944.065,-28.571075
1425332944.081,-26.692886
1425332944.096,-23.905228
1425332944.112,-19.977081
1425332944.128,-14.948975
1425332944.143,-9.047287
1425332944.159,-2.6415253
1425332944.175,3.8044128
1425332944.19,9.829407
1425332944.206,15.058426
1425332944.222,19.313278
1425332944.237,22.681854
1425332944.253,25.572525
1425332944.268,28.570618
1425332944.284,32.2919
1425332944.3,37.14862
1425332944.315,43.206818
1425332944.331,50.020355
1425332944.347,56.67273
1425332944.362,61.889145
1425332944.378,64.36447
1425332944.393,63.10707
1425332944.409,57.800797
1425332944.425,48.941544
1425332944.44,37.746704
1425332944.456,25.698837
1425332944.472,14.161423
1425332944.487,4.0238647
1425332944.503,-4.403015
1425332944.518,-11.1948395
1425332944.534,-16.577103
1425332944.55,-20.765228
1425332944.565,-23.867645
1425332944.581,-25.979904
1425332944.597,-27.243835
1425332944.612,-27.891495
1425332944.628,-28.226685
1425332944.643,-28.517761
1425332944.659,-28.93843
1425332944.675,-29.487183
1425332944.69,-30.026535
1425332944.706,-30.326294
1425332944.722,-30.180939
1425332944.737,-29.585968
1425332944.753,-28.714447
1425332944.768,-27.874496
1425332944.784,-27.334106
1425332944.8,-27.113937
1425332944.815,-26.906998
1425332944.831,-26.17183
1425332944.847,-24.338882
1425332944.862,-21.024002
1425332944.878,-16.25409
1425332944.893,-10.386871
1425332944.909,-3.9900208
1425332944.925,2.337326
1425332944.94,8.190018
1425332944.956,13.465012
1425332944.972,18.299469
1425332944.987,23.056854
1425332945.003,28.24112
1425332945.018,34.310394
1425332945.034,41.557236
1425332945.05,49.88861
1425332945.065,58.743073
1425332945.081,67.067764
1425332945.097,73.552765
1425332945.112,76.90961
1425332945.128,76.28906
1425332945.143,71.57692
1425332945.159,63.433273
1425332945.175,53.119034
1425332945.19,42.083694
1425332945.206,31.581375
1425332945.222,22.35112
1425332945.237,14.55954
1425332945.253,7.9322968
1425332945.268,2.0343323
1425332945.284,-3.4861908
1425332945.3,-8.769028
1425332945.315,-13.714432
1425332945.331,-18.1335
1425332945.347,-21.918564
1425332945.362,-25.148056
1425332945.378,-28.032455
1425332945.393,-30.819824
1425332945.409,-33.617554
1425332945.425,-36.35385
1425332945.44,-38.843277
1425332945.456,-40.90535
1425332945.472,-42.477783
1425332945.487,-43.69879
1425332945.503,-44.75354
1425332945.518,-45.77191
1425332945.534,-46.714493
1425332945.55,-47.35721
1425332945.565,-47.38507
1425332945.581,-46.54315
1425332945.597,-44.69139
1425332945.612,-41.86104
1425332945.628,-38.20854
1425332945.643,-33.927353
1425332945.659,-29.222977
1425332945.675,-24.317627
1425332945.69,-19.425644
1425332945.706,-14.730408
1425332945.722,-10.32016
1425332945.737,-6.1188965
1425332945.753,-1.7972565
1425332945.768,3.0971985
1425332945.784,9.029434
1425332945.8,16.177307
1425332945.815,24.225739
1425332945.831,32.30832
1425332945.847,39.15428
1425332945.862,43.425568
1425332945.878,44.100616
1425332945.893,40.838425
1425332945.909,34.025726
1425332945.925,24.631607
1425332945.94,13.932404
1425332945.956,3.1224518
1425332945.972,-6.857071
1425332945.987,-15.496704
1425332946.003,-22.600113
1425332946.018,-28.164474
1425332946.034,-32.240967
1425332946.05,-34.892746
1425332946.065,-36.20894
1425332946.081,-36.34137
1425332946.097,-35.525238
1425332946.112,-34.03656
1425332946.128,-32.110565
1425332946.143,-29.892166
1425332946.159,-27.417953
1425332946.175,-24.697495
1425332946.19,-21.795715
1425332946.206,-18.891739
1425332946.222,-16.231857
1425332946.237,-14.05986
1425332946.253,-12.432846
1425332946.268,-11.211258
1425332946.284,-10.013168
1425332946.3,-8.384628
1425332946.315,-5.9016113
1425332946.331,-2.4078674
1425332946.347,1.9958191
1425332946.362,6.9260864
1425332946.378,11.915054
1425332946.393,16.643906
1425332946.409,21.074722
1425332946.425,25.461426
1425332946.44,30.258133
1425332946.456,35.838516
1425332946.472,42.346954
1425332946.487,49.587616
1425332946.503,56.976654
1425332946.518,63.585876
1425332946.534,68.33774
1425332946.55,70.211365
1425332946.565,68.51352
1425332946.581,63.11229
1425332946.597,54.59471
1425332946.612,44.045395
1425332946.628,32.765
1425332946.644,21.861328
1425332946.659,11.966827
1425332946.675,3.191986
1425332946.69,-4.6493683
1425332946.706,-11.753433
1425332946.722,-18.064728
1425332946.737,-23.281677
1425332946.753,-26.993164
1425332946.768,-28.911133
1425332946.784,-29.042252
1425332946.8,-27.751297
1425332946.815,-25.629684
1425332946.831,-23.330261
1425332946.847,-21.371521
1425332946.862,-20.019196
1425332946.878,-19.21637
1425332946.894,-18.668015
1425332946.909,-17.978104
1425332946.925,-16.811127
1425332946.94,-15.008972
1425332946.956,-12.614685
1425332946.972,-9.812698
1425332946.987,-6.805893
1425332947.003,-3.6992035
1425332947.019,-0.46902466
1425332947.034,3.1042938
1425332947.05,7.3202972
1425332947.065,12.517563
1425332947.081,18.85849
1425332947.097,26.236145
1425332947.112,34.09311
1425332947.128,41.445313
1425332947.144,47.036392
1425332947.159,49.63382
1425332947.175,48.410385
1425332947.19,43.189133
1425332947.206,34.5643
1425332947.222,23.680847
1425332947.237,11.922577
1425332947.253,0.52067566
1425332947.269,-9.68869
1425332947.284,-18.308487
1425332947.3,-25.31105
1425332947.315,-30.770905
1425332947.331,-34.75058
1425332947.347,-37.195847
1425332947.362,-38.03415
1425332947.378,-37.30316
1425332947.394,-35.255417
1425332947.409,-32.36122
1425332947.425,-29.184158
1425332947.44,-26.20903
1425332947.456,-23.67839
1425332947.472,-21.555328
1425332947.487,-19.601547
1425332947.503,-17.548813
1425332947.519,-15.250946
1425332947.534,-12.702393
1425332947.55,-10.019028
1425332947.565,-7.287155
1425332947.581,-4.5016937
1425332947.597,-1.5382996
1425332947.612,1.767868
1425332947.628,5.559555
1425332947.644,9.90657
1425332947.659,14.831818
1425332947.675,20.349442
1425332947.69,26.457245
1425332947.706,33.01085
1425332947.722,39.579178
1425332947.737,45.3524
1425332947.753,49.215088
1425332947.769,50.059677
1425332947.784,47.18318
1425332947.8,40.58568
1425332947.815,31.072891
1425332947.831,19.962769
1425332947.847,8.73381
1425332947.862,-1.4836426
1425332947.878,-10.034607
1425332947.894,-16.86679
1425332947.909,-22.19777
1425332947.925,-26.321823
1425332947.94,-29.432373
1425332947.956,-31.558868
1425332947.972,-32.707214
1425332947.987,-32.940598
1425332948.003,-32.457092
1425332948.019,-31.54898
1425332948.034,-30.510956
1425332948.05,-29.55809
1425332948.065,-28.748383
1425332948.081,-27.988083
1425332948.097,-27.137726
1425332948.112,-26.119034
1425332948.128,-24.942734
1425332948.144,-23.664963
1425332948.159,-22.281967
1425332948.175,-20.667297
1425332948.19,-18.561676
1425332948.206,-15.726166
1425332948.222,-12.038834
1425332948.237,-7.620224
1425332948.253,-2.7406921
1425332948.269,2.2797394
1425332948.284,7.2521667
1425332948.3,12.186935
1425332948.315,17.338928
1425332948.331,23.110428
1425332948.347,29.851685
1425332948.362,37.596832
1425332948.378,45.918213
1425332948.394,53.778336
1425332948.409,59.776733
1425332948.425,62.49382
1425332948.44,60.968216
1425332948.456,55.12018
1425332948.472,45.803055
1425332948.487,34.452927
1425332948.503,22.574295
1425332948.519,11.24408
1425332948.534,0.9315338
1425332948.55,-8.383606
1425332948.565,-16.885498
1425332948.581,-24.637772
1425332948.597,-31.482437
1425332948.612,-37.18007
1425332948.628,-41.53781
1425332948.644,-44.51581
1425332948.659,-46.20215
1425332948.675,-46.790085
1425332948.69,-46.483368
1425332948.706,-45.511276
1425332948.722,-44.130417
1425332948.737,-42.642838
1425332948.753,-41.335724
1425332948.769,-40.392258
1425332948.784,-39.85054
1425332948.8,-39.574844
1425332948.815,-39.313248
1425332948.831,-38.715088
1425332948.847,-37.474213
1425332948.862,-35.44557
1425332948.878,-32.68135
1425332948.894,-29.438644
1425332948.909,-26.035095
1425332948.925,-22.69748
1425332948.94,-19.436981
1425332948.956,-16.069275
1425332948.972,-12.320145
1425332948.987,-7.991745
1425332949.003,-3.0431519
1425332949.019,2.42276
1425332949.034,8.239609
1425332949.05,14.248703
1425332949.065,20.319016
1425332949.081,26.362228
1425332949.097,32.354736
1425332949.112,38.399048
1425332949.128,44.74817
1425332949.144,51.656036
1425332949.159,59.167282
1425332949.175,66.79309
1425332949.19,73.468735
1425332949.206,77.77452
1425332949.222,78.42035
1425332949.237,74.71101
1425332949.253,66.8553
1425332949.269,55.83972
1425332949.284,43.080124
1425332949.3,29.955765
1425332949.315,17.450577
1425332949.331,6.077667
1425332949.347,-4.0056763
1425332949.362,-12.819687
1425332949.378,-20.389404
1425332949.394,-26.648712
1425332949.409,-31.521652
1425332949.425,-34.989243
1425332949.44,-37.166916
1425332949.456,-38.32155
1425332949.472,-38.767715
1425332949.487,-38.80214
1425332949.503,-38.550003
1425332949.519,-37.995148
1425332949.534,-37.022003
1425332949.55,-35.573395
1425332949.566,-33.70491
1425332949.581,-31.607117
1425332949.597,-29.537827
1425332949.612,-27.698837
1425332949.628,-26.131882
1425332949.644,-24.667633
1425332949.659,-22.964157
1425332949.675,-20.609055
1425332949.691,-17.270203
1425332949.706,-12.908142
1425332949.722,-7.775894
1425332949.737,-2.412094
1425332949.753,2.5970764
1425332949.769,6.87146
1425332949.784,10.4300995
1425332949.8,13.678452
1425332949.816,17.221817
1425332949.831,21.63887
1425332949.847,27.27266
1425332949.862,34.085205
1425332949.878,41.663193
1425332949.894,49.217636
1425332949.909,55.72429
1425332949.925,60.01146
1425332949.941,61.072815
1425332949.956,58.31111
1425332949.972,51.800674
1425332949.987,42.300446
1425332950.003,31.074142
1425332950.019,19.481506
1425332950.034,8.610809
1425332950.05,-0.9563446
1425332950.066,-9.126526
1425332950.081,-16.086563
1425332950.097,-22.05243
1425332950.112,-27.103287
1425332950.128,-31.132507
1425332950.144,-33.970535
1425332950.159,-35.50467
1425332950.175,-35.82219
1425332950.191,-35.196564
1425332950.206,-34.065598
1425332950.222,-32.846405
1425332950.237,-31.847107
1425332950.253,-31.185776
1425332950.269,-30.82434
1425332950.284,-30.619858
1425332950.3,-30.413986
1425332950.316,-30.102798
1425332950.331,-29.604858
1425332950.347,-28.823593
1425332950.362,-27.626434
1425332950.378,-25.849197
1425332950.394,-23.323837
1425332950.409,-19.93071
1425332950.425,-15.695908
1425332950.441,-10.764465
1425332950.456,-5.415329
1425332950.472,-0.012359619
1425332950.487,5.1020966
1425332950.503,9.720154
1425332950.519,13.853882
1425332950.534,17.7527
1425332950.55,21.84961
1425332950.566,26.602135
1425332950.581,32.328156
1425332950.597,39.02781
1425332950.612,46.272858
1425332950.628,53.22831
1425332950.644,58.734367
1425332950.659,61.595627
1425332950.675,60.894836
1425332950.691,56.29048
1425332950.706,48.181625
1425332950.722,37.631042
1425332950.737,25.99704
1425332950.753,14.546593
1425332950.769,4.1093445
1425332950.784,-5.0482407
1425332950.8,-13.029205
1425332950.816,-20.06044
1425332950.831,-26.25325
1425332950.847,-31.48143
1425332950.862,-35.525482
1425332950.878,-38.196312
1425332950.894,-39.481796
1425332950.909,-39.58132
1425332950.925,-38.869133
1425332950.941,-37.80905
1425332950.956,-36.8264
1425332950.972,-36.24111
1425332950.987,-36.18657
1425332951.003,-36.576584
1425332951.019,-37.148964
1425332951.034,-37.534706
1425332951.05,-37.373703
1425332951.066,-36.403778
1425332951.081,-34.514053
1425332951.097,-31.75364
1425332951.112,-28.308975
1425332951.128,-24.448296
1425332951.144,-20.428589
1425332951.159,-16.40136
1425332951.175,-12.36908
1425332951.191,-8.191925
1425332951.206,-3.7202988
1425332951.222,1.1074677
1425332951.237,6.1765175
1425332951.253,11.269905
1425332951.269,16.185047
1425332951.284,20.844013
1425332951.3,25.355068
1425332951.316,29.946194
1425332951.331,34.83938
1425332951.347,40.227802
1425332951.362,46.162125
1425332951.378,52.51139
1425332951.394,58.860332
1425332951.409,64.45874
1425332951.425,68.24269
1425332951.441,69.11365
1425332951.456,66.26068
1425332951.472,59.515446
1425332951.487,49.470062
1425332951.503,37.3183
1425332951.519,24.47319
1425332951.534,12.194599
1425332951.55,1.2976341
1425332951.566,-7.858389
1425332951.581,-15.251953
1425332951.597,-21.071915
1425332951.612,-25.576027
1425332951.628,-29.059679
1425332951.644,-31.753532
1425332951.659,-33.81057
1425332951.675,-35.26346
1425332951.691,-36.07525
1425332951.706,-36.197807
1425332951.722,-35.648724
1425332951.737,-34.58278
1425332951.753,-33.226303
1425332951.769,-31.847559
1425332951.784,-30.629124
1425332951.8,-29.664656
1425332951.816,-28.872065
1425332951.831,-28.07736
1425332951.847,-27.029865
1425332951.862,-25.506275
1425332951.878,-23.426353
1425332951.894,-20.863018
1425332951.909,-18.044056
1425332951.925,-15.189783
1425332951.941,-12.4259815
1425332951.956,-9.703484
1425332951.972,-6.874056
1425332951.987,-3.7884483
1425332952.003,-0.41848755
1425332952.019,3.1480637
1425332952.034,6.802126
1425332952.05,10.501595
1425332952.066,14.314337
1425332952.081,18.357939
1425332952.097,22.726542
1425332952.112,27.427605
1425332952.128,32.46661
1425332952.144,37.888428
1425332952.159,43.792862
1425332952.175,50.142757
1425332952.191,56.54768
1425332952.206,62.156296
1425332952.222,65.78102
1425332952.238,66.230515
1425332952.253,62.763924
1425332952.269,55.399258
1425332952.284,44.966553
1425332952.3,32.791714
1425332952.316,20.363216
1425332952.331,8.851425
1425332952.347,-1.0805855
1425332952.363,-9.270382
1425332952.378,-15.889656
1425332952.394,-21.196209
1425332952.409,-25.387577
1425332952.425,-28.577412
1425332952.441,-30.805862
1425332952.456,-32.153206
1425332952.472,-32.78456
1425332952.488,-32.952156
1425332952.503,-32.87365
1425332952.519,-32.726006
1425332952.534,-32.55007
1425332952.55,-32.3015
1425332952.566,-31.905304
1425332952.581,-31.365417
1425332952.597,-30.736763
1425332952.613,-30.15377
1425332952.628,-29.690643
1425332952.644,-29.333984
1425332952.659,-28.911728
1425332952.675,-28.161148
1425332952.691,-26.811546
1425332952.706,-24.752342
1425332952.722,-22.036911
1425332952.738,-18.91787
1425332952.753,-15.668938
1425332952.769,-12.507683
1425332952.784,-9.438759
1425332952.8,-6.3330154
1425332952.816,-3.0043106
1425332952.831,0.6493149
1425332952.847,4.568161
1425332952.863,8.565353
1425332952.878,12.450722
1425332952.894,16.08796
1425332952.909,19.533089
1425332952.925,22.935165
1425332952.941,26.542831
1425332952.956,30.637985
1425332952.972,35.476585
1425332952.988,41.17518
1425332953.003,47.61241
1425332953.019,54.26142
1425332953.034,60.19188
1425332953.05,64.184
1425332953.066,65.07925
1425332953.081,62.10887
1425332953.097,55.271988
1425332953.113,45.32776
1425332953.128,33.588028
1425332953.144,21.567688
1425332953.159,10.523254
1425332953.175,1.1876526
1425332953.191,-6.24234
1425332953.206,-12.015152
1425332953.222,-16.52951
1425332953.238,-20.135284
1425332953.253,-22.990753
1425332953.269,-25.141388
1425332953.284,-26.547073
1425332953.3,-27.263367
1425332953.316,-27.451706
1425332953.331,-27.34375
1425332953.347,-27.171494
1425332953.363,-27.06215
1425332953.378,-27.02356
1425332953.394,-26.997223
1425332953.409,-26.898544
1425332953.425,-26.70607
1425332953.441,-26.449188
1425332953.456,-26.158813
1425332953.472,-25.842651
1425332953.488,-25.437881
1425332953.503,-24.76558
1425332953.519,-23.541977
1425332953.534,-21.418655
1425332953.55,-18.054016
1425332953.566,-13.256577
1425332953.581,-7.1137543
1425332953.597,-0.04548645
1425332953.613,7.3479156
1425332953.628,14.44017
1425332953.644,20.8275
1425332953.659,26.441116
1425332953.675,31.452301
1425332953.691,36.14412
1425332953.706,40.736954
1425332953.722,45.336
1425332953.738,49.980347
1425332953.753,54.644714
1425332953.769,59.197296
1425332953.784,63.248367
1425332953.8,66.09067
1425332953.816,66.732086
1425332953.831,64.25969
1425332953.847,58.225082
1425332953.863,48.8898
1425332953.878,37.21945
1425332953.894,24.548813
1425332953.909,12.177597
1425332953.925,1.0177917
1425332953.941,-8.469376
1425332953.956,-16.188644
1425332953.972,-22.165527
1425332953.988,-26.445099
1425332954.003,-29.091003
1425332954.019,-30.302994
1425332954.034,-30.423187
1425332954.05,-29.929932
1425332954.066,-29.267075
1425332954.081,-28.688858
1425332954.097,-28.235168
1425332954.113,-27.767029
1425332954.128,-27.117172
1425332954.144,-26.242966
1425332954.159,-25.218613
1425332954.175,-24.194473
1425332954.191,-23.261765
1425332954.206,-22.419891
1425332954.222,-21.514221
1425332954.238,-20.334656
1425332954.253,-18.64862
1425332954.269,-16.262085
1425332954.284,-13.047134
1425332954.3,-9.003693
1425332954.316,-4.268738
1425332954.331,0.835022
1425332954.347,5.8945923
1425332954.363,10.6115265
1425332954.378,14.932007
1425332954.394,19.119003
1425332954.409,23.687683
1425332954.425,29.131042
1425332954.441,35.641632
1425332954.456,42.87738
1425332954.472,49.937454
1425332954.488,55.530685
1425332954.503,58.344757
1425332954.519,57.46196
1425332954.534,52.64003
1425332954.55,44.44937
1425332954.566,34.084686
1425332954.581,22.910492
1425332954.597,12.135117
1425332954.613,2.4563599
1425332954.628,-5.8638763
1425332954.644,-12.867172
1425332954.659,-18.603088
1425332954.675,-23.088135
1425332954.691,-26.324066
1425332954.706,-28.422852
1425332954.722,-29.698593
1425332954.738,-30.57399
1425332954.753,-31.36824
1425332954.769,-32.217316
1425332954.784,-33.01831
1425332954.8,-33.540253
1425332954.816,-33.541687
1425332954.831,-32.866882
1425332954.847,-31.486832
1425332954.863,-29.504074
1425332954.878,-27.124313
1425332954.894,-24.649918
1425332954.91,-22.373978
1425332954.925,-20.507187
1425332954.941,-18.968979
1425332954.956,-17.449387
1425332954.972,-15.435516
1425332954.988,-12.4721985
1425332955.003,-8.367264
1425332955.019,-3.259018
1425332955.035,2.4252167
1425332955.05,8.1214905
1425332955.066,13.350189
1425332955.081,17.841568
1425332955.097,21.591202
1425332955.113,24.843246
1425332955.128,28.025513
1425332955.144,31.615005
1425332955.16,35.997314
1425332955.175,41.246902
1425332955.191,46.998245
1425332955.206,52.45862
1425332955.222,56.484055
1425332955.238,57.892853
1425332955.253,55.790207
1425332955.269,49.927307
1425332955.285,40.748535
1425332955.3,29.347885
1425332955.316,17.148743
1425332955.331,5.468857
1425332955.347,-4.7546844
1425332955.363,-13.123871
1425332955.378,-19.685547
1425332955.394,-24.669998
1425332955.41,-28.264786
1425332955.425,-30.566513
1425332955.441,-31.627563
1425332955.456,-31.587463
1425332955.472,-30.72963
1425332955.488,-29.450394
1425332955.503,-28.117157
1425332955.519,-26.994461
1425332955.535,-26.142822
1425332955.55,-25.467422
1425332955.566,-24.793182
1425332955.581,-23.903748
1425332955.597,-22.643127
1425332955.613,-21.007935
1425332955.628,-19.152313
1425332955.644,-17.357895
1425332955.66,-15.903778
1425332955.675,-14.907639
1425332955.691,-14.2258
1425332955.706,-13.491104
1425332955.722,-12.202606
1425332955.738,-10.000839
1425332955.753,-6.7774506
1425332955.769,-2.6907806
1425332955.785,1.8872528
1425332955.8,6.5216675
1425332955.816,10.86319
1425332955.831,14.7031555
1425332955.847,18.024185
1425332955.863,20.99907
1425332955.878,23.975235
1425332955.894,27.369186
1425332955.91,31.554688
1425332955.925,36.65645
1425332955.941,42.4095
1425332955.956,48.08217
1425332955.972,52.59497
1425332955.988,54.768707
1425332956.003,53.713623
1425332956.019,49.128326
1425332956.035,41.46164
1425332956.05,31.734314
1425332956.066,21.284836
1425332956.081,11.272003
1425332956.097,2.4353333
1425332956.113,-4.9799347
1425332956.128,-11.039856
1425332956.144,-15.903015
1425332956.16,-19.658142
1425332956.175,-22.330505
1425332956.191,-23.987396
1425332956.206,-24.87262
1425332956.222,-25.308746
1425332956.238,-25.6371
1425332956.253,-25.982986
1425332956.269,-26.261536
1425332956.285,-26.211151
1425332956.3,-25.595428
1425332956.316,-24.370956
1425332956.331,-22.73143
1425332956.347,-21.003021
1425332956.363,-19.499146
1425332956.378,-18.346146
1425332956.394,-17.424026
1425332956.41,-16.393784
1425332956.425,-14.827408
1425332956.441,-12.405273
1425332956.456,-9.053024
1425332956.472,-4.953003
1425332956.488,-0.47122192
1425332956.503,3.9831543
1425332956.519,8.110535
1425332956.535,11.876236
1425332956.55,15.399551
1425332956.566,19.014603
1425332956.581,23.118652
1425332956.597,28.033417
1425332956.613,33.868042
1425332956.628,40.38002
1425332956.644,46.850006
1425332956.66,52.15454
1425332956.675,55.008743
1425332956.691,54.40123
1425332956.706,49.95804
1425332956.722,42.1622
1425332956.738,32.143204
1425332956.753,21.321747
1425332956.769,10.902817
1425332956.785,1.5670776
1425332956.8,-6.5040436
1425332956.816,-13.414093
1425332956.831,-19.327133
1425332956.847,-24.250778
1425332956.863,-28.110184
1425332956.878,-30.788498
1425332956.894,-32.240265
1425332956.91,-32.53253
1425332956.925,-31.81871
1425332956.941,-30.318558
1425332956.956,-28.302048
1425332956.972,-26.066849
1425332956.988,-23.890717
1425332957.003,-21.97226
1425332957.019,-20.41478
1425332957.035,-19.193817
1425332957.05,-18.216309
1425332957.066,-17.329208
1425332957.081,-16.290375
1425332957.097,-14.820511
1425332957.113,-12.671783
1425332957.128,-9.711746
1425332957.144,-6.0094147
1425332957.16,-1.8764038
1425332957.175,2.2503204
1425332957.191,6.0349884
1425332957.206,9.334793
1425332957.222,12.32605
1425332957.238,15.389313
1425332957.253,19.03949
1425332957.269,23.753326
1425332957.285,29.722244
1425332957.3,36.71723
1425332957.316,43.96389
1425332957.331,50.206367
1425332957.347,53.958252
1425332957.363,53.988358
1425332957.378,49.756416
1425332957.394,41.64862
1425332957.41,30.903702
1425332957.425,19.189186
1425332957.441,8.0049515
1425332957.456,-1.6625214
1425332957.472,-9.50898
1425332957.488,-15.733795
1425332957.503,-20.769844
1425332957.519,-25.004684
1425332957.535,-28.642609
1425332957.55,-31.738739
1425332957.566,-34.24418
1425332957.582,-36.080597
1425332957.597,-37.2145
1425332957.613,-37.677734
1425332957.628,-37.561768
1425332957.644,-36.949013
1425332957.66,-35.933723
1425332957.675,-34.606407
1425332957.691,-33.04901
1425332957.706,-31.333534
1425332957.722,-29.57534
1425332957.738,-27.880196
1425332957.753,-26.282211
1425332957.769,-24.729622
1425332957.785,-23.043358
1425332957.8,-20.97055
1425332957.816,-18.254478
1425332957.832,-14.721008
1425332957.847,-10.385025
1425332957.863,-5.454735
1425332957.878,-0.29582214
1425332957.894,4.6672745
1425332957.91,9.127518
1425332957.925,13.035217
1425332957.941,16.576218
1425332957.957,20.12371
1425332957.972,24.09507
1425332957.988,28.806274
1425332958.003,34.395958
1425332958.019,40.73307
1425332958.035,47.41255
1425332958.05,53.700554
1425332958.066,58.592873
1425332958.082,60.956192
1425332958.097,59.848747
1425332958.113,54.837074
1425332958.128,46.236526
1425332958.144,35.059814
1425332958.16,22.755714
1425332958.175,10.730133
1425332958.191,-0.008720398
1425332958.207,-8.999817
1425332958.222,-16.286697
1425332958.238,-22.201561
1425332958.253,-27.096771
1425332958.269,-31.241013
1425332958.285,-34.71306
1425332958.3,-37.51017
1425332958.316,-39.574196
1425332958.332,-40.91916
1425332958.347,-41.60179
1425332958.363,-41.76516
1425332958.378,-41.548912
1425332958.394,-41.05471
1425332958.41,-40.317436
1425332958.425,-39.374184
1425332958.441,-38.261078
1425332958.457,-37.057693
1425332958.472,-35.824944
1425332958.488,-34.551323
1425332958.503,-33.1401
1425332958.519,-31.43303
1425332958.535,-29.248177
1425332958.55,-26.522911
1425332958.566,-23.258614
1425332958.582,-19.496986
1425332958.597,-15.251045
1425332958.613,-10.531326
1425332958.628,-5.3520966
1425332958.644,0.21131134
1425332958.66,5.9734726
1425332958.675,11.652702
1425332958.691,17.006927
1425332958.707,21.839546
1425332958.722,26.105095
1425332958.738,29.898033
1425332958.753,33.476692
1425332958.769,37.229446
1425332958.785,41.602844
1425332958.8,46.900505
1425332958.816,53.09433
1425332958.832,59.616066
1425332958.847,65.38657
1425332958.863,69.05168
1425332958.878,69.41608
1425332958.894,65.84691
1425332958.91,58.548172
1425332958.925,48.452698
1425332958.941,36.92063
1425332958.957,25.290573
1425332958.972,14.581009
1425332958.988,5.3150635
1425332959.003,-2.3675156
1425332959.019,-8.57119
1425332959.035,-13.431984
1425332959.05,-17.058731
1425332959.066,-19.506767
1425332959.082,-20.884583
1425332959.097,-21.365417
1425332959.113,-21.179054
1425332959.128,-20.550232
1425332959.144,-19.572372
1425332959.16,-18.199783
1425332959.175,-16.374863
1425332959.191,-14.161644
1425332959.207,-11.810764
1425332959.222,-9.75919
1425332959.238,-8.413876
1425332959.253,-7.930237
1425332959.269,-8.123638
1425332959.285,-8.501705
1425332959.3,-8.4831085
1425332959.316,-7.6033745
1425332959.332,-5.64217
1425332959.347,-2.6588707
1425332959.363,1.0681953
1425332959.378,5.177227
1425332959.394,9.2789345
1425332959.41,13.056824
1425332959.425,16.388622
1425332959.441,19.401592
1425332959.457,22.45694
1425332959.472,26.05254
1425332959.488,30.550808
1425332959.503,35.936886
1425332959.519,41.645576
1425332959.535,46.561195
1425332959.55,49.281334
1425332959.566,48.589268
1425332959.582,43.845238
1425332959.597,35.243774
1425332959.613,23.7784
1425332959.628,10.903114
1425332959.644,-1.9519873
1425332959.66,-13.732906
1425332959.675,-23.968021
1425332959.691,-32.600872
1425332959.707,-39.757046
1425332959.722,-45.49929
1425332959.738,-49.798233
1425332959.753,-52.55162
1425332959.769,-53.814674
1425332959.785,-53.800964
1425332959.8,-52.89403
1425332959.816,-51.476105
1425332959.832,-49.82523
1425332959.847,-48.049026
1425332959.863,-46.157047
1425332959.878,-44.111717
1425332959.894,-41.91079
1425332959.91,-39.631546
1425332959.925,-37.361977
1425332959.941,-35.13888
1425332959.957,-32.864838
1425332959.972,-30.326271
1425332959.988,-27.255573
1425332960.003,-23.405312
1425332960.019,-18.712013
1425332960.035,-13.308541
1425332960.05,-7.5169315
1425332960.066,-1.7120514
1425332960.082,3.8863869
1425332960.097,9.239678
1425332960.113,14.539193
1425332960.128,20.15332
1425332960.144,26.41816
1425332960.16,33.54127
1425332960.175,41.457394
1425332960.191,49.771366
1425332960.207,57.691696
1425332960.222,64.132706
1425332960.238,67.91931
1425332960.253,68.08608
1425332960.269,64.20273
1425332960.285,56.582363
1425332960.3,46.18718
1425332960.316,34.362747
1425332960.332,22.375183
1425332960.347,11.117987
1425332960.363,0.99098396
1425332960.378,-7.943943
1425332960.394,-15.743099
1425332960.41,-22.405935
1425332960.425,-27.811518
1425332960.441,-31.835665
1425332960.457,-34.449257
1425332960.472,-35.77285
1425332960.488,-36.09359
1425332960.504,-35.74349
1425332960.519,-35.034836
1425332960.535,-34.21124
1425332960.55,-33.42962
1425332960.566,-32.74542
1425332960.582,-32.16884
1425332960.597,-31.635178
1425332960.613,-31.087412
1425332960.629,-30.467175
1425332960.644,-29.737366
1425332960.66,-28.900734
1425332960.675,-27.976845
1425332960.691,-26.967773
1425332960.707,-25.783934
1425332960.722,-24.281004
1425332960.738,-22.280262
1425332960.754,-19.600674
1425332960.769,-16.165537
1425332960.785,-12.046738
1425332960.8,-7.4370213
1425332960.816,-2.5430832
1425332960.832,2.4996548
1425332960.847,7.709961
1425332960.863,13.144485
1425332960.879,18.88931
1425332960.894,24.962994
1425332960.91,31.37265
1425332960.925,38.131554
1425332960.941,45.31472
1425332960.957,52.828827
1425332960.972,60.24291
1425332960.988,66.63933
1425332961.004,70.754654
1425332961.019,71.41207
1425332961.035,67.971664
1425332961.05,60.645107
1425332961.066,50.48631
1425332961.082,38.90604
1425332961.097,27.198238
1425332961.113,16.144743
1425332961.129,5.976198
1425332961.144,-3.423149
1425332961.16,-12.174217
1425332961.175,-20.205343
1425332961.191,-27.217312
1425332961.207,-32.788498
1425332961.222,-36.581604
1425332961.238,-38.55343
1425332961.254,-38.963753
1425332961.269,-38.362743
1425332961.285,-37.36423
1425332961.3,-36.513348
1425332961.316,-36.044456
1425332961.332,-35.972046
1425332961.347,-36.072186
1425332961.363,-36.118374
1425332961.379,-35.92502
1425332961.394,-35.407043
1425332961.41,-34.506462
1425332961.425,-33.23833
1425332961.441,-31.611582
1425332961.457,-29.635447
1425332961.472,-27.30524
1425332961.488,-24.550531
1425332961.504,-21.20564
1425332961.519,-17.14478
1425332961.535,-12.345776
1425332961.55,-7.015171
1425332961.566,-1.5064297
1425332961.582,3.845375
1425332961.597,8.893301
1425332961.613,13.7098675
1425332961.629,18.557373
1425332961.644,23.715887
1425332961.66,29.371475
1425332961.675,35.572327
1425332961.691,42.217476
1425332961.707,48.982
1425332961.722,55.262115
1425332961.738,60.153297
1425332961.754,62.599037
1425332961.769,61.71968
1425332961.785,57.170357
1425332961.8,49.30067
1425332961.816,39.110085
1425332961.832,27.898598
1425332961.847,16.882652
1425332961.863,6.88204
1425332961.879,-1.7042217
1425332961.894,-8.873621
1425332961.91,-14.75655
1425332961.925,-19.53919
1425332961.941,-23.346592
1425332961.957,-26.222431
1425332961.972,-28.190105
1425332961.988,-29.337486
1425332962.004,-29.773382
1425332962.019,-29.702198
1425332962.035,-29.305117
1425332962.05,-28.716097
1425332962.066,-27.966347
1425332962.082,-27.06385
1425332962.097,-26.057213
1425332962.113,-25.058352
1425332962.129,-24.214703
1425332962.144,-23.557322
1425332962.16,-22.914625
1425332962.175,-21.948757
1425332962.191,-20.234425
1425332962.207,-17.504576
1425332962.222,-13.77142
1425332962.238,-9.324472
1425332962.254,-4.578375
1425332962.269,0.102191925
1425332962.285,4.5297165
1425332962.3,8.720346
1425332962.316,12.853905
1425332962.332,17.205667
1425332962.347,22.115364
1425332962.363,27.887918
1425332962.379,34.679184
1425332962.394,42.32615
1425332962.41,50.160873
1425332962.425,57.016014
1425332962.441,61.459656
1425332962.457,62.182793
1425332962.472,58.494778
1425332962.488,50.581173
1425332962.504,39.49565
1425332962.519,26.799412
1425332962.535,14.096075
1425332962.55,2.5695992
1425332962.566,-7.204687
1425332962.582,-15.178532
1425332962.597,-21.59352
1425332962.613,-26.757769
1425332962.629,-30.845406
1425332962.644,-33.963284
1425332962.66,-36.17153
1425332962.675,-37.6138
1425332962.691,-38.479313
1425332962.707,-38.965363
1425332962.722,-39.167656
1425332962.738,-39.0996
1425332962.754,-38.75895
1425332962.769,-38.188896
1425332962.785,-37.54313
1425332962.8,-37.053116
1425332962.816,-36.88631
1425332962.832,-37.081657
1425332962.847,-37.447002
1425332962.863,-37.611046
1425332962.879,-37.13471
1425332962.894,-35.596016
1425332962.91,-32.751083
1425332962.925,-28.630507
1425332962.941,-23.594109
1425332962.957,-18.217236
1425332962.972,-13.15527
1425332962.988,-8.878548
1425332963.004,-5.4718018
1425332963.019,-2.6535416
1425332963.035,0.10256195
1425332963.05,3.2687168
1425332963.066,7.1021643
1425332963.082,11.535611
1425332963.097,16.335932
1425332963.113,21.188467
1425332963.129,25.911373
1425332963.144,30.45907
1425332963.16,34.92247
1425332963.176,39.503
1425332963.191,44.483677
1425332963.207,50.055336
1425332963.222,56.16301
1425332963.238,62.337486
1425332963.254,67.624626
1425332963.269,70.81474
1425332963.285,70.79707
1425332963.301,66.94371
1425332963.316,59.37891
1425332963.332,48.9015
1425332963.347,36.72784
1425332963.363,24.094755
1425332963.379,11.982551
1425332963.394,1.0425687
1425332963.41,-8.429233
1425332963.426,-16.323605
1425332963.441,-22.712666
1425332963.457,-27.75881
1425332963.472,-31.707027
1425332963.488,-34.829296
1425332963.504,-37.36552
1425332963.519,-39.469933
1425332963.535,-41.153122
1425332963.551,-42.338493
1425332963.566,-42.8609
1425332963.582,-42.63736
1425332963.597,-41.69963
1425332963.613,-40.2993
1425332963.629,-38.789104
1425332963.644,-37.4679
1425332963.66,-36.454853
1425332963.676,-35.587795
1425332963.691,-34.505844
1425332963.707,-32.849834
1425332963.722,-30.450535
1425332963.738,-27.38928
1425332963.754,-23.930428
1425332963.769,-20.378614
1425332963.785,-16.874613
1425332963.801,-13.369268
1425332963.816,-9.686601
1425332963.832,-5.655113
1425332963.847,-1.2175798
1425332963.863,3.5183353
1425332963.879,8.328348
1425332963.894,12.980896
1425332963.91,17.298994
1425332963.926,21.237913
1425332963.941,24.86678
1425332963.957,28.366077
1425332963.972,31.990786
1425332963.988,36.02845
1425332964.004,40.733963
1425332964.019,46.20997
1425332964.035,52.231544
1425332964.051,58.105034
1425332964.066,62.74188
1425332964.082,64.87411
1425332964.097,63.527607
1425332964.113,58.342094
1425332964.129,49.85498
1425332964.144,39.271057
1425332964.16,28.077866
1425332964.176,17.566538
1425332964.191,8.514284
1425332964.207,1.1783333
1425332964.222,-4.518284
1425332964.238,-8.741398
1425332964.254,-11.603178
1425332964.269,-13.201742
1425332964.285,-13.698872
1425332964.301,-13.416391
1425332964.316,-12.760969
1425332964.332,-12.144379
1425332964.347,-11.805782
1425332964.363,-11.77508
1425332964.379,-11.910578
1425332964.394,-12.075689
1425332964.41,-12.285145
1425332964.426,-12.753653
1425332964.441,-13.824337
1425332964.457,-15.780394
1425332964.472,-18.612791
1425332964.488,-21.93348
1425332964.504,-25.099773
1425332964.519,-27.402533
1425332964.535,-28.361385
1425332964.551,-27.873217
1425332964.566,-26.191738
1425332964.582,-23.773512
1425332964.597,-21.05194
1425332964.613,-18.347565
1425332964.629,-15.789322
1425332964.644,-13.29039
1425332964.66,-10.58037
1425332964.676,-7.2303762
1425332964.691,-2.7053156
1425332964.707,3.4523106
1425332964.722,11.387862
1425332964.738,20.717129
1425332964.754,30.46096
1425332964.769,39.17486
1425332964.785,45.323444
1425332964.801,47.74142
1425332964.816,45.944786
1425332964.832,40.32929
1425332964.847,31.98478
1425332964.863,22.356596
1425332964.879,12.844651
1425332964.894,4.4079113
1425332964.91,-2.521657
1425332964.926,-7.9898033
1425332964.941,-12.235427
1425332964.957,-15.459512
1425332964.972,-17.706715
1425332964.988,-18.920383
1425332965.004,-19.175142
1425332965.019,-18.775421
1425332965.035,-18.277588
1425332965.051,-18.281445
1425332965.066,-19.161797
1425332965.082,-20.862953
1425332965.097,-22.949923
1425332965.113,-24.809004
1425332965.129,-25.948412
1425332965.144,-26.184422
1425332965.16,-25.662384
1425332965.176,-24.7252
1425332965.191,-23.705658
1425332965.207,-22.749775
1425332965.222,-21.788282
1425332965.238,-20.567358
1425332965.254,-18.720419
1425332965.269,-15.975861
1425332965.285,-12.277674
1425332965.301,-7.796749
1425332965.316,-2.8966808
1425332965.332,2.0962887
1425332965.347,6.9907494
1425332965.363,11.754635
1425332965.379,16.553438
1425332965.394,21.535763
1425332965.41,26.848108
1425332965.426,32.56096
1425332965.441,38.763317
1425332965.457,45.408478
1425332965.472,52.18493
1425332965.488,58.398895
1425332965.504,62.984234
1425332965.519,64.810165
1425332965.535,63.069515
1425332965.551,57.597908
1425332965.566,48.94912
1425332965.582,38.184475
1425332965.597,26.484354
1425332965.613,14.813007
1425332965.629,3.7833729
1425332965.644,-6.3172283
1425332965.66,-15.342211
1425332965.676,-23.214067
1425332965.691,-29.818382
1425332965.707,-35.00611
1425332965.722,-38.683075
1425332965.738,-40.882317
1425332965.754,-41.787434
1425332965.769,-41.738
1425332965.785,-41.145557
1425332965.801,-40.408325
1425332965.816,-39.740795
1425332965.832,-39.12348
1425332965.848,-38.33497
1425332965.863,-37.144245
1425332965.879,-35.42086
1425332965.894,-33.17503
1425332965.91,-30.56196
1425332965.926,-27.7635
1425332965.941,-24.867384
1425332965.957,-21.878252
1425332965.973,-18.732422
1425332965.988,-15.351707
1425332966.004,-11.676771
1425332966.019,-7.7265644
1425332966.035,-3.5130215
1425332966.051,0.9005871
1425332966.066,5.4569454
1425332966.082,10.10553
1425332966.098,14.779068
1425332966.113,19.433899
1425332966.129,24.018105
1425332966.144,28.517944
1425332966.16,32.97532
1425332966.176,37.511032
1425332966.191,42.31225
1425332966.207,47.53477
1425332966.223,53.145943
1425332966.238,58.75296
1425332966.254,63.541714
1425332966.269,66.43699
1425332966.285,66.41406
1425332966.301,62.853096
1425332966.316,55.810204
1425332966.332,45.97715
1425332966.348,34.500614
1425332966.363,22.581493
1425332966.379,11.215378
1425332966.394,1.0308437
1425332966.41,-7.636791
1425332966.426,-14.723618
1425332966.441,-20.322618
1425332966.457,-24.63083
1425332966.473,-27.886347
1425332966.488,-30.33244
1425332966.504,-32.094692
1425332966.519,-33.234604
1425332966.535,-33.720737
1425332966.551,-33.565292
1425332966.566,-32.815506
1425332966.582,-31.606638
1425332966.598,-30.069448
1425332966.613,-28.34893
1425332966.629,-26.529617
1425332966.644,-24.695168
1425332966.66,-22.90691
1425332966.676,-21.198803
1425332966.691,-19.509634
1425332966.707,-17.628742
1425332966.723,-15.261904
1425332966.738,-12.1299715
1425332966.754,-8.143957
1425332966.769,-3.5200477
1425332966.785,1.2937055
1425332966.801,5.783207
1425332966.816,9.69562
1425332966.832,13.20994
1425332966.848,16.87217
1425332966.863,21.334953
1425332966.879,27.036741
1425332966.894,33.91852
1425332966.91,41.36694
1425332966.926,48.33611
1425332966.941,53.635265
1425332966.957,56.16619
1425332966.973,55.23569
1425332966.988,50.636124
1425332967.004,42.78095
1425332967.019,32.58922
1425332967.035,21.341583
1425332967.051,10.342355
1425332967.066,0.5999179
1425332967.082,-7.387892
1425332967.098,-13.655123
1425332967.113,-18.598488
1425332967.129,-22.6357
1425332967.144,-26.034798
1425332967.16,-28.786446
1425332967.176,-30.7181
1425332967.191,-31.64664
1425332967.207,-31.425838
1425332967.223,-30.099493
1425332967.238,-27.894766
1425332967.254,-25.201017
1425332967.269,-22.439495
1425332967.285,-20.00755
1425332967.301,-18.126272
1425332967.316,-16.794075
1425332967.332,-15.810495
1425332967.348,-14.869486
1425332967.363,-13.673904
1425332967.379,-11.979307
1425332967.394,-9.611258
1425332967.41,-6.433262
1425332967.426,-2.4311447
1425332967.441,2.25799
1425332967.457,7.3012714
1425332967.473,12.257977
1425332967.488,16.775345
1425332967.504,20.796768
1425332967.519,24.617512
1425332967.535,28.799614
1425332967.551,33.882706
1425332967.566,39.997623
1425332967.582,46.711323
1425332967.598,52.9766
1425332967.613,57.37673
1425332967.629,58.576336
1425332967.644,55.75307
1425332967.66,48.902405
1425332967.676,38.83035
1425332967.691,26.94849
1425332967.707,14.770969
1425332967.723,3.552662
1425332967.738,-6.018635
1425332967.754,-13.760323
1425332967.769,-19.727768
1425332967.785,-24.022957
1425332967.801,-26.709877
1425332967.816,-27.882687
1425332967.832,-27.84037
1425332967.848,-27.111145
1425332967.863,-26.299423
1425332967.879,-25.870499
1425332967.894,-25.933136
1425332967.91,-26.198318
1425332967.926,-26.192482
1425332967.941,-25.48568
1425332967.957,-23.939087
1425332967.973,-21.76136
1425332967.988,-19.43718
1425332968.004,-17.45317
1425332968.019,-16.099014
1425332968.035,-15.316574
1425332968.051,-14.745262
1425332968.066,-13.857307
1425332968.082,-12.193207
1425332968.098,-9.50663
1425332968.113,-5.879219
1425332968.129,-1.6387482
1425332968.144,2.799057
1425332968.16,7.0844955
1425332968.176,10.955826
1425332968.191,14.347588
1425332968.207,17.328423
1425332968.223,20.157822
1425332968.238,23.248154
1425332968.254,27.09182
1425332968.269,32.01989
1425332968.285,37.934692
1425332968.301,44.12629
1425332968.316,49.373375
1425332968.332,52.28441
1425332968.348,51.782623
1425332968.363,47.465652
1425332968.379,39.70279
1425332968.394,29.452698
1425332968.41,17.915077
1425332968.426,6.196419
1425332968.441,-4.913742
1425332968.457,-14.97435
1425332968.473,-23.781357
1425332968.488,-31.328995
1425332968.504,-37.64473
1425332968.52,-42.783463
1425332968.535,-46.76213
1425332968.551,-49.600067
1425332968.566,-51.3304
1425332968.582,-52.02173
1425332968.598,-51.833557
1425332968.613,-51.018784
1425332968.629,-49.850998
1425332968.644,-48.623474
1425332968.66,-47.577026
1425332968.676,-46.87805
1425332968.691,-46.54547
1425332968.707,-46.457855
1425332968.723,-46.328583
1425332968.738,-45.85927
1425332968.754,-44.78485
1425332968.77,-43.00551
1425332968.785,-40.59514
1425332968.801,-37.759277
1425332968.816,-34.71837
1425332968.832,-31.644043
1425332968.848,-28.578354
1425332968.863,-25.441315
1425332968.879,-22.070892
1425332968.895,-18.23732
1425332968.91,-13.775223
1425332968.926,-8.594482
1425332968.941,-2.805008
1425332968.957,3.3413086
1425332968.973,9.5065155
1425332968.988,15.4288025
1425332969.004,21.03215
1425332969.02,26.44954
1425332969.035,31.993393
1425332969.051,37.97522
1425332969.066,44.51593
1425332969.082,51.402252
1425332969.098,57.963745
1425332969.113,63.08316
1425332969.129,65.444
1425332969.145,63.91423
1425332969.16,57.96737
1425332969.176,47.983047
1425332969.191,35.255745
1425332969.207,21.538445
1425332969.223,8.498146
1425332969.238,-2.7652283
1425332969.254,-11.908134
1425332969.27,-19.147026
1425332969.285,-24.908646
1425332969.301,-29.522072
1425332969.316,-33.11029
1425332969.332,-35.68743
1425332969.348,-37.274483
1425332969.363,-38.024605
1425332969.379,-38.099823
1425332969.395,-37.681763
1425332969.41,-36.86593
1425332969.426,-35.697083
1425332969.441,-34.21086
1425332969.457,-32.460335
1425332969.473,-30.51612
1425332969.488,-28.44027
1425332969.504,-26.285187
1425332969.52,-24.127121
1425332969.535,-22.05384
1425332969.551,-20.12333
1425332969.566,-18.33567
1425332969.582,-16.61155
1425332969.598,-14.747208
1425332969.613,-12.525505
1425332969.629,-9.7868805
1425332969.645,-6.4572678
1425332969.66,-2.5635376
1425332969.676,1.7468338
1425332969.691,6.2771225
1425332969.707,10.779175
1425332969.723,15.056221
1425332969.738,18.979332
1425332969.754,22.550957
1425332969.77,25.914291
1425332969.785,29.357323
1425332969.801,33.24997
1425332969.816,37.928528
1425332969.832,43.54162
1425332969.848,49.88318
1425332969.863,56.236404
1425332969.879,61.46039
1425332969.895,64.24582
1425332969.91,63.51104
1425332969.926,58.78263
1425332969.941,50.42372
1425332969.957,39.51183
1425332969.973,27.473976
1425332969.988,15.668858
1425332970.004,5.0658913
1425332970.02,-3.8914413
1425332970.035,-11.154312
1425332970.051,-16.92241
1425332970.066,-21.40559
1425332970.082,-24.788692
1425332970.098,-27.22284
1425332970.113,-28.803913
1425332970.129,-29.647236
1425332970.145,-29.88633
1425332970.16,-29.680561
1425332970.176,-29.210293
1425332970.191,-28.618198
1425332970.207,-28.007954
1425332970.223,-27.375267
1425332970.238,-26.666477
1425332970.254,-25.828827
1425332970.27,-24.863743
1425332970.285,-23.84663
1425332970.301,-22.834484
1425332970.316,-21.807388
1425332970.332,-20.64724
1425332970.348,-19.076187
1425332970.363,-16.804775
1425332970.379,-13.611118
1425332970.395,-9.477421
1425332970.41,-4.5668907
1425332970.426,0.714756
1425332970.441,5.8953857
1425332970.457,10.535931
1425332970.473,14.4261055
1425332970.488,17.625694
1425332970.504,20.53912
1425332970.52,23.70868
1425332970.535,27.683113
1425332970.551,32.76979
1425332970.566,38.89488
1425332970.582,45.549812
1425332970.598,51.873184
1425332970.613,56.754333
1425332970.629,59.11409
1425332970.645,58.119453
1425332970.66,53.45088
1425332970.676,45.410873
1425332970.691,34.901333
1425332970.707,23.152222
1425332970.723,11.441504
1425332970.738,0.72504807
1425332970.754,-8.486675
1425332970.77,-16.101744
1425332970.785,-22.274588
1425332970.801,-27.268091
1425332970.816,-31.263935
1425332970.832,-34.381218
1425332970.848,-36.650208
1425332970.863,-38.108627
1425332970.879,-38.771393
1425332970.895,-38.776123
1425332970.91,-38.261055
1425332970.926,-37.4413
1425332970.941,-36.49598
1425332970.957,-35.520042
1425332970.973,-34.505455
1425332970.988,-33.39348
1425332971.004,-32.110535
1425332971.02,-30.644817
1425332971.035,-29.03458
1425332971.051,-27.338764
1425332971.066,-25.573769
1425332971.082,-23.751263
1425332971.098,-21.790665
1425332971.113,-19.61602
1425332971.129,-17.125702
1425332971.145,-14.207615
1425332971.16,-10.745196
1425332971.176,-6.704389
1425332971.191,-2.1669416
1425332971.207,2.6427312
1425332971.223,7.4434986
1425332971.238,11.978531
1425332971.254,16.131643
1425332971.27,19.928514
1425332971.285,23.555218
1425332971.301,27.274559
1425332971.316,31.399075
1425332971.332,36.267693
1425332971.348,42.112373
1425332971.363,48.844624
1425332971.379,55.899117
1425332971.395,62.147614
1425332971.41,66.13465
1425332971.426,66.48878
1425332971.442,62.476097
1425332971.457,54.24743
1425332971.473,42.860672
1425332971.488,29.85408
1425332971.504,16.824255
1425332971.52,5.0038357
1425332971.535,-4.946556
1425332971.551,-12.892004
1425332971.567,-19.100946
1425332971.582,-24.023855
1425332971.598,-28.121353
1425332971.613,-31.698236
1425332971.629,-34.80596
1425332971.645,-37.338333
1425332971.66,-39.11267
1425332971.676,-40.03695
1425332971.692,-40.17033
1425332971.707,-39.66023
1425332971.723,-38.68822
1425332971.738,-37.421616
1425332971.754,-36.00547
1425332971.77,-34.70262
1425332971.785,-33.800198
1425332971.801,-33.53882
1425332971.817,-33.89894
1425332971.832,-34.54181
1425332971.848,-34.830086
1425332971.863,-34.117508
1425332971.879,-32.043472
1425332971.895,-28.647812
1425332971.91,-24.316326
1425332971.926,-19.610401
1425332971.942,-14.9910965
1425332971.957,-10.682369
1425332971.973,-6.636688
1425332971.988,-2.6438675
1425332972.004,1.5558777
1425332972.02,6.1097565
1425332972.035,11.020653
1425332972.051,16.08104
1425332972.067,21.024353
1425332972.082,25.627945
1425332972.098,29.845497
1425332972.113,33.821228
1425332972.129,37.85338
1425332972.145,42.280876
1425332972.16,47.283943
1425332972.176,52.774605
1425332972.192,58.29007
1425332972.207,63.015976
1425332972.223,65.94158
1425332972.238,66.0539
1425332972.254,62.714363
1425332972.27,55.85723
1425332972.285,46.116844
1425332972.301,34.639725
1425332972.317,22.76258
1425332972.332,11.618805
1425332972.348,1.9081573
1425332972.363,-6.139618
1425332972.379,-12.596565
1425332972.395,-17.692352
1425332972.41,-21.610352
1425332972.426,-24.47287
1425332972.442,-26.317406
1425332972.457,-27.227936
1425332972.473,-27.256111
1425332972.488,-26.592964
1425332972.504,-25.479141
1425332972.52,-24.215614
1425332972.535,-23.061844
1425332972.551,-22.15512
1425332972.567,-21.460037
1425332972.582,-20.856201
1425332972.598,-20.224495
1425332972.613,-19.5149
1425332972.629,-18.814003
1425332972.645,-18.223839
1425332972.66,-17.719017
1425332972.676,-17.101578
1425332972.692,-16.026154
1425332972.707,-14.136642
1425332972.723,-11.246986
1425332972.738,-7.4566803
1425332972.754,-3.0899277
1425332972.77,1.3598175
1425332972.785,5.4702454
1425332972.801,8.991119
1425332972.817,11.948402
1425332972.832,14.621712
1425332972.848,17.47165
1425332972.863,20.967743
1425332972.879,25.430588
1425332972.895,30.93547
1425332972.91,37.214386
1425332972.926,43.671494
1425332972.942,49.481934
1425332972.957,53.59906
1425332972.973,55.063934
1425332972.988,53.194977
1425332973.004,47.868652
1425332973.02,39.576996
1425332973.035,29.404236
1425332973.051,18.638824
1425332973.067,8.409637
1425332973.082,-0.56947327
1425332973.098,-8.096359
1425332973.113,-14.285645
1425332973.129,-19.33815
1425332973.145,-23.371292
1425332973.16,-26.396027
1425332973.176,-28.401367
1425332973.192,-29.407654
1425332973.207,-29.530243
1425332973.223,-28.925232
1425332973.238,-27.833328
1425332973.254,-26.535889
1425332973.27,-25.336868
1425332973.285,-24.473999
1425332973.301,-24.041168
1425332973.317,-23.864166
1425332973.332,-23.63292
1425332973.348,-23.05194
1425332973.363,-21.977829
1425332973.379,-20.488861
1425332973.395,-18.745468
1425332973.41,-16.796585
1425332973.426,-14.552063
1425332973.442,-11.799164
1425332973.457,-8.358673
1425332973.473,-4.297577
1425332973.488,0.08338928
1425332973.504,4.358719
1425332973.52,8.1258545
1425332973.535,11.232651
1425332973.551,13.783798
1425332973.567,16.09726
1425332973.582,18.674484
1425332973.598,22.070862
1425332973.613,26.69551
1425332973.629,32.703934
1425332973.645,39.874863
1425332973.66,47.55916
1425332973.676,54.753082
1425332973.692,60.33493
1425332973.707,63.227264
1425332973.723,62.68187
1425332973.738,58.402664
1425332973.754,50.702774
1425332973.77,40.544113
1425332973.785,29.280975
1425332973.801,18.308273
1425332973.817,8.69429
1425332973.832,0.83403015
1425332973.848,-5.5145264
1425332973.863,-10.938171
1425332973.879,-15.981583
1425332973.895,-20.846573
1425332973.91,-25.309143
1425332973.926,-28.942398
1425332973.942,-31.41124
1425332973.957,-32.62195
1425332973.973,-32.783142
1425332973.988,-32.26033
1425332974.004,-31.393875
1425332974.02,-30.436905
1425332974.035,-29.512543
1425332974.051,-28.685349
1425332974.067,-27.97734
1425332974.082,-27.419342
1425332974.098,-26.92743
1425332974.114,-26.399124
1425332974.129,-25.648285
1425332974.145,-24.48285
1425332974.16,-22.773865
1425332974.176,-20.519485
1425332974.192,-17.838959
1425332974.207,-14.941132
1425332974.223,-12.035187
1425332974.239,-9.242981
1425332974.254,-6.528015
1425332974.27,-3.708847
1425332974.285,-0.57502747
1425332974.301,3.0287476
1425332974.317,7.128586
1425332974.332,11.6037445
1425332974.348,16.286026
1425332974.364,21.006912
1425332974.379,25.754318
1425332974.395,30.661423
1425332974.41,35.9776
1425332974.426,41.89769
1425332974.442,48.34471
1425332974.457,54.78682
1425332974.473,60.24417
1425332974.489,63.482544
1425332974.504,63.399414
1425332974.52,59.435852
1425332974.535,51.799896
1425332974.551,41.40448
1425332974.567,29.566147
1425332974.582,17.576385
1425332974.598,6.3838654
1425332974.614,-3.5246735
1425332974.629,-12.025131
1425332974.645,-19.195587
1425332974.66,-25.119873
1425332974.676,-29.887665
1425332974.692,-33.551117
1425332974.707,-36.185654
1425332974.723,-37.879166
1425332974.739,-38.747757
1425332974.754,-38.900772
1425332974.77,-38.47705
1425332974.785,-37.64853
1425332974.801,-36.539078
1425332974.817,-35.290985
1425332974.832,-33.992508
1425332974.848,-32.719498
1425332974.864,-31.524872
1425332974.879,-30.407852
1425332974.895,-29.278763
1425332974.91,-27.961884
1425332974.926,-26.263626
1425332974.942,-24.04535
1425332974.957,-21.309814
1425332974.973,-18.148544
1425332974.989,-14.684113
1425332975.004,-10.950073
1425332975.02,-6.9185333
1425332975.035,-2.5113068
1425332975.051,2.2222443
1425332975.067,7.1302795
1425332975.082,12.000351
1425332975.098,16.678116
1425332975.114,21.163147
1425332975.129,25.564102
1425332975.145,30.059341
1425332975.16,34.783493
1425332975.176,39.786957
1425332975.192,45.06154
1425332975.207,50.466248
1425332975.223,55.682724
1425332975.239,60.085785
1425332975.254,62.84233
1425332975.27,63.052505
1425332975.285,60.058533
1425332975.301,53.696228
1425332975.317,44.406998
1425332975.332,33.115112
1425332975.348,20.957092
1425332975.364,9.002686
1425332975.379,-1.8817596
1425332975.395,-11.188629
1425332975.41,-18.665726
1425332975.426,-24.301422
1425332975.442,-28.215347
1425332975.457,-30.601013
1425332975.473,-31.665344
1425332975.489,-31.645706
1425332975.504,-30.829132
1425332975.52,-29.553528
1425332975.535,-28.11406
1425332975.551,-26.741455
1425332975.567,-25.409302
1425332975.582,-24.00151
1425332975.598,-22.340134
1425332975.614,-20.430801
1425332975.629,-18.490494
1425332975.645,-16.78775
1425332975.66,-15.440323
1425332975.676,-14.316696
1425332975.692,-13.01619
1425332975.707,-11.106491
1425332975.723,-8.387909
1425332975.739,-4.98114
1425332975.754,-1.2361755
1425332975.77,2.450409
1425332975.785,5.8718567
1425332975.801,9.086517
1425332975.817,12.385147
1425332975.832,16.1931
1425332975.848,20.948425
1425332975.864,26.92434
1425332975.879,34.132133
1425332975.895,42.1463
1425332975.91,50.11592
1425332975.926,56.787834
1425332975.942,60.8991
1425332975.957,61.386482
1425332975.973,57.78656
1425332975.989,50.315865
1425332976.004,39.855377
1425332976.02,27.735382
1425332976.035,15.395226
1425332976.051,4.0100327
1425332976.067,-5.74205
1425332976.082,-13.723572
1425332976.098,-20.159225
1425332976.114,-25.341888
1425332976.129,-29.390663
1425332976.145,-32.197426
1425332976.16,-33.51573
1425332976.176,-33.289375
1425332976.192,-31.764015
1425332976.207,-29.466927
1425332976.223,-26.999863
1425332976.239,-24.855873
1425332976.254,-23.25531
1425332976.27,-22.181946
1425332976.285,-21.57447
1425332976.301,-21.38108
1425332976.317,-21.598602
1425332976.332,-22.201385
1425332976.348,-23.048714
1425332976.364,-23.754944
1425332976.379,-23.798462
1425332976.395,-22.580902
1425332976.41,-19.636818
1425332976.426,-14.948555
1425332976.442,-8.918526
1425332976.457,-2.4073944
1425332976.473,3.6447906
1425332976.489,8.496506
1425332976.504,11.975128
1425332976.52,14.501907
1425332976.535,16.942291
1425332976.551,20.265724
1425332976.567,25.144455
1425332976.582,31.748535
1425332976.598,39.595383
1425332976.614,47.604248
1425332976.629,54.329254
1425332976.645,58.249176
1425332976.66,58.21772
1425332976.676,53.806488
1425332976.692,45.493156
1425332976.707,34.474655
1425332976.723,22.33075
1425332976.739,10.475605
1425332976.754,-0.15391922
1425332976.77,-9.19252
1425332976.786,-16.669132
1425332976.801,-22.785767
1425332976.817,-27.696434
1425332976.832,-31.444275
1425332976.848,-34.054333
1425332976.864,-35.552776
1425332976.879,-36.07491
1425332976.895,-35.825893
1425332976.911,-35.013138
1425332976.926,-33.860138
1425332976.942,-32.537872
1425332976.957,-31.17091
1425332976.973,-29.79583
1425332976.989,-28.448132
1425332977.004,-27.136696
1425332977.02,-25.921768
1425332977.036,-24.839584
1425332977.051,-23.881573
1425332977.067,-22.938297
1425332977.082,-21.822922
1425332977.098,-20.262997
1425332977.114,-18.06845
1425332977.129,-15.149658
1425332977.145,-11.516804
1425332977.161,-7.2946587
1425332977.176,-2.6712456
1425332977.192,2.0921097
1425332977.207,6.6929893
1425332977.223,10.892986
1425332977.239,14.558147
1425332977.254,17.81055
1425332977.27,20.926361
1425332977.286,24.38367
1425332977.301,28.593445
1425332977.317,33.883965
1425332977.332,40.271786
1425332977.348,47.422318
1425332977.364,54.535744
1425332977.379,60.47234
1425332977.395,63.92507
1425332977.411,63.830048
1425332977.426,59.655098
1425332977.442,51.694195
1425332977.457,40.947548
1425332977.473,28.812117
1425332977.489,16.66895
1425332977.504,5.551178
1425332977.52,-3.9814863
1425332977.536,-11.740757
1425332977.551,-17.837658
1425332977.567,-22.476154
1425332977.582,-25.977325
1425332977.598,-28.646198
1425332977.614,-30.77858
1425332977.629,-32.517944
1425332977.645,-33.935738
1425332977.661,-35.024452
1425332977.676,-35.791748
1425332977.692,-36.28676
1425332977.707,-36.57987
1425332977.723,-36.670815
1425332977.739,-36.57006
1425332977.754,-36.262245
1425332977.77,-35.80202
1425332977.786,-35.279537
1425332977.801,-34.734146
1425332977.817,-34.000904
1425332977.832,-32.73579
1425332977.848,-30.477503
1425332977.864,-26.940136
1425332977.879,-22.103298
1425332977.895,-16.27848
1425332977.911,-9.914522
1425332977.926,-3.5154886
1425332977.942,2.5532236
1425332977.957,8.027315
1425332977.973,12.760673
1425332977.989,16.675774
1425332978.004,19.863903
1425332978.02,22.57687
1425332978.036,25.255245
1425332978.051,28.37921
1425332978.067,32.37362
1425332978.082,37.485916
1425332978.098,43.717384
1425332978.114,50.739853
1425332978.129,57.889793
1425332978.145,64.13404
1425332978.161,68.2358
1425332978.176,69.027176
1425332978.192,65.79057
1425332978.207,58.51679
1425332978.223,48.01267
1425332978.239,35.58954
1425332978.254,22.681854
1425332978.27,10.41502
1425332978.286,-0.61125565
1425332978.301,-10.281048
1425332978.317,-18.747257
1425332978.332,-26.1624
1425332978.348,-32.516163
1425332978.364,-37.668232
1425332978.379,-41.491306
1425332978.395,-44.02147
1425332978.411,-45.47558
1425332978.426,-46.21977
1425332978.442,-46.56338
1425332978.457,-46.68185
1425332978.473,-46.546707
1425332978.489,-46.09717
1425332978.504,-45.353725
1425332978.52,-44.509827
1425332978.536,-43.868904
1425332978.551,-43.691074
1425332978.567,-43.9786
1425332978.582,-44.461357
1425332978.598,-44.6395
1425332978.614,-44.0078
1425332978.629,-42.22852
1425332978.645,-39.219963
1425332978.661,-35.18322
1425332978.676,-30.48751
1425332978.692,-25.5023
1425332978.707,-20.488453
1425332978.723,-15.473099
1425332978.739,-10.335159
1425332978.754,-4.872978
1425332978.77,0.9924736
1425332978.786,7.2104836
1425332978.801,13.51421
1425332978.817,19.646446
1425332978.832,25.454323
1425332978.848,31.000957
1425332978.864,36.511147
1425332978.879,42.26295
1425332978.895,48.453056
1425332978.911,55.05757
1425332978.926,61.761845
1425332978.942,67.97596
1425332978.957,72.78378
1425332978.973,75.12277
1425332978.989,73.99854
1425332979.004,68.82286
1425332979.02,59.71838
1425332979.036,47.580856
1425332979.051,33.818546
1425332979.067,19.964317
1425332979.082,7.154503
1425332979.098,-3.9893074
1425332979.114,-13.384216
1425332979.129,-21.209824
1425332979.145,-27.659977
1425332979.161,-32.82016
1425332979.176,-36.681732
1425332979.192,-39.26997
1425332979.207,-40.687
1425332979.223,-41.15257
1425332979.239,-40.9704
1425332979.254,-40.44013
1425332979.27,-39.764954
1425332979.286,-39.03035
1425332979.301,-38.176064
1425332979.317,-37.089508
1425332979.332,-35.69382
1425332979.348,-34.026386
1425332979.364,-32.24386
1425332979.379,-30.53189
1425332979.395,-28.92883
1425332979.411,-27.246147
1425332979.426,-25.183609
1425332979.442,-22.432793
1425332979.458,-18.90152
1425332979.473,-14.769344
1425332979.489,-10.406338
1425332979.504,-6.1975975
1425332979.52,-2.410698
1425332979.536,0.90506744
1425332979.551,3.8967934
1425332979.567,6.8677673
1425332979.582,10.196983
1425332979.598,14.275539
1425332979.614,19.366993
1425332979.629,25.542831
1425332979.645,32.635124
1425332979.661,40.17794
1425332979.676,47.463097
1425332979.692,53.66774
1425332979.708,57.870403
1425332979.723,59.26008
1425332979.739,57.299774
1425332979.754,51.8925
1425332979.77,43.563316
1425332979.786,33.35841
1425332979.801,22.540207
1425332979.817,12.236511
1425332979.833,3.1225433
1425332979.848,-4.681896
1425332979.864,-11.403027
1425332979.879,-17.2849
1425332979.895,-22.406761
1425332979.911,-26.573635
1425332979.926,-29.516617
1425332979.942,-31.066479
1425332979.958,-31.228233
1425332979.973,-30.23787
1425332979.989,-28.504902
1425332980.004,-26.535843
1425332980.02,-24.8219
1425332980.036,-23.770443
1425332980.051,-23.581074
1425332980.067,-24.189266
1425332980.083,-25.31813
1425332980.098,-26.527843
1425332980.114,-27.396961
1425332980.129,-27.61127
1425332980.145,-27.014866
1425332980.161,-25.601997
1425332980.176,-23.506405
1425332980.192,-20.926888
1425332980.208,-18.060776
1425332980.223,-15.075794
1425332980.239,-12.008583
1425332980.254,-8.751816
1425332980.27,-5.164009
1425332980.286,-1.1196365
1425332980.301,3.3391762
1425332980.317,8.043915
1425332980.333,12.768913
1425332980.348,17.36364
1425332980.364,21.793053
1425332980.379,26.175526
1425332980.395,30.706516
1425332980.411,35.598587
1425332980.426,41.014545
1425332980.442,47.023594
1425332980.458,53.465355
1425332980.473,59.84084
1425332980.489,65.22758
1425332980.504,68.477776
1425332980.52,68.52571
1425332980.536,64.78493
1425332980.551,57.377174
1425332980.567,47.11354
1425332980.583,35.203857
1425332980.598,22.87812
1425332980.614,11.077736
1425332980.629,0.3731308
1425332980.645,-8.983162
1425332980.661,-16.935822
1425332980.676,-23.500175
1425332980.692,-28.747673
1425332980.708,-32.769623
1425332980.723,-35.685387
1425332980.739,-37.601215
1425332980.754,-38.633312
1425332980.77,-38.918915
1425332980.786,-38.660576
1425332980.801,-38.1138
1425332980.817,-37.52153
1425332980.833,-37.07682
1425332980.848,-36.83706
1425332980.864,-36.76197
1425332980.879,-36.745636
1425332980.895,-36.619637
1425332980.911,-36.203526
1425332980.926,-35.342537
1425332980.942,-33.94201
1425332980.958,-32.020695
1425332980.973,-29.687248
1425332980.989,-27.121437
1425332981.004,-24.452255
1425332981.02,-21.711079
1425332981.036,-18.793835
1425332981.051,-15.523243
1425332981.067,-11.723705
1425332981.083,-7.3154793
1425332981.098,-2.327217
1425332981.114,3.0565262
1425332981.129,8.563107
1425332981.145,13.898212
1425332981.161,18.824875
1425332981.176,23.259113
1425332981.192,27.357811
1425332981.208,31.47203
1425332981.223,36.11277
1425332981.239,41.713978
1425332981.254,48.463448
1425332981.27,56.097927
1425332981.286,63.853523
1425332981.301,70.49011
1425332981.317,74.58
1425332981.333,74.90367
1425332981.348,70.81015
1425332981.364,62.49037
1425332981.379,50.945404
1425332981.395,37.65439
1425332981.411,24.156868
1425332981.426,11.642849
1425332981.442,0.7590294
1425332981.458,-8.326973
1425332981.473,-15.730213
1425332981.489,-21.69263
1425332981.504,-26.464512
1425332981.52,-30.268772
1425332981.536,-33.329582
1425332981.551,-35.840023
1425332981.567,-37.88613
1425332981.583,-39.502
1425332981.598,-40.664326
1425332981.614,-41.351097
1425332981.629,-41.6249
1425332981.645,-41.52356
1425332981.661,-41.106125
1425332981.676,-40.454144
1425332981.692,-39.65675
1425332981.708,-38.85504
1425332981.723,-38.147873
1425332981.739,-37.56765
1425332981.754,-36.967453
1425332981.77,-36.100796
1425332981.786,-34.662605
1425332981.801,-32.483955
1425332981.817,-29.551777
1425332981.833,-25.954391
1425332981.848,-21.786667
1425332981.864,-17.12748
1425332981.879,-12.05048
1425332981.895,-6.6823006
1425332981.911,-1.3173447
1425332981.926,3.7371101
1425332981.942,8.199272
1425332981.958,11.989861
1425332981.973,15.211544
1425332981.989,18.149593
1425332982.004,21.137882
1425332982.02,24.6091
1425332982.036,29.010704
1425332982.051,34.675915
1425332982.067,41.653694
1425332982.083,49.485672
1425332982.098,57.1182
1425332982.114,63.076588
1425332982.13,65.865555
1425332982.145,64.49295
1425332982.161,58.782784
1425332982.176,49.48652
1425332982.192,38.001263
1425332982.208,25.975224
1425332982.223,14.79166
1425332982.239,5.296871
1425332982.254,-2.3383865
1425332982.27,-8.4631195
1425332982.286,-13.629307
1425332982.301,-18.326645
1425332982.317,-22.713436
1425332982.333,-26.638285
1425332982.348,-29.73284
1425332982.364,-31.73471
1425332982.38,-32.62911
1425332982.395,-32.656895
1425332982.411,-32.203228
1425332982.426,-31.608889
1425332982.442,-31.018625
1425332982.458,-30.38065
1425332982.473,-29.575666
1425332982.489,-28.547926
1425332982.505,-27.37196
1425332982.52,-26.268476
1425332982.536,-25.416729
1425332982.551,-24.878437
1425332982.567,-24.523647
1425332982.583,-23.995655
1425332982.598,-22.841854
1425332982.614,-20.687786
1425332982.63,-17.379133
1425332982.645,-13.011032
1425332982.661,-7.905636
1425332982.676,-2.4968128
1425332982.692,2.8630028
1425332982.708,7.934971
1425332982.723,12.672047
1425332982.739,17.171564
1425332982.755,21.668793
1425332982.77,26.508627
1425332982.786,32.111492
1425332982.801,38.828667
1425332982.817,46.81054
1425332982.833,55.765224
1425332982.848,64.86218
1425332982.864,72.79872
1425332982.88,78.08815
1425332982.895,79.47278
1425332982.911,76.34852
1425332982.926,68.9427
1425332982.942,58.270042
1425332982.958,45.806984
1425332982.973,33.072933
1425332982.989,21.24508
1425332983.005,10.940187
1425332983.02,2.193573
1425332983.036,-5.290903
1425332983.051,-11.926746
1425332983.067,-17.966335
1425332983.083,-23.468044
1425332983.098,-28.300007
1425332983.114,-32.278713
1425332983.13,-35.28778
1425332983.145,-37.312004
1425332983.161,-38.39914
1425332983.176,-38.74821
1425332983.192,-38.57899
1425332983.208,-38.201008
1425332983.223,-37.901054
1425332983.239,-37.920906
1425332983.255,-38.307976
1425332983.27,-38.945324
1425332983.286,-39.495808
1425332983.301,-39.563976
1425332983.317,-38.850273
1425332983.333,-37.201187
1425332983.348,-34.65124
1425332983.364,-31.377262
1425332983.38,-27.591578
1425332983.395,-23.490578
1425332983.411,-19.226362
1425332983.426,-14.906837
1425332983.442,-10.582548
1425332983.458,-6.260191
1425332983.473,-1.933567
1425332983.489,2.394064
1425332983.505,6.733019
1425332983.52,11.090645
1425332983.536,15.616812
1425332983.551,20.523832
1425332983.567,26.125126
1425332983.583,32.63514
1425332983.598,40.051964
1425332983.614,47.93831
1425332983.63,55.46128
1425332983.645,61.41824
1425332983.661,64.60614
1425332983.676,64.11664
1425332983.692,59.675743
1425332983.708,51.730606
1425332983.723,41.31224
1425332983.739,29.715984
1425332983.755,18.054144
1425332983.77,7.0628834
1425332983.786,-2.961176
1425332983.801,-11.982864
1425332983.817,-20.007502
1425332983.833,-26.997355
1425332983.848,-32.79576
1425332983.864,-37.2958
1425332983.88,-40.49034
1425332983.895,-42.466377
1425332983.911,-43.37761
1425332983.926,-43.419086
1425332983.942,-42.797897
1425332983.958,-41.765663
1425332983.973,-40.634254
1425332983.989,-39.673782
1425332984.005,-39.056755
1425332984.02,-38.7946
1425332984.036,-38.750153
1425332984.051,-38.73957
1425332984.067,-38.5483
1425332984.083,-37.960266
1425332984.098,-36.736435
1425332984.114,-34.730946
1425332984.13,-31.875362
1425332984.145,-28.308842
1425332984.161,-24.387987
1425332984.176,-20.58279
1425332984.192,-17.22714
1425332984.208,-14.413496
1425332984.223,-11.890708
1425332984.239,-9.193581
1425332984.255,-5.8584795
1425332984.27,-1.5747132
1425332984.286,3.641098
1425332984.301,9.46661
1425332984.317,15.418896
1425332984.333,20.987358
1425332984.348,25.791931
1425332984.364,29.755482
1425332984.38,33.151188
1425332984.395,36.49858
1425332984.411,40.45842
1425332984.426,45.497456
1425332984.442,51.633472
1425332984.458,58.26764
1425332984.473,64.21854
1425332984.489,68.0187
1425332984.505,68.35271
1425332984.52,64.50501
1425332984.536,56.605278
1425332984.551,45.599148
1425332984.567,32.937317
1425332984.583,20.080708
1425332984.598,8.196333
1425332984.614,-2.0914192
1425332984.63,-10.637981
1425332984.645,-17.522923
1425332984.661,-22.906326
1425332984.676,-26.938263
1425332984.692,-29.75169
1425332984.708,-31.544544
1425332984.723,-32.55641
1425332984.739,-33.032246
1425332984.755,-33.10775
1425332984.77,-32.832096
1425332984.786,-32.173775
1425332984.801,-31.11905
1425332984.817,-29.714283
1425332984.833,-28.046173
1425332984.848,-26.203342
1425332984.864,-24.324883
1425332984.88,-22.543705
1425332984.895,-21.045406
1425332984.911,-20.012562
1425332984.926,-19.584602
1425332984.942,-19.71693
1425332984.958,-20.14861
1425332984.973,-20.42361
1425332984.989,-20.00587
1425332985.005,-18.407093
1425332985.02,-15.327499
1425332985.036,-10.733963
1425332985.052,-4.9227257
1425332985.067,1.5616226
1425332985.083,8.057831
1425332985.098,13.9826355
1425332985.114,19.034256
1425332985.13,23.277672
1425332985.145,27.049385
1425332985.161,30.823387
1425332985.177,35.02455
1425332985.192,39.894615
1425332985.208,45.5123
1425332985.223,51.681465
1425332985.239,57.88405
1425332985.255,63.24787
1425332985.27,66.60506
1425332985.286,66.772995
1425332985.302,62.9588
1425332985.317,55.178154
1425332985.333,44.256065
1425332985.348,31.688667
1425332985.364,19.076828
1425332985.38,7.669403
1425332985.395,-1.8914795
1425332985.411,-9.508194
1425332985.427,-15.438866
1425332985.442,-19.998978
1425332985.458,-23.382881
1425332985.473,-25.660126
1425332985.489,-26.863731
1425332985.505,-27.10199
1425332985.52,-26.645447
1425332985.536,-25.918915
1425332985.552,-25.33664
1425332985.567,-25.173592
1425332985.583,-25.380852
1425332985.598,-25.676605
1425332985.614,-25.699692
1425332985.63,-25.28257
1425332985.645,-24.57682
1425332985.661,-23.996681
1425332985.677,-23.949348
1425332985.692,-24.546165
1425332985.708,-25.45639
1425332985.723,-25.993332
1425332985.739,-25.446304
1425332985.755,-23.313179
1425332985.77,-19.517357
1425332985.786,-14.34333
1425332985.802,-8.334953
1425332985.817,-2.0572357
1425332985.833,4.0197525
1425332985.848,9.665825
1425332985.864,14.886307
1425332985.88,19.924477
1425332985.895,25.112915
1425332985.911,30.800674
1425332985.927,37.163803
1425332985.942,44.072388
1425332985.958,51.082375
1425332985.973,57.4096
1425332985.989,62.108795
1425332986.005,64.214264
1425332986.02,63.01718
1425332986.036,58.30052
1425332986.052,50.45269
1425332986.067,40.395737
1425332986.083,29.36599
1425332986.098,18.62188
1425332986.114,9.112221
1425332986.13,1.3798294
1425332986.145,-4.391861
1425332986.161,-8.309761
1425332986.177,-10.65226
1425332986.192,-11.7415695
1425332986.208,-11.932785
1425332986.223,-11.525398
1425332986.239,-10.752129
1425332986.255,-9.712151
1425332986.27,-8.492493
1425332986.286,-7.182312
1425332986.302,-5.900322
1425332986.317,-4.78389
1425332986.333,-3.7999344
1425332986.348,-2.7910995
1425332986.364,-1.5359116
1425332986.38,0.13168335
1425332986.395,2.1354523
1425332986.411,4.1774673
1425332986.427,5.866905
1425332986.442,6.939392
1425332986.458,7.3553314
1425332986.473,7.3176155
1425332986.489,7.133362
1425332986.505,7.1126137
1425332986.52,7.4683456
1425332986.536,8.254681
1425332986.552,9.434776
1425332986.567,10.905163
1425332986.583,12.482853
1425332986.598,13.890682
1425332986.614,14.937965
1425332986.63,15.511208
1425332986.645,15.706394
1425332986.661,15.8640175
1425332986.677,16.444233
1425332986.692,17.826992
1425332986.708,20.150326
1425332986.723,23.064728
1425332986.739,25.673279
1425332986.755,26.75706
1425332986.77,25.070116
1425332986.786,19.813854
1425332986.802,10.980267
1425332986.817,-0.614872
1425332986.833,-13.63205
1425332986.848,-26.597298
1425332986.864,-38.438484
1425332986.88,-48.61209
1425332986.895,-56.958176
1425332986.911,-63.47303
1425332986.927,-68.08091
1425332986.942,-70.619545
1425332986.958,-70.97655
1425332986.973,-69.34451
1425332986.989,-66.26637
1425332987.005,-62.540314
1425332987.02,-58.993824
1425332987.036,-56.154808
1425332987.052,-54.174416
1425332987.067,-52.78311
1425332987.083,-51.456196
1425332987.098,-49.634422
1425332987.114,-46.99454
1425332987.13,-43.54457
1425332987.145,-39.628777
1425332987.161,-35.76297
1425332987.177,-32.376095
1425332987.192,-29.636988
1425332987.208,-27.36492
1425332987.223,-25.160196
1425332987.239,-22.611921
1425332987.255,-19.493961
1425332987.27,-15.737259
1425332987.286,-11.429291
1425332987.302,-6.68021
1425332987.317,-1.5696869
1425332987.333,3.7931366
1425332987.348,9.250385
1425332987.364,14.580486
1425332987.38,19.612469
1425332987.395,24.3218
1425332987.411,28.967125
1425332987.427,33.98186
1425332987.442,39.807804
1425332987.458,46.636242
1425332987.473,54.180344
1425332987.489,61.53379
1425332987.505,67.35623
1425332987.52,70.17801
1425332987.536,68.9059
1425332987.552,63.256714
1425332987.567,53.91536
1425332987.583,42.25698
1425332987.598,29.944176
1425332987.614,18.333641
1425332987.63,8.197807
1425332987.645,-0.24750519
1425332987.661,-7.1064377
1425332987.677,-12.544174
1425332987.692,-16.636406
1425332987.708,-19.407356
1425332987.724,-20.948746
1425332987.739,-21.46791
1425332987.755,-21.255852
1425332987.77,-20.575493
1425332987.786,-19.57714
1425332987.802,-18.276657
1425332987.817,-16.595833
1425332987.833,-14.453102
1425332987.849,-11.851822
1425332987.864,-8.991684
1425332987.88,-6.2188263
1425332987.895,-3.9236221
1425332987.911,-2.3727493
1425332987.927,-1.5063705
1425332987.942,-0.86933136
1425332987.958,0.15002441
1425332987.974,2.0632095
1425332987.989,4.9710236
1425332988.005,8.570007
1425332988.02,12.345329
1425332988.036,15.85762
1425332988.052,18.965973
1425332988.067,21.808662
1425332988.083,24.70021
1425332988.099,27.942482
1425332988.114,31.776207
1425332988.13,36.383804
1425332988.145,41.74591
1425332988.161,47.549942
1425332988.177,53.011253
1425332988.192,56.949913
1425332988.208,58.110382
1425332988.224,55.66252
1425332988.239,49.481644
1425332988.255,40.240173
1425332988.27,29.139854
1425332988.286,17.450722
1425332988.302,6.1831512
1425332988.317,-4.0121155
1425332988.333,-12.831795
1425332988.349,-20.111885
1425332988.364,-25.745613
1425332988.38,-29.701767
1425332988.395,-31.967636
1425332988.411,-32.658752
1425332988.427,-32.03483
1425332988.442,-30.43129
1425332988.458,-28.237762
1425332988.474,-25.844925
1425332988.489,-23.547058
1425332988.505,-21.503181
1425332988.52,-19.751823
1425332988.536,-18.24031
1425332988.552,-16.927116
1425332988.567,-15.790939
1425332988.583,-14.77903
1425332988.599,-13.782715
1425332988.614,-12.61821
1425332988.63,-11.011284
1425332988.645,-8.757713
1425332988.661,-5.770424
1425332988.677,-2.1593018
1425332988.692,1.8207626
1425332988.708,5.800522
1425332988.724,9.510872
1425332988.739,12.829681
1425332988.755,15.877975
1425332988.77,19.084389
1425332988.786,23.00158
1425332988.802,28.126114
1425332988.817,34.62891
1425332988.833,42.14198
1425332988.849,49.734047
1425332988.864,56.07535
1425332988.88,59.805237
1425332988.895,59.88519
1425332988.911,55.931232
1425332988.927,48.26969
1425332988.942,37.88842
1425332988.958,26.13602
1425332988.974,14.328438
1425332988.989,3.4623833
1425332989.005,-5.9386444
1425332989.02,-13.762657
1425332989.036,-20.135921
1425332989.052,-25.20855
1425332989.067,-29.04797
1425332989.083,-31.678299
1425332989.099,-33.134605
1425332989.114,-33.563793
1425332989.13,-33.21208
1425332989.145,-32.344418
1425332989.161,-31.165958
1425332989.177,-29.83807
1425332989.192,-28.46587
1425332989.208,-27.205147
1425332989.224,-26.194288
1425332989.239,-25.517311
1425332989.255,-25.14768
1425332989.27,-24.908316
1425332989.286,-24.561207
1425332989.302,-23.8836
1425332989.317,-22.669407
1425332989.333,-20.730772
1425332989.349,-17.87021
1425332989.364,-13.980953
1425332989.38,-9.150992
1425332989.395,-3.742611
1425332989.411,1.7087059
1425332989.427,6.6233377
1425332989.442,10.726194
1425332989.458,14.12202
1425332989.474,17.283062
1425332989.489,20.88073
1425332989.505,25.495872
1425332989.52,31.452393
1425332989.536,38.64761
1425332989.552,46.514736
1425332989.567,54.033554
1425332989.583,59.879665
1425332989.599,62.69956
1425332989.614,61.463554
1425332989.63,55.85221
1425332989.645,46.37399
1425332989.661,34.265408
1425332989.677,21.100086
1425332989.692,8.355164
1425332989.708,-2.9093876
1425332989.724,-12.184406
1425332989.739,-19.477634
1425332989.755,-25.144619
1425332989.77,-29.651838
1425332989.786,-33.424263
1425332989.802,-36.685257
1425332989.817,-39.396034
1425332989.833,-41.35515
1425332989.849,-42.359596
1425332989.864,-42.35816
1425332989.88,-41.51612
1425332989.895,-40.13214
1425332989.911,-38.487064
1425332989.927,-36.831146
1425332989.942,-35.289627
1425332989.958,-33.946037
1425332989.974,-32.929028
1425332989.989,-32.36991
1425332990.005,-32.272743
1425332990.02,-32.47244
1425332990.036,-32.587555
1425332990.052,-32.15571
1425332990.067,-30.769299
1425332990.083,-28.177288
1425332990.099,-24.320385
1425332990.114,-19.35395
1425332990.13,-13.555824
1425332990.145,-7.3318596
1425332990.161,-1.1774292
1425332990.177,4.43499
1425332990.192,9.208736
1425332990.208,13.064442
1425332990.224,16.238415
1425332990.239,19.132446
1425332990.255,22.225132
1425332990.27,26.00959
1425332990.286,30.892723
1425332990.302,37.109493
1425332990.317,44.61926
1425332990.333,52.953453
1425332990.349,61.1733
1425332990.364,67.906586
1425332990.38,71.74425
1425332990.396,71.549164
1425332990.411,66.9134
1425332990.427,58.216908
1425332990.442,46.562267
1425332990.458,33.441437
1425332990.474,20.32629
1425332990.489,8.291878
1425332990.505,-2.128868
1425332990.52,-10.910198
1425332990.536,-18.361767
1425332990.552,-24.857712
1425332990.567,-30.632652
1425332990.583,-35.70228
1425332990.599,-39.881992
1425332990.614,-42.963497
1425332990.63,-44.789524
1425332990.646,-45.31453
1425332990.661,-44.592968
1425332990.677,-42.768887
1425332990.692,-40.080605
1425332990.708,-36.885384
1425332990.724,-33.598637
1425332990.739,-30.682114
1425332990.755,-28.465225
1425332990.771,-27.094482
1425332990.786,-26.426273
1425332990.802,-26.158436
1425332990.817,-25.897663
1425332990.833,-25.34182
1425332990.849,-24.313316
1425332990.864,-22.816376
1425332990.88,-20.959251
1425332990.896,-18.861076
1425332990.911,-16.56601
1425332990.927,-14.055889
1425332990.942,-11.244865
1425332990.958,-8.091084
1425332990.974,-4.6033745
1425332990.989,-0.8969345
1425332991.005,2.9101677
1425332991.021,6.785076
1425332991.036,10.781586
1425332991.052,15.018169
1425332991.067,19.62888
1425332991.083,24.722092
1425332991.099,30.406898
1425332991.114,36.722862
1425332991.13,43.629993
1425332991.146,50.784306
1425332991.161,57.454166
1425332991.177,62.52458
1425332991.192,64.76781
1425332991.208,63.251194
1425332991.224,57.774303
1425332991.239,48.94605
1425332991.255,37.99117
1425332991.271,26.32151
1425332991.286,15.07962
1425332991.302,4.900303
1425332991.317,-4.0196342
1425332991.333,-11.743492
1425332991.349,-18.344265
1425332991.364,-23.801033
1425332991.38,-28.01477
1425332991.396,-30.873608
1425332991.411,-32.355064
1425332991.427,-32.630005
1425332991.442,-32.046707
1425332991.458,-31.058762
1425332991.474,-30.136894
1425332991.489,-29.645699
1425332991.505,-29.678246
1425332991.521,-30.130936
1425332991.536,-30.70195
1425332991.552,-31.057388
1425332991.567,-30.938026
1425332991.583,-30.178238
1425332991.599,-28.747078
1425332991.614,-26.7435
1425332991.63,-24.321701
1425332991.646,-21.634369
1425332991.661,-18.802444
1425332991.677,-15.8654785
1425332991.692,-12.745628
1425332991.708,-9.372047
1425332991.724,-5.729698
1425332991.739,-1.9182205
1425332991.755,1.9151154
1425332991.771,5.7046814
1425332991.786,9.5611725
1425332991.802,13.705269
1425332991.817,18.407852
1425332991.833,23.829536
1425332991.849,29.98867
1425332991.864,36.7629
1425332991.88,43.877235
1425332991.896,50.875397
1425332991.911,57.10447
1425332991.927,61.681343
1425332991.942,63.658577
1425332991.958,62.329323
1425332991.974,57.487923
1425332991.989,49.51626
1425332992.005,39.293083
1425332992.021,27.904495
1425332992.036,16.32489
1425332992.052,5.2599945
1425332992.067,-4.862282
1425332992.083,-13.790619
1425332992.099,-21.385963
1425332992.114,-27.552963
1425332992.13,-32.252563
1425332992.146,-35.48884
1425332992.161,-37.32122
1425332992.177,-37.916878
1425332992.192,-37.536842
1425332992.208,-36.544693
1425332992.224,-35.337486
1425332992.239,-34.272606
1425332992.255,-33.555313
1425332992.271,-33.26448
1425332992.286,-33.297188
1425332992.302,-33.464684
1425332992.317,-33.504044
1425332992.333,-33.109436
1425332992.349,-32.03232
1425332992.364,-30.128319
1425332992.38,-27.455482
1425332992.396,-24.256485
1425332992.411,-20.888542
1425332992.427,-17.674652
1425332992.442,-14.747879
1425332992.458,-12.040535
1425332992.474,-9.330597
1425332992.489,-6.397949
1425332992.505,-3.0991898
1425332992.521,0.6251373
1425332992.536,4.7926865
1425332992.552,9.373558
1425332992.567,14.25489
1425332992.583,19.27044
1425332992.599,24.21064
1425332992.614,28.97638
1425332992.63,33.664
1425332992.646,38.61946
1425332992.661,44.243744
1425332992.677,50.675934
1425332992.692,57.532753
1425332992.708,63.870964
1425332992.724,68.411934
1425332992.739,69.90395
1425332992.755,67.59638
1425332992.771,61.442673
1425332992.786,52.13128
1425332992.802,40.794
1425332992.817,28.691864
1425332992.833,16.890701
1425332992.849,6.0921326
1425332992.864,-3.365837
1425332992.88,-11.412598
1425332992.896,-18.045227
1425332992.911,-23.311043
1425332992.927,-27.259613
1425332992.942,-30.015533
1425332992.958,-31.776115
1425332992.974,-32.79828
1425332992.989,-33.307365
1425332993.005,-33.42681
1425332993.021,-33.2257
1425332993.036,-32.71879
1425332993.052,-31.94944
1425332993.068,-30.97351
1425332993.083,-29.800194
1425332993.099,-28.357643
1425332993.114,-26.529907
1425332993.13,-24.218628
1425332993.146,-21.444687
1425332993.161,-18.390831
1425332993.177,-15.298653
1425332993.192,-12.348633
1425332993.208,-9.596916
