1434495738.068,0.0
1434495738.084,0.0
1434495738.1,0.0
1434495738.115,0.0
1434495738.131,0.0
1434495738.146,0.0
1434495738.162,0.0
1434495738.178,0.0
1434495738.193,0.0
1434495738.209,0.0020912355
1434495738.225,-0.00489659
1434495738.24,-0.01188748
1434495738.256,-0.0120059075
1434495738.271,0.0011197936
1434495738.287,0.026996939
1434495738.303,0.052883692
1434495738.318,0.05361241
1434495738.334,-0.0014535032
1434495738.35,-0.13457304
1434495738.365,-0.36424842
1434495738.381,-0.6679875
1434495738.396,-1.0103741
1434495738.412,-1.3534311
1434495738.428,-1.6750035
1434495738.443,-1.9800564
1434495738.459,-2.2985225
1434495738.475,-2.6704564
1434495738.49,-3.1209636
1434495738.506,-3.6828194
1434495738.521,-4.3117647
1434495738.537,-4.9508266
1434495738.553,-5.5418386
1434495738.568,-6.054438
1434495738.584,-6.5046177
1434495738.6,-6.9519405
1434495738.615,-7.4745746
1434495738.631,-8.118616
1434495738.646,-8.97271
1434495738.662,-9.935155
1434495738.678,-10.882862
1434495738.693,-11.692562
1434495738.709,-12.313822
1434495738.725,-12.817858
1434495738.74,-13.391221
1434495738.756,-14.268639
1434495738.771,-15.604554
1434495738.787,-17.60397
1434495738.803,-20.03742
1434495738.818,-22.598583
1434495738.834,-24.970562
1434495738.85,-26.997852
1434495738.865,-28.79813
1434495738.881,-30.746208
1434495738.896,-33.32391
1434495738.912,-36.856747
1434495738.928,-41.67906
1434495738.943,-47.353855
1434495738.959,-53.27081
1434495738.975,-58.798965
1434495738.99,-63.60124
1434495739.006,-67.82787
1434495739.021,-72.0803
1434495739.037,-77.146515
1434495739.053,-83.57014
1434495739.068,-91.805664
1434495739.084,-101.19757
1434495739.1,-110.80018
1434495739.115,-119.64163
1434495739.131,-127.186386
1434495739.146,-133.60329
1434495739.162,-139.70158
1434495739.178,-146.92853
1434495739.193,-154.02194
1434495739.209,-163.14745
1434495739.225,-174.73724
1434495739.24,-188.74266
1434495739.256,-203.85413
1434495739.271,-217.09692
1434495739.287,-224.10718
1434495739.303,-220.29381
1434495739.318,-202.5019
1434495739.334,-170.2861
1434495739.35,-126.59991
1434495739.365,-75.75375
1434495739.381,-22.17392
1434495739.396,31.34143
1434495739.412,84.101074
1434495739.428,136.80399
1434495739.443,190.22583
1434495739.459,244.20435
1434495739.475,297.5295
1434495739.49,348.16815
1434495739.506,394.75018
1434495739.521,436.4367
1434495739.537,472.7637
1434495739.553,503.02716
1434495739.568,525.87866
1434495739.584,539.42017
1434495739.6,541.6691
1434495739.615,531.3887
1434495739.631,508.36374
1434495739.646,473.94003
1434495739.662,430.39127
1434495739.678,380.46268
1434495739.693,326.73053
1434495739.709,271.27234
1434495739.725,215.58304
1434495739.74,160.74774
1434495739.756,107.73456
1434495739.771,57.474762
1434495739.787,11.113312
1434495739.803,-30.286316
1434495739.818,-65.93643
1434495739.834,-95.529205
1434495739.85,-119.27997
1434495739.865,-137.82776
1434495739.881,-152.01341
1434495739.896,-162.6125
1434495739.912,-170.21848
1434495739.928,-175.11609
1434495739.943,-177.41403
1434495739.959,-177.1881
1434495739.975,-174.62787
1434495739.99,-170.10431
1434495740.006,-164.15216
1434495740.022,-157.36647
1434495740.037,-150.25142
1434495740.053,-143.11267
1434495740.068,-136.01538
1434495740.084,-128.82512
1434495740.1,-121.33634
1434495740.115,-113.41292
1434495740.131,-105.091866
1434495740.147,-96.60643
1434495740.162,-88.321014
1434495740.178,-80.58762
1434495740.193,-73.600235
1434495740.209,-67.30565
1434495740.225,-61.414673
1434495740.24,-55.541817
1434495740.256,-49.382618
1434495740.272,-42.86951
1434495740.287,-36.226624
1434495740.303,-29.889576
1434495740.318,-24.266254
1434495740.334,-19.59606
1434495740.35,-15.825253
1434495740.365,-12.636725
1434495740.381,-9.628196
1434495740.397,-6.424816
1434495740.412,-2.7501824
1434495740.428,1.5856293
1434495740.443,6.600432
1434495740.459,11.923351
1434495740.475,16.610748
1434495740.49,19.222477
1434495740.506,18.270447
1434495740.522,12.904261
1434495740.537,3.5314083
1434495740.553,-8.124571
1434495740.568,-19.576601
1434495740.584,-28.522163
1434495740.6,-33.6988
1434495740.615,-35.1871
1434495740.631,-34.065586
1434495740.647,-31.641684
1434495740.662,-28.883825
1434495740.678,-26.140467
1434495740.693,-23.411844
1434495740.709,-20.653091
1434495740.725,-18.031631
1434495740.74,-15.878288
1434495740.756,-14.429741
1434495740.772,-13.67387
1434495740.787,-13.281544
1434495740.803,-12.816689
1434495740.818,-11.849148
1434495740.834,-10.254639
1434495740.85,-8.232189
1434495740.865,-6.214222
1434495740.881,-4.669052
1434495740.897,-3.841179
1434495740.912,-3.6334724
1434495740.928,-3.6472473
1434495740.943,-3.394329
1434495740.959,-2.5582542
1434495740.975,-1.2402382
1434495740.99,0.085315704
1434495741.006,0.7495575
1434495741.022,0.21608734
1434495741.037,-1.6306648
1434495741.053,-4.424015
1434495741.068,-7.452404
1434495741.084,-9.925205
1434495741.1,-11.281803
1434495741.115,-11.337509
1434495741.131,-10.291489
1434495741.147,-8.539013
1434495741.162,-6.549099
1434495741.178,-4.6812096
1434495741.193,-3.1294098
1434495741.209,-1.9403572
1434495741.225,-1.0458603
1434495741.24,-0.35064316
1434495741.256,0.2372818
1434495741.272,0.76150894
1434495741.287,1.2560692
1434495741.303,1.7067375
1434495741.318,2.113861
1434495741.334,2.4441223
1434495741.35,2.6565132
1434495741.365,2.6703415
1434495741.381,2.4324417
1434495741.397,1.9385338
1434495741.412,1.2724075
1434495741.428,0.611042
1434495741.443,0.15709686
1434495741.459,0.06508255
1434495741.475,0.36424637
1434495741.49,0.97406006
1434495741.506,1.7252388
1434495741.522,2.4399261
1434495741.537,3.0055656
1434495741.553,3.3446236
1434495741.568,3.4406166
1434495741.584,3.3082047
1434495741.6,3.016552
1434495741.615,2.6616783
1434495741.631,2.388504
1434495741.647,2.3372097
1434495741.662,2.5874577
1434495741.678,3.0776424
1434495741.693,3.6736107
1434495741.709,4.159752
1434495741.725,4.3849945
1434495741.74,4.2646675
1434495741.756,3.8637562
1434495741.772,3.3069706
1434495741.787,2.7739449
1434495741.803,2.4170952
1434495741.818,2.3588123
1434495741.834,2.6178913
1434495741.85,3.1034088
1434495741.865,3.564108
1434495741.881,3.6705303
1434495741.897,3.0773392
1434495741.912,1.5896378
1434495741.928,-0.739254
1434495741.943,-3.562811
1434495741.959,-6.3793545
1434495741.975,-8.655556
1434495741.99,-10.06082
1434495742.006,-10.513126
1434495742.022,-10.160526
1434495742.037,-9.26675
1434495742.053,-8.123457
1434495742.068,-6.9322414
1434495742.084,-5.8050575
1434495742.1,-4.7695866
1434495742.115,-3.8088665
1434495742.131,-2.9186478
1434495742.147,-2.1112862
1434495742.162,-1.4476681
1434495742.178,-1.0391502
1434495742.193,-0.9872112
1434495742.209,-1.3328724
1434495742.225,-2.0164661
1434495742.24,-2.9310093
1434495742.256,-3.916214
1434495742.272,-4.8580265
1434495742.287,-5.682331
1434495742.303,-6.35841
1434495742.318,-6.8645287
1434495742.334,-7.17885
1434495742.35,-7.254095
1434495742.365,-7.0579605
1434495742.381,-6.598694
1434495742.397,-5.9241037
1434495742.412,-5.065974
1434495742.428,-4.0659866
1434495742.443,-2.9294233
1434495742.459,-1.6772089
1434495742.475,-0.3131504
1434495742.49,1.1221867
1434495742.506,2.605217
1434495742.522,4.1783056
1434495742.537,5.9018917
1434495742.553,7.760957
1434495742.568,9.658018
1434495742.584,11.394961
1434495742.6,12.742337
1434495742.615,13.542929
1434495742.631,13.807209
1434495742.647,13.662271
1434495742.662,13.325008
1434495742.678,12.916367
1434495742.694,12.462763
1434495742.709,11.924767
1434495742.725,11.3113785
1434495742.74,10.679176
1434495742.756,10.167983
1434495742.772,9.782303
1434495742.787,9.341061
1434495742.803,8.474367
1434495742.819,6.8030887
1434495742.834,4.1669807
1434495742.85,0.7727065
1434495742.865,-2.8247843
1434495742.881,-5.9571743
1434495742.897,-8.135629
1434495742.912,-9.170074
1434495742.928,-9.2207575
1434495742.944,-8.603868
1434495742.959,-7.616782
1434495742.975,-6.4193573
1434495742.99,-5.0783496
1434495743.006,-3.6377153
1434495743.022,-2.219333
1434495743.037,-0.99172807
1434495743.053,-0.09760547
1434495743.069,0.42003393
1434495743.084,0.62617004
1434495743.1,0.64626765
1434495743.115,0.54573524
1434495743.131,0.30794978
1434495743.147,-0.14776498
1434495743.162,-0.817012
1434495743.178,-1.6117744
1434495743.194,-2.3113108
1434495743.209,-2.7141938
1434495743.225,-2.7210503
1434495743.24,-2.4203331
1434495743.256,-1.9937129
1434495743.272,-1.6335022
1434495743.287,-1.3861805
1434495743.303,-1.1478723
1434495743.319,-0.74291307
1434495743.334,-0.051705837
1434495743.35,0.89949507
1434495743.365,1.9289733
1434495743.381,2.862666
1434495743.397,3.5478404
1434495743.412,3.969147
1434495743.428,4.1994147
1434495743.444,4.385204
1434495743.459,4.664778
1434495743.475,5.1744747
1434495743.49,6.0259027
1434495743.506,7.1584764
1434495743.522,8.558665
1434495743.537,10.178419
1434495743.553,11.898826
1434495743.569,13.573322
1434495743.584,15.061052
1434495743.6,16.317675
1434495743.615,17.425322
1434495743.631,18.583982
1434495743.647,19.984856
1434495743.662,21.75978
1434495743.678,23.758757
1434495743.694,25.562603
1434495743.709,26.536514
1434495743.725,26.024141
1434495743.74,23.587797
1434495743.756,19.18351
1434495743.772,13.142906
1434495743.787,6.0673957
1434495743.803,-1.3861914
1434495743.819,-8.669637
1434495743.834,-15.391399
1434495743.85,-21.232176
1434495743.865,-25.893667
1434495743.881,-29.092762
1434495743.897,-30.704695
1434495743.912,-30.815874
1434495743.928,-29.797134
1434495743.944,-28.115131
1434495743.959,-26.18975
1434495743.975,-24.230408
1434495743.99,-22.25879
1434495744.006,-20.233635
1434495744.022,-18.20037
1434495744.037,-16.365444
1434495744.053,-15.020777
1434495744.069,-14.390585
1434495744.084,-14.4934845
1434495744.1,-15.132007
1434495744.115,-16.002728
1434495744.131,-16.769655
1434495744.147,-17.205578
1434495744.162,-17.180485
1434495744.178,-16.646116
1434495744.194,-15.614713
1434495744.209,-14.160943
1434495744.225,-12.397225
1434495744.24,-10.501971
1434495744.256,-8.61257
1434495744.272,-6.80917
1434495744.287,-5.0326223
1434495744.303,-3.1573381
1434495744.319,-1.0324135
1434495744.334,1.4105186
1434495744.35,4.1401
1434495744.365,7.0226793
1434495744.381,9.9318
1434495744.397,12.738483
1434495744.412,15.400498
1434495744.428,17.876663
1434495744.444,20.154716
1434495744.459,22.234392
1434495744.475,24.171194
1434495744.49,26.099386
1434495744.506,28.205975
1434495744.522,30.621706
1434495744.537,33.282562
1434495744.553,35.827343
1434495744.569,37.65869
1434495744.584,38.07655
1434495744.6,36.561497
1434495744.615,32.943966
1434495744.631,27.509756
1434495744.647,20.87455
1434495744.662,13.77866
1434495744.678,6.854171
1434495744.694,0.5153389
1434495744.709,-5.0695405
1434495744.725,-9.841362
1434495744.74,-13.7648735
1434495744.756,-16.748499
1434495744.772,-18.702682
1434495744.787,-19.58632
1434495744.803,-19.455887
1434495744.819,-18.483805
1434495744.834,-16.91079
1434495744.85,-14.98711
1434495744.865,-12.980981
1434495744.881,-11.112066
1434495744.897,-9.601219
1434495744.912,-8.596731
1434495744.928,-8.174262
1434495744.944,-8.28105
1434495744.959,-8.763608
1434495744.975,-9.39627
1434495744.99,-9.968528
1434495745.006,-10.318115
1434495745.022,-10.380433
1434495745.037,-10.128118
1434495745.053,-9.597905
1434495745.069,-8.821281
1434495745.084,-7.8415365
1434495745.1,-6.6664705
1434495745.115,-5.296192
1434495745.131,-3.6941566
1434495745.147,-1.8223953
1434495745.162,0.36804962
1434495745.178,2.8818426
1434495745.194,5.697854
1434495745.209,8.739197
1434495745.225,11.915274
1434495745.24,15.106822
1434495745.256,18.234966
1434495745.272,21.264824
1434495745.287,24.192383
1434495745.303,27.018782
1434495745.319,29.659472
1434495745.334,31.899534
1434495745.35,33.383244
1434495745.366,33.67817
1434495745.381,32.42568
1434495745.397,29.454454
1434495745.412,24.859299
1434495745.428,19.009508
1434495745.444,12.430244
1434495745.459,5.664444
1434495745.475,-0.8096657
1434495745.491,-6.68997
1434495745.506,-11.794397
1434495745.522,-16.09058
1434495745.537,-19.570745
1434495745.553,-22.279158
1434495745.569,-24.224669
1434495745.584,-25.42218
1434495745.6,-25.825863
1434495745.616,-25.428934
1434495745.631,-24.27362
1434495745.647,-22.519272
1434495745.662,-20.440182
1434495745.678,-18.363888
1434495745.694,-16.621258
1434495745.709,-15.417717
1434495745.725,-14.809998
1434495745.741,-14.733034
1434495745.756,-15.040831
1434495745.772,-15.596432
1434495745.787,-16.24356
1434495745.803,-16.827662
1434495745.819,-17.136734
1434495745.834,-16.955181
1434495745.85,-16.12352
1434495745.866,-14.648638
1434495745.881,-12.69091
1434495745.897,-10.512476
1434495745.912,-8.362024
1434495745.928,-6.326338
1434495745.944,-4.333584
1434495745.959,-2.2181416
1434495745.975,0.16853523
1434495745.991,2.865324
1434495746.006,5.810871
1434495746.022,8.876816
1434495746.037,11.973694
1434495746.053,15.057148
1434495746.069,18.165817
1434495746.084,21.319948
1434495746.1,24.563261
1434495746.116,27.903797
1434495746.131,31.323269
1434495746.147,34.67013
1434495746.162,37.631214
1434495746.178,39.717346
1434495746.194,40.355568
1434495746.209,39.04835
1434495746.225,35.5509
1434495746.241,29.952255
1434495746.256,22.685425
1434495746.272,14.393467
1434495746.287,5.823185
1434495746.303,-2.3131027
1434495746.319,-9.427879
1434495746.334,-15.151432
1434495746.35,-19.343208
1434495746.366,-22.109531
1434495746.381,-23.689491
1434495746.397,-24.362324
1434495746.412,-24.334023
1434495746.428,-23.728561
1434495746.444,-22.636421
1434495746.459,-21.17429
1434495746.475,-19.549534
1434495746.491,-17.994919
1434495746.506,-16.704521
1434495746.522,-15.7922325
1434495746.537,-15.279495
1434495746.553,-15.174782
1434495746.569,-15.445335
1434495746.584,-16.056767
1434495746.6,-16.88319
1434495746.616,-17.72012
1434495746.631,-18.30893
1434495746.647,-18.41917
1434495746.662,-17.90931
1434495746.678,-16.760197
1434495746.694,-15.044613
1434495746.709,-12.874123
1434495746.725,-10.375771
1434495746.741,-7.6811676
1434495746.756,-4.9118996
1434495746.772,-2.1747398
1434495746.787,0.49215698
1434495746.803,3.101616
1434495746.819,5.7411995
1434495746.834,8.4953
1434495746.85,11.458889
1434495746.866,14.65749
1434495746.881,18.100792
1434495746.897,21.771675
1434495746.912,25.668888
1434495746.928,29.752949
1434495746.944,33.912945
1434495746.959,37.887062
1434495746.975,41.235935
1434495746.991,43.382545
1434495747.006,43.74989
1434495747.022,41.926918
1434495747.037,37.835564
1434495747.053,31.77494
1434495747.069,24.370426
1434495747.084,16.37048
1434495747.1,8.486961
1434495747.116,1.2555962
1434495747.131,-5.001091
1434495747.147,-10.135384
1434495747.162,-14.092537
1434495747.178,-16.920753
1434495747.194,-18.722939
1434495747.209,-19.670471
1434495747.225,-19.972443
1434495747.241,-19.834435
1434495747.256,-19.39787
1434495747.272,-18.767025
1434495747.287,-18.012173
1434495747.303,-17.231583
1434495747.319,-16.53828
1434495747.334,-16.083279
1434495747.35,-15.98085
1434495747.366,-16.299797
1434495747.381,-17.033592
1434495747.397,-18.072392
1434495747.412,-19.207855
1434495747.428,-20.160095
1434495747.444,-20.62539
1434495747.459,-20.37045
1434495747.475,-19.320755
1434495747.491,-17.60577
1434495747.506,-15.481632
1434495747.522,-13.247673
1434495747.537,-11.092163
1434495747.553,-9.053356
1434495747.569,-6.9982986
1434495747.584,-4.7688446
1434495747.6,-2.2393723
1434495747.616,0.58447266
1434495747.631,3.6144447
1434495747.647,6.7013626
1434495747.662,9.742008
1434495747.678,12.703827
1434495747.694,15.607471
1434495747.709,18.499115
1434495747.725,21.44508
1434495747.741,24.506737
1434495747.756,27.75016
1434495747.772,31.169651
1434495747.787,34.653847
1434495747.803,37.860992
1434495747.819,40.252922
1434495747.834,41.170174
1434495747.85,40.052723
1434495747.866,36.62888
1434495747.881,31.049252
1434495747.897,23.825054
1434495747.912,15.700062
1434495747.928,7.416252
1434495747.944,-0.45264435
1434495747.959,-7.548382
1434495747.975,-13.702751
1434495747.991,-18.84681
1434495748.006,-22.944832
1434495748.022,-25.943455
1434495748.038,-27.794357
1434495748.053,-28.520435
1434495748.069,-28.208763
1434495748.084,-27.09467
1434495748.1,-25.493229
1434495748.116,-23.771076
1434495748.131,-22.227955
1434495748.147,-21.048313
1434495748.162,-20.280136
1434495748.178,-19.882523
1434495748.194,-19.792393
1434495748.209,-19.984772
1434495748.225,-20.466946
1434495748.241,-21.210594
1434495748.256,-22.108772
1434495748.272,-22.972664
1434495748.288,-23.563179
1434495748.303,-23.701927
1434495748.319,-23.299648
1434495748.334,-22.400684
1434495748.35,-21.123684
1434495748.366,-19.61602
1434495748.381,-17.982037
1434495748.397,-16.278656
1434495748.413,-14.458004
1434495748.428,-12.420311
1434495748.444,-10.030308
1434495748.459,-7.1876793
1434495748.475,-3.8995934
1434495748.491,-0.32120895
1434495748.506,3.2709541
1434495748.522,6.573395
1434495748.538,9.363411
1434495748.553,11.603279
1434495748.569,13.488354
1434495748.584,15.339909
1434495748.6,17.52092
1434495748.616,20.290646
1434495748.631,23.66557
1434495748.647,27.347416
1434495748.663,30.785011
1434495748.678,33.240295
1434495748.694,34.028145
1434495748.709,32.712944
1434495748.725,29.235685
1434495748.741,23.91912
1434495748.756,17.340193
1434495748.772,10.140623
1434495748.788,2.8913364
1434495748.803,-3.9871159
1434495748.819,-10.175781
1434495748.834,-15.429136
1434495748.85,-19.540792
1434495748.866,-22.391249
1434495748.881,-23.9536
1434495748.897,-24.334656
1434495748.913,-23.7303
1434495748.928,-22.404858
1434495748.944,-20.598993
1434495748.959,-18.549297
1434495748.975,-16.461748
1434495748.991,-14.528139
1434495749.006,-12.878968
1434495749.022,-11.597239
1434495749.038,-10.673254
1434495749.053,-10.078152
1434495749.069,-9.773079
1434495749.084,-9.743698
1434495749.1,-9.953857
1434495749.116,-10.3078985
1434495749.131,-10.596528
1434495749.147,-10.571151
1434495749.163,-10.002764
1434495749.178,-8.803062
1434495749.194,-7.0516577
1434495749.209,-4.985497
1434495749.225,-2.845173
1434495749.241,-0.77626705
1434495749.256,1.2464647
1434495749.272,3.3590794
1434495749.288,5.7107496
1434495749.303,8.346172
1434495749.319,11.177762
1434495749.334,14.022396
1434495749.35,16.690159
1434495749.366,19.06869
1434495749.381,21.157959
1434495749.397,23.069138
1434495749.413,24.979116
1434495749.428,27.074675
1434495749.444,29.474428
1434495749.459,32.115654
1434495749.475,34.73326
1434495749.491,36.84713
1434495749.506,37.884735
1434495749.522,37.331425
1434495749.538,34.91915
1434495749.553,30.732826
1434495749.569,25.191122
1434495749.584,18.915142
1434495749.6,12.54954
1434495749.616,6.5779934
1434495749.631,1.284441
1434495749.647,-3.228897
1434495749.663,-6.9396553
1434495749.678,-9.828285
1434495749.694,-11.837482
1434495749.709,-12.94109
1434495749.725,-13.171597
1434495749.741,-12.67358
1434495749.756,-11.677231
1434495749.772,-10.463566
1434495749.788,-9.285351
1434495749.803,-8.335815
1434495749.819,-7.7319603
1434495749.834,-7.5463943
1434495749.85,-7.8090744
1434495749.866,-8.495235
1434495749.881,-9.515038
1434495749.897,-10.7060585
1434495749.913,-11.858894
1434495749.928,-12.7621765
1434495749.944,-13.242023
1434495749.959,-13.228596
1434495749.975,-12.728676
1434495749.991,-11.812248
1434495750.006,-10.559444
1434495750.022,-9.00758
1434495750.038,-7.162678
1434495750.053,-5.038227
1434495750.069,-2.663784
1434495750.084,-0.14602661
1434495750.1,2.392025
1434495750.116,4.8369865
1434495750.131,7.1558685
1434495750.147,9.39706
1434495750.163,11.670757
1434495750.178,14.0913315
1434495750.194,16.727665
1434495750.209,19.589966
1434495750.225,22.670818
1434495750.241,25.935467
1434495750.256,29.2532
1434495750.272,32.297207
1434495750.288,34.50105
1434495750.303,35.17701
1434495750.319,33.78438
1434495750.334,30.14487
1434495750.35,24.578735
1434495750.366,17.791111
1434495750.381,10.634285
1434495750.397,3.7946167
1434495750.413,-2.3163567
1434495750.428,-7.58218
1434495750.444,-12.014221
1434495750.459,-15.640755
1434495750.475,-18.406918
1434495750.491,-20.262054
1434495750.506,-21.198746
1434495750.522,-21.351269
1434495750.538,-20.922318
1434495750.553,-20.130295
1434495750.569,-19.150894
1434495750.584,-18.111115
1434495750.6,-17.067696
1434495750.616,-16.045425
1434495750.631,-15.049885
1434495750.647,-14.107536
1434495750.663,-13.284592
1434495750.678,-12.726891
1434495750.694,-12.564739
1434495750.709,-12.853554
1434495750.725,-13.482452
1434495750.741,-14.183128
1434495750.756,-14.574467
1434495750.772,-14.346142
1434495750.788,-13.381462
1434495750.803,-11.815445
1434495750.819,-9.966751
1434495750.834,-8.198223
1434495750.85,-6.7081375
1434495750.866,-5.431484
1434495750.881,-4.065193
1434495750.897,-2.240673
1434495750.913,0.28158188
1434495750.928,3.4501266
1434495750.944,6.9988213
1434495750.96,10.516216
1434495750.975,13.673546
1434495750.991,16.313515
1434495751.006,18.539883
1434495751.022,20.54348
1434495751.038,22.52715
1434495751.053,24.656918
1434495751.069,27.015793
1434495751.085,29.621101
1434495751.1,32.403923
1434495751.116,35.14584
1434495751.131,37.422215
1434495751.147,38.648914
1434495751.163,38.253105
1434495751.178,35.84161
1434495751.194,31.38126
1434495751.21,25.205944
1434495751.225,17.930984
1434495751.241,10.238487
1434495751.256,2.771309
1434495751.272,-3.9989471
1434495751.288,-9.746517
1434495751.303,-14.325745
1434495751.319,-17.73011
1434495751.335,-20.05091
1434495751.35,-21.459255
1434495751.366,-22.13203
1434495751.381,-22.231724
1434495751.397,-21.868793
1434495751.413,-21.136784
1434495751.428,-20.1553
1434495751.444,-19.02816
1434495751.46,-17.890923
1434495751.475,-16.871895
1434495751.491,-16.130508
1434495751.506,-15.797188
1434495751.522,-15.966026
1434495751.538,-16.632229
1434495751.553,-17.67995
1434495751.569,-18.844093
1434495751.585,-19.818604
1434495751.6,-20.299389
1434495751.616,-20.106674
1434495751.631,-19.19888
1434495751.647,-17.696644
1434495751.663,-15.817966
1434495751.678,-13.7774315
1434495751.694,-11.731762
1434495751.71,-9.750984
1434495751.725,-7.7996407
1434495751.741,-5.8270187
1434495751.756,-3.8067703
1434495751.772,-1.7659073
1434495751.788,0.25844574
1434495751.803,2.226654
1434495751.819,4.1525917
1434495751.835,6.0821533
1434495751.85,8.065281
1434495751.866,10.11306
1434495751.881,12.2134285
1434495751.897,14.331467
1434495751.913,16.462852
1434495751.928,18.601986
1434495751.944,20.770878
1434495751.96,22.969181
1434495751.975,25.25708
1434495751.991,27.706333
1434495752.006,30.405563
1434495752.022,33.297134
1434495752.038,36.09647
1434495752.053,38.213722
1434495752.069,38.942326
1434495752.085,37.674576
1434495752.1,34.185123
1434495752.116,28.70544
1434495752.131,21.832932
1434495752.147,14.306305
1434495752.163,6.7888184
1434495752.178,-0.23089981
1434495752.194,-6.4431534
1434495752.21,-11.659542
1434495752.225,-15.755798
1434495752.241,-18.724155
1434495752.256,-20.6581
1434495752.272,-21.726421
1434495752.288,-22.087845
1434495752.303,-21.877983
1434495752.319,-21.179516
1434495752.335,-20.105312
1434495752.35,-18.849014
1434495752.366,-17.679798
1434495752.381,-16.866394
1434495752.397,-16.573662
1434495752.413,-16.800152
1434495752.428,-17.40606
1434495752.444,-18.171432
1434495752.46,-18.925575
1434495752.475,-19.562042
1434495752.491,-20.061821
1434495752.506,-20.378033
1434495752.522,-20.45568
1434495752.538,-20.192268
1434495752.553,-19.500244
1434495752.569,-18.396523
1434495752.585,-17.060417
1434495752.6,-15.748634
1434495752.616,-14.666996
1434495752.631,-13.883461
1434495752.647,-13.255386
1434495752.663,-12.457497
1434495752.678,-11.141727
1434495752.694,-9.098404
1434495752.71,-6.345516
1434495752.725,-3.1189842
1434495752.741,0.22788239
1434495752.756,3.3872452
1434495752.772,6.203087
1434495752.788,8.7114525
1434495752.803,11.038387
1434495752.819,13.327469
1434495752.835,15.631062
1434495752.85,17.928562
1434495752.866,20.196346
1434495752.881,22.504906
1434495752.897,25.020897
1434495752.913,27.883709
1434495752.928,31.004692
1434495752.944,33.96599
1434495752.96,36.04805
1434495752.975,36.483604
1434495752.991,34.75526
1434495753.006,30.839725
1434495753.022,25.207516
1434495753.038,18.59972
1434495753.053,11.763874
1434495753.069,5.2387924
1434495753.085,-0.71590805
1434495753.1,-6.0163155
1434495753.116,-10.643879
1434495753.131,-14.541321
1434495753.147,-17.62384
1434495753.163,-19.797234
1434495753.178,-21.017715
1434495753.194,-21.28997
1434495753.21,-20.666046
1434495753.225,-19.255325
1434495753.241,-17.262001
1434495753.256,-14.959908
1434495753.272,-12.675186
1434495753.288,-10.698235
1434495753.303,-9.219139
1434495753.319,-8.285194
1434495753.335,-7.8095856
1434495753.35,-7.6355896
1434495753.366,-7.6277084
1434495753.381,-7.661354
1434495753.397,-7.656349
1434495753.413,-7.5287247
1434495753.428,-7.19149
1434495753.444,-6.582962
1434495753.46,-5.7185135
1434495753.475,-4.6639404
1434495753.491,-3.502472
1434495753.506,-2.2625504
1434495753.522,-0.8955536
1434495753.538,0.7137375
1434495753.553,2.661316
1434495753.569,4.973938
1434495753.585,7.5573196
1434495753.6,10.259483
1434495753.616,12.935905
1434495753.632,15.483948
1434495753.647,17.884987
1434495753.663,20.190353
1434495753.678,22.47062
1434495753.694,24.845314
1434495753.71,27.4085
1434495753.725,30.220291
1434495753.741,33.15251
1434495753.757,35.85688
1434495753.772,37.78659
1434495753.788,38.32406
1434495753.803,37.00582
1434495753.819,33.699844
1434495753.835,28.676743
1434495753.85,22.49199
1434495753.866,15.798363
1434495753.882,9.156921
1434495753.897,2.9076157
1434495753.913,-2.8050385
1434495753.928,-7.92881
1434495753.944,-12.389832
1434495753.96,-16.082321
1434495753.975,-18.868187
1434495753.991,-20.692123
1434495754.007,-21.59365
1434495754.022,-21.716759
1434495754.038,-21.219688
1434495754.053,-20.29309
1434495754.069,-19.076519
1434495754.085,-17.728382
1434495754.1,-16.423023
1434495754.116,-15.349812
1434495754.132,-14.687317
1434495754.147,-14.533913
1434495754.163,-14.838806
1434495754.178,-15.445705
1434495754.194,-16.118877
1434495754.21,-16.647552
1434495754.225,-16.855343
1434495754.241,-16.640896
1434495754.257,-15.952637
1434495754.272,-14.783134
1434495754.288,-13.140095
1434495754.303,-11.115654
1434495754.319,-8.829197
1434495754.335,-6.4491234
1434495754.35,-4.083111
1434495754.366,-1.7765541
1434495754.382,0.5492096
1434495754.397,3.0006104
1434495754.413,5.666458
1434495754.428,8.536842
1434495754.444,11.496391
1434495754.46,14.373554
1434495754.475,17.037922
1434495754.491,19.459824
1434495754.507,21.752525
1434495754.522,24.10802
1434495754.538,26.759209
1434495754.553,29.821419
1434495754.569,33.20244
1434495754.585,36.497288
1434495754.6,39.0927
1434495754.616,40.244717
1434495754.632,39.3776
1434495754.647,36.213505
1434495754.663,30.900341
1434495754.678,23.922024
1434495754.694,15.952518
1434495754.71,7.7013283
1434495754.725,-0.20097733
1434495754.741,-7.2340584
1434495754.757,-13.021557
1434495754.772,-17.361324
1434495754.788,-20.295017
1434495754.803,-22.087162
1434495754.819,-23.120483
1434495754.835,-23.787006
1434495754.85,-24.253735
1434495754.866,-24.45784
1434495754.882,-24.14914
1434495754.897,-23.107811
1434495754.913,-21.284172
1434495754.928,-18.931866
1434495754.944,-16.507515
1434495754.96,-14.532379
1434495754.975,-13.423698
1434495754.991,-13.362419
1434495755.007,-14.242245
1434495755.022,-15.739262
1434495755.038,-17.40681
1434495755.053,-18.773617
1434495755.069,-19.47012
1434495755.085,-19.288952
1434495755.1,-18.185577
1434495755.116,-16.279957
1434495755.132,-13.768494
1434495755.147,-10.906834
1434495755.163,-7.9457035
1434495755.178,-5.084709
1434495755.194,-2.4142132
1434495755.21,0.0790329
1434495755.225,2.51853
1434495755.241,5.0510883
1434495755.257,7.781946
1434495755.272,10.70377
1434495755.288,13.704065
1434495755.303,16.612722
1434495755.319,19.321236
1434495755.335,21.832205
1434495755.35,24.29264
1434495755.366,26.917656
1434495755.382,29.899323
1434495755.397,33.25644
1434495755.413,36.786343
1434495755.428,40.03147
1434495755.444,42.384163
1434495755.46,43.2053
1434495755.475,42.00314
1434495755.491,38.552067
1434495755.507,32.984634
1434495755.522,25.757126
1434495755.538,17.549011
1434495755.553,9.088905
1434495755.569,1.0327358
1434495755.585,-6.1426992
1434495755.6,-12.161243
1434495755.616,-16.908024
1434495755.632,-20.391617
1434495755.647,-22.688496
1434495755.663,-23.930431
1434495755.678,-24.292234
1434495755.694,-23.932934
1434495755.71,-23.003204
1434495755.725,-21.627434
1434495755.741,-19.968563
1434495755.757,-18.217896
1434495755.772,-16.659912
1434495755.788,-15.5920105
1434495755.803,-15.233234
1434495755.819,-15.6354065
1434495755.835,-16.66505
1434495755.85,-18.0337
1434495755.866,-19.433167
1434495755.882,-20.583593
1434495755.897,-21.285378
1434495755.913,-21.41076
1434495755.928,-20.879396
1434495755.944,-19.667
1434495755.96,-17.85284
1434495755.975,-15.616432
1434495755.991,-13.234196
1434495756.007,-10.963724
1434495756.022,-8.95837
1434495756.038,-7.1690674
1434495756.053,-5.4108577
1434495756.069,-3.4604354
1434495756.085,-1.1672478
1434495756.1,1.4666715
1434495756.116,4.313629
1434495756.132,7.191968
1434495756.147,9.93652
1434495756.163,12.477803
1434495756.178,14.802954
1434495756.194,16.982578
1434495756.21,19.138023
1434495756.225,21.419716
1434495756.241,23.928576
1434495756.257,26.645737
1434495756.272,29.360859
1434495756.288,31.627914
1434495756.304,32.825573
1434495756.319,32.327118
1434495756.335,29.663914
1434495756.35,24.7266
1434495756.366,17.783215
1434495756.382,9.455789
1434495756.397,0.5186901
1434495756.413,-8.226344
1434495756.429,-16.118507
1434495756.444,-22.67408
1434495756.46,-27.630291
1434495756.475,-30.933174
1434495756.491,-32.728317
1434495756.507,-33.32708
1434495756.522,-33.134308
1434495756.538,-32.525116
1434495756.554,-31.771027
1434495756.569,-30.990034
1434495756.585,-30.220102
1434495756.6,-29.460419
1434495756.616,-28.792542
1434495756.632,-28.37312
1434495756.647,-28.45453
1434495756.663,-29.23605
1434495756.679,-30.86115
1434495756.694,-33.3135
1434495756.71,-36.36755
1434495756.725,-39.59715
1434495756.741,-42.409977
1434495756.757,-44.160282
1434495756.772,-44.30737
1434495756.788,-42.56627
1434495756.804,-38.987083
1434495756.819,-33.935036
1434495756.835,-27.98217
1434495756.85,-21.748724
1434495756.866,-15.797991
1434495756.882,-10.4909725
1434495756.897,-6.0126762
1434495756.913,-2.3210106
1434495756.929,0.7676792
1434495756.944,3.511572
1434495756.96,6.1589127
1434495756.975,8.81307
1434495756.991,11.40667
1434495757.007,13.721382
1434495757.022,15.479214
1434495757.038,16.516605
1434495757.054,16.873878
1434495757.069,16.900959
1434495757.085,17.143513
1434495757.1,18.286888
1434495757.116,20.875671
1434495757.132,25.12815
1434495757.147,30.760437
1434495757.163,36.985447
1434495757.179,42.675648
1434495757.194,46.700615
1434495757.21,48.2676
1434495757.225,47.175037
1434495757.241,43.850975
1434495757.257,39.146706
1434495757.272,34.016495
1434495757.288,29.241768
1434495757.304,25.277733
1434495757.319,22.291168
1434495757.335,20.269585
1434495757.35,19.209854
1434495757.366,19.099518
1434495757.382,19.927345
1434495757.397,21.519447
1434495757.413,23.560608
1434495757.429,25.594849
1434495757.444,27.155159
1434495757.46,27.886162
1434495757.475,27.64431
1434495757.491,26.477463
1434495757.507,24.518211
1434495757.522,21.876564
1434495757.538,18.64399
1434495757.554,14.869446
1434495757.569,10.695763
1434495757.585,6.366501
1434495757.6,2.2324295
1434495757.616,-1.3642502
1434495757.632,-4.1920853
1434495757.647,-6.1968384
1434495757.663,-7.472595
1434495757.679,-8.178505
1434495757.694,-8.452942
1434495757.71,-8.379639
1434495757.725,-7.9706497
1434495757.741,-7.24551
1434495757.757,-6.2589874
1434495757.772,-5.078495
1434495757.788,-3.774704
1434495757.804,-2.3792648
1434495757.819,-0.81913376
1434495757.835,0.96700287
1434495757.85,3.0069313
1434495757.866,5.262928
1434495757.882,7.697384
1434495757.897,10.334888
1434495757.913,13.282387
1434495757.929,16.645699
1434495757.944,20.349339
1434495757.96,23.977528
1434495757.975,26.797024
1434495757.991,27.940159
1434495758.007,26.732155
1434495758.022,22.952686
1434495758.038,16.955719
1434495758.054,9.494854
1434495758.069,1.4515915
1434495758.085,-6.437031
1434495758.1,-13.717564
1434495758.116,-20.189909
1434495758.132,-25.73591
1434495758.147,-30.252275
1434495758.163,-33.576546
1434495758.179,-35.56554
1434495758.194,-36.169403
1434495758.21,-35.512505
1434495758.225,-33.884583
1434495758.241,-31.703676
1434495758.257,-29.408672
1434495758.272,-27.293306
1434495758.288,-25.461523
1434495758.304,-23.874126
1434495758.319,-22.382381
1434495758.335,-20.916553
1434495758.35,-19.557655
1434495758.366,-18.506916
1434495758.382,-17.972319
1434495758.397,-18.038204
1434495758.413,-18.561798
1434495758.429,-19.187946
1434495758.444,-19.465097
1434495758.46,-19.0328
1434495758.475,-17.703096
1434495758.491,-15.564304
1434495758.507,-12.8848
1434495758.522,-10.036438
1434495758.538,-7.330738
1434495758.554,-4.936262
1434495758.569,-2.8454895
1434495758.585,-0.92497826
1434495758.6,1.0136013
1434495758.616,3.113905
1434495758.632,5.432543
1434495758.647,7.9347363
1434495758.663,10.546114
1434495758.679,13.195839
1434495758.694,15.86208
1434495758.71,18.545734
1434495758.725,21.276672
1434495758.741,24.096134
1434495758.757,27.095274
1434495758.772,30.347227
1434495758.788,33.89083
1434495758.804,37.54079
1434495758.819,40.85723
1434495758.835,43.131424
1434495758.85,43.62034
1434495758.866,41.79015
1434495758.882,37.56102
1434495758.897,31.34078
1434495758.913,23.845835
1434495758.929,15.873759
1434495758.944,8.012568
1434495758.96,0.6019497
1434495758.976,-6.204212
1434495758.991,-12.281517
1434495759.007,-17.432934
1434495759.022,-21.410538
1434495759.038,-24.036049
1434495759.054,-25.323528
1434495759.069,-25.473661
1434495759.085,-24.834679
1434495759.1,-23.696022
1434495759.116,-22.25248
1434495759.132,-20.585848
1434495759.147,-18.731358
1434495759.163,-16.803288
1434495759.179,-15.030293
1434495759.194,-13.696695
1434495759.21,-13.027772
1434495759.226,-13.096856
1434495759.241,-13.77158
1434495759.257,-14.7848215
1434495759.272,-15.862867
1434495759.288,-16.811592
1434495759.304,-17.580965
1434495759.319,-18.16772
1434495759.335,-18.55262
1434495759.351,-18.631382
1434495759.366,-18.279469
1434495759.382,-17.361425
1434495759.397,-15.896491
1434495759.413,-14.033632
1434495759.429,-11.97453
1434495759.444,-9.900116
1434495759.46,-7.875104
1434495759.476,-5.813113
1434495759.491,-3.5262804
1434495759.507,-0.8166399
1434495759.522,2.4271212
1434495759.538,6.1652727
1434495759.554,10.160576
1434495759.569,14.042321
1434495759.585,17.423618
1434495759.601,20.0516
1434495759.616,21.935951
1434495759.632,23.343456
1434495759.647,24.704266
1434495759.663,26.404663
1434495759.679,28.609316
1434495759.694,31.118767
1434495759.71,33.413654
1434495759.726,34.802902
1434495759.741,34.599632
1434495759.757,32.300987
1434495759.772,27.70553
1434495759.788,20.954784
1434495759.804,12.476488
1434495759.819,2.9613247
1434495759.835,-6.811859
1434495759.851,-16.063877
1434495759.866,-24.18351
1434495759.882,-30.745464
1434495759.897,-35.600075
1434495759.913,-38.85796
1434495759.929,-40.87735
1434495759.944,-42.13376
1434495759.96,-43.06548
1434495759.976,-43.932373
1434495759.991,-44.712822
1434495760.007,-45.12757
1434495760.022,-44.810146
1434495760.038,-43.49669
1434495760.054,-41.177254
1434495760.069,-38.107002
1434495760.085,-34.69375
1434495760.101,-31.321144
1434495760.116,-28.23227
1434495760.132,-25.490154
1434495760.147,-23.018799
1434495760.163,-20.674965
1434495760.179,-18.293446
1434495760.194,-15.709122
1434495760.21,-12.816593
1434495760.226,-9.5585785
1434495760.241,-6.00692
1434495760.257,-2.3304596
1434495760.272,1.2937317
1434495760.288,4.775078
1434495760.304,8.142555
1434495760.319,11.527344
1434495760.335,15.051338
1434495760.351,18.699001
1434495760.366,22.292255
1434495760.382,25.584602
1434495760.397,28.380993
1434495760.413,30.701843
1434495760.429,32.732086
1434495760.444,34.75628
1434495760.46,37.031693
1434495760.476,39.618584
1434495760.491,42.336304
1434495760.507,44.851578
1434495760.522,46.81333
1434495760.538,48.02944
1434495760.554,48.540688
1434495760.569,48.65542
1434495760.585,48.805717
1434495760.601,49.402817
1434495760.616,50.647446
1434495760.632,52.439766
1434495760.647,54.344772
1434495760.663,55.685425
1434495760.679,55.687378
1434495760.694,53.68553
1434495760.71,49.2797
1434495760.726,42.45919
1434495760.741,33.62883
1434495760.757,23.528435
1434495760.772,13.066017
1434495760.788,3.1562805
1434495760.804,-5.467079
1434495760.819,-12.362175
1434495760.835,-17.392227
1434495760.851,-20.67382
1434495760.866,-22.527916
1434495760.882,-23.32306
1434495760.897,-23.407806
1434495760.913,-23.00198
1434495760.929,-22.219116
1434495760.944,-21.143673
1434495760.96,-19.901295
1434495760.976,-18.693092
1434495760.991,-17.795689
1434495761.007,-17.457188
1434495761.022,-17.80973
1434495761.038,-18.802673
1434495761.054,-20.276093
1434495761.069,-22.024445
1434495761.085,-23.872864
1434495761.101,-25.692211
1434495761.116,-27.383923
1434495761.132,-28.790134
1434495761.147,-29.730858
1434495761.163,-30.022186
1434495761.179,-29.59895
1434495761.194,-28.538422
1434495761.21,-27.031605
1434495761.226,-25.313004
1434495761.241,-23.540813
1434495761.257,-21.766674
1434495761.272,-19.923653
1434495761.288,-17.890564
1434495761.304,-15.576828
1434495761.319,-12.939526
1434495761.335,-10.056335
1434495761.351,-7.026821
1434495761.366,-3.9743462
1434495761.382,-0.9524002
1434495761.397,2.0872917
1434495761.413,5.259117
1434495761.429,8.659382
1434495761.444,12.285213
1434495761.46,15.998554
1434495761.476,19.586731
1434495761.491,22.873745
1434495761.507,25.881924
1434495761.522,28.780762
1434495761.538,31.799652
1434495761.554,35.044613
1434495761.569,38.32134
1434495761.585,41.10737
1434495761.601,42.719154
1434495761.616,42.511116
1434495761.632,40.09237
1434495761.648,35.450356
1434495761.663,28.927883
1434495761.679,21.08715
1434495761.694,12.597942
1434495761.71,4.0705566
1434495761.726,-3.9739456
1434495761.741,-11.126286
1434495761.757,-17.090866
1434495761.772,-21.640465
1434495761.788,-24.658356
1434495761.804,-26.16446
1434495761.819,-26.312416
1434495761.835,-25.39832
1434495761.851,-23.78315
1434495761.866,-21.818157
1434495761.882,-19.803192
1434495761.898,-17.960396
1434495761.913,-16.43024
1434495761.929,-15.305977
1434495761.944,-14.594563
1434495761.96,-14.210011
1434495761.976,-14.000896
1434495761.991,-13.858925
1434495762.007,-13.763275
1434495762.023,-13.791931
1434495762.038,-14.049271
1434495762.054,-14.5314865
1434495762.069,-15.049561
1434495762.085,-15.308689
1434495762.101,-15.011856
1434495762.116,-14.047955
1434495762.132,-12.517483
1434495762.148,-10.628601
1434495762.163,-8.5346985
1434495762.179,-6.2740803
1434495762.194,-3.7675362
1434495762.21,-0.9725361
1434495762.226,2.0434227
1434495762.241,5.079174
1434495762.257,7.9251766
1434495762.273,10.476112
1434495762.288,12.793879
1434495762.304,15.036978
1434495762.319,17.37182
1434495762.335,19.897377
1434495762.351,22.610636
1434495762.366,25.425146
1434495762.382,28.272991
1434495762.398,31.116705
1434495762.413,33.972614
1434495762.429,36.81932
1434495762.444,39.524323
1434495762.46,41.738335
1434495762.476,42.93507
1434495762.491,42.505947
1434495762.507,39.95759
1434495762.523,35.140427
1434495762.538,28.325607
1434495762.554,20.131306
1434495762.569,11.338875
1434495762.585,2.619503
1434495762.601,-5.5572453
1434495762.616,-12.965052
1434495762.632,-19.468943
1434495762.648,-24.960617
1434495762.663,-29.27549
1434495762.679,-32.269318
1434495762.694,-33.8733
1434495762.71,-34.12879
1434495762.726,-33.176224
1434495762.741,-31.237352
1434495762.757,-28.57433
1434495762.773,-25.490623
1434495762.788,-22.33303
1434495762.804,-19.477169
1434495762.819,-17.277807
1434495762.835,-15.98897
1434495762.851,-15.654753
1434495762.866,-16.105373
1434495762.882,-16.94134
1434495762.898,-17.676048
1434495762.913,-17.861115
1434495762.929,-17.282745
1434495762.944,-15.994333
1434495762.96,-14.297368
1434495762.976,-12.555966
1434495762.991,-11.0462475
1434495763.007,-9.816936
1434495763.023,-8.738013
1434495763.038,-7.606374
1434495763.054,-6.2526255
1434495763.069,-4.5929556
1434495763.085,-2.5828295
1434495763.101,-0.16313839
1434495763.116,2.705308
1434495763.132,6.037467
1434495763.148,9.69671
1434495763.163,13.432353
1434495763.179,16.902233
1434495763.194,19.851616
1434495763.21,22.180626
1434495763.226,23.996202
1434495763.241,25.560596
1434495763.257,27.188038
1434495763.273,29.178335
1434495763.288,31.733532
1434495763.304,34.859932
1434495763.319,38.320942
1434495763.335,41.586136
1434495763.351,43.912056
1434495763.366,44.52006
1434495763.382,42.875328
1434495763.398,38.81959
1434495763.413,32.661064
1434495763.429,25.019064
1434495763.444,16.663702
1434495763.46,8.348045
1434495763.476,0.70482963
1434495763.491,-5.878106
1434495763.507,-11.233407
1434495763.523,-15.406278
1434495763.538,-18.602705
1434495763.554,-21.070967
1434495763.569,-22.9552
1434495763.585,-24.291065
1434495763.601,-24.9833
1434495763.616,-24.946175
1434495763.632,-24.159622
1434495763.648,-22.730629
1434495763.663,-20.853897
1434495763.679,-18.800537
1434495763.694,-16.871181
1434495763.71,-15.369968
1434495763.726,-14.583485
1434495763.741,-14.695009
1434495763.757,-15.694732
1434495763.773,-17.402561
1434495763.788,-19.46312
1434495763.804,-21.460384
1434495763.819,-23.024313
1434495763.835,-23.824959
1434495763.851,-23.634747
1434495763.866,-22.383934
1434495763.882,-20.188278
1434495763.898,-17.397022
1434495763.913,-14.490583
1434495763.929,-11.906069
1434495763.944,-9.834337
1434495763.96,-8.169416
1434495763.976,-6.5210457
1434495763.991,-4.4613037
1434495764.007,-1.7126656
1434495764.023,1.7950325
1434495764.038,5.9230022
1434495764.054,10.397057
1434495764.069,14.911819
1434495764.085,19.17762
1434495764.101,22.933586
1434495764.116,26.0244
1434495764.132,28.498142
1434495764.148,30.606308
1434495764.163,32.776844
1434495764.179,35.385017
1434495764.194,38.527153
1434495764.21,41.89791
1434495764.226,44.78488
1434495764.241,46.26398
1434495764.257,45.518707
1434495764.273,42.087627
1434495764.288,35.990128
1434495764.304,27.735668
1434495764.319,18.171518
1434495764.335,8.2326355
1434495764.351,-1.2049484
1434495764.366,-9.496891
1434495764.382,-16.249538
1434495764.398,-21.289452
1434495764.413,-24.6194
1434495764.429,-26.407158
1434495764.444,-26.93459
1434495764.46,-26.575676
1434495764.476,-25.708366
1434495764.491,-24.656624
1434495764.507,-23.602253
1434495764.523,-22.613815
1434495764.538,-21.666328
1434495764.554,-20.763927
1434495764.57,-19.980381
1434495764.585,-19.438248
1434495764.601,-19.247482
1434495764.616,-19.468498
1434495764.632,-20.030708
1434495764.648,-20.784538
1434495764.663,-21.530716
1434495764.679,-22.072548
1434495764.695,-22.232876
1434495764.71,-21.901253
1434495764.726,-21.004135
1434495764.741,-19.571941
1434495764.757,-17.72728
1434495764.773,-15.6286545
1434495764.788,-13.455662
1434495764.804,-11.355427
1434495764.82,-9.380352
1434495764.835,-7.4789925
1434495764.851,-5.525486
1434495764.866,-3.3515816
1434495764.882,-0.7957878
1434495764.898,2.1854897
1434495764.913,5.5225677
1434495764.929,9.033508
1434495764.945,12.50518
1434495764.96,15.824333
1434495764.976,19.022907
1434495764.991,22.233746
1434495765.007,25.60585
1434495765.023,29.19508
1434495765.038,32.95498
1434495765.054,36.720554
1434495765.07,40.28094
1434495765.085,43.323338
1434495765.101,45.44635
1434495765.116,46.092987
1434495765.132,44.68067
1434495765.148,40.81762
1434495765.163,34.508736
1434495765.179,26.232056
1434495765.195,16.850178
1434495765.21,7.309162
1434495765.226,-1.5930214
1434495765.241,-9.381844
1434495765.257,-15.850628
1434495765.273,-20.936832
1434495765.288,-24.606014
1434495765.304,-26.839092
1434495765.32,-27.70515
1434495765.335,-27.394238
1434495765.351,-26.192444
1434495765.366,-24.46877
1434495765.382,-22.525024
1434495765.398,-20.583912
1434495765.413,-18.82135
1434495765.429,-17.423748
1434495765.445,-16.580929
1434495765.46,-16.467072
1434495765.476,-17.127548
1434495765.491,-18.443657
1434495765.507,-20.116028
1434495765.523,-21.767273
1434495765.538,-23.060234
1434495765.554,-23.800964
1434495765.57,-23.96035
1434495765.585,-23.616928
1434495765.601,-22.85617
1434495765.616,-21.737144
1434495765.632,-20.254333
1434495765.648,-18.448639
1434495765.663,-16.42218
1434495765.679,-14.3372345
1434495765.695,-12.308792
1434495765.71,-10.315056
1434495765.726,-8.154488
1434495765.741,-5.5878754
1434495765.757,-2.4741287
1434495765.773,1.1172714
1434495765.788,4.903023
1434495765.804,8.5479965
1434495765.82,11.839325
1434495765.835,14.719475
1434495765.851,17.311432
1434495765.866,19.76241
1434495765.882,22.203426
1434495765.898,24.77975
1434495765.913,27.702377
1434495765.929,31.165348
1434495765.945,35.22841
1434495765.96,39.610252
1434495765.976,43.579422
1434495765.991,46.097736
1434495766.007,46.19325
1434495766.023,43.302673
1434495766.038,37.515015
1434495766.054,29.486568
1434495766.07,20.188534
1434495766.085,10.597118
1434495766.101,1.4741707
1434495766.116,-6.7278137
1434495766.132,-13.753029
1434495766.148,-19.479996
1434495766.163,-23.86404
1434495766.179,-26.92971
1434495766.195,-28.761135
1434495766.21,-29.532856
1434495766.226,-29.439346
1434495766.241,-28.682358
1434495766.257,-27.427319
1434495766.273,-25.77655
1434495766.288,-23.828598
1434495766.304,-21.712738
1434495766.32,-19.628838
1434495766.335,-17.857296
1434495766.351,-16.65361
1434495766.366,-16.18137
1434495766.382,-16.402481
1434495766.398,-17.109795
1434495766.413,-17.923592
1434495766.429,-18.465073
1434495766.445,-18.412987
1434495766.46,-17.581738
1434495766.476,-15.936203
1434495766.491,-13.601116
1434495766.507,-10.8111
1434495766.523,-7.850666
1434495766.538,-4.9767227
1434495766.554,-2.3593864
1434495766.57,-0.005443573
1434495766.585,2.1796112
1434495766.601,4.364071
1434495766.616,6.6744614
1434495766.632,9.140274
1434495766.648,11.738808
1434495766.663,14.421154
1434495766.679,17.12025
1434495766.695,19.8181
1434495766.71,22.522633
1434495766.726,25.293777
1434495766.741,28.216011
1434495766.757,31.352097
1434495766.773,34.590343
1434495766.788,37.58793
1434495766.804,39.751076
1434495766.82,40.40882
1434495766.835,39.039917
1434495766.851,35.475967
1434495766.866,29.96104
1434495766.882,23.056496
1434495766.898,15.432228
1434495766.913,7.6765785
1434495766.929,0.19508362
1434495766.945,-6.7346573
1434495766.96,-12.954578
1434495766.976,-18.29279
1434495766.991,-22.573082
1434495767.007,-25.590069
1434495767.023,-27.153492
1434495767.038,-27.155464
1434495767.054,-25.66985
1434495767.07,-23.007008
1434495767.085,-19.702942
1434495767.101,-16.390038
1434495767.116,-13.611763
1434495767.132,-11.673019
1434495767.148,-10.604839
1434495767.163,-10.209637
1434495767.179,-10.2427025
1434495767.195,-10.487923
1434495767.21,-10.798031
1434495767.226,-11.042408
1434495767.242,-11.10907
1434495767.257,-10.87764
1434495767.273,-10.266254
1434495767.288,-9.275368
1434495767.304,-7.9935455
1434495767.32,-6.519581
1434495767.335,-4.966263
1434495767.351,-3.3773842
1434495767.367,-1.768734
1434495767.382,-0.052394867
1434495767.398,1.9451904
1434495767.413,4.4340973
1434495767.429,7.539154
1434495767.445,11.233826
1434495767.46,15.289482
1434495767.476,19.357624
1434495767.492,23.125408
1434495767.507,26.506851
1434495767.523,29.654541
1434495767.538,32.849392
1434495767.554,36.238953
1434495767.57,39.632965
1434495767.585,42.4669
1434495767.601,43.961536
1434495767.617,43.410538
1434495767.632,40.4216
1434495767.648,35.045357
1434495767.663,27.744366
1434495767.679,19.205982
1434495767.695,10.198238
1434495767.71,1.3713455
1434495767.726,-6.7666206
1434495767.742,-13.892948
1434495767.757,-19.783634
1434495767.773,-24.25782
1434495767.788,-27.163742
1434495767.804,-28.473244
1434495767.82,-28.34211
1434495767.835,-27.14952
1434495767.851,-25.44094
1434495767.867,-23.747192
1434495767.882,-22.40535
1434495767.898,-21.488777
1434495767.913,-20.849373
1434495767.929,-20.305405
1434495767.945,-19.784195
1434495767.96,-19.356422
1434495767.976,-19.157097
1434495767.992,-19.309662
1434495768.007,-19.787285
1434495768.023,-20.43528
1434495768.038,-21.019127
1434495768.054,-21.294441
1434495768.07,-21.056732
1434495768.085,-20.222183
1434495768.101,-18.83004
1434495768.117,-17.011078
1434495768.132,-14.927452
1434495768.148,-12.663551
1434495768.163,-10.167526
1434495768.179,-7.2887115
1434495768.195,-3.8956757
1434495768.21,0.0118255615
1434495768.226,4.261772
1434495768.242,8.5772705
1434495768.257,12.717285
1434495768.273,16.523575
1434495768.288,19.995766
1434495768.304,23.184326
1434495768.32,26.162872
1434495768.335,29.087738
1434495768.351,32.182938
1434495768.367,35.684235
1434495768.382,39.724655
1434495768.398,44.11944
1434495768.413,48.249977
1434495768.429,51.19217
1434495768.445,52.011536
1434495768.46,50.082962
1434495768.476,45.34146
1434495768.492,38.242996
1434495768.507,29.580795
1434495768.523,20.263351
1434495768.538,11.106964
1434495768.554,2.7027283
1434495768.57,-4.5801926
1434495768.585,-10.617386
1434495768.601,-15.465294
1434495768.617,-19.310616
1434495768.632,-22.34172
1434495768.648,-24.686264
1434495768.663,-26.34996
1434495768.679,-27.262047
1434495768.695,-27.378311
1434495768.71,-26.740852
1434495768.726,-25.562897
1434495768.742,-24.200058
1434495768.757,-23.041748
1434495768.773,-22.414299
1434495768.788,-22.49028
1434495768.804,-23.23198
1434495768.82,-24.441734
1434495768.835,-25.857864
1434495768.851,-27.2024
1434495768.867,-28.265793
1434495768.882,-28.884285
1434495768.898,-28.91021
1434495768.913,-28.208687
1434495768.929,-26.732658
1434495768.945,-24.549088
1434495768.96,-21.88086
1434495768.976,-19.054031
1434495768.992,-16.367706
1434495769.007,-13.974541
1434495769.023,-11.853317
1434495769.038,-9.854515
1434495769.054,-7.808937
1434495769.07,-5.5740128
1434495769.085,-3.0443344
1434495769.101,-0.12246704
1434495769.117,3.242218
1434495769.132,6.998581
1434495769.148,10.934898
1434495769.163,14.707268
1434495769.179,17.94928
1434495769.195,20.483673
1434495769.21,22.380974
1434495769.226,23.969566
1434495769.242,25.661667
1434495769.257,27.825157
1434495769.273,30.708733
1434495769.288,34.361343
1434495769.304,38.61801
1434495769.32,43.059593
1434495769.335,46.991898
1434495769.351,49.532852
1434495769.367,49.802406
1434495769.382,47.231667
1434495769.398,41.73484
1434495769.413,33.799576
1434495769.429,24.31469
1434495769.445,14.312157
1434495769.46,4.745842
1434495769.476,-3.6819
1434495769.492,-10.597443
1434495769.507,-15.899345
1434495769.523,-19.734428
1434495769.538,-22.404976
1434495769.554,-24.250168
1434495769.57,-25.519478
1434495769.585,-26.321815
1434495769.601,-26.63256
1434495769.617,-26.405441
1434495769.632,-25.713158
1434495769.648,-24.74437
1434495769.663,-23.756264
1434495769.679,-23.019463
1434495769.695,-22.715363
1434495769.71,-22.917389
1434495769.726,-23.612206
1434495769.742,-24.742653
1434495769.757,-26.18827
1434495769.773,-27.772903
1434495769.788,-29.243217
1434495769.804,-30.307602
1434495769.82,-30.669792
1434495769.835,-30.076035
1434495769.851,-28.40625
1434495769.867,-25.73816
1434495769.882,-22.355652
1434495769.898,-18.689423
1434495769.914,-15.18692
1434495769.929,-12.159943
1434495769.945,-9.687241
1434495769.96,-7.633301
1434495769.976,-5.7192535
1434495769.992,-3.6858978
1434495770.007,-1.3402023
1434495770.023,1.4321518
1434495770.038,4.686386
1434495770.054,8.398666
1434495770.07,12.4279785
1434495770.085,16.488174
1434495770.101,20.18763
1434495770.117,23.185303
1434495770.132,25.347351
1434495770.148,26.819847
1434495770.164,27.992516
1434495770.179,29.3451
1434495770.195,31.292671
1434495770.21,34.096687
1434495770.226,37.786003
1434495770.242,42.06243
1434495770.257,46.320694
1434495770.273,49.666016
1434495770.289,51.096405
1434495770.304,49.7705
1434495770.32,45.316772
1434495770.335,37.945953
1434495770.351,28.422966
1434495770.367,17.819534
1434495770.382,7.2372437
1434495770.398,-2.3871002
1434495770.414,-10.414848
1434495770.429,-16.531319
1434495770.445,-20.74907
1434495770.46,-23.329231
1434495770.476,-24.737724
1434495770.492,-25.464523
1434495770.507,-25.899261
1434495770.523,-26.244278
1434495770.539,-26.521133
1434495770.554,-26.663063
1434495770.57,-26.617455
1434495770.585,-26.387436
1434495770.601,-26.026436
1434495770.617,-25.632584
1434495770.632,-25.310913
1434495770.648,-25.202385
1434495770.664,-25.426338
1434495770.679,-26.075264
1434495770.695,-27.076508
1434495770.71,-28.22847
1434495770.726,-29.183907
1434495770.742,-29.610878
1434495770.757,-29.302399
1434495770.773,-28.264412
1434495770.789,-26.65152
1434495770.804,-24.730644
1434495770.82,-22.73964
1434495770.835,-20.852642
1434495770.851,-19.155376
1434495770.867,-17.637794
1434495770.882,-16.21539
1434495770.898,-14.754108
1434495770.914,-13.090069
1434495770.929,-11.098457
1434495770.945,-8.748329
1434495770.96,-6.085804
1434495770.976,-3.22472
1434495770.992,-0.31254578
1434495771.007,2.5582657
1434495771.023,5.3640175
1434495771.039,8.131187
1434495771.054,10.894756
1434495771.07,13.682644
1434495771.085,16.469566
1434495771.101,19.221386
1434495771.117,21.938599
1434495771.132,24.735329
1434495771.148,27.80254
1434495771.164,31.318218
1434495771.179,35.2203
1434495771.195,39.083626
1434495771.21,42.120747
1434495771.226,43.36727
1434495771.242,42.055046
1434495771.257,37.94593
1434495771.273,31.419004
1434495771.289,23.334156
1434495771.304,14.670383
1434495771.32,6.2279625
1434495771.335,-1.5226917
1434495771.351,-8.3646145
1434495771.367,-14.186575
1434495771.382,-18.843624
1434495771.398,-22.172691
1434495771.414,-24.063751
1434495771.429,-24.556273
1434495771.445,-23.851585
1434495771.46,-22.286968
1434495771.476,-20.227135
1434495771.492,-18.007961
1434495771.507,-15.890085
1434495771.523,-14.042199
1434495771.539,-12.566249
1434495771.554,-11.547889
1434495771.57,-11.064815
1434495771.585,-11.172535
1434495771.601,-11.864457
1434495771.617,-13.027103
1434495771.632,-14.388009
1434495771.648,-15.575357
1434495771.664,-16.192368
1434495771.679,-15.958421
1434495771.695,-14.783684
1434495771.71,-12.766926
1434495771.726,-10.131231
1434495771.742,-7.140255
1434495771.757,-4.04072
1434495771.773,-1.0320873
1434495771.789,1.7591667
1434495771.804,4.291748
1434495771.82,6.6360836
1434495771.835,8.919689
1434495771.851,11.29936
1434495771.867,13.859734
1434495771.882,16.585236
1434495771.898,19.40383
1434495771.914,22.22253
1434495771.929,24.96102
1434495771.945,27.573515
1434495771.96,30.049374
1434495771.976,32.445168
1434495771.992,34.87211
1434495772.007,37.452354
1434495772.023,40.18768
1434495772.039,42.847103
1434495772.054,44.91236
1434495772.07,45.69558
1434495772.085,44.595444
1434495772.101,41.332268
1434495772.117,36.055347
1434495772.132,29.260052
1434495772.148,21.55515
1434495772.164,13.502087
1434495772.179,5.521599
1434495772.195,-2.0259056
1434495772.21,-8.788197
1434495772.226,-14.389023
1434495772.242,-18.540562
1434495772.257,-21.130146
1434495772.273,-22.27121
1434495772.289,-22.23396
1434495772.304,-21.366241
1434495772.32,-19.977734
1434495772.335,-18.330257
1434495772.351,-16.626099
1434495772.367,-15.041035
1434495772.382,-13.710438
1434495772.398,-12.747143
1434495772.414,-12.204037
1434495772.429,-12.096165
1434495772.445,-12.365299
1434495772.46,-12.880569
1434495772.476,-13.43771
1434495772.492,-13.829559
1434495772.507,-13.870319
1434495772.523,-13.481689
1434495772.539,-12.685799
1434495772.554,-11.577843
1434495772.57,-10.217678
1434495772.586,-8.624805
1434495772.601,-6.747631
1434495772.617,-4.518528
1434495772.632,-1.8965874
1434495772.648,1.1426697
1434495772.664,4.5906906
1434495772.679,8.409946
1434495772.695,12.513645
1434495772.71,16.735435
1434495772.726,20.861946
1434495772.742,24.675064
1434495772.757,28.104767
1434495772.773,31.21989
1434495772.789,34.250885
1434495772.804,37.394817
1434495772.82,40.663357
1434495772.836,43.7423
1434495772.851,46.01753
1434495772.867,46.737785
1434495772.882,45.243404
1434495772.898,41.227196
1434495772.914,34.84341
1434495772.929,26.663628
1434495772.945,17.522503
1434495772.961,8.270931
1434495772.976,-0.37422562
1434495772.992,-7.969948
1434495773.007,-14.299438
1434495773.023,-19.318996
1434495773.039,-23.068478
1434495773.054,-25.666931
1434495773.07,-27.231113
1434495773.086,-27.908749
1434495773.101,-27.808037
1434495773.117,-27.013948
1434495773.132,-25.595547
1434495773.148,-23.66805
1434495773.164,-21.428192
1434495773.179,-19.17454
1434495773.195,-17.242628
1434495773.211,-15.897028
1434495773.226,-15.247473
1434495773.242,-15.229849
1434495773.257,-15.643553
1434495773.273,-16.235819
1434495773.289,-16.752502
1434495773.304,-16.986715
1434495773.32,-16.757395
1434495773.336,-15.960667
1434495773.351,-14.553959
1434495773.367,-12.593891
1434495773.382,-10.212471
1434495773.398,-7.552719
1434495773.414,-4.7276497
1434495773.429,-1.8142452
1434495773.445,1.1564026
1434495773.461,4.1641445
1434495773.476,7.2042923
1434495773.492,10.293327
1434495773.507,13.50069
1434495773.523,16.861658
1434495773.539,20.380835
1434495773.554,23.960064
1434495773.57,27.445408
1434495773.586,30.755674
1434495773.601,33.953297
1434495773.617,37.220875
1434495773.632,40.70189
1434495773.648,44.252884
1434495773.664,47.327446
1434495773.679,49.038406
1434495773.695,48.47216
1434495773.711,45.040184
1434495773.726,38.73073
1434495773.742,30.136112
1434495773.757,20.253075
1434495773.773,10.169928
1434495773.789,0.7904072
1434495773.804,-7.322216
1434495773.82,-13.932599
1434495773.836,-19.08178
1434495773.851,-22.946749
1434495773.867,-25.738474
1434495773.882,-27.626772
1434495773.898,-28.745045
1434495773.914,-29.164228
1434495773.929,-28.970503
1434495773.945,-28.263803
1434495773.961,-27.163986
1434495773.976,-25.824242
1434495773.992,-24.420185
1434495774.007,-23.137745
1434495774.023,-22.186268
1434495774.039,-21.746265
1434495774.054,-21.924555
1434495774.07,-22.667118
1434495774.086,-23.761145
1434495774.101,-24.843948
1434495774.117,-25.522549
1434495774.132,-25.46341
1434495774.148,-24.516314
1434495774.164,-22.709743
1434495774.179,-20.241913
1434495774.195,-17.387094
1434495774.211,-14.397654
1434495774.226,-11.446358
1434495774.242,-8.562851
1434495774.257,-5.6588535
1434495774.273,-2.625517
1434495774.289,0.5899925
1434495774.304,3.9315166
1434495774.32,7.27026
1434495774.336,10.50606
1434495774.351,13.627689
1434495774.367,16.735909
1434495774.382,19.975761
1434495774.398,23.444855
1434495774.414,27.188068
1434495774.429,31.152235
1434495774.445,35.2444
1434495774.461,39.22754
1434495774.476,42.70378
1434495774.492,45.05419
1434495774.507,45.553055
1434495774.523,43.605247
1434495774.539,38.971725
1434495774.554,31.904778
1434495774.57,23.113985
1434495774.586,13.543711
1434495774.601,4.107628
1434495774.617,-4.504122
1434495774.632,-11.853914
1434495774.648,-17.75325
1434495774.664,-22.149952
1434495774.679,-25.117327
1434495774.695,-26.803356
1434495774.711,-27.408152
1434495774.726,-27.145256
1434495774.742,-26.25647
1434495774.757,-24.973597
1434495774.773,-23.565845
1434495774.789,-22.314875
1434495774.804,-21.477812
1434495774.82,-21.202217
1434495774.836,-21.532925
1434495774.851,-22.385004
1434495774.867,-23.601665
1434495774.882,-24.969734
1434495774.898,-26.260132
1434495774.914,-27.218422
1434495774.929,-27.657803
1434495774.945,-27.456352
1434495774.961,-26.628502
1434495774.976,-25.279047
1434495774.992,-23.56015
1434495775.007,-21.601702
1434495775.023,-19.496407
1434495775.039,-17.301697
1434495775.054,-15.083357
1434495775.07,-12.926111
1434495775.086,-10.871586
1434495775.101,-8.856142
1434495775.117,-6.735695
1434495775.132,-4.3060226
1434495775.148,-1.4721184
1434495775.164,1.7081604
1434495775.179,5.0248394
1434495775.195,8.232361
1434495775.211,11.156227
1434495775.226,13.803257
1434495775.242,16.304348
1434495775.257,18.86175
1434495775.273,21.660612
1434495775.289,24.807453
1434495775.304,28.23871
1434495775.32,31.680704
1434495775.336,34.643715
1434495775.351,36.467487
1434495775.367,36.48806
1434495775.382,34.251778
1434495775.398,29.673853
1434495775.414,23.13798
1434495775.429,15.3411045
1434495775.445,7.1511917
1434495775.461,-0.6530943
1434495775.476,-7.516572
1434495775.492,-13.174209
1434495775.508,-17.565825
1434495775.523,-20.76056
1434495775.539,-22.872223
1434495775.554,-24.038448
1434495775.57,-24.399883
1434495775.586,-24.143044
1434495775.601,-23.449434
1434495775.617,-22.504967
1434495775.633,-21.453394
1434495775.648,-20.382967
1434495775.664,-19.339813
1434495775.679,-18.38035
1434495775.695,-17.598188
1434495775.711,-17.127344
1434495775.726,-17.075073
1434495775.742,-17.489157
1434495775.758,-18.278416
1434495775.773,-19.246721
1434495775.789,-20.11142
1434495775.804,-20.611082
1434495775.82,-20.562763
1434495775.836,-19.889465
1434495775.851,-18.625444
1434495775.867,-16.89849
1434495775.883,-14.893031
1434495775.898,-12.790198
1434495775.914,-10.708639
1434495775.929,-8.690805
1434495775.945,-6.665516
1434495775.961,-4.5112133
1434495775.976,-2.0826225
1434495775.992,0.66581345
1434495776.008,3.7428093
1434495776.023,7.0742817
1434495776.039,10.5645485
1434495776.054,14.0758915
1434495776.07,17.488956
1434495776.086,20.700558
1434495776.101,23.71165
1434495776.117,26.661163
1434495776.133,29.753769
1434495776.148,33.13253
1434495776.164,36.67371
1434495776.179,39.899113
1434495776.195,42.062485
1434495776.211,42.404293
1434495776.226,40.461163
1434495776.242,36.231293
1434495776.258,30.175926
1434495776.273,22.967922
1434495776.289,15.311264
1434495776.304,7.7406464
1434495776.32,0.657711
1434495776.336,-5.628559
1434495776.351,-10.826424
1434495776.367,-14.725044
1434495776.383,-17.22773
1434495776.398,-18.398262
1434495776.414,-18.4165
1434495776.429,-17.546944
1434495776.445,-16.041496
1434495776.461,-14.163338
1434495776.476,-12.165657
1434495776.492,-10.323914
1434495776.508,-8.865974
1434495776.523,-7.954727
1434495776.539,-7.616478
1434495776.554,-7.7742157
1434495776.57,-8.259827
1434495776.586,-8.895538
1434495776.601,-9.486221
1434495776.617,-9.8594055
1434495776.633,-9.873825
1434495776.648,-9.4561
1434495776.664,-8.595306
1434495776.679,-7.368828
1434495776.695,-5.8577347
1434495776.711,-4.1520844
1434495776.726,-2.2646484
1434495776.742,-0.1969986
1434495776.758,2.0670776
1434495776.773,4.507622
1434495776.789,7.094673
1434495776.804,9.774284
1434495776.82,12.495834
1434495776.836,15.204895
1434495776.851,17.859184
1434495776.867,20.412796
1434495776.883,22.878525
1434495776.898,25.318176
1434495776.914,27.864899
1434495776.929,30.59848
1434495776.945,33.45005
1434495776.961,36.0632
1434495776.976,37.848717
1434495776.992,38.077576
1434495777.008,36.176125
1434495777.023,31.931892
1434495777.039,25.62989
1434495777.054,17.963264
1434495777.07,9.829796
1434495777.086,2.0002518
1434495777.101,-4.994194
1434495777.117,-10.943184
1434495777.133,-15.791885
1434495777.148,-19.536667
1434495777.164,-22.133865
1434495777.179,-23.553177
1434495777.195,-23.84481
1434495777.211,-23.222176
1434495777.226,-21.986343
1434495777.242,-20.460266
1434495777.258,-18.855606
1434495777.273,-17.262047
1434495777.289,-15.68425
1434495777.304,-14.165398
1434495777.32,-12.840157
1434495777.336,-11.906075
1434495777.351,-11.5411
1434495777.367,-11.804848
1434495777.383,-12.56781
1434495777.398,-13.549438
1434495777.414,-14.384567
1434495777.429,-14.744141
1434495777.445,-14.39785
1434495777.461,-13.290634
1434495777.476,-11.532402
1434495777.492,-9.376961
1434495777.508,-7.098915
1434495777.523,-4.933243
1434495777.539,-2.9710846
1434495777.554,-1.1846924
1434495777.57,0.57740784
1434495777.586,2.4683838
1434495777.601,4.61145
1434495777.617,7.0253906
1434495777.633,9.666962
1434495777.648,12.422638
1434495777.664,15.1887665
1434495777.679,17.88292
1434495777.695,20.500214
1434495777.711,23.116638
1434495777.726,25.910439
1434495777.742,29.0579
1434495777.758,32.659668
1434495777.773,36.56421
1434495777.789,40.316757
1434495777.804,43.183716
1434495777.82,44.319794
1434495777.836,43.04885
1434495777.851,39.09253
1434495777.867,32.691963
1434495777.883,24.57254
1434495777.898,15.717377
1434495777.914,7.098442
1434495777.929,-0.57273865
1434495777.945,-6.932823
1434495777.961,-11.927055
1434495777.976,-15.681526
1434495777.992,-18.381104
1434495778.008,-20.161789
1434495778.023,-21.152977
1434495778.039,-21.47129
1434495778.054,-21.28926
1434495778.07,-20.768036
1434495778.086,-20.032768
1434495778.101,-19.145218
1434495778.117,-18.14727
1434495778.133,-17.090988
1434495778.148,-16.114136
1434495778.164,-15.414001
1434495778.18,-15.194092
1434495778.195,-15.545029
1434495778.211,-16.409828
1434495778.226,-17.536072
1434495778.242,-18.583717
1434495778.258,-19.20803
1434495778.273,-19.1595
1434495778.289,-18.334106
1434495778.305,-16.80059
1434495778.32,-14.737755
1434495778.336,-12.421967
1434495778.351,-10.101616
1434495778.367,-7.959099
1434495778.383,-6.033661
1434495778.398,-4.258766
1434495778.414,-2.4920502
1434495778.43,-0.6134567
1434495778.445,1.452713
1434495778.461,3.7590714
1434495778.476,6.3383865
1434495778.492,9.1877365
1434495778.508,12.263298
1434495778.523,15.441521
1434495778.539,18.55375
1434495778.555,21.424896
1434495778.57,23.9692
1434495778.586,26.209366
1434495778.601,28.268082
1434495778.617,30.304344
1434495778.633,32.47545
1434495778.648,34.87876
1434495778.664,37.489594
1434495778.68,40.09218
1434495778.695,42.23674
1434495778.711,43.2694
1434495778.726,42.481483
1434495778.742,39.346375
1434495778.758,33.78427
1434495778.773,26.235352
1434495778.789,17.569153
1434495778.805,8.793381
1434495778.82,0.7453766
1434495778.836,-6.083893
1434495778.851,-11.533218
1434495778.867,-15.646858
1434495778.883,-18.526894
1434495778.898,-20.262291
1434495778.914,-20.970146
1434495778.93,-20.851074
1434495778.945,-20.204048
1434495778.961,-19.371658
1434495778.976,-18.638176
1434495778.992,-18.173683
1434495779.008,-18.010223
1434495779.023,-18.081192
1434495779.039,-18.285034
1434495779.055,-18.59063
1434495779.07,-19.01635
1434495779.086,-19.613121
1434495779.101,-20.39206
1434495779.117,-21.27562
1434495779.133,-22.088005
1434495779.148,-22.610062
1434495779.164,-22.645416
1434495779.18,-22.0682
1434495779.195,-20.876442
1434495779.211,-19.148521
1434495779.226,-17.0383
1434495779.242,-14.741272
1434495779.258,-12.435944
1434495779.273,-10.26519
1434495779.289,-8.311188
1434495779.305,-6.6017685
1434495779.32,-5.0690613
1434495779.336,-3.6373367
1434495779.351,-2.1709595
1434495779.367,-0.5615463
1434495779.383,1.3011398
1434495779.398,3.491356
1434495779.414,6.01976
1434495779.43,8.814102
1434495779.445,11.70533
1434495779.461,14.479774
1434495779.476,16.956047
1434495779.492,19.079865
1434495779.508,20.971191
1434495779.523,22.864159
1434495779.539,25.0242
1434495779.555,27.571907
1434495779.57,30.376144
1434495779.586,33.034004
1434495779.601,34.933434
1434495779.617,35.392174
1434495779.633,33.8767
1434495779.648,30.14737
1434495779.664,24.374931
1434495779.68,17.093384
1434495779.695,9.081894
1434495779.711,1.1348572
1434495779.726,-6.0827484
1434495779.742,-12.152199
1434495779.758,-16.887337
1434495779.773,-20.248894
1434495779.789,-22.302917
1434495779.805,-23.23529
1434495779.82,-23.300827
1434495779.836,-22.83545
1434495779.851,-22.153366
1434495779.867,-21.478508
1434495779.883,-20.859154
1434495779.898,-20.259216
1434495779.914,-19.604858
1434495779.93,-18.925056
1434495779.945,-18.337189
1434495779.961,-18.013214
1434495779.976,-18.053421
1434495779.992,-18.446281
1434495780.008,-19.063873
1434495780.023,-19.731339
1434495780.039,-20.27275
1434495780.055,-20.548195
1434495780.07,-20.450294
1434495780.086,-19.921501
1434495780.101,-18.959251
1434495780.117,-17.661514
1434495780.133,-16.171577
1434495780.148,-14.619324
1434495780.164,-13.03112
1434495780.18,-11.327774
1434495780.195,-9.339325
1434495780.211,-6.936989
1434495780.226,-4.095299
1434495780.242,-0.92858887
1434495780.258,2.3796463
1434495780.273,5.6391983
1434495780.289,8.727455
1434495780.305,11.595848
1434495780.32,14.256126
1434495780.336,16.774239
1434495780.351,19.303963
1434495780.367,22.055412
1434495780.383,25.264076
1434495780.398,29.023018
1434495780.414,33.143623
1434495780.43,37.08618
1434495780.445,40.053833
1434495780.461,41.205894
1434495780.476,39.974876
1434495780.492,36.26642
1434495780.508,30.512611
1434495780.523,23.52681
1434495780.539,16.22744
1434495780.555,9.332184
1434495780.57,3.2396774
1434495780.586,-1.9818344
1434495780.601,-6.4319687
1434495780.617,-10.210632
1434495780.633,-13.315956
1434495780.648,-15.6489105
1434495780.664,-17.070015
1434495780.68,-17.500107
1434495780.695,-16.970741
1434495780.711,-15.624397
1434495780.726,-13.70491
1434495780.742,-11.563873
1434495780.758,-9.561493
1434495780.773,-8.029297
1434495780.789,-7.1964874
1434495780.805,-7.123184
1434495780.82,-7.6856766
1434495780.836,-8.638512
1434495780.852,-9.676392
1434495780.867,-10.554459
1434495780.883,-11.090042
1434495780.898,-11.181358
1434495780.914,-10.774292
1434495780.93,-9.86087
1434495780.945,-8.474617
1434495780.961,-6.7042923
1434495780.977,-4.694107
1434495780.992,-2.5864258
1434495781.008,-0.46538544
1434495781.023,1.6525879
1434495781.039,3.8667374
1434495781.055,6.2951202
1434495781.07,9.041954
1434495781.086,12.127556
1434495781.102,15.473755
1434495781.117,18.916176
1434495781.133,22.303017
1434495781.148,25.573853
1434495781.164,28.804558
1434495781.18,32.091858
1434495781.195,35.43009
1434495781.211,38.53739
1434495781.227,40.809883
1434495781.242,41.468307
1434495781.258,39.83377
1434495781.273,35.643044
1434495781.289,29.169113
1434495781.305,21.120354
1434495781.32,12.421631
1434495781.336,3.8768005
1434495781.352,-3.9571838
1434495781.367,-10.793694
1434495781.383,-16.456055
1434495781.398,-20.81205
1434495781.414,-23.724487
1434495781.43,-25.168625
1434495781.445,-25.276642
1434495781.461,-24.33751
1434495781.477,-22.720009
1434495781.492,-20.73896
1434495781.508,-18.600204
1434495781.523,-16.419952
1434495781.539,-14.280151
1434495781.555,-12.330246
1434495781.57,-10.756996
1434495781.586,-9.77285
1434495781.602,-9.499405
1434495781.617,-9.940895
1434495781.633,-10.941528
1434495781.648,-12.201561
1434495781.664,-13.333679
1434495781.68,-13.997269
1434495781.695,-13.948441
1434495781.711,-13.132042
1434495781.727,-11.693687
1434495781.742,-9.892044
1434495781.758,-7.9816055
1434495781.773,-6.111969
1434495781.789,-4.2704086
1434495781.805,-2.3336487
1434495781.82,-0.15715027
1434495781.836,2.3468475
1434495781.852,5.1808014
1434495781.867,8.272316
1434495781.883,11.548302
1434495781.898,14.933762
1434495781.914,18.36679
1434495781.93,21.7855
1434495781.945,25.166664
1434495781.961,28.511005
1434495781.977,31.893791
1434495781.992,35.388927
1434495782.008,38.950188
1434495782.023,42.300087
1434495782.039,44.8767
1434495782.055,45.907825
1434495782.07,44.642124
1434495782.086,40.6348
1434495782.102,33.951077
1434495782.117,25.20963
1434495782.133,15.4113655
1434495782.148,5.629261
1434495782.164,-3.2476158
1434495782.18,-10.700119
1434495782.195,-16.554958
1434495782.211,-20.859009
1434495782.227,-23.727966
1434495782.242,-25.304947
1434495782.258,-25.74337
1434495782.273,-25.255287
1434495782.289,-24.114605
1434495782.305,-22.628307
1434495782.32,-21.053936
1434495782.336,-19.579262
1434495782.352,-18.279102
1434495782.367,-17.209332
1434495782.383,-16.420658
1434495782.398,-15.977993
1434495782.414,-15.938374
1434495782.43,-16.29023
1434495782.445,-16.899426
1434495782.461,-17.548843
1434495782.477,-17.986694
1434495782.492,-18.020573
1434495782.508,-17.553036
1434495782.523,-16.627993
1434495782.539,-15.327154
1434495782.555,-13.763016
1434495782.57,-11.994337
1434495782.586,-9.995192
1434495782.602,-7.696644
1434495782.617,-5.038025
1434495782.633,-2.0003529
1434495782.648,1.3378582
1434495782.664,4.838974
1434495782.68,8.37012
1434495782.695,11.836735
1434495782.711,15.199245
1434495782.727,18.481256
1434495782.742,21.751606
1434495782.758,25.11808
1434495782.773,28.723316
1434495782.789,32.655617
1434495782.805,36.807884
1434495782.82,40.76367
1434495782.836,43.773476
1434495782.852,44.95563
1434495782.867,43.565994
1434495782.883,39.325016
1434495782.898,32.50398
1434495782.914,23.851992
1434495782.93,14.312405
1434495782.945,4.783371
1434495782.961,-4.056937
1434495782.977,-11.735007
1434495782.992,-17.961143
1434495783.008,-22.575085
1434495783.023,-25.555872
1434495783.039,-27.045034
1434495783.055,-27.372429
1434495783.07,-26.924906
1434495783.086,-26.073166
1434495783.102,-25.04989
1434495783.117,-23.944822
1434495783.133,-22.708632
1434495783.148,-21.265427
1434495783.164,-19.600554
1434495783.18,-17.878124
1434495783.195,-16.407385
1434495783.211,-15.595268
1434495783.227,-15.751762
1434495783.242,-16.910755
1434495783.258,-18.777128
1434495783.273,-20.821476
1434495783.289,-22.472012
1434495783.305,-23.358232
1434495783.32,-23.375183
1434495783.336,-22.62374
1434495783.352,-21.260904
1434495783.367,-19.420311
1434495783.383,-17.1549
1434495783.398,-14.542246
1434495783.414,-11.706549
1434495783.43,-8.797022
1434495783.445,-5.9067383
1434495783.461,-3.0624218
1434495783.477,-0.13871384
1434495783.492,2.9711475
1434495783.508,6.329359
1434495783.524,9.917274
1434495783.539,13.669388
1434495783.555,17.494692
1434495783.57,21.367916
1434495783.586,25.292747
1434495783.602,29.21664
1434495783.617,32.90853
1434495783.633,35.897587
1434495783.648,37.453033
1434495783.664,36.82292
1434495783.68,33.469723
1434495783.695,27.344143
1434495783.711,18.993263
1434495783.727,9.444088
1434495783.742,-0.11012268
1434495783.758,-8.666279
1434495783.774,-15.690357
1434495783.789,-21.076897
1434495783.805,-25.026772
1434495783.82,-27.754799
1434495783.836,-29.376804
1434495783.852,-29.877628
1434495783.867,-29.273342
1434495783.883,-27.702347
1434495783.899,-25.457985
1434495783.914,-22.947868
1434495783.93,-20.544884
1434495783.945,-18.47948
1434495783.961,-16.881973
1434495783.977,-15.73592
1434495783.992,-15.020233
1434495784.008,-14.692223
1434495784.024,-14.742752
1434495784.039,-15.079563
1434495784.055,-15.591938
1434495784.07,-16.081493
1434495784.086,-16.326687
1434495784.102,-16.15005
1434495784.117,-15.493408
1434495784.133,-14.362825
1434495784.149,-12.792313
1434495784.164,-10.7494755
1434495784.18,-8.16614
1434495784.195,-5.00968
1434495784.211,-1.3991547
1434495784.227,2.3572826
1434495784.242,5.865206
1434495784.258,8.8276825
1434495784.274,11.225002
1434495784.289,13.345104
1434495784.305,15.645849
1434495784.32,18.551788
1434495784.336,22.21848
1434495784.352,26.493673
1434495784.367,30.931896
1434495784.383,34.945564
1434495784.399,37.928986
1434495784.414,39.35046
1434495784.43,38.79411
1434495784.445,36.04918
1434495784.461,31.169119
1434495784.477,24.52059
1434495784.492,16.73362
1434495784.508,8.578039
1434495784.524,0.74679947
1434495784.539,-6.1961803
1434495784.555,-11.941889
1434495784.57,-16.382755
1434495784.586,-19.573624
1434495784.602,-21.59721
1434495784.617,-22.559513
1434495784.633,-22.50743
1434495784.649,-21.485434
1434495784.664,-19.578512
1434495784.68,-17.001059
1434495784.695,-14.1357765
1434495784.711,-11.456034
1434495784.727,-9.412493
1434495784.742,-8.275537
1434495784.758,-8.044641
1434495784.774,-8.480633
1434495784.789,-9.20409
1434495784.805,-9.889
1434495784.82,-10.311644
1434495784.836,-10.386568
1434495784.852,-10.095558
1434495784.867,-9.428733
1434495784.883,-8.363447
1434495784.899,-6.8901024
1434495784.914,-5.0142336
1434495784.93,-2.8074932
1434495784.945,-0.35621166
1434495784.961,2.2368622
1434495784.977,4.9044094
1434495784.992,7.6065626
1434495785.008,10.336671
1434495785.024,13.158331
1434495785.039,16.158417
1434495785.055,19.444386
1434495785.07,23.109577
1434495785.086,27.168346
1434495785.102,31.560493
1434495785.117,36.038727
1434495785.133,40.177807
1434495785.149,43.32553
1434495785.164,44.731068
1434495785.18,43.69236
1434495785.195,39.82178
1434495785.211,33.2435
1434495785.227,24.634502
1434495785.242,15.025157
1434495785.258,5.498596
1434495785.274,-3.1206532
1434495785.289,-10.398771
1434495785.305,-16.246635
1434495785.32,-20.73439
1434495785.336,-23.956509
1434495785.352,-25.94603
1434495785.367,-26.752436
1434495785.383,-26.461859
1434495785.399,-25.24718
1434495785.414,-23.328024
1434495785.43,-20.936167
1434495785.445,-18.314653
1434495785.461,-15.714022
1434495785.477,-13.384859
1434495785.492,-11.5731125
1434495785.508,-10.424782
1434495785.524,-9.9626255
1434495785.539,-10.037928
1434495785.555,-10.401945
1434495785.57,-10.778637
1434495785.586,-10.939867
1434495785.602,-10.737028
1434495785.617,-10.148432
1434495785.633,-9.194422
1434495785.649,-7.9261627
1434495785.664,-6.3441277
1434495785.68,-4.422041
1434495785.695,-2.116024
1434495785.711,0.5533142
1434495785.727,3.5064297
1434495785.742,6.5831337
1434495785.758,9.636442
1434495785.774,12.613277
1434495785.789,15.565689
1434495785.805,18.597782
1434495785.82,21.799671
1434495785.836,25.191757
1434495785.852,28.770542
1434495785.867,32.500793
1434495785.883,36.3535
1434495785.899,40.163273
1434495785.914,43.524815
1434495785.93,45.735737
1434495785.945,45.956932
1434495785.961,43.51061
1434495785.977,38.195473
1434495785.992,30.406189
1434495786.008,21.020096
1434495786.024,11.089134
1434495786.039,1.5351219
1434495786.055,-7.030842
1434495786.07,-14.293888
1434495786.086,-20.150951
1434495786.102,-24.561855
1434495786.117,-27.566238
1434495786.133,-29.26056
1434495786.149,-29.827068
1434495786.164,-29.494175
1434495786.18,-28.499466
1434495786.195,-27.018925
1434495786.211,-25.199253
1434495786.227,-23.188267
1434495786.242,-21.171219
1434495786.258,-19.382397
1434495786.274,-18.064903
1434495786.289,-17.404491
1434495786.305,-17.492287
1434495786.32,-18.238358
1434495786.336,-19.392323
1434495786.352,-20.550163
1434495786.367,-21.291065
1434495786.383,-21.256763
1434495786.399,-20.300869
1434495786.414,-18.473995
1434495786.43,-16.00787
1434495786.446,-13.185703
1434495786.461,-10.277115
1434495786.477,-7.45039
1434495786.492,-4.7781944
1434495786.508,-2.2377625
1434495786.524,0.29613876
1434495786.539,2.9564018
1434495786.555,5.8560333
1434495786.571,9.041561
1434495786.586,12.43647
1434495786.602,15.89761
1434495786.617,19.238155
1434495786.633,22.357758
1434495786.649,25.264069
1434495786.664,28.125648
1434495786.68,31.155308
1434495786.696,34.47244
1434495786.711,37.9818
1434495786.727,41.25602
1434495786.742,43.57927
1434495786.758,44.075043
1434495786.774,42.010017
1434495786.789,37.039497
1434495786.805,29.381653
1434495786.821,19.803612
1434495786.836,9.381935
1434495786.852,-0.78027344
1434495786.867,-9.837837
1434495786.883,-17.271774
1434495786.899,-22.882416
1434495786.914,-26.67112
1434495786.93,-28.798996
1434495786.946,-29.53032
1434495786.961,-29.239594
1434495786.977,-28.332977
1434495786.992,-27.199211
1434495787.008,-26.10521
1434495787.024,-25.159035
1434495787.039,-24.32888
1434495787.055,-23.555801
1434495787.071,-22.798874
1434495787.086,-22.080414
1434495787.102,-21.460579
1434495787.117,-21.041893
1434495787.133,-20.885735
1434495787.149,-21.015991
1434495787.164,-21.355293
1434495787.18,-21.721619
1434495787.196,-21.853333
1434495787.211,-21.494263
1434495787.227,-20.483536
1434495787.242,-18.843727
1434495787.258,-16.766907
1434495787.274,-14.50457
1434495787.289,-12.26207
1434495787.305,-10.109535
1434495787.321,-7.9804
1434495787.336,-5.7302246
1434495787.352,-3.226509
1434495787.367,-0.39375305
1434495787.383,2.773323
1434495787.399,6.186592
1434495787.414,9.737732
1434495787.43,13.288704
1434495787.446,16.720901
1434495787.461,19.96563
1434495787.477,23.05381
1434495787.492,26.095291
1434495787.508,29.239258
1434495787.524,32.579178
1434495787.539,36.040237
1434495787.555,39.257744
1434495787.571,41.627068
1434495787.586,42.35292
1434495787.602,40.74713
1434495787.617,36.449455
1434495787.633,29.60962
1434495787.649,20.887123
1434495787.664,11.257591
1434495787.68,1.7202454
1434495787.696,-6.9410706
1434495787.711,-14.285576
1434495787.727,-20.143646
1434495787.742,-24.503593
1434495787.758,-27.393929
1434495787.774,-28.911957
1434495787.789,-29.220604
1434495787.805,-28.608719
1434495787.821,-27.42141
1434495787.836,-25.954124
1434495787.852,-24.382912
1434495787.867,-22.785675
1434495787.883,-21.20951
1434495787.899,-19.777939
1434495787.914,-18.677483
1434495787.93,-18.113632
1434495787.946,-18.176422
1434495787.961,-18.830742
1434495787.977,-19.876225
1434495787.992,-21.06768
1434495788.008,-22.173939
1434495788.024,-23.004784
1434495788.039,-23.41819
1434495788.055,-23.337658
1434495788.071,-22.709206
1434495788.086,-21.575695
1434495788.102,-20.033573
1434495788.117,-18.229889
1434495788.133,-16.271217
1434495788.149,-14.175182
1434495788.164,-11.8592
1434495788.18,-9.189121
1434495788.196,-6.0592346
1434495788.211,-2.4298553
1434495788.227,1.6182747
1434495788.242,5.8714027
1434495788.258,10.044788
1434495788.274,13.840473
1434495788.289,17.078838
1434495788.305,19.798141
1434495788.321,22.266125
1434495788.336,24.849922
1434495788.352,27.823303
1434495788.367,31.104572
1434495788.383,34.201077
1434495788.399,36.335384
1434495788.414,36.725155
1434495788.43,34.876503
1434495788.446,30.76645
1434495788.461,24.811514
1434495788.477,17.672062
1434495788.492,10.033791
1434495788.508,2.4685993
1434495788.524,-4.632307
1434495788.539,-10.948345
1434495788.555,-16.224785
1434495788.571,-20.230778
1434495788.586,-22.786125
1434495788.602,-23.824203
1434495788.617,-23.429276
1434495788.633,-21.825642
1434495788.649,-19.333858
1434495788.664,-16.330698
1434495788.68,-13.191461
1434495788.696,-10.233338
1434495788.711,-7.7179985
1434495788.727,-5.7668457
1434495788.742,-4.4264183
1434495788.758,-3.6245465
1434495788.774,-3.2134314
1434495788.789,-3.0083742
1434495788.805,-2.8488832
1434495788.821,-2.6300879
1434495788.836,-2.3430207
1434495788.852,-2.0195432
1434495788.867,-1.6885448
1434495788.883,-1.3137805
1434495788.899,-0.7914715
1434495788.914,0.059466124
1434495788.93,1.3969588
1434495788.946,3.2753959
1434495788.961,5.678789
1434495788.977,8.494968
1434495788.992,11.572142
1434495789.008,14.792195
1434495789.024,18.042513
1434495789.039,21.242489
1434495789.055,24.308895
1434495789.071,27.182274
1434495789.086,29.860054
1434495789.102,32.45967
1434495789.118,35.15309
1434495789.133,38.04223
1434495789.149,41.02463
1434495789.164,43.634483
1434495789.18,45.116806
1434495789.196,44.631294
1434495789.211,41.55844
1434495789.227,35.76585
1434495789.243,27.69478
1434495789.258,18.23867
1434495789.274,8.440391
1434495789.289,-0.77983093
1434495789.305,-8.836707
1434495789.321,-15.463177
1434495789.336,-20.610405
1434495789.352,-24.3079
1434495789.368,-26.601463
1434495789.383,-27.53498
1434495789.399,-27.19502
1434495789.414,-25.737627
1434495789.43,-23.394695
1434495789.446,-20.491156
1434495789.461,-17.408451
1434495789.477,-14.527155
1434495789.493,-12.173222
1434495789.508,-10.559298
1434495789.524,-9.736576
1434495789.539,-9.580272
1434495789.555,-9.861913
1434495789.571,-10.301038
1434495789.586,-10.681506
1434495789.602,-10.844215
1434495789.618,-10.73781
1434495789.633,-10.354311
1434495789.649,-9.69712
1434495789.664,-8.726507
1434495789.68,-7.370943
1434495789.696,-5.539262
1434495789.711,-3.1492662
1434495789.727,-0.1592865
1434495789.743,3.3752985
1434495789.758,7.3002095
1434495789.774,11.365599
1434495789.789,15.313523
1434495789.805,18.95237
1434495789.821,22.258984
1434495789.836,25.391205
1434495789.852,28.6512
1434495789.868,32.296883
1434495789.883,36.375698
1434495789.899,40.58536
1434495789.914,44.26169
1434495789.93,46.508198
1434495789.946,46.50231
1434495789.961,43.73208
1434495789.977,38.20624
1434495789.993,30.432594
1434495790.008,21.259972
1434495790.024,11.591604
1434495790.039,2.2247047
1434495790.055,-6.314781
1434495790.071,-13.694168
1434495790.086,-19.705708
1434495790.102,-24.208237
1434495790.118,-27.162115
1434495790.133,-28.64687
1434495790.149,-28.860577
1434495790.164,-28.03878
1434495790.18,-26.39698
1434495790.196,-24.106604
1434495790.211,-21.38322
1434495790.227,-18.52887
1434495790.243,-15.961267
1434495790.258,-14.0714855
1434495790.274,-13.0645075
1434495790.289,-12.874241
1434495790.305,-13.219162
1434495790.321,-13.751062
1434495790.336,-14.235746
1434495790.352,-14.591571
1434495790.368,-14.832736
1434495790.383,-14.9142065
1434495790.399,-14.688288
1434495790.414,-13.930874
1434495790.43,-12.485523
1434495790.446,-10.337984
1434495790.461,-7.627901
1434495790.477,-4.5445595
1434495790.493,-1.2545338
1434495790.508,2.1469193
1434495790.524,5.598076
1434495790.539,9.095205
1434495790.555,12.61685
1434495790.571,16.174183
1434495790.586,19.800282
1434495790.602,23.544538
1434495790.618,27.467682
1434495790.633,31.60997
1434495790.649,35.946045
1434495790.664,40.332085
1434495790.68,44.384125
1434495790.696,47.445755
1434495790.711,48.70013
1434495790.727,47.391064
1434495790.743,43.085743
1434495790.758,35.89668
1434495790.774,26.46595
1434495790.789,15.7976265
1434495790.805,4.966076
1434495790.821,-5.1134644
1434495790.836,-13.811062
1434495790.852,-20.753757
1434495790.868,-25.792896
1434495790.883,-28.915844
1434495790.899,-30.267532
1434495790.914,-30.150593
1434495790.93,-29.011192
1434495790.946,-27.339817
1434495790.961,-25.576283
1434495790.977,-23.988194
1434495790.993,-22.670448
1434495791.008,-21.593487
1434495791.024,-20.692398
1434495791.039,-19.931393
1434495791.055,-19.373714
1434495791.071,-19.127144
1434495791.086,-19.303623
1434495791.102,-19.88818
1434495791.118,-20.720947
1434495791.133,-21.49408
1434495791.149,-21.87399
1434495791.164,-21.571095
1434495791.18,-20.471977
1434495791.196,-18.631756
1434495791.211,-16.215485
1434495791.227,-13.420864
1434495791.243,-10.414749
1434495791.258,-7.290615
1434495791.274,-4.0934296
1434495791.289,-0.8622818
1434495791.305,2.371666
1434495791.321,5.5793114
1434495791.336,8.743359
1434495791.352,11.912601
1434495791.368,15.151615
1434495791.383,18.563835
1434495791.399,22.26472
1434495791.414,26.31813
1434495791.43,30.692604
1434495791.446,35.18537
1434495791.461,39.337006
1434495791.477,42.487495
1434495791.493,43.857315
1434495791.508,42.800056
1434495791.524,38.973442
1434495791.539,32.530846
1434495791.555,24.04956
1434495791.571,14.428581
1434495791.586,4.620041
1434495791.602,-4.532982
1434495791.618,-12.443962
1434495791.633,-18.789963
1434495791.649,-23.47322
1434495791.664,-26.571915
1434495791.68,-28.275246
1434495791.696,-28.85743
1434495791.711,-28.608757
1434495791.727,-27.775673
1434495791.743,-26.534752
1434495791.758,-24.974052
1434495791.774,-23.162506
1434495791.79,-21.230324
1434495791.805,-19.418396
1434495791.821,-18.041763
1434495791.836,-17.399345
1434495791.852,-17.610474
1434495791.868,-18.560692
1434495791.883,-19.923882
1434495791.899,-21.304115
1434495791.915,-22.339165
1434495791.93,-22.821877
1434495791.946,-22.691193
1434495791.961,-21.945663
1434495791.977,-20.623726
1434495791.993,-18.784256
1434495792.008,-16.53366
1434495792.024,-14.0492325
1434495792.04,-11.536217
1434495792.055,-9.156326
1434495792.071,-6.954468
1434495792.086,-4.8558655
1434495792.102,-2.698471
1434495792.118,-0.3360901
1434495792.133,2.3239365
1434495792.149,5.306877
1434495792.165,8.583031
1434495792.18,12.089409
1434495792.196,15.791008
1434495792.211,19.6781
1434495792.227,23.723122
1434495792.243,27.814972
1434495792.258,31.648445
1434495792.274,34.672226
1434495792.29,36.148125
1434495792.305,35.34423
1434495792.321,31.817337
1434495792.336,25.652382
1434495792.352,17.50597
1434495792.368,8.426617
1434495792.383,-0.4711914
1434495792.399,-8.36422
1434495792.415,-14.8324585
1434495792.43,-19.85918
1434495792.446,-23.635838
1434495792.461,-26.352749
1434495792.477,-28.098839
1434495792.493,-28.876202
1434495792.508,-28.664745
1434495792.524,-27.516453
1434495792.54,-25.57027
1434495792.555,-23.066921
1434495792.571,-20.306046
1434495792.586,-17.608692
1434495792.602,-15.280357
1434495792.618,-13.583023
1434495792.633,-12.7086525
1434495792.649,-12.723877
1434495792.665,-13.513798
1434495792.68,-14.802036
1434495792.696,-16.171326
1434495792.711,-17.167953
1434495792.727,-17.429585
1434495792.743,-16.79964
1434495792.758,-15.349644
1434495792.774,-13.316093
1434495792.79,-10.987194
1434495792.805,-8.560909
1434495792.821,-6.095707
1434495792.836,-3.5637455
1434495792.852,-0.89835167
1434495792.868,1.9509315
1434495792.883,4.9940453
1434495792.899,8.245897
1434495792.915,11.745283
1434495792.93,15.494791
1434495792.946,19.468954
1434495792.961,23.578217
1434495792.977,27.738983
1434495792.993,31.87113
1434495793.008,35.902824
1434495793.024,39.633698
1434495793.04,42.66983
1434495793.055,44.41146
1434495793.071,44.22837
1434495793.086,41.724014
1434495793.102,36.91044
1434495793.118,30.254623
1434495793.133,22.487122
1434495793.149,14.340395
1434495793.165,6.3623276
1434495793.18,-1.1157694
1434495793.196,-7.866977
1434495793.211,-13.672653
1434495793.227,-18.272846
1434495793.243,-21.437464
1434495793.258,-23.051344
1434495793.274,-23.144344
1434495793.29,-21.884163
1434495793.305,-19.570337
1434495793.321,-16.568983
1434495793.336,-13.339809
1434495793.352,-10.350959
1434495793.368,-7.995161
1434495793.383,-6.4816365
1434495793.399,-5.7936726
1434495793.415,-5.71236
1434495793.43,-5.9491467
1434495793.446,-6.2569857
1434495793.461,-6.490735
1434495793.477,-6.57462
1434495793.493,-6.4616413
1434495793.508,-6.0534215
1434495793.524,-5.2240143
1434495793.54,-3.848899
1434495793.555,-1.8761358
1434495793.571,0.6343527
1434495793.586,3.5307379
1434495793.602,6.6250916
1434495793.618,9.769791
1434495793.633,12.9031105
1434495793.649,16.05706
1434495793.665,19.30391
1434495793.68,22.713737
1434495793.696,26.317213
1434495793.711,30.098549
1434495793.727,33.9876
1434495793.743,37.816204
1434495793.758,41.246933
1434495793.774,43.750057
1434495793.79,44.678074
1434495793.805,43.410492
1434495793.821,39.628197
1434495793.836,33.445175
1434495793.852,25.426758
1434495793.868,16.436016
1434495793.883,7.3668766
1434495793.899,-1.0638895
1434495793.915,-8.384462
1434495793.93,-14.378676
1434495793.946,-18.972885
1434495793.961,-22.21229
1434495793.977,-24.160551
1434495793.993,-24.965214
1434495794.008,-24.759293
1434495794.024,-23.68544
1434495794.04,-21.903625
1434495794.055,-19.618347
1434495794.071,-17.085352
1434495794.086,-14.612787
1434495794.102,-12.468876
1434495794.118,-10.825903
1434495794.133,-9.718193
1434495794.149,-9.087458
1434495794.165,-8.831648
1434495794.18,-8.867
1434495794.196,-9.120656
1434495794.211,-9.477479
1434495794.227,-9.757591
1434495794.243,-9.737251
1434495794.258,-9.196358
1434495794.274,-8.031172
1434495794.29,-6.2527843
1434495794.305,-4.006604
1434495794.321,-1.4993608
1434495794.336,1.0655881
1434495794.352,3.544632
1434495794.368,5.8944244
1434495794.383,8.15861
1434495794.399,10.475335
1434495794.415,13.046591
1434495794.43,16.053131
1434495794.446,19.64276
1434495794.462,23.86452
1434495794.477,28.64938
1434495794.493,33.716175
1434495794.508,38.567043
1434495794.524,42.489162
1434495794.54,44.68187
1434495794.555,44.40953
1434495794.571,41.271442
1434495794.586,35.325554
1434495794.602,27.123398
1434495794.618,17.53534
1434495794.633,7.581088
1434495794.649,-1.848733
1434495794.665,-10.086396
1434495794.68,-16.76926
1434495794.696,-21.779682
1434495794.712,-25.207113
1434495794.727,-27.266262
1434495794.743,-28.229858
1434495794.758,-28.34949
1434495794.774,-27.824556
1434495794.79,-26.789177
1434495794.805,-25.357622
1434495794.821,-23.669107
1434495794.837,-21.925722
1434495794.852,-20.326769
1434495794.868,-19.037449
1434495794.883,-18.100636
1434495794.899,-17.457174
1434495794.915,-16.983055
1434495794.93,-16.612339
1434495794.946,-16.321678
1434495794.962,-16.117931
1434495794.977,-15.951597
1434495794.993,-15.65744
1434495795.008,-15.000372
1434495795.024,-13.771111
1434495795.04,-11.876841
1434495795.055,-9.421696
1434495795.071,-6.670908
1434495795.087,-3.8985405
1434495795.102,-1.2440376
1434495795.118,1.3142929
1434495795.133,3.9829788
1434495795.149,6.98551
1434495795.165,10.43779
1434495795.18,14.275433
1434495795.196,18.285856
1434495795.212,22.219336
1434495795.227,25.937984
1434495795.243,29.482653
1434495795.258,33.042206
1434495795.274,36.770508
1434495795.29,40.583553
1434495795.305,43.99725
1434495795.321,46.187626
1434495795.337,46.226967
1434495795.352,43.46927
1434495795.368,37.79594
1434495795.383,29.695328
1434495795.399,20.082794
1434495795.415,10.014587
1434495795.43,0.37371063
1434495795.446,-8.245346
1434495795.462,-15.541634
1434495795.477,-21.389778
1434495795.493,-25.733189
1434495795.508,-28.574795
1434495795.524,-30.02267
1434495795.54,-30.311302
1434495795.555,-29.761803
1434495795.571,-28.721619
1434495795.587,-27.45018
1434495795.602,-26.080624
1434495795.618,-24.672012
1434495795.633,-23.273102
1434495795.649,-21.995602
1434495795.665,-21.005543
1434495795.68,-20.482239
1434495795.696,-20.545696
1434495795.712,-21.189548
1434495795.727,-22.230751
1434495795.743,-23.370342
1434495795.758,-24.26373
1434495795.774,-24.620602
1434495795.79,-24.264198
1434495795.805,-23.175903
1434495795.821,-21.466434
1434495795.837,-19.325996
1434495795.852,-16.983788
1434495795.868,-14.64101
1434495795.883,-12.410561
1434495795.899,-10.278099
1434495795.915,-8.106834
1434495795.93,-5.6887894
1434495795.946,-2.8561554
1434495795.962,0.43884277
1434495795.977,4.1079483
1434495795.993,7.9393845
1434495796.008,11.701729
1434495796.024,15.228252
1434495796.04,18.455444
1434495796.055,21.431606
1434495796.071,24.290775
1434495796.087,27.20993
1434495796.102,30.330517
1434495796.118,33.673653
1434495796.133,37.027527
1434495796.149,39.895412
1434495796.165,41.575806
1434495796.18,41.31786
1434495796.196,38.60142
1434495796.212,33.320675
1434495796.227,25.86301
1434495796.243,16.971958
1434495796.258,7.548004
1434495796.274,-1.5925865
1434495796.29,-9.8008995
1434495796.305,-16.67062
1434495796.321,-21.95287
1434495796.337,-25.564137
1434495796.352,-27.551567
1434495796.368,-28.1125
1434495796.383,-27.575657
1434495796.399,-26.358856
1434495796.415,-24.851295
1434495796.43,-23.335575
1434495796.446,-21.968899
1434495796.462,-20.801922
1434495796.477,-19.816906
1434495796.493,-19.048752
1434495796.508,-18.56778
1434495796.524,-18.476982
1434495796.54,-18.818645
1434495796.555,-19.52863
1434495796.571,-20.414415
1434495796.587,-21.253803
1434495796.602,-21.82403
1434495796.618,-21.98764
1434495796.633,-21.680408
1434495796.649,-20.888977
1434495796.665,-19.614634
1434495796.68,-17.908691
1434495796.696,-15.855448
1434495796.712,-13.602304
1434495796.727,-11.275845
1434495796.743,-8.91073
1434495796.758,-6.4651966
1434495796.774,-3.869135
1434495796.79,-1.0471687
1434495796.805,1.9295082
1434495796.821,4.936331
1434495796.837,7.8170214
1434495796.852,10.519268
1434495796.868,13.089186
1434495796.883,15.715043
1434495796.899,18.62156
1434495796.915,21.990837
1434495796.93,25.826822
1434495796.946,29.88352
1434495796.962,33.589382
1434495796.977,36.147823
1434495796.993,36.68555
1434495797.008,34.583366
1434495797.024,29.700842
1434495797.04,22.461853
1434495797.055,13.734179
1434495797.071,4.574603
1434495797.087,-4.096625
1434495797.102,-11.640541
1434495797.118,-17.753258
1434495797.133,-22.356121
1434495797.149,-25.508492
1434495797.165,-27.296385
1434495797.18,-27.831894
1434495797.196,-27.212128
1434495797.212,-25.553144
1434495797.227,-23.02623
1434495797.243,-19.864408
1434495797.258,-16.40636
1434495797.274,-13.063133
1434495797.29,-10.195883
1434495797.305,-8.028248
1434495797.321,-6.6001377
1434495797.337,-5.792715
1434495797.352,-5.4024525
1434495797.368,-5.2428017
1434495797.384,-5.1502953
1434495797.399,-4.9941654
1434495797.415,-4.6327744
1434495797.43,-3.9651642
1434495797.446,-2.923317
1434495797.462,-1.5252495
1434495797.477,0.18416977
1434495797.493,2.144287
1434495797.509,4.353958
1434495797.524,6.8475113
1434495797.54,9.648945
1434495797.555,12.708477
1434495797.571,15.905224
1434495797.587,19.094196
1434495797.602,22.145313
1434495797.618,25.004238
1434495797.634,27.71772
1434495797.649,30.404816
1434495797.665,33.24291
1434495797.68,36.354145
1434495797.696,39.70786
1434495797.712,42.9845
1434495797.727,45.574444
1434495797.743,46.681435
1434495797.759,45.588573
1434495797.774,41.908882
1434495797.79,35.756706
1434495797.805,27.701168
1434495797.821,18.586628
1434495797.837,9.293266
1434495797.852,0.56560516
1434495797.868,-7.090317
1434495797.884,-13.365707
1434495797.899,-18.137016
1434495797.915,-21.392216
1434495797.93,-23.24318
1434495797.946,-23.867554
1434495797.962,-23.457275
1434495797.977,-22.190067
1434495797.993,-20.236774
1434495798.009,-17.779636
1434495798.024,-15.06517
1434495798.04,-12.366268
1434495798.055,-9.941818
1434495798.071,-7.9804764
1434495798.087,-6.5760345
1434495798.102,-5.7119217
1434495798.118,-5.3446274
1434495798.134,-5.3813057
1434495798.149,-5.707588
1434495798.165,-6.144371
1434495798.18,-6.4861946
1434495798.196,-6.4608307
1434495798.212,-5.8508186
1434495798.227,-4.50222
1434495798.243,-2.4121513
1434495798.259,0.26804733
1434495798.274,3.269909
1434495798.29,6.3230324
1434495798.305,9.214989
1434495798.321,11.878677
1434495798.337,14.406109
1434495798.352,16.991543
1434495798.368,19.837402
1434495798.384,23.111443
1434495798.399,26.876125
1434495798.415,31.135918
1434495798.43,35.722607
1434495798.446,40.290565
1434495798.462,44.24772
1434495798.477,46.82131
1434495798.493,47.20853
1434495798.509,44.830383
1434495798.524,39.54189
1434495798.54,31.725304
1434495798.555,22.17493
1434495798.571,11.890301
1434495798.587,1.8072395
1434495798.602,-7.3340187
1434495798.618,-15.0580635
1434495798.634,-21.110985
1434495798.649,-25.42698
1434495798.665,-28.053375
1434495798.68,-29.168705
1434495798.696,-29.009357
1434495798.712,-27.881824
1434495798.727,-26.05347
1434495798.743,-23.79361
1434495798.759,-21.349968
1434495798.774,-18.991337
1434495798.79,-16.964436
1434495798.805,-15.473492
1434495798.821,-14.623989
1434495798.837,-14.395527
1434495798.852,-14.645615
1434495798.868,-15.152546
1434495798.884,-15.6411915
1434495798.899,-15.861221
1434495798.915,-15.600908
1434495798.93,-14.75794
1434495798.946,-13.324667
1434495798.962,-11.416178
1434495798.977,-9.174677
1434495798.993,-6.7527313
1434495799.009,-4.230877
1434495799.024,-1.6304436
1434495799.04,1.0700607
1434495799.055,3.8895702
1434495799.071,6.805784
1434495799.087,9.789085
1434495799.102,12.821323
1434495799.118,15.924982
1434495799.134,19.197056
1434495799.149,22.778166
1434495799.165,26.836222
1434495799.18,31.445576
1434495799.196,36.52268
1434495799.212,41.683357
1434495799.227,46.260395
1434495799.243,49.35393
1434495799.259,50.098045
1434495799.274,47.884125
1434495799.29,42.538055
1434495799.305,34.417233
1434495799.321,24.313957
1434495799.337,13.27419
1434495799.352,2.3523893
1434495799.368,-7.5493526
1434495799.384,-15.829668
1434495799.399,-22.22463
1434495799.415,-26.7597
1434495799.43,-29.672745
1434495799.446,-31.271072
1434495799.462,-31.851028
1434495799.477,-31.597548
1434495799.493,-30.666666
1434495799.509,-29.194206
1434495799.524,-27.386875
1434495799.54,-25.506962
1434495799.555,-23.814163
1434495799.571,-22.49981
1434495799.587,-21.642204
1434495799.602,-21.207005
1434495799.618,-21.091158
1434495799.634,-21.169268
1434495799.649,-21.304537
1434495799.665,-21.367252
1434495799.68,-21.22801
1434495799.696,-20.773376
1434495799.712,-19.913074
1434495799.727,-18.578775
1434495799.743,-16.75239
1434495799.759,-14.443401
1434495799.774,-11.738855
1434495799.79,-8.747541
1434495799.805,-5.641304
1434495799.821,-2.5875072
1434495799.837,0.29478264
1434495799.852,2.9661083
1434495799.868,5.5038414
1434495799.884,8.06805
1434495799.899,10.846745
1434495799.915,13.995716
1434495799.93,17.611315
1434495799.946,21.722816
1434495799.962,26.275574
1434495799.977,31.15693
1434495799.993,36.066856
1434495800.009,40.49768
1434495800.024,43.722275
1434495800.04,44.929695
1434495800.056,43.453514
1434495800.071,39.02858
1434495800.087,31.925526
1434495800.102,22.876364
1434495800.118,12.888651
1434495800.134,2.9358559
1434495800.149,-6.227577
1434495800.165,-14.1075
1434495800.181,-20.46222
1434495800.196,-25.181395
1434495800.212,-28.271597
1434495800.227,-29.863153
1434495800.243,-30.231878
1434495800.259,-29.724922
1434495800.274,-28.726683
1434495800.29,-27.500994
1434495800.306,-26.20974
1434495800.321,-24.923393
1434495800.337,-23.731499
1434495800.352,-22.776728
1434495800.368,-22.243345
1434495800.384,-22.273287
1434495800.399,-22.86592
1434495800.415,-23.864079
1434495800.431,-24.992846
1434495800.446,-25.948503
1434495800.462,-26.500763
1434495800.477,-26.490229
1434495800.493,-25.89038
1434495800.509,-24.74783
1434495800.524,-23.202742
1434495800.54,-21.38418
1434495800.556,-19.44864
1434495800.571,-17.484745
1434495800.587,-15.504417
1434495800.602,-13.451965
1434495800.618,-11.226957
1434495800.634,-8.754423
1434495800.649,-6.011648
1434495800.665,-2.998726
1434495800.681,0.24515915
1434495800.696,3.6859493
1434495800.712,7.2772446
1434495800.727,10.980482
1434495800.743,14.765749
1434495800.759,18.65622
1434495800.774,22.684961
1434495800.79,26.824594
1434495800.806,30.862057
1434495800.821,34.324295
1434495800.837,36.490124
1434495800.852,36.615658
1434495800.868,34.19452
1434495800.884,29.188213
1434495800.899,22.091618
1434495800.915,13.795123
1434495800.931,5.294717
1434495800.946,-2.5807528
1434495800.962,-9.336597
1434495800.977,-14.77792
1434495800.993,-18.921434
1434495801.009,-21.859385
1434495801.024,-23.717268
1434495801.04,-24.57231
1434495801.056,-24.535519
1434495801.071,-23.757465
1434495801.087,-22.428188
1434495801.102,-20.789463
1434495801.118,-19.102186
1434495801.134,-17.615273
1434495801.149,-16.533241
1434495801.165,-15.952992
1434495801.181,-15.86291
1434495801.196,-16.146696
1434495801.212,-16.63566
1434495801.227,-17.146738
1434495801.243,-17.531113
1434495801.259,-17.68349
1434495801.274,-17.53995
1434495801.29,-17.049284
1434495801.306,-16.197344
1434495801.321,-14.958378
1434495801.337,-13.337254
1434495801.352,-11.35425
1434495801.368,-9.058193
1434495801.384,-6.4957123
1434495801.399,-3.7279053
1434495801.415,-0.7774277
1434495801.431,2.365528
1434495801.446,5.708744
1434495801.462,9.214119
1434495801.477,12.792618
1434495801.493,16.31155
1434495801.509,19.643063
1434495801.524,22.757912
1434495801.54,25.752285
1434495801.556,28.804585
1434495801.571,32.022987
1434495801.587,35.3037
1434495801.602,38.231304
1434495801.618,40.127266
1434495801.634,40.27676
1434495801.649,38.170517
1434495801.665,33.74542
1434495801.681,27.414894
1434495801.696,19.960052
1434495801.712,12.25074
1434495801.727,4.997223
1434495801.743,-1.3957748
1434495801.759,-6.801857
1434495801.774,-11.248955
1434495801.79,-14.745125
1434495801.806,-17.213676
1434495801.821,-18.530334
1434495801.837,-18.626617
1434495801.852,-17.56121
1434495801.868,-15.587387
1434495801.884,-13.074364
1434495801.899,-10.441467
1434495801.915,-8.084831
1434495801.931,-6.2992783
1434495801.946,-5.24852
1434495801.962,-4.930649
1434495801.977,-5.148163
1434495801.993,-5.6011963
1434495802.009,-5.9771194
1434495802.024,-6.0717316
1434495802.04,-5.8498917
1434495802.056,-5.391655
1434495802.071,-4.783661
1434495802.087,-4.014244
1434495802.102,-2.9461288
1434495802.118,-1.4000778
1434495802.134,0.71829987
1434495802.149,3.326126
1434495802.165,6.224083
1434495802.181,9.160095
1434495802.196,11.982925
1434495802.212,14.694733
1434495802.227,17.41571
1434495802.243,20.250229
1434495802.259,23.228271
1434495802.274,26.276085
1434495802.29,29.305496
1434495802.306,32.273895
1434495802.321,35.152275
1434495802.337,37.776222
1434495802.352,39.784775
1434495802.368,40.600983
1434495802.384,39.604073
1434495802.399,36.37259
1434495802.415,30.92067
1434495802.431,23.71653
1434495802.446,15.592812
1434495802.462,7.423416
1434495802.477,-0.055374146
1434495802.493,-6.3911057
1434495802.509,-11.395065
1434495802.524,-15.057587
1434495802.54,-17.43251
1434495802.556,-18.643044
1434495802.571,-18.87542
1434495802.587,-18.383667
1434495802.602,-17.437927
1434495802.618,-16.291916
1434495802.634,-15.099327
1434495802.649,-13.954712
1434495802.665,-12.911293
1434495802.681,-12.019829
1434495802.696,-11.34494
1434495802.712,-10.9502945
1434495802.728,-10.845352
1434495802.743,-10.9854965
1434495802.759,-11.262978
1434495802.774,-11.569794
1434495802.79,-11.806961
1434495802.806,-11.907127
1434495802.821,-11.788971
1434495802.837,-11.351486
1434495802.853,-10.459869
1434495802.868,-8.952637
1434495802.884,-6.7136917
1434495802.899,-3.7508774
1434495802.915,-0.1901474
1434495802.931,3.702942
1434495802.946,7.6146927
1434495802.962,11.26432
1434495802.978,14.479355
1434495802.993,17.237267
1434495803.009,19.665733
1434495803.024,21.952148
1434495803.04,24.308533
1434495803.056,26.906975
1434495803.071,29.831734
1434495803.087,33.03495
1434495803.103,36.284096
1434495803.118,39.1184
1434495803.134,40.90732
1434495803.149,40.954865
1434495803.165,38.742645
1434495803.181,34.11081
1434495803.196,27.376274
1434495803.212,19.266006
1434495803.228,10.70153
1434495803.243,2.5464478
1434495803.259,-4.5832596
1434495803.274,-10.405678
1434495803.29,-14.903084
1434495803.306,-18.215775
1434495803.321,-20.504166
1434495803.337,-21.91674
1434495803.353,-22.582123
1434495803.368,-22.634544
1434495803.384,-22.21402
1434495803.399,-21.478806
1434495803.415,-20.577957
1434495803.431,-19.624146
1434495803.446,-18.69423
1434495803.462,-17.85585
1434495803.478,-17.177399
1434495803.493,-16.742355
1434495803.509,-16.618095
1434495803.524,-16.803581
1434495803.54,-17.21122
1434495803.556,-17.648827
1434495803.571,-17.864326
1434495803.587,-17.638916
1434495803.603,-16.84288
1434495803.618,-15.505859
1434495803.634,-13.739792
1434495803.649,-11.722435
1434495803.665,-9.577538
1434495803.681,-7.371193
1434495803.696,-5.0864334
1434495803.712,-2.6568909
1434495803.728,-0.0013656616
1434495803.743,2.9095154
1434495803.759,6.0826874
1434495803.774,9.4318695
1434495803.79,12.824562
1434495803.806,16.113503
1434495803.821,19.199524
1434495803.837,22.085548
1434495803.853,24.930054
1434495803.868,27.964096
1434495803.884,31.360909
1434495803.899,35.057137
1434495803.915,38.62256
1434495803.931,41.30581
1434495803.946,42.266655
1434495803.962,40.843185
1434495803.978,36.82218
1434495803.993,30.503433
1434495804.009,22.579704
1434495804.024,13.908272
1434495804.04,5.3105392
1434495804.056,-2.6129837
1434495804.071,-9.455063
1434495804.087,-15.016914
1434495804.103,-19.235863
1434495804.118,-22.174057
1434495804.134,-23.960121
1434495804.149,-24.793388
1434495804.165,-24.871712
1434495804.181,-24.36448
1434495804.196,-23.41204
1434495804.212,-22.157013
1434495804.228,-20.741104
1434495804.243,-19.358337
1434495804.259,-18.179237
1434495804.274,-17.358513
1434495804.29,-17.014267
1434495804.306,-17.184395
1434495804.321,-17.837006
1434495804.337,-18.831497
1434495804.353,-19.922268
1434495804.368,-20.815712
1434495804.384,-21.218971
1434495804.399,-20.932755
1434495804.415,-19.873363
1434495804.431,-18.12685
1434495804.446,-15.8625145
1434495804.462,-13.325439
1434495804.478,-10.742199
1434495804.493,-8.278309
1434495804.509,-6.00671
1434495804.524,-3.9025383
1434495804.54,-1.8527069
1434495804.556,0.26778793
1434495804.571,2.5366669
1434495804.587,4.9676437
1434495804.603,7.5345306
1434495804.618,10.183559
1434495804.634,12.915363
1434495804.649,15.775612
1434495804.665,18.88239
1434495804.681,22.297085
1434495804.696,25.96733
1434495804.712,29.586342
1434495804.728,32.620388
1434495804.743,34.350834
1434495804.759,34.093155
1434495804.774,31.426804
1434495804.79,26.363335
1434495804.806,19.399254
1434495804.821,11.357433
1434495804.837,3.1858482
1434495804.853,-4.30814
1434495804.868,-10.617931
1434495804.884,-15.55582
1434495804.899,-19.180824
1434495804.915,-21.65459
1434495804.931,-23.146858
1434495804.946,-23.772247
1434495804.962,-23.61657
1434495804.978,-22.754265
1434495804.993,-21.335674
1434495805.009,-19.55231
1434495805.024,-17.66328
1434495805.04,-15.942802
1434495805.056,-14.626236
1434495805.071,-13.852959
1434495805.087,-13.681313
1434495805.103,-14.046707
1434495805.118,-14.827927
1434495805.134,-15.822136
1434495805.149,-16.814583
1434495805.165,-17.54998
1434495805.181,-17.819641
1434495805.196,-17.461227
1434495805.212,-16.43628
1434495805.228,-14.794769
1434495805.243,-12.68013
1434495805.259,-10.237144
1434495805.274,-7.624092
1434495805.29,-4.939453
1434495805.306,-2.2234344
1434495805.321,0.5347595
1434495805.337,3.3720932
1434495805.353,6.3257446
1434495805.368,9.384407
1434495805.384,12.506004
1434495805.4,15.61409
1434495805.415,18.71637
1434495805.431,21.891014
1434495805.446,25.272682
1434495805.462,28.87835
1434495805.478,32.493843
1434495805.493,35.565704
1434495805.509,37.316185
1434495805.524,36.996567
1434495805.54,34.20153
1434495805.556,29.064323
1434495805.571,22.215805
1434495805.587,14.558212
1434495805.603,6.9473343
1434495805.618,-0.033226013
1434495805.634,-6.118126
1434495805.65,-11.248573
1434495805.665,-15.422638
1434495805.681,-18.58023
1434495805.696,-20.584778
1434495805.712,-21.334404
1434495805.728,-20.819489
1434495805.743,-19.2053
1434495805.759,-16.788269
1434495805.775,-13.999939
1434495805.79,-11.251068
1434495805.806,-8.876106
1434495805.821,-7.0771866
1434495805.837,-5.899254
1434495805.853,-5.2415543
1434495805.868,-4.9442215
1434495805.884,-4.8137817
1434495805.9,-4.6978455
1434495805.915,-4.4550934
1434495805.931,-3.9993286
1434495805.946,-3.2689743
1434495805.962,-2.2632446
1434495805.978,-1.0082092
1434495805.993,0.45307922
1434495806.009,2.0869598
1434495806.025,3.8817596
1434495806.04,5.872444
1434495806.056,8.0755005
1434495806.071,10.496307
1434495806.087,13.101433
1434495806.103,15.863487
1434495806.118,18.777672
1434495806.134,21.91166
1434495806.15,25.349182
1434495806.165,29.152481
1434495806.181,33.212997
1434495806.196,37.17598
1434495806.212,40.420204
1434495806.228,42.18663
1434495806.243,41.76042
1434495806.259,38.735214
1434495806.275,33.12816
1434495806.29,25.434525
1434495806.306,16.487785
1434495806.321,7.2343216
1434495806.337,-1.52314
1434495806.353,-9.217728
1434495806.368,-15.573509
1434495806.384,-20.487732
1434495806.4,-23.97519
1434495806.415,-26.057434
1434495806.431,-26.760765
1434495806.446,-26.142654
1434495806.462,-24.348381
1434495806.478,-21.620834
1434495806.493,-18.338348
1434495806.509,-14.93782
1434495806.525,-11.901215
1434495806.54,-9.57592
1434495806.556,-8.167397
1434495806.571,-7.641838
1434495806.587,-7.79657
1434495806.603,-8.312721
1434495806.618,-8.906822
1434495806.634,-9.368752
1434495806.65,-9.552109
1434495806.665,-9.305244
1434495806.681,-8.465698
1434495806.696,-6.875931
1434495806.712,-4.503853
1434495806.728,-1.4802551
1434495806.743,1.8565674
1434495806.759,5.114502
1434495806.775,7.977253
1434495806.79,10.360317
1434495806.806,12.3846245
1434495806.821,14.290352
1434495806.837,16.287964
1434495806.853,18.519375
1434495806.868,21.063992
1434495806.884,24.043808
1434495806.9,27.59552
1434495806.915,31.75291
1434495806.931,36.241077
1434495806.946,40.37689
1434495806.962,43.120964
1434495806.978,43.421715
1434495806.993,40.564507
1434495807.009,34.491375
1434495807.025,25.824596
1434495807.04,15.712719
1434495807.056,5.400627
1434495807.071,-4.068939
1434495807.087,-12.079758
1434495807.103,-18.421566
1434495807.118,-23.144619
1434495807.134,-26.397717
1434495807.15,-28.322983
1434495807.165,-29.03693
1434495807.181,-28.685665
1434495807.196,-27.493149
1434495807.212,-25.765324
1434495807.228,-23.835453
1434495807.243,-22.009966
1434495807.259,-20.470644
1434495807.275,-19.2644
1434495807.29,-18.332636
1434495807.306,-17.57876
1434495807.321,-16.955025
1434495807.337,-16.498556
1434495807.353,-16.264648
1434495807.368,-16.31006
1434495807.384,-16.583065
1434495807.4,-16.928858
1434495807.415,-17.069422
1434495807.431,-16.734648
1434495807.446,-15.700207
1434495807.462,-13.905073
1434495807.478,-11.42771
1434495807.493,-8.469698
1434495807.509,-5.286833
1434495807.525,-2.1065044
1434495807.54,0.9329519
1434495807.556,3.7986212
1434495807.571,6.568898
1434495807.587,9.37127
1434495807.603,12.3562565
1434495807.618,15.625139
1434495807.634,19.25179
1434495807.65,23.247738
1434495807.665,27.534634
1434495807.681,31.86326
1434495807.696,35.75538
1434495807.712,38.497364
1434495807.728,39.32399
1434495807.743,37.601547
1434495807.759,33.10687
1434495807.775,26.127031
1434495807.79,17.443073
1434495807.806,8.061863
1434495807.821,-1.0023782
1434495807.837,-8.999844
1434495807.853,-15.496646
1434495807.868,-20.362232
1434495807.884,-23.635653
1434495807.9,-25.470528
1434495807.915,-26.047737
1434495807.931,-25.623821
1434495807.946,-24.47982
1434495807.962,-22.944477
1434495807.978,-21.30688
1434495807.993,-19.801888
1434495808.009,-18.56824
1434495808.025,-17.661612
1434495808.04,-17.048155
1434495808.056,-16.701414
1434495808.072,-16.58052
1434495808.087,-16.683554
1434495808.103,-16.996307
1434495808.118,-17.48531
1434495808.134,-18.030767
1434495808.15,-18.448761
1434495808.165,-18.493141
1434495808.181,-17.936037
1434495808.196,-16.639488
1434495808.212,-14.634277
1434495808.228,-12.073303
1434495808.243,-9.220251
1434495808.259,-6.303405
1434495808.275,-3.4820213
1434495808.29,-0.7495785
1434495808.306,1.9608345
1434495808.322,4.74537
1434495808.337,7.637808
1434495808.353,10.6377735
1434495808.368,13.703166
1434495808.384,16.822369
1434495808.4,20.036272
1434495808.415,23.449238
1434495808.431,27.091415
1434495808.447,30.884113
1434495808.462,34.519657
1434495808.478,37.47675
1434495808.493,39.072704
1434495808.509,38.679596
1434495808.525,35.872402
1434495808.54,30.651316
1434495808.556,23.431961
1434495808.572,14.977524
1434495808.587,6.153084
1434495808.603,-2.26517
1434495808.618,-9.76768
1434495808.634,-16.077213
1434495808.65,-21.109737
1434495808.665,-24.864605
1434495808.681,-27.381176
1434495808.697,-28.713814
1434495808.712,-29.018888
1434495808.728,-28.485521
1434495808.743,-27.389935
1434495808.759,-25.984161
1434495808.775,-24.517967
1434495808.79,-23.177021
1434495808.806,-22.127552
1434495808.822,-21.474236
1434495808.837,-21.307186
1434495808.853,-21.634441
1434495808.868,-22.399738
1434495808.884,-23.456161
1434495808.9,-24.58505
1434495808.915,-25.495052
1434495808.931,-25.908848
1434495808.947,-25.62257
1434495808.962,-24.616093
1434495808.978,-23.026379
1434495808.993,-21.145535
1434495809.009,-19.243214
1434495809.025,-17.483868
1434495809.04,-15.810102
1434495809.056,-14.030243
1434495809.072,-11.91849
1434495809.087,-9.351763
1434495809.103,-6.349347
1434495809.118,-3.0793142
1434495809.134,0.2627759
1434495809.15,3.5067773
1434495809.165,6.564954
1434495809.181,9.422792
1434495809.197,12.13703
1434495809.212,14.81782
1434495809.228,17.618462
1434495809.243,20.59592
1434495809.259,23.631325
1434495809.275,26.308903
1434495809.29,27.970789
1434495809.306,27.882175
1434495809.322,25.537624
1434495809.337,20.835793
1434495809.353,14.222813
1434495809.368,6.511997
1434495809.384,-1.330553
1434495809.4,-8.490862
1434495809.415,-14.448851
1434495809.431,-19.014713
1434495809.447,-22.201103
1434495809.462,-24.121525
1434495809.478,-24.877068
1434495809.493,-24.561737
1434495809.509,-23.28284
1434495809.525,-21.225029
1434495809.54,-18.618382
1434495809.556,-15.762188
1434495809.572,-12.959923
1434495809.587,-10.488163
1434495809.603,-8.518406
1434495809.618,-7.142174
1434495809.634,-6.325672
1434495809.65,-5.9587135
1434495809.665,-5.8727875
1434495809.681,-5.8807297
1434495809.697,-5.799629
1434495809.712,-5.5011673
1434495809.728,-4.9038773
1434495809.743,-4.000084
1434495809.759,-2.7976913
1434495809.775,-1.3118439
1434495809.79,0.47856903
1434495809.806,2.5765991
1434495809.822,4.972969
1434495809.837,7.5688705
1434495809.853,10.265488
1434495809.868,12.95211
1434495809.884,15.602676
1434495809.9,18.233803
1434495809.915,20.944237
1434495809.931,23.814598
1434495809.947,26.886383
1434495809.962,30.133034
1434495809.978,33.44216
1434495809.993,36.589592
1434495810.009,39.252983
1434495810.025,40.998802
1434495810.04,41.38462
1434495810.056,40.04902
1434495810.072,36.856163
1434495810.087,31.941284
1434495810.103,25.731041
1434495810.118,18.7779
1434495810.134,11.674736
1434495810.15,4.897331
1434495810.165,-1.2050323
1434495810.181,-6.4027405
1434495810.197,-10.538109
1434495810.212,-13.5043335
1434495810.228,-15.247337
1434495810.243,-15.805206
1434495810.259,-15.320374
1434495810.275,-14.046623
1434495810.29,-12.306038
1434495810.306,-10.45517
1434495810.322,-8.800064
1434495810.337,-7.5711594
1434495810.353,-6.848587
1434495810.368,-6.610527
1434495810.384,-6.718071
1434495810.4,-7.0290833
1434495810.415,-7.4072113
1434495810.431,-7.796692
1434495810.447,-8.173126
1434495810.462,-8.508835
1434495810.478,-8.681519
1434495810.493,-8.483643
1434495810.509,-7.6664963
1434495810.525,-6.0896454
1434495810.54,-3.8120422
1434495810.556,-1.095787
1434495810.572,1.6839981
1434495810.587,4.1961365
1434495810.603,6.3250885
1434495810.618,8.168808
1434495810.634,9.9663925
1434495810.65,11.9947815
1434495810.665,14.461258
1434495810.681,17.47995
1434495810.697,21.039803
1434495810.712,24.956589
1434495810.728,28.825676
1434495810.743,31.997017
1434495810.759,33.716003
1434495810.775,33.332718
1434495810.79,30.571518
1434495810.806,25.643814
1434495810.822,19.188164
1434495810.837,12.035858
1434495810.853,4.962799
1434495810.868,-1.4580231
1434495810.884,-6.870575
1434495810.9,-11.04071
1434495810.915,-13.831894
1434495810.931,-15.185158
1434495810.947,-15.194397
1434495810.962,-14.116081
1434495810.978,-12.312721
1434495810.994,-10.1659775
1434495811.009,-7.9843826
1434495811.025,-5.959221
1434495811.04,-4.2117004
1434495811.056,-2.8054123
1434495811.072,-1.7838516
1434495811.087,-1.1587601
1434495811.103,-0.93424225
1434495811.119,-1.0754929
1434495811.134,-1.5572739
1434495811.15,-2.3366241
1434495811.165,-3.3525848
1434495811.181,-4.4252625
1434495811.197,-5.2808075
1434495811.212,-5.573082
1434495811.228,-5.0138855
1434495811.244,-3.474907
1434495811.259,-1.0621567
1434495811.275,1.907196
1434495811.29,5.012871
1434495811.306,7.8902054
1434495811.322,10.318504
1434495811.337,12.270782
1434495811.353,13.904343
1434495811.369,15.510002
1434495811.384,17.433167
1434495811.4,20.006401
1434495811.415,23.437538
1434495811.431,27.69767
1434495811.447,32.415123
1434495811.462,36.86065
1434495811.478,40.066673
1434495811.494,41.099434
1434495811.509,39.35962
1434495811.525,34.815254
1434495811.54,27.990875
1434495811.556,19.815498
1434495811.572,11.2753525
1434495811.587,3.2044144
1434495811.603,-3.9004288
1434495811.619,-9.815659
1434495811.634,-14.51664
1434495811.65,-18.025108
1434495811.665,-20.38662
1434495811.681,-21.64634
1434495811.697,-21.900642
1434495811.712,-21.313698
1434495811.728,-20.130402
1434495811.744,-18.611649
1434495811.759,-17.017067
1434495811.775,-15.520905
1434495811.79,-14.232986
1434495811.806,-13.168343
1434495811.822,-12.3122635
1434495811.837,-11.643143
1434495811.853,-11.201782
1434495811.869,-11.021545
1434495811.884,-11.12912
1434495811.9,-11.429825
1434495811.915,-11.723274
1434495811.931,-11.704437
1434495811.947,-11.095261
1434495811.962,-9.74025
1434495811.978,-7.6943054
1434495811.994,-5.1969833
1434495812.009,-2.587265
1434495812.025,-0.16374207
1434495812.04,1.9387283
1434495812.056,3.7859497
1434495812.072,5.5921936
1434495812.087,7.6322403
1434495812.103,10.100052
1434495812.119,13.0750885
1434495812.134,16.508347
1434495812.15,20.32817
1434495812.165,24.436317
1434495812.181,28.701881
1434495812.197,32.860832
1434495812.212,36.421673
1434495812.228,38.682907
1434495812.244,38.915443
1434495812.259,36.574184
1434495812.275,31.584923
1434495812.29,24.410034
1434495812.306,15.926697
1434495812.322,7.160179
1434495812.337,-0.98742294
1434495812.353,-7.961952
1434495812.369,-13.5508
1434495812.384,-17.800072
1434495812.4,-20.861874
1434495812.415,-22.907612
1434495812.431,-24.075268
