1426788996.763,0.0
1426788996.778,0.0
1426788996.794,0.0
1426788996.809,0.0
1426788996.825,0.0
1426788996.841,0.0
1426788996.856,0.0
1426788996.872,0.0
1426788996.888,0.0
1426788996.903,0.0022315353
1426788996.919,-0.0045169927
1426788996.934,-0.011265522
1426788996.95,-0.011383951
1426788996.966,0.0011864507
1426788996.981,0.025910312
1426788996.997,0.050634187
1426788997.013,0.051362894
1426788997.028,-0.0014929791
1426788997.044,-0.1302426
1426788997.059,-0.35562757
1426788997.075,-0.6591247
1426788997.091,-1.0095103
1426788997.106,-1.3709826
1426788997.122,-1.7197359
1426788997.138,-2.0551105
1426788997.153,-2.39945
1426788997.169,-2.7866635
1426788997.184,-3.2399073
1426788997.2,-3.796012
1426788997.216,-4.418684
1426788997.231,-5.0592937
1426788997.247,-5.6644096
1426788997.263,-6.2021537
1426788997.278,-6.6808796
1426788997.294,-7.149598
1426788997.31,-7.6782336
1426788997.325,-8.310739
1426788997.341,-9.143657
1426788997.356,-10.089731
1426788997.372,-11.041313
1426788997.388,-11.8842125
1426788997.403,-12.564316
1426788997.419,-13.13563
1426788997.434,-13.760044
1426788997.45,-14.65232
1426788997.466,-15.962056
1426788997.481,-17.914442
1426788997.497,-20.317299
1426788997.513,-22.903854
1426788997.528,-25.37947
1426788997.544,-27.578028
1426788997.56,-29.57246
1426788997.575,-31.675173
1426788997.591,-34.3178
1426788997.606,-37.813618
1426788997.622,-42.541233
1426788997.638,-48.1463
1426788997.653,-54.104755
1426788997.669,-59.83309
1426788997.685,-64.972374
1426788997.7,-69.58293
1426788997.716,-74.14353
1426788997.731,-79.344986
1426788997.747,-85.70726
1426788997.763,-93.76193
1426788997.778,-102.99779
1426788997.794,-112.61757
1426788997.81,-121.73034
1426788997.825,-129.76602
1426788997.841,-136.75102
1426788997.856,-143.30344
1426788997.872,-150.74623
1426788997.888,-157.77356
1426788997.903,-166.64323
1426788997.919,-177.94798
1426788997.935,-191.79102
1426788997.95,-206.96808
1426788997.966,-220.56592
1426788997.981,-228.24644
1426788997.997,-225.36154
1426788998.013,-208.53198
1426788998.028,-176.87024
1426788998.044,-132.76222
1426788998.06,-80.04997
1426788998.075,-23.069275
1426788998.091,34.94339
1426788998.106,92.43695
1426788998.122,149.15695
1426788998.138,205.22772
1426788998.153,260.36963
1426788998.169,313.74133
1426788998.185,363.87396
1426788998.2,409.83353
1426788998.216,450.90775
1426788998.231,486.50244
1426788998.247,515.73865
1426788998.263,537.2274
1426788998.278,549.22
1426788998.294,549.9613
1426788998.31,538.367
1426788998.325,514.2055
1426788998.341,478.674
1426788998.356,433.87952
1426788998.372,382.4513
1426788998.388,327.0211
1426788998.403,269.84192
1426788998.419,212.6336
1426788998.435,156.65875
1426788998.45,102.95105
1426788998.466,52.37204
1426788998.481,5.9039
1426788998.497,-35.57901
1426788998.513,-71.421875
1426788998.528,-101.34738
1426788998.544,-125.50116
1426788998.56,-144.39008
1426788998.575,-158.7169
1426788998.591,-169.1796
1426788998.606,-176.3887
1426788998.622,-180.73303
1426788998.638,-182.49602
1426788998.653,-181.9183
1426788998.669,-179.29018
1426788998.685,-174.97403
1426788998.7,-169.38196
1426788998.716,-162.91757
1426788998.731,-155.90007
1426788998.747,-148.5513
1426788998.763,-140.9898
1426788998.778,-133.28857
1426788998.794,-125.50086
1426788998.81,-117.706024
1426788998.825,-109.9952
1426788998.841,-102.4528
1426788998.856,-95.13719
1426788998.872,-88.06026
1426788998.888,-81.20607
1426788998.903,-74.54943
1426788998.919,-68.09825
1426788998.935,-61.891136
1426788998.95,-56.006702
1426788998.966,-50.519714
1426788998.981,-45.466038
1426788998.997,-40.814865
1426788999.013,-36.466854
1426788999.028,-32.300594
1426788999.044,-28.217344
1426788999.06,-24.211876
1426788999.075,-20.368135
1426788999.091,-16.852608
1426788999.106,-13.822331
1426788999.122,-11.347025
1426788999.138,-9.34637
1426788999.153,-7.5973816
1426788999.169,-5.826033
1426788999.185,-3.8262315
1426788999.2,-1.5730996
1426788999.216,0.74900013
1426788999.231,2.8117828
1426788999.247,4.3015776
1426788999.263,5.0754123
1426788999.278,5.2838936
1426788999.294,5.3272114
1426788999.31,5.6942105
1426788999.325,6.743077
1426788999.341,8.515454
1426788999.356,10.690652
1426788999.372,12.703695
1426788999.388,14.056972
1426788999.403,14.498078
1426788999.419,14.186228
1426788999.435,13.598022
1426788999.45,13.327009
1426788999.466,13.823563
1426788999.481,15.342824
1426788999.497,17.890797
1426788999.513,21.211203
1426788999.528,24.688667
1426788999.544,27.256973
1426788999.56,27.586918
1426788999.575,24.51875
1426788999.591,17.708288
1426788999.606,8.042038
1426788999.622,-2.4859734
1426788999.638,-11.498383
1426788999.653,-17.2679
1426788999.669,-19.481432
1426788999.685,-19.332533
1426788999.7,-18.857895
1426788999.716,-19.90011
1426788999.731,-23.276003
1426788999.747,-28.534643
1426788999.763,-34.35058
1426788999.778,-39.246597
1426788999.794,-42.23469
1426788999.81,-43.009785
1426788999.825,-41.84853
1426788999.841,-39.22425
1426788999.856,-35.56297
1426788999.872,-31.124977
1426788999.888,-26.027931
1426788999.903,-20.444798
1426788999.919,-14.7485695
1426788999.935,-9.476398
1426788999.95,-5.1778793
1426788999.966,-2.2172356
1426788999.982,-0.59695435
1426788999.997,0.013011932
1426789000.013,0.117134094
1426789000.028,0.1361351
1426789000.044,0.21397781
1426789000.06,0.21992493
1426789000.075,-0.10834503
1426789000.091,-0.9322357
1426789000.106,-2.1803017
1426789000.122,-3.5248299
1426789000.138,-4.508728
1426789000.153,-4.7314415
1426789000.169,-4.064682
1426789000.185,-2.65773
1426789000.2,-0.9058304
1426789000.216,0.7196808
1426789000.232,1.8301773
1426789000.247,2.2541885
1426789000.263,2.059929
1426789000.278,1.493576
1426789000.294,0.8325157
1426789000.31,0.31155586
1426789000.325,0.016666412
1426789000.341,-0.046684265
1426789000.357,0.014669418
1426789000.372,0.08833504
1426789000.388,0.05886078
1426789000.403,-0.117025375
1426789000.419,-0.4499836
1426789000.435,-0.9227371
1426789000.45,-1.5202789
1426789000.466,-2.2512074
1426789000.482,-3.092413
1426789000.497,-3.9896812
1426789000.513,-4.804907
1426789000.528,-5.341053
1426789000.544,-5.392269
1426789000.56,-4.810562
1426789000.575,-3.5901146
1426789000.591,-1.8813896
1426789000.607,-0.038114548
1426789000.622,1.4442701
1426789000.638,2.002596
1426789000.653,1.1731186
1426789000.669,-1.3268051
1426789000.685,-5.3468294
1426789000.7,-10.277859
1426789000.716,-15.131145
1426789000.732,-18.721277
1426789000.747,-20.152044
1426789000.763,-19.078136
1426789000.778,-15.840297
1426789000.794,-11.292715
1426789000.81,-6.4177275
1426789000.825,-1.9888701
1426789000.841,1.6951596
1426789000.857,4.7326207
1426789000.872,7.4697676
1426789000.888,10.169482
1426789000.903,12.896889
1426789000.919,15.487782
1426789000.935,17.696562
1426789000.95,19.285238
1426789000.966,20.167881
1426789000.982,20.390007
1426789000.997,20.091976
1426789001.013,19.417122
1426789001.028,18.482742
1426789001.044,17.375513
1426789001.06,16.209042
1426789001.075,15.088722
1426789001.091,14.155542
1426789001.107,13.597136
1426789001.122,13.595525
1426789001.138,14.284232
1426789001.153,15.691662
1426789001.169,17.576365
1426789001.185,19.525856
1426789001.2,21.035423
1426789001.216,21.683393
1426789001.232,21.33994
1426789001.247,20.211355
1426789001.263,18.764164
1426789001.278,17.516827
1426789001.294,16.79443
1426789001.31,16.515078
1426789001.325,16.349567
1426789001.341,15.936111
1426789001.357,14.991785
1426789001.372,13.480648
1426789001.388,11.550749
1426789001.403,9.523703
1426789001.419,7.7434673
1426789001.435,6.5924406
1426789001.45,6.2237635
1426789001.466,6.7974925
1426789001.482,8.356075
1426789001.497,10.679667
1426789001.513,13.192226
1426789001.528,14.994096
1426789001.544,15.048593
1426789001.56,12.529428
1426789001.575,7.12609
1426789001.591,-0.9849911
1426789001.607,-10.872233
1426789001.622,-21.17625
1426789001.638,-30.525576
1426789001.653,-37.904392
1426789001.669,-42.880783
1426789001.685,-45.674618
1426789001.7,-47.099453
1426789001.716,-46.80085
1426789001.732,-45.440983
1426789001.747,-43.791756
1426789001.763,-42.49106
1426789001.778,-41.865902
1426789001.794,-41.893764
1426789001.81,-42.260063
1426789001.825,-42.56126
1426789001.841,-42.521336
1426789001.857,-42.227898
1426789001.872,-42.42334
1426789001.888,-44.109272
1426789001.903,-48.315224
1426789001.919,-55.790398
1426789001.935,-66.627846
1426789001.95,-80.05153
1426789001.966,-94.422005
1426789001.982,-107.51592
1426789001.997,-117.09314
1426789002.013,-121.80852
1426789002.028,-121.41986
1426789002.044,-116.94007
1426789002.06,-110.191284
1426789002.075,-102.962036
1426789002.091,-96.105865
1426789002.107,-89.190094
1426789002.122,-80.771355
1426789002.138,-69.325554
1426789002.153,-54.53972
1426789002.169,-37.76081
1426789002.185,-21.916359
1426789002.2,-10.647919
1426789002.216,-7.2393036
1426789002.232,-13.709946
1426789002.247,-30.27826
1426789002.263,-55.195496
1426789002.278,-84.84952
1426789002.294,-114.306854
1426789002.31,-138.04419
1426789002.325,-151.27527
1426789002.341,-151.21432
1426789002.357,-137.9371
1426789002.372,-114.302
1426789002.388,-84.90379
1426789002.403,-54.52527
1426789002.419,-26.71103
1426789002.435,-3.124878
1426789002.45,16.317902
1426789002.466,32.606995
1426789002.482,46.768738
1426789002.497,59.320435
1426789002.513,70.125916
1426789002.528,78.73236
1426789002.544,84.72171
1426789002.56,88.02475
1426789002.575,88.926544
1426789002.591,87.99231
1426789002.607,85.72162
1426789002.622,82.38623
1426789002.638,78.05414
1426789002.653,72.78485
1426789002.669,66.896576
1426789002.685,61.007385
1426789002.7,55.907562
1426789002.716,52.165497
1426789002.732,49.910217
1426789002.747,48.657776
1426789002.763,47.562317
1426789002.778,45.782654
1426789002.794,42.824158
1426789002.81,38.684692
1426789002.825,33.817505
1426789002.841,28.906311
1426789002.857,24.567627
1426789002.872,21.20337
1426789002.888,18.845886
1426789002.904,17.268005
1426789002.919,16.132813
1426789002.935,15.164978
1426789002.95,14.349365
1426789002.966,13.945984
1426789002.982,14.454895
1426789002.997,16.373718
1426789003.013,19.964355
1426789003.029,25.101074
1426789003.044,31.269165
1426789003.06,37.715332
1426789003.075,43.713318
1426789003.091,48.77417
1426789003.107,52.743835
1426789003.122,55.817688
1426789003.138,58.369812
1426789003.154,60.89496
1426789003.169,63.82831
1426789003.185,67.48822
1426789003.2,71.926636
1426789003.216,76.87555
1426789003.232,81.78723
1426789003.247,85.99304
1426789003.263,89.0022
1426789003.279,90.69653
1426789003.294,91.43933
1426789003.31,91.92639
1426789003.325,92.94849
1426789003.341,95.10321
1426789003.357,98.58618
1426789003.372,103.108215
1426789003.388,107.882385
1426789003.404,111.716125
1426789003.419,113.2218
1426789003.435,111.08795
1426789003.45,104.39215
1426789003.466,92.9361
1426789003.482,77.333984
1426789003.497,58.893677
1426789003.513,39.260864
1426789003.529,20.039734
1426789003.544,2.489685
1426789003.56,-12.63916
1426789003.575,-25.028198
1426789003.591,-34.660217
1426789003.607,-41.693054
1426789003.622,-46.404114
1426789003.638,-49.133606
1426789003.654,-50.317444
1426789003.669,-50.366333
1426789003.685,-49.68579
1426789003.7,-48.612976
1426789003.716,-47.464478
1426789003.732,-46.52533
1426789003.747,-46.066284
1426789003.763,-46.299194
1426789003.779,-47.313965
1426789003.794,-49.042053
1426789003.81,-51.268982
1426789003.825,-53.61914
1426789003.841,-55.64618
1426789003.857,-56.933044
1426789003.872,-57.090332
1426789003.888,-55.849
1426789003.904,-53.087097
1426789003.919,-48.85681
1426789003.935,-43.35956
1426789003.95,-36.89148
1426789003.966,-29.719238
1426789003.982,-21.98761
1426789003.997,-13.679199
1426789004.013,-4.6239014
1426789004.029,5.3171387
1426789004.044,16.098267
1426789004.06,27.361267
1426789004.075,38.41736
1426789004.091,48.44873
1426789004.107,56.772095
1426789004.122,63.073914
1426789004.138,67.57849
1426789004.154,70.88464
1426789004.169,73.68793
1426789004.185,76.44824
1426789004.2,79.211914
1426789004.216,81.64087
1426789004.232,83.28754
1426789004.247,83.924194
1426789004.263,83.74432
1426789004.279,83.32562
1426789004.294,83.40332
1426789004.31,84.46149
1426789004.325,86.43152
1426789004.341,88.600464
1426789004.357,89.67822
1426789004.372,88.1861
1426789004.388,82.87903
1426789004.404,73.13873
1426789004.419,59.182983
1426789004.435,42.03882
1426789004.45,23.257751
1426789004.466,4.5377197
1426789004.482,-12.582642
1426789004.497,-27.0
1426789004.513,-38.056763
1426789004.529,-45.528076
1426789004.544,-49.559753
1426789004.56,-50.644653
1426789004.575,-49.575745
1426789004.591,-47.320496
1426789004.607,-44.84906
1426789004.622,-42.923767
1426789004.638,-41.964355
1426789004.654,-42.073547
1426789004.669,-43.17755
1426789004.685,-45.20581
1426789004.7,-48.197876
1426789004.716,-52.31726
1426789004.732,-57.70398
1426789004.747,-64.42999
1426789004.763,-72.395935
1426789004.779,-81.39923
1426789004.794,-91.065674
1426789004.81,-100.94562
1426789004.825,-110.52234
1426789004.841,-119.324585
1426789004.857,-127.01886
1426789004.872,-133.53241
1426789004.888,-138.98859
1426789004.904,-143.57587
1426789004.919,-147.41449
1426789004.935,-150.3919
1426789004.95,-152.16809
1426789004.966,-152.34106
1426789004.982,-150.55219
1426789004.997,-146.56195
1426789005.013,-140.21692
1426789005.029,-131.41046
1426789005.044,-120.01959
1426789005.06,-105.99768
1426789005.075,-89.47571
1426789005.091,-70.892944
1426789005.107,-51.00824
1426789005.122,-30.792542
1426789005.138,-11.280212
1426789005.154,6.630066
1426789005.169,22.361328
1426789005.185,35.710083
1426789005.2,46.897217
1426789005.216,56.54004
1426789005.232,65.58484
1426789005.247,75.08551
1426789005.263,85.96588
1426789005.279,98.55261
1426789005.294,112.32776
1426789005.31,125.96002
1426789005.325,137.58936
1426789005.341,145.51129
1426789005.357,148.76831
1426789005.372,147.41705
1426789005.388,142.11322
1426789005.404,133.45026
1426789005.419,121.186584
1426789005.435,104.09204
1426789005.45,80.67828
1426789005.466,50.32666
1426789005.482,14.38916
1426789005.497,-23.535767
1426789005.513,-58.335938
1426789005.529,-84.81738
1426789005.544,-99.16553
1426789005.56,-99.744995
1426789005.576,-87.147766
1426789005.591,-63.64563
1426789005.607,-32.614014
1426789005.622,1.9408569
1426789005.638,35.752686
1426789005.654,64.7959
1426789005.669,86.210205
1426789005.685,98.97443
1426789005.701,104.2558
1426789005.716,104.826965
1426789005.732,103.87445
1426789005.747,103.67944
1426789005.763,104.98151
1426789005.779,107.13757
1426789005.794,108.96057
1426789005.81,109.57056
1426789005.826,108.68414
1426789005.841,106.47626
1426789005.857,103.07532
1426789005.872,98.37457
1426789005.888,92.16229
1426789005.904,84.60077
1426789005.919,76.515076
1426789005.935,69.26965
1426789005.951,64.270874
1426789005.966,62.308044
1426789005.982,63.242188
1426789005.997,66.10309
1426789006.013,69.57971
1426789006.029,72.6286
1426789006.044,74.904175
1426789006.06,76.77472
1426789006.076,79.07727
1426789006.091,82.70654
1426789006.107,88.2027
1426789006.122,95.56085
1426789006.138,104.20276
1426789006.154,113.01282
1426789006.169,120.55231
1426789006.185,125.18109
1426789006.201,125.2948
1426789006.216,119.58014
1426789006.232,107.33801
1426789006.247,88.67383
1426789006.263,64.64929
1426789006.279,37.089966
1426789006.294,8.261414
1426789006.31,-19.564636
1426789006.326,-44.476257
1426789006.341,-65.16321
1426789006.357,-80.943665
1426789006.372,-91.676575
1426789006.388,-97.648926
1426789006.404,-99.402405
1426789006.419,-97.62793
1426789006.435,-93.11438
1426789006.451,-86.707825
1426789006.466,-79.297
1426789006.482,-71.79657
1426789006.497,-65.0202
1426789006.513,-59.580322
1426789006.529,-55.838867
1426789006.544,-53.848328
1426789006.56,-53.414642
1426789006.576,-54.206116
1426789006.591,-55.791443
1426789006.607,-57.652405
1426789006.622,-59.207123
1426789006.638,-59.78897
1426789006.654,-58.77658
1426789006.669,-55.73343
1426789006.685,-50.553986
1426789006.701,-43.544495
1426789006.716,-35.281464
1426789006.732,-26.338226
1426789006.747,-17.079224
1426789006.763,-7.490265
1426789006.779,2.6872559
1426789006.794,13.742493
1426789006.81,25.702087
1426789006.826,38.276184
1426789006.841,50.901215
1426789006.857,62.987244
1426789006.872,74.186584
1426789006.888,84.54297
1426789006.904,94.52945
1426789006.919,104.89899
1426789006.935,116.40253
1426789006.951,129.41595
1426789006.966,143.61401
1426789006.982,157.71118
1426789006.997,169.54637
1426789007.013,176.42749
1426789007.029,175.80591
1426789007.044,166.02829
1426789007.06,146.86317
1426789007.076,119.64697
1426789007.091,86.92351
1426789007.107,51.81543
1426789007.122,17.277435
1426789007.138,-14.35434
1426789007.154,-41.61873
1426789007.169,-63.844574
1426789007.185,-80.93218
1426789007.201,-93.148834
1426789007.216,-101.00715
1426789007.232,-105.11728
1426789007.247,-106.20728
1426789007.263,-105.0425
1426789007.279,-102.39062
1426789007.294,-99.00926
1426789007.31,-95.59309
1426789007.326,-92.71319
1426789007.341,-90.82355
1426789007.357,-90.15509
1426789007.372,-90.74122
1426789007.388,-92.37945
1426789007.404,-94.76315
1426789007.419,-97.46512
1426789007.435,-100.11729
1426789007.451,-102.334656
1426789007.466,-103.75287
1426789007.482,-104.022064
1426789007.497,-102.75143
1426789007.513,-99.60686
1426789007.529,-94.4554
1426789007.544,-87.39409
1426789007.56,-78.82143
1426789007.576,-69.29385
1426789007.591,-59.40233
1426789007.607,-49.521194
1426789007.622,-39.76976
1426789007.638,-29.98523
1426789007.654,-19.902557
1426789007.669,-9.324738
1426789007.685,1.7352448
1426789007.701,13.022614
1426789007.716,24.122375
1426789007.732,34.576294
1426789007.747,44.086456
1426789007.763,52.605164
1426789007.779,60.41519
1426789007.794,68.11145
1426789007.81,76.46506
1426789007.826,86.21719
1426789007.841,97.74609
1426789007.857,110.759155
1426789007.872,124.07181
1426789007.888,135.64944
1426789007.904,142.8823
1426789007.919,143.23834
1426789007.935,134.93799
1426789007.951,117.50757
1426789007.966,92.05994
1426789007.982,60.981415
1426789007.997,27.368225
1426789008.013,-5.607727
1426789008.029,-35.400513
1426789008.044,-60.40921
1426789008.06,-80.04709
1426789008.076,-94.51752
1426789008.091,-104.52783
1426789008.107,-110.90488
1426789008.122,-114.44226
1426789008.138,-115.7952
1426789008.154,-115.52942
1426789008.169,-114.213135
1426789008.185,-112.44916
1426789008.201,-110.865875
1426789008.216,-109.99002
1426789008.232,-110.15878
1426789008.248,-111.51535
1426789008.263,-114.049225
1426789008.279,-117.70358
1426789008.294,-122.38913
1426789008.31,-127.926605
1426789008.326,-133.93704
1426789008.341,-139.75397
1426789008.357,-144.49365
1426789008.373,-147.2799
1426789008.388,-147.45905
1426789008.404,-144.84576
1426789008.419,-139.70361
1426789008.435,-132.65955
1426789008.451,-124.44885
1426789008.466,-115.67682
1426789008.482,-106.703186
1426789008.498,-97.60834
1426789008.513,-88.315796
1426789008.529,-78.75867
1426789008.544,-69.01251
1426789008.56,-59.313416
1426789008.576,-50.018982
1426789008.591,-41.44275
1426789008.607,-33.731384
1426789008.623,-26.770325
1426789008.638,-20.182129
1426789008.654,-13.489899
1426789008.669,-6.253479
1426789008.685,1.8010559
1426789008.701,10.712524
1426789008.716,20.28006
1426789008.732,30.199097
1426789008.748,40.21637
1426789008.763,50.234344
1426789008.779,60.438263
1426789008.794,71.24933
1426789008.81,83.13776
1426789008.826,96.36261
1426789008.841,110.64542
1426789008.857,124.87219
1426789008.873,137.18857
1426789008.888,145.21005
1426789008.904,146.59158
1426789008.919,139.72101
1426789008.935,124.16986
1426789008.951,100.889984
1426789008.966,72.08615
1426789008.982,40.607117
1426789008.998,9.362793
1426789009.013,-19.202484
1426789009.029,-43.42993
1426789009.044,-62.466797
1426789009.06,-76.13431
1426789009.076,-84.74219
1426789009.091,-88.92148
1426789009.107,-89.463165
1426789009.123,-87.3035
1426789009.138,-83.34363
1426789009.154,-78.35559
1426789009.169,-72.939026
1426789009.185,-67.56134
1426789009.201,-62.573578
1426789009.216,-58.296722
1426789009.232,-55.05777
1426789009.248,-53.107697
1426789009.263,-52.523804
1426789009.279,-53.161713
1426789009.294,-54.542053
1426789009.31,-56.02368
1426789009.326,-56.92807
1426789009.341,-56.66449
1426789009.357,-54.853363
1426789009.373,-51.32904
1426789009.388,-46.15509
1426789009.404,-39.63217
1426789009.419,-32.246704
1426789009.435,-24.571686
1426789009.451,-17.160461
1426789009.466,-10.41626
1426789009.482,-4.4898376
1426789009.498,0.6241455
1426789009.513,5.013977
1426789009.529,8.72641
1426789009.544,11.717651
1426789009.56,13.87262
1426789009.576,15.116516
1426789009.591,15.498199
1426789009.607,15.198639
1426789009.623,14.491913
1426789009.638,13.676865
1426789009.654,13.01297
1426789009.669,12.745651
1426789009.685,13.065643
1426789009.701,14.129852
1426789009.716,15.96228
1426789009.732,18.446457
1426789009.748,21.328064
1426789009.763,24.363785
1426789009.779,27.400803
1426789009.794,30.535583
1426789009.81,34.08914
1426789009.826,38.432907
1426789009.841,43.832306
1426789009.857,50.283783
1426789009.873,57.453766
1426789009.888,64.84131
1426789009.904,71.88582
1426789009.919,78.12912
1426789009.935,83.24606
1426789009.951,87.03624
1426789009.966,89.303314
1426789009.982,89.86397
1426789009.998,88.50661
1426789010.013,85.09273
1426789010.029,79.62291
1426789010.044,72.26195
1426789010.06,63.376823
1426789010.076,53.424255
1426789010.091,42.926277
1426789010.107,32.398453
1426789010.123,22.333694
1426789010.138,13.154343
1426789010.154,5.1883163
1426789010.169,-1.3535461
1426789010.185,-6.4270782
1426789010.201,-10.107483
1426789010.216,-12.664383
1426789010.232,-14.432838
1426789010.248,-15.77359
1426789010.263,-16.987503
1426789010.279,-18.307816
1426789010.294,-19.860123
1426789010.31,-21.68679
1426789010.326,-23.730476
1426789010.341,-25.932266
1426789010.357,-28.162125
1426789010.373,-30.267021
1426789010.388,-32.088745
1426789010.404,-33.466118
1426789010.419,-34.27648
1426789010.435,-34.469963
1426789010.451,-34.06153
1426789010.466,-33.15924
1426789010.482,-31.96099
1426789010.498,-30.712868
1426789010.513,-29.71054
1426789010.529,-29.18071
1426789010.544,-29.213387
1426789010.56,-29.633312
1426789010.576,-30.029545
1426789010.591,-29.903599
1426789010.607,-28.87447
1426789010.623,-26.919407
1426789010.638,-24.419598
1426789010.654,-22.093533
1426789010.669,-20.65939
1426789010.685,-20.624527
1426789010.701,-21.978443
1426789010.716,-24.258179
1426789010.732,-26.589054
1426789010.748,-27.930578
1426789010.763,-27.272047
1426789010.779,-23.830944
1426789010.794,-17.262177
1426789010.81,-7.831233
1426789010.826,3.519495
1426789010.841,15.271987
1426789010.857,25.662144
1426789010.873,33.22634
1426789010.888,37.24711
1426789010.904,37.95533
1426789010.92,36.353737
1426789010.935,33.66149
1426789010.951,30.793514
1426789010.966,27.952448
1426789010.982,24.701208
1426789010.998,20.312654
1426789011.013,14.338074
1426789011.029,6.9846115
1426789011.044,-0.8568573
1426789011.06,-7.8861847
1426789011.076,-12.905254
1426789011.091,-15.27169
1426789011.107,-15.09454
1426789011.123,-13.109989
1426789011.138,-10.3536
1426789011.154,-7.8120575
1426789011.17,-6.156967
1426789011.185,-5.7106247
1426789011.201,-6.4464493
1426789011.216,-8.18969
1426789011.232,-10.650658
1426789011.248,-13.492477
1426789011.263,-16.336082
1426789011.279,-18.736946
1426789011.295,-20.301056
1426789011.31,-20.737038
1426789011.326,-20.002007
1426789011.341,-18.316887
1426789011.357,-16.089233
1426789011.373,-13.770248
1426789011.388,-11.6754
1426789011.404,-9.922165
1426789011.42,-8.372147
1426789011.435,-6.821167
1426789011.451,-5.0752106
1426789011.466,-3.0965424
1426789011.482,-0.9406128
1426789011.498,1.2504272
1426789011.513,3.4260864
1426789011.529,5.637909
1426789011.545,8.021774
1426789011.56,10.6480255
1426789011.576,13.421631
1426789011.591,16.132767
1426789011.607,18.607819
1426789011.623,20.929565
1426789011.638,23.496094
1426789011.654,26.997757
1426789011.67,32.17102
1426789011.685,39.359604
1426789011.701,48.312515
1426789011.716,58.07927
1426789011.732,67.20877
1426789011.748,74.11966
1426789011.763,77.445465
1426789011.779,76.27672
1426789011.795,70.24356
1426789011.81,59.525146
1426789011.826,44.745865
1426789011.841,26.878906
1426789011.857,7.143692
1426789011.873,-13.115387
1426789011.888,-32.563263
1426789011.904,-50.029877
1426789011.92,-64.61517
1426789011.935,-75.77359
1426789011.951,-83.30948
1426789011.966,-87.41635
1426789011.982,-88.59271
1426789011.998,-87.47653
1426789012.013,-84.701355
1426789012.029,-80.717865
1426789012.045,-75.717896
1426789012.06,-69.743805
1426789012.076,-62.87964
1426789012.091,-55.48416
1426789012.107,-48.190063
1426789012.123,-41.720123
1426789012.138,-36.596954
1426789012.154,-33.01526
1426789012.17,-30.723572
1426789012.185,-29.255707
1426789012.201,-28.082855
1426789012.216,-26.794556
1426789012.232,-25.100067
1426789012.248,-22.761963
1426789012.263,-19.561249
1426789012.279,-15.315338
1426789012.295,-10.058563
1426789012.31,-4.13208
1426789012.326,1.8774109
1426789012.341,7.3041687
1426789012.357,11.672607
1426789012.373,14.900665
1426789012.388,17.35019
1426789012.404,19.550873
1426789012.42,21.986847
1426789012.435,24.808136
1426789012.451,27.847382
1426789012.466,30.83902
1426789012.482,33.625977
1426789012.498,36.40857
1426789012.513,39.662384
1426789012.529,43.99353
1426789012.545,49.850037
1426789012.56,57.356964
1426789012.576,66.30667
1426789012.591,76.1875
1426789012.607,86.303406
1426789012.623,95.71753
1426789012.638,103.343994
1426789012.654,107.92432
1426789012.67,108.24542
1426789012.685,103.30707
1426789012.701,92.68225
1426789012.716,76.71167
1426789012.732,56.616272
1426789012.748,34.340332
1426789012.763,12.176758
1426789012.779,-7.7979126
1426789012.795,-24.16333
1426789012.81,-36.53839
1426789012.826,-45.544067
1426789012.841,-52.43402
1426789012.857,-58.539734
1426789012.873,-64.82764
1426789012.888,-71.50311
1426789012.904,-78.05597
1426789012.92,-83.42737
1426789012.935,-86.37341
1426789012.951,-85.8125
1426789012.966,-81.20007
1426789012.982,-72.71539
1426789012.998,-61.33319
1426789013.013,-48.683044
1426789013.029,-36.63556
1426789013.045,-26.842041
1426789013.06,-20.286926
1426789013.076,-17.063965
1426789013.091,-16.4281
1426789013.107,-17.1297
1426789013.123,-17.853271
1426789013.138,-17.674438
1426789013.154,-16.329407
1426789013.17,-14.2717285
1426789013.185,-12.428772
1426789013.201,-11.856201
1426789013.216,-13.319763
1426789013.232,-16.942444
1426789013.248,-22.160522
1426789013.263,-27.720154
1426789013.279,-32.09082
1426789013.295,-33.852234
1426789013.31,-32.106506
1426789013.326,-26.700806
1426789013.341,-18.249756
1426789013.357,-7.830017
1426789013.373,3.3599243
1426789013.388,14.364624
1426789013.404,24.623108
1426789013.42,33.98828
1426789013.435,42.592224
1426789013.451,50.67108
1426789013.466,58.48639
1426789013.482,66.207275
1426789013.498,73.921326
1426789013.513,81.49481
1426789013.529,88.543945
1426789013.545,94.4848
1426789013.56,98.60565
1426789013.576,100.35187
1426789013.591,99.48303
1426789013.607,96.12482
1426789013.623,90.656494
1426789013.638,83.497314
1426789013.654,74.96283
1426789013.67,65.21112
1426789013.685,54.402893
1426789013.701,42.80432
1426789013.716,30.887512
1426789013.732,19.310242
1426789013.748,8.6588745
1426789013.763,-0.62042236
1426789013.779,-8.301697
1426789013.795,-14.3125
1426789013.81,-18.704163
1426789013.826,-21.507141
1426789013.842,-22.840027
1426789013.857,-22.875244
1426789013.873,-21.948914
1426789013.888,-20.510925
1426789013.904,-19.004517
1426789013.92,-17.64624
1426789013.935,-16.325623
1426789013.951,-14.596558
1426789013.967,-11.803284
1426789013.982,-7.354492
1426789013.998,-0.94732666
1426789014.013,7.3081055
1426789014.029,16.837402
1426789014.045,26.867737
1426789014.06,36.577026
1426789014.076,45.308533
1426789014.092,52.69232
1426789014.107,58.619446
1426789014.123,63.260315
1426789014.138,66.91461
1426789014.154,69.91882
1426789014.17,72.45355
1426789014.185,74.53003
1426789014.201,75.98126
1426789014.217,76.5719
1426789014.232,76.2052
1426789014.248,75.03479
1426789014.263,73.437256
1426789014.279,71.86682
1426789014.295,70.64691
1426789014.31,69.73871
1426789014.326,68.67877
1426789014.342,66.57379
1426789014.357,62.33557
1426789014.373,54.947144
1426789014.388,43.837036
1426789014.404,29.095703
1426789014.42,11.650391
1426789014.435,-6.949341
1426789014.451,-24.880005
1426789014.467,-40.578552
1426789014.482,-53.088013
1426789014.498,-62.17456
1426789014.513,-68.14642
1426789014.529,-71.545715
1426789014.545,-72.83508
1426789014.56,-72.24475
1426789014.576,-69.8891
1426789014.592,-65.8089
1426789014.607,-60.131775
1426789014.623,-53.089783
1426789014.638,-44.97058
1426789014.654,-36.13385
1426789014.67,-26.940674
1426789014.685,-17.787964
1426789014.701,-9.013733
1426789014.717,-0.94921875
1426789014.732,6.1048584
1426789014.748,11.943054
1426789014.763,16.453918
1426789014.779,19.73706
1426789014.795,22.122559
1426789014.81,24.173218
1426789014.826,26.545593
1426789014.842,29.808167
1426789014.857,34.245422
1426789014.873,39.85144
1426789014.888,46.407227
1426789014.904,53.699646
1426789014.92,61.73004
1426789014.935,70.681274
1426789014.951,80.78998
1426789014.967,92.003296
1426789014.982,103.87561
1426789014.998,115.66931
1426789015.013,126.64148
1426789015.029,136.41864
1426789015.045,145.14026
1426789015.06,153.37451
1426789015.076,161.6225
1426789015.092,169.83203
1426789015.107,177.0445
1426789015.123,181.52148
1426789015.138,181.27069
1426789015.154,174.76569
1426789015.17,161.48413
1426789015.185,142.06787
1426789015.201,118.09369
1426789015.217,91.555664
1426789015.232,64.34094
1426789015.248,37.930542
1426789015.263,13.3654785
1426789015.279,-8.63739
1426789015.295,-27.61084
1426789015.31,-43.265503
1426789015.326,-55.534424
1426789015.342,-64.59802
1426789015.357,-70.8667
1426789015.373,-74.81323
1426789015.388,-76.946594
1426789015.404,-77.76114
1426789015.42,-77.72693
1426789015.435,-77.3533
1426789015.451,-77.09689
1426789015.467,-77.315
1426789015.482,-78.17828
1426789015.498,-79.63345
1426789015.513,-81.463806
1426789015.529,-83.405945
1426789015.545,-85.204285
1426789015.56,-86.662415
1426789015.576,-87.63504
1426789015.592,-87.92908
1426789015.607,-87.32788
1426789015.623,-85.628845
1426789015.638,-82.74133
1426789015.654,-78.7366
1426789015.67,-73.88083
1426789015.685,-68.494446
1426789015.701,-62.9187
1426789015.717,-57.41095
1426789015.732,-52.11258
1426789015.748,-46.9599
1426789015.763,-41.694214
1426789015.779,-35.781586
1426789015.795,-28.504852
1426789015.81,-19.145569
1426789015.826,-7.2038574
1426789015.842,7.3313293
1426789015.857,23.858856
1426789015.873,41.229828
1426789015.888,57.88437
1426789015.904,72.06174
1426789015.92,82.037186
1426789015.935,86.34828
1426789015.951,83.99455
1426789015.967,74.735214
1426789015.982,59.222824
1426789015.998,39.01802
1426789016.013,16.305618
1426789016.029,-6.584961
1426789016.045,-27.745972
1426789016.06,-46.0103
1426789016.076,-61.011154
1426789016.092,-72.84822
1426789016.107,-81.70941
1426789016.123,-87.66171
1426789016.138,-90.642426
1426789016.154,-90.651596
1426789016.17,-87.99448
1426789016.185,-83.38365
1426789016.201,-77.81557
1426789016.217,-72.30835
1426789016.232,-67.72426
1426789016.248,-64.5244
1426789016.263,-62.8554
1426789016.279,-62.53527
1426789016.295,-63.290787
1426789016.31,-64.809364
1426789016.326,-66.82792
1426789016.342,-69.09017
1426789016.357,-71.358025
1426789016.373,-73.285065
1426789016.388,-74.451614
1426789016.404,-74.36078
1426789016.42,-72.53517
1426789016.435,-68.65808
1426789016.451,-62.657043
1426789016.467,-54.74704
1426789016.482,-45.336845
1426789016.498,-34.9093
1426789016.514,-23.910126
1426789016.529,-12.624374
1426789016.545,-1.2927856
1426789016.56,9.871773
1426789016.576,20.580109
1426789016.592,30.536888
1426789016.607,39.439373
1426789016.623,47.191082
1426789016.639,53.895226
1426789016.654,59.910835
1426789016.67,65.79328
1426789016.685,72.21969
1426789016.701,79.87836
1426789016.717,89.38289
1426789016.732,101.08821
1426789016.748,114.88275
1426789016.764,129.94327
1426789016.779,144.66719
1426789016.795,156.81265
1426789016.81,163.9468
1426789016.826,164.06384
1426789016.842,156.1993
1426789016.857,140.65147
1426789016.873,118.904686
1426789016.889,93.16601
1426789016.904,65.83364
1426789016.92,38.962845
1426789016.935,14.0672455
1426789016.951,-7.9564285
1426789016.967,-26.64495
1426789016.982,-41.78057
1426789016.998,-53.242546
1426789017.014,-61.05237
1426789017.029,-65.32454
1426789017.045,-66.4059
1426789017.06,-64.92936
1426789017.076,-61.70829
1426789017.092,-57.634712
1426789017.107,-53.520782
1426789017.123,-49.93103
1426789017.139,-47.153793
1426789017.154,-45.247414
1426789017.17,-44.13642
1426789017.185,-43.754112
1426789017.201,-44.0728
1426789017.217,-45.04612
1426789017.232,-46.54619
1426789017.248,-48.26425
1426789017.264,-49.74214
1426789017.279,-50.44951
1426789017.295,-49.952194
1426789017.31,-48.027237
1426789017.326,-44.750946
1426789017.342,-40.441025
1426789017.357,-35.48407
1426789017.373,-30.194717
1426789017.389,-24.66742
1426789017.404,-18.803192
1426789017.42,-12.406067
1426789017.435,-5.315033
1426789017.451,2.4420624
1426789017.467,10.623489
1426789017.482,18.809814
1426789017.498,26.56279
1426789017.514,33.478348
1426789017.529,39.348114
1426789017.545,44.172226
1426789017.56,48.14528
1426789017.576,51.667847
1426789017.592,55.271362
1426789017.607,59.592316
1426789017.623,65.2381
1426789017.639,72.67001
1426789017.654,81.93887
1426789017.67,92.48801
1426789017.685,102.95917
1426789017.701,111.256775
1426789017.717,114.91885
1426789017.732,111.69815
1426789017.748,100.26709
1426789017.764,80.69705
1426789017.779,54.56476
1426789017.795,24.5083
1426789017.81,-6.432953
1426789017.826,-35.56317
1426789017.842,-61.006165
1426789017.857,-81.79178
1426789017.873,-97.67801
1426789017.889,-108.80734
1426789017.904,-115.52304
1426789017.92,-118.28784
1426789017.935,-117.756226
1426789017.951,-114.75833
1426789017.967,-110.33298
1426789017.982,-105.47928
1426789017.998,-100.99902
1426789018.014,-97.33652
1426789018.029,-94.634766
1426789018.045,-92.82767
1426789018.06,-91.839264
1426789018.076,-91.66217
1426789018.092,-92.35745
1426789018.107,-93.84766
1426789018.123,-95.83893
1426789018.139,-97.7919
1426789018.154,-99.05411
1426789018.17,-99.050385
1426789018.185,-97.44476
1426789018.201,-94.25119
1426789018.217,-89.6405
1426789018.232,-83.84262
1426789018.248,-76.972015
1426789018.264,-69.04944
1426789018.279,-60.065704
1426789018.295,-50.179535
1426789018.31,-39.79068
1426789018.326,-29.42392
1426789018.342,-19.632446
1426789018.357,-10.753693
1426789018.373,-2.8391113
1426789018.389,4.362488
1426789018.404,11.212067
1426789018.42,18.068787
1426789018.435,25.02835
1426789018.451,31.977356
1426789018.467,38.595123
1426789018.482,44.554413
1426789018.498,49.687714
1426789018.514,54.106506
1426789018.529,58.259308
1426789018.545,62.858856
1426789018.56,68.68002
1426789018.576,76.34198
1426789018.592,85.95438
1426789018.607,96.91397
1426789018.623,107.78754
1426789018.639,116.504974
1426789018.654,120.726685
1426789018.67,118.4209
1426789018.685,108.462006
1426789018.701,90.980865
1426789018.717,67.47116
1426789018.732,40.394257
1426789018.748,12.612305
1426789018.764,-13.308197
1426789018.779,-35.523895
1426789018.795,-53.147583
1426789018.81,-66.11246
1426789018.826,-74.885315
1426789018.842,-80.16327
1426789018.857,-82.631775
1426789018.873,-82.88678
1426789018.889,-81.41629
1426789018.904,-78.700714
1426789018.92,-75.21448
1426789018.935,-71.47778
1426789018.951,-67.9866
1426789018.967,-65.22696
1426789018.982,-63.56488
1426789018.998,-63.2294
1426789019.014,-64.33261
1426789019.029,-66.797424
1426789019.045,-70.37463
1426789019.06,-74.59735
1426789019.076,-78.89847
1426789019.092,-82.69708
1426789019.107,-85.513885
1426789019.123,-87.06818
1426789019.139,-87.29321
1426789019.154,-86.34146
1426789019.17,-84.49637
1426789019.186,-82.12344
1426789019.201,-79.58005
1426789019.217,-77.12991
1426789019.232,-74.89725
1426789019.248,-72.786285
1426789019.264,-70.46243
1426789019.279,-67.42532
1426789019.295,-63.166718
1426789019.311,-57.299927
1426789019.326,-49.697815
1426789019.342,-40.52295
1426789019.357,-30.125763
1426789019.373,-18.949493
1426789019.389,-7.4037476
1426789019.404,4.230316
1426789019.42,15.763184
1426789019.436,27.123322
1426789019.451,38.264008
1426789019.467,49.082428
1426789019.482,59.396423
1426789019.498,69.013916
1426789019.514,77.77162
1426789019.529,85.60945
1426789019.545,92.593506
1426789019.561,98.93425
1426789019.576,104.927765
1426789019.592,110.94986
1426789019.607,117.42566
1426789019.623,124.746445
1426789019.639,133.12091
1426789019.654,142.33893
1426789019.67,151.55815
1426789019.686,159.23886
1426789019.701,163.36627
1426789019.717,161.97635
1426789019.732,153.7036
1426789019.748,138.27283
1426789019.764,116.68367
1426789019.779,90.94557
1426789019.795,63.525406
1426789019.811,36.74141
1426789019.826,12.317642
1426789019.842,-8.724426
1426789019.857,-25.988235
1426789019.873,-39.37732
1426789019.889,-48.989532
1426789019.904,-54.990524
1426789019.92,-57.71837
1426789019.936,-57.724808
1426789019.951,-55.801987
1426789019.967,-52.825912
1426789019.982,-49.634384
1426789019.998,-46.86499
1426789020.014,-44.933853
1426789020.029,-44.058395
1426789020.045,-44.322647
1426789020.061,-45.721222
1426789020.076,-48.125465
1426789020.092,-51.32061
1426789020.107,-54.986496
1426789020.123,-58.731224
1426789020.139,-62.08673
1426789020.154,-64.52476
1426789020.17,-65.54546
1426789020.186,-64.8123
1426789020.201,-62.278122
1426789020.217,-58.261055
1426789020.232,-53.33815
1426789020.248,-48.100548
1426789020.264,-42.906837
1426789020.279,-37.74504
1426789020.295,-32.31224
1426789020.311,-26.276299
1426789020.326,-19.570747
1426789020.342,-12.453461
1426789020.357,-5.5136185
1426789020.373,0.7118149
1426789020.389,5.8726273
1426789020.404,10.001656
1426789020.42,13.451935
1426789020.436,16.693558
1426789020.451,20.183647
1426789020.467,24.18348
1426789020.482,28.760166
1426789020.498,33.77014
1426789020.514,38.931614
1426789020.529,43.97747
1426789020.545,48.74597
1426789020.561,53.300434
1426789020.576,57.95086
1426789020.592,63.22299
1426789020.607,69.68475
1426789020.623,77.74907
1426789020.639,87.40437
1426789020.654,97.9854
1426789020.67,108.089645
1426789020.686,115.70892
1426789020.701,118.62941
1426789020.717,115.07151
1426789020.732,104.22632
1426789020.748,86.62721
1426789020.764,64.129974
1426789020.779,39.383717
1426789020.795,15.131643
1426789020.811,-6.4805717
1426789020.826,-24.287756
1426789020.842,-38.037224
1426789020.857,-48.090866
1426789020.873,-54.95079
1426789020.889,-59.038204
1426789020.904,-60.592033
1426789020.92,-59.824715
1426789020.936,-57.104755
1426789020.951,-52.981064
1426789020.967,-48.21593
1426789020.982,-43.540226
1426789020.998,-39.535164
1426789021.014,-36.526524
1426789021.029,-34.63947
1426789021.045,-33.909634
1426789021.061,-34.35704
1426789021.076,-35.966686
1426789021.092,-38.5809
1426789021.107,-41.868664
1426789021.123,-45.26519
1426789021.139,-48.11621
1426789021.154,-49.858883
1426789021.17,-50.227325
1426789021.186,-49.27829
1426789021.201,-47.36377
1426789021.217,-44.903946
1426789021.232,-42.14051
1426789021.248,-39.128937
1426789021.264,-35.71335
1426789021.279,-31.697952
1426789021.295,-27.026539
1426789021.311,-21.850277
1426789021.326,-16.491955
1426789021.342,-11.328373
1426789021.357,-6.629711
1426789021.373,-2.3985786
1426789021.389,1.5386658
1426789021.404,5.4997253
1426789021.42,9.767223
1426789021.436,14.418968
1426789021.451,19.311218
1426789021.467,24.143982
1426789021.482,28.558647
1426789021.498,32.290024
1426789021.514,35.250313
1426789021.529,37.592316
1426789021.545,39.652718
1426789021.561,41.940285
1426789021.576,44.87429
1426789021.592,48.585083
1426789021.607,52.631836
1426789021.623,55.852997
1426789021.639,56.4803
1426789021.654,52.561462
1426789021.67,42.57473
1426789021.686,26.098816
1426789021.701,4.1669006
1426789021.717,-20.90274
1426789021.732,-46.079468
1426789021.748,-68.42798
1426789021.764,-85.88168
1426789021.779,-97.56117
1426789021.795,-103.63988
1426789021.811,-105.03427
1426789021.826,-102.8589
1426789021.842,-98.11633
1426789021.858,-91.55917
1426789021.873,-83.73187
1426789021.889,-75.02124
1426789021.904,-65.73663
1426789021.92,-56.089355
1426789021.936,-46.18831
1426789021.951,-36.16632
1426789021.967,-26.222946
1426789021.982,-16.734848
1426789021.998,-8.160873
1426789022.014,-0.9203644
1426789022.029,4.8898926
1426789022.045,9.534241
1426789022.061,13.637787
1426789022.076,17.985657
1426789022.092,23.22754
1426789022.108,29.681305
1426789022.123,37.27243
1426789022.139,45.64029
1426789022.154,54.327026
1426789022.17,62.932617
1426789022.186,71.17117
1426789022.201,78.84766
1426789022.217,85.82587
1426789022.233,92.02731
1426789022.248,97.490295
1426789022.264,102.31497
1426789022.279,106.69986
1426789022.295,110.80615
1426789022.311,114.71994
1426789022.326,118.38724
1426789022.342,121.66577
1426789022.358,124.384705
1426789022.373,126.382935
1426789022.389,127.56137
1426789022.404,127.903564
1426789022.42,127.543335
1426789022.436,126.757935
1426789022.451,126.017365
1426789022.467,125.85272
1426789022.483,126.72879
1426789022.498,128.84311
1426789022.514,131.94943
1426789022.529,135.22061
1426789022.545,137.2984
1426789022.561,136.50513
1426789022.576,131.19363
1426789022.592,120.20752
1426789022.608,103.214874
1426789022.623,80.99246
1426789022.639,55.16455
1426789022.654,27.924438
1426789022.67,1.4328461
1426789022.686,-22.596283
1426789022.701,-43.134552
1426789022.717,-59.81819
1426789022.733,-72.71321
1426789022.748,-82.05516
1426789022.764,-88.13019
1426789022.779,-91.2211
1426789022.795,-91.709274
1426789022.811,-90.091324
1426789022.826,-86.98447
1426789022.842,-82.99599
1426789022.858,-78.69957
1426789022.873,-74.52843
1426789022.889,-70.8338
1426789022.904,-67.90578
1426789022.92,-66.0013
1426789022.936,-65.296936
1426789022.951,-65.78801
1426789022.967,-67.22543
1426789022.983,-69.09105
1426789022.998,-70.72952
1426789023.014,-71.485916
1426789023.029,-70.91402
1426789023.045,-68.822174
1426789023.061,-65.27989
1426789023.076,-60.503258
1426789023.092,-54.766327
1426789023.108,-48.365814
1426789023.123,-41.564568
1426789023.139,-34.596405
1426789023.154,-27.609482
1426789023.17,-20.677948
1426789023.186,-13.739738
1426789023.201,-6.696022
1426789023.217,0.56520844
1426789023.233,8.084137
1426789023.248,15.786896
1426789023.264,23.495125
1426789023.279,30.986244
1426789023.295,38.0253
1426789023.311,44.48951
1426789023.326,50.405884
1426789023.342,56.03991
1426789023.358,61.833935
1426789023.373,68.358
1426789023.389,76.05904
1426789023.404,85.09346
1426789023.42,95.03201
1426789023.436,104.78174
1426789023.451,112.64967
1426789023.467,116.64752
1426789023.483,115.00785
1426789023.498,106.67867
1426789023.514,91.67558
1426789023.529,71.129265
1426789023.545,47.037056
1426789023.561,21.718647
1426789023.576,-2.7354145
1426789023.592,-24.844725
1426789023.608,-43.795017
1426789023.623,-59.26504
1426789023.639,-71.224266
1426789023.654,-79.71234
1426789023.67,-84.91863
1426789023.686,-87.1707
1426789023.701,-87.06981
1426789023.717,-85.36778
1426789023.733,-82.8346
1426789023.748,-80.12773
1426789023.764,-77.746414
1426789023.779,-76.066055
1426789023.795,-75.363266
1426789023.811,-75.84383
1426789023.826,-77.57511
1426789023.842,-80.396805
1426789023.858,-83.88904
1426789023.873,-87.41938
1426789023.889,-90.34891
1426789023.904,-92.16714
1426789023.92,-92.59221
1426789023.936,-91.54852
1426789023.951,-89.15492
1426789023.967,-85.61104
1426789023.983,-81.13986
1426789023.998,-75.9434
1426789024.014,-70.131836
1426789024.029,-63.731316
1426789024.045,-56.680332
1426789024.061,-48.867496
1426789024.076,-40.220818
1426789024.092,-30.800034
1426789024.108,-20.838802
1426789024.123,-10.698376
1426789024.139,-0.81123734
1426789024.154,8.414803
1426789024.17,16.70464
1426789024.186,24.013205
1426789024.201,30.53956
1426789024.217,36.61842
1426789024.233,42.652084
1426789024.248,48.93367
1426789024.264,55.49787
1426789024.279,62.142838
1426789024.295,68.522385
1426789024.311,74.43861
1426789024.326,79.98421
1426789024.342,85.63686
1426789024.358,92.04679
1426789024.373,99.728745
1426789024.389,108.66615
1426789024.404,118.016846
1426789024.42,126.08028
1426789024.436,130.71739
1426789024.451,129.84637
1426789024.467,122.049225
1426789024.483,107.10535
1426789024.498,86.0725
1426789024.514,61.071487
1426789024.529,34.747482
1426789024.545,9.620604
1426789024.561,-12.447239
1426789024.576,-30.464127
1426789024.592,-44.18963
1426789024.608,-53.90551
1426789024.623,-60.081734
1426789024.639,-63.136925
1426789024.654,-63.41407
1426789024.67,-61.192554
1426789024.686,-56.765713
1426789024.701,-50.466007
1426789024.717,-42.637756
1426789024.733,-33.728973
1426789024.748,-24.284492
1426789024.764,-15.097057
1426789024.78,-7.130863
1426789024.795,-1.4911041
1426789024.811,0.87755585
1426789024.826,-0.5665169
1426789024.842,-5.6536713
1426789024.858,-13.519211
1426789024.873,-22.774712
1426789024.889,-31.897007
1426789024.905,-39.5762
1426789024.92,-44.976585
1426789024.936,-47.809868
1426789024.951,-48.16129
1426789024.967,-46.356743
1426789024.983,-42.837082
1426789024.998,-38.16356
1426789025.014,-33.040657
1426789025.03,-28.304062
1426789025.045,-24.61644
1426789025.061,-22.06681
1426789025.076,-19.894592
1426789025.092,-16.393661
1426789025.108,-9.413048
1426789025.123,2.9741135
1426789025.139,21.705513
1426789025.155,46.301704
1426789025.17,74.96188
1426789025.186,105.198944
1426789025.201,134.539
1426789025.217,161.21545
1426789025.233,184.3817
1426789025.248,204.00441
1426789025.264,220.44374
1426789025.28,234.00578
1426789025.295,244.60115
1426789025.311,251.60898
1426789025.326,253.97058
1426789025.342,250.4985
1426789025.358,240.24083
1426789025.373,222.91896
1426789025.389,199.02725
1426789025.405,169.86624
1426789025.42,137.22571
1426789025.436,103.04875
1426789025.451,69.11508
1426789025.467,36.9263
1426789025.483,7.6944275
1426789025.498,-17.623657
1426789025.514,-38.306305
1426789025.53,-53.99939
1426789025.545,-64.81308
1426789025.561,-71.368256
1426789025.576,-74.706024
1426789025.592,-76.02106
1426789025.608,-76.40637
1426789025.623,-76.672455
1426789025.639,-77.34265
1426789025.655,-78.71814
1426789025.67,-81.055725
1426789025.686,-84.63727
1426789025.701,-89.7529
1426789025.717,-96.65823
1426789025.733,-105.37439
1426789025.748,-115.632416
1426789025.764,-126.81937
1426789025.78,-138.039
1426789025.795,-148.19284
1426789025.811,-156.24472
1426789025.826,-161.40451
1426789025.842,-163.32617
1426789025.858,-162.21259
1426789025.873,-158.57166
1426789025.889,-153.08347
1426789025.905,-146.26962
1426789025.92,-138.38806
1426789025.936,-129.35632
1426789025.951,-118.969666
1426789025.967,-107.09985
1426789025.983,-93.83508
1426789025.998,-79.52759
1426789026.014,-64.63623
1426789026.03,-49.5979
1426789026.045,-34.69104
1426789026.061,-20.004211
1426789026.076,-5.4301147
1426789026.092,9.168945
1426789026.108,23.930725
1426789026.123,38.90033
1426789026.139,53.964233
1426789026.155,68.75073
1426789026.17,82.54495
1426789026.186,94.29709
1426789026.201,102.731445
1426789026.217,106.6022
1426789026.233,105.04898
1426789026.248,97.89249
1426789026.264,85.807556
1426789026.28,70.13092
1426789026.295,52.617737
1426789026.311,34.967834
1426789026.326,18.500977
1426789026.342,3.9883423
1426789026.358,-8.36676
1426789026.373,-18.712463
1426789026.389,-27.345642
1426789026.405,-34.483093
1426789026.42,-40.253845
1426789026.436,-44.63556
1426789026.451,-47.611023
1426789026.467,-49.25824
1426789026.483,-49.746277
1426789026.498,-49.388733
1426789026.514,-48.575806
1426789026.53,-47.791565
1426789026.545,-47.530212
1426789026.561,-48.290283
1426789026.576,-50.404907
1426789026.592,-53.96106
1426789026.608,-58.732117
1426789026.623,-64.183655
1426789026.639,-69.58472
1426789026.655,-74.16083
1426789026.67,-77.311646
1426789026.686,-78.671265
1426789026.701,-78.215454
1426789026.717,-76.192566
1426789026.733,-73.02222
1426789026.748,-69.18732
1426789026.764,-65.04108
1426789026.78,-60.776855
1426789026.795,-56.357483
1426789026.811,-51.57367
1426789026.826,-46.170593
1426789026.842,-39.969482
1426789026.858,-32.99707
1426789026.873,-25.487732
1426789026.889,-17.868042
1426789026.905,-10.57959
1426789026.92,-4.0110474
1426789026.936,1.7012329
1426789026.951,6.7019653
1426789026.967,11.413818
1426789026.983,16.45111
1426789026.998,22.397095
1426789027.014,29.508484
1426789027.03,37.50586
1426789027.045,45.436523
1426789027.061,51.774963
1426789027.076,54.77301
1426789027.092,52.996033
1426789027.108,45.74707
1426789027.123,33.414673
1426789027.139,17.381348
1426789027.155,-0.29492188
1426789027.17,-17.369202
1426789027.186,-31.920715
1426789027.201,-42.629944
1426789027.217,-48.901733
1426789027.233,-50.743042
1426789027.248,-48.62036
1426789027.264,-43.23987
1426789027.28,-35.40149
1426789027.295,-25.954712
1426789027.311,-15.704712
1426789027.326,-5.399719
1426789027.342,4.315918
1426789027.358,12.922485
1426789027.373,20.059326
1426789027.389,25.417786
1426789027.405,28.749207
1426789027.42,29.746704
1426789027.436,28.124023
1426789027.452,23.777832
1426789027.467,16.894043
1426789027.483,8.087891
1426789027.498,-1.6329956
1426789027.514,-11.10199
1426789027.53,-19.245605
1426789027.545,-25.30133
1426789027.561,-28.908691
1426789027.577,-30.073181
1426789027.592,-28.941711
1426789027.608,-25.741577
1426789027.623,-20.68573
1426789027.639,-13.987061
1426789027.655,-5.988159
1426789027.67,2.9186707
1426789027.686,12.236542
1426789027.702,21.522247
1426789027.717,30.398651
1426789027.733,38.6886
1426789027.748,46.327698
1426789027.764,53.364838
1426789027.78,59.947937
1426789027.795,66.296234
1426789027.811,72.705536
1426789027.827,79.51401
1426789027.842,86.83658
1426789027.858,94.30307
1426789027.873,100.87283
1426789027.889,104.90723
1426789027.905,104.52252
1426789027.92,98.22565
1426789027.936,85.43213
1426789027.952,66.78073
1426789027.967,43.96884
1426789027.983,19.307495
1426789027.998,-4.8868103
1426789028.014,-26.705902
1426789028.03,-44.951508
1426789028.045,-59.034607
1426789028.061,-68.89328
1426789028.077,-74.81915
1426789028.092,-77.348785
1426789028.108,-77.12274
1426789028.123,-74.82446
1426789028.139,-71.01431
1426789028.155,-66.1716
1426789028.17,-60.718353
1426789028.186,-55.125305
1426789028.202,-49.90277
1426789028.217,-45.6127
1426789028.233,-42.66165
1426789028.248,-41.23694
1426789028.264,-41.21823
1426789028.28,-42.22693
1426789028.295,-43.7211
1426789028.311,-45.154663
1426789028.327,-46.020264
1426789028.342,-45.88803
1426789028.358,-44.4216
1426789028.373,-41.408142
1426789028.389,-36.78955
1426789028.405,-30.624695
1426789028.42,-23.078888
1426789028.436,-14.330658
1426789028.452,-4.6042786
1426789028.467,5.8123474
1426789028.483,16.519653
1426789028.498,26.984314
1426789028.514,36.735535
1426789028.53,45.401825
1426789028.545,52.956055
1426789028.561,59.700623
1426789028.577,66.19495
1426789028.592,73.01227
1426789028.608,80.62103
1426789028.623,89.103516
1426789028.639,98.06137
1426789028.655,106.627686
1426789028.67,113.47641
1426789028.686,117.02933
1426789028.702,115.78647
1426789028.717,108.75226
1426789028.733,95.865204
1426789028.748,78.175476
1426789028.764,57.67682
1426789028.78,36.81897
1426789028.795,17.918365
1426789028.811,2.5518494
1426789028.827,-8.598022
1426789028.842,-15.732605
1426789028.858,-19.553802
1426789028.873,-20.887573
1426789028.889,-20.456879
1426789028.905,-18.809021
1426789028.92,-16.422455
1426789028.936,-13.825165
1426789028.952,-11.6215515
1426789028.967,-10.407867
1426789028.983,-10.629517
1426789028.998,-12.463989
1426789029.014,-15.783264
1426789029.03,-20.245361
1426789029.045,-25.438995
1426789029.061,-31.029602
1426789029.077,-36.81198
1426789029.092,-42.76346
1426789029.108,-48.90805
1426789029.123,-55.24942
1426789029.139,-61.65271
1426789029.155,-67.78525
1426789029.17,-73.101166
1426789029.186,-76.95419
1426789029.202,-78.72815
1426789029.217,-78.061646
1426789029.233,-74.997314
1426789029.248,-69.98056
1426789029.264,-63.713226
1426789029.28,-56.877594
1426789029.295,-49.88965
1426789029.311,-42.782562
1426789029.327,-35.29016
1426789029.342,-27.084076
1426789029.358,-18.081085
1426789029.373,-8.567627
1426789029.389,0.8796997
1426789029.405,9.581665
1426789029.42,17.054108
1426789029.436,23.197174
1426789029.452,28.333008
1426789029.467,33.135956
1426789029.483,38.439087
1426789029.498,44.9841
1426789029.514,53.10608
1426789029.53,62.56729
1426789029.545,72.38696
1426789029.561,80.995575
1426789029.577,86.508514
1426789029.592,87.259186
1426789029.608,82.240875
1426789029.623,71.41571
1426789029.639,55.698914
1426789029.655,36.722046
1426789029.67,16.422882
1426789029.686,-3.3230896
1426789029.702,-21.021942
1426789029.717,-35.623077
1426789029.733,-46.56842
1426789029.748,-53.762177
1426789029.764,-57.472656
1426789029.78,-58.211212
1426789029.795,-56.624176
1426789029.811,-53.339478
1426789029.827,-48.94751
1426789029.842,-43.89856
1426789029.858,-38.562622
1426789029.873,-33.226593
1426789029.889,-28.166595
1426789029.905,-23.64862
1426789029.92,-19.938202
1426789029.936,-17.275848
1426789029.952,-15.814697
1426789029.967,-15.586761
1426789029.983,-16.418915
1426789029.998,-17.8974
1426789030.014,-19.478973
1426789030.03,-20.63089
1426789030.045,-20.955994
1426789030.061,-20.307129
1426789030.077,-18.760406
1426789030.092,-16.49228
1426789030.108,-13.67749
1426789030.124,-10.412933
1426789030.139,-6.760315
1426789030.155,-2.7748413
1426789030.17,1.3621521
1426789030.186,5.4740906
1426789030.202,9.440491
1426789030.217,13.267975
1426789030.233,17.199677
1426789030.249,21.597382
1426789030.264,26.817474
1426789030.28,33.052795
1426789030.295,40.26007
1426789030.311,48.225067
1426789030.327,56.579254
1426789030.342,64.913635
1426789030.358,72.8212
1426789030.374,79.98181
1426789030.389,86.190765
1426789030.405,91.44238
1426789030.42,95.89923
1426789030.436,99.795074
1426789030.452,103.31357
1426789030.467,106.36478
1426789030.483,108.4899
1426789030.499,108.859375
1426789030.514,106.4498
1426789030.53,100.34317
1426789030.545,90.05481
1426789030.561,75.73874
1426789030.577,58.20804
1426789030.592,38.7619
1426789030.608,18.904602
1426789030.624,0.033813477
1426789030.639,-16.86142
1426789030.655,-31.225739
1426789030.67,-42.976715
1426789030.686,-52.277313
1426789030.702,-59.369385
1426789030.717,-64.50162
1426789030.733,-67.832825
1426789030.749,-69.483765
1426789030.764,-69.609955
1426789030.78,-68.41962
1426789030.795,-66.2601
1426789030.811,-63.572357
1426789030.827,-60.912445
1426789030.842,-58.861847
1426789030.858,-57.98056
1426789030.874,-58.6427
1426789030.889,-60.940826
1426789030.905,-64.54111
1426789030.92,-68.82626
1426789030.936,-72.96149
1426789030.952,-76.19769
1426789030.967,-77.97681
1426789030.983,-78.01959
1426789030.999,-76.276276
1426789031.014,-72.86066
1426789031.03,-67.97467
1426789031.045,-61.913086
1426789031.061,-55.064026
1426789031.077,-47.84079
1426789031.092,-40.611267
1426789031.108,-33.56537
1426789031.124,-26.684357
1426789031.139,-19.798004
1426789031.155,-12.713043
1426789031.17,-5.441437
1426789031.186,1.7666931
1426789031.202,8.490723
1426789031.217,14.35553
1426789031.233,19.181824
1426789031.249,23.156921
1426789031.264,26.73999
1426789031.28,30.529205
1426789031.295,35.056458
1426789031.311,40.617523
1426789031.327,47.15921
1426789031.342,54.2511
1426789031.358,61.120422
1426789031.374,66.71225
1426789031.389,69.86566
1426789031.405,69.58925
1426789031.42,65.26677
1426789031.436,56.955383
1426789031.452,45.34903
1426789031.467,31.686096
1426789031.483,17.379135
1426789031.499,3.7214966
1426789031.514,-8.4655
1426789031.53,-18.801132
1426789031.545,-27.25148
1426789031.561,-33.890137
1426789031.577,-38.75627
1426789031.592,-41.83165
1426789031.608,-43.072098
1426789031.624,-42.573074
1426789031.639,-40.66008
1426789031.655,-37.864548
1426789031.67,-34.811584
1426789031.686,-32.035187
1426789031.702,-29.893158
1426789031.717,-28.484802
1426789031.733,-27.7771
1426789031.749,-27.710709
1426789031.764,-28.25415
1426789031.78,-29.403671
1426789031.795,-31.120178
1426789031.811,-33.187637
1426789031.827,-35.233383
1426789031.842,-36.77417
1426789031.858,-37.349014
1426789031.874,-36.72609
1426789031.889,-35.01544
1426789031.905,-32.59247
1426789031.92,-29.963074
1426789031.936,-27.50772
1426789031.952,-25.269455
1426789031.967,-22.949432
1426789031.983,-20.046745
1426789031.999,-16.0756
1426789032.014,-10.893394
1426789032.03,-4.7549667
1426789032.045,1.7484436
1426789032.061,7.968704
1426789032.077,13.456001
1426789032.092,18.159561
1426789032.108,22.319336
1426789032.124,26.308601
1426789032.139,30.398315
1426789032.155,34.620384
1426789032.17,38.819397
1426789032.186,42.782883
1426789032.202,46.373825
1426789032.217,49.59417
1426789032.233,52.6077
1426789032.249,55.627506
1426789032.264,58.86369
1426789032.28,62.552895
1426789032.295,66.8822
1426789032.311,72.00161
1426789032.327,77.84016
1426789032.342,83.99918
1426789032.358,89.62727
1426789032.374,93.60591
1426789032.389,94.72715
1426789032.405,92.107285
1426789032.42,85.44877
1426789032.436,75.06226
1426789032.452,61.795685
1426789032.467,46.753815
1426789032.483,31.080452
1426789032.499,15.778904
1426789032.514,1.6542664
1426789032.53,-10.697111
1426789032.545,-20.90967
1426789032.561,-28.801882
1426789032.577,-34.433945
1426789032.592,-37.983147
1426789032.608,-39.70571
1426789032.624,-39.85413
1426789032.639,-38.71141
1426789032.655,-36.576267
1426789032.67,-33.859886
1426789032.686,-31.013298
1426789032.702,-28.478146
1426789032.717,-26.641777
1426789032.733,-25.767508
1426789032.749,-25.968906
1426789032.764,-27.254965
1426789032.78,-29.502117
1426789032.796,-32.447598
1426789032.811,-35.675823
1426789032.827,-38.690502
1426789032.842,-40.940647
1426789032.858,-42.008423
1426789032.874,-41.680275
1426789032.889,-40.046352
1426789032.905,-37.423073
1426789032.92,-34.202183
1426789032.936,-30.740051
1426789032.952,-27.258492
1426789032.967,-23.809986
1426789032.983,-20.314182
1426789032.999,-16.675684
1426789033.014,-12.841921
1426789033.03,-8.839626
1426789033.046,-4.8389397
1426789033.061,-1.0037842
1426789033.077,2.5250378
1426789033.092,5.767046
1426789033.108,8.884741
1426789033.124,12.150383
1426789033.139,15.800404
1426789033.155,19.949074
1426789033.171,24.519505
1426789033.186,29.301983
1426789033.202,34.065792
1426789033.217,38.660477
1426789033.233,43.07111
1426789033.249,47.431526
1426789033.264,51.967934
1426789033.28,56.92504
1426789033.296,62.519543
1426789033.311,68.84496
1426789033.327,75.74493
1426789033.342,82.706795
1426789033.358,88.786606
1426789033.374,92.7319
1426789033.389,93.22951
1426789033.405,89.27838
1426789033.421,80.52951
1426789033.436,67.46806
1426789033.452,51.328026
1426789033.467,33.759884
1426789033.483,16.462849
1426789033.499,0.8066788
1426789033.514,-12.3639145
1426789033.53,-22.679886
1426789033.546,-30.208595
1426789033.561,-35.171852
1426789033.577,-37.93036
1426789033.592,-38.848194
1426789033.608,-38.333008
1426789033.624,-36.802856
1426789033.639,-34.685474
1426789033.655,-32.333817
1426789033.671,-30.078812
1426789033.686,-28.171917
1426789033.702,-26.785133
1426789033.717,-26.035389
1426789033.733,-25.98627
1426789033.749,-26.644802
1426789033.764,-28.016129
1426789033.78,-30.038017
1426789033.796,-32.563133
1426789033.811,-35.344593
1426789033.827,-38.001865
1426789033.842,-40.019394
1426789033.858,-40.90773
1426789033.874,-40.3015
1426789033.889,-38.11629
1426789033.905,-34.555565
1426789033.921,-30.077156
1426789033.936,-25.202454
1426789033.952,-20.3886
1426789033.967,-15.916645
1426789033.983,-11.798584
1426789033.999,-7.864418
1426789034.014,-3.7959023
1426789034.03,0.7312088
1426789034.046,5.9051514
1426789034.061,11.744312
1426789034.077,17.975555
1426789034.092,24.223839
1426789034.108,30.067207
1426789034.124,35.30499
1426789034.139,39.934998
1426789034.155,44.267345
1426789034.171,48.742157
1426789034.186,53.810093
1426789034.202,59.73948
1426789034.217,66.46472
1426789034.233,73.52565
1426789034.249,80.04107
1426789034.264,84.82862
1426789034.28,86.57442
1426789034.296,84.22629
1426789034.311,77.25812
1426789034.327,65.8506
1426789034.342,50.977432
1426789034.358,34.098244
1426789034.374,16.876541
1426789034.389,0.73794365
1426789034.405,-13.310713
1426789034.421,-24.791574
1426789034.436,-33.63079
1426789034.452,-39.98549
1426789034.467,-44.087067
1426789034.483,-46.129913
1426789034.499,-46.31407
1426789034.514,-44.911804
1426789034.53,-42.332626
1426789034.546,-39.12538
1426789034.561,-35.878277
1426789034.577,-33.11789
1426789034.592,-31.186253
1426789034.608,-30.258755
1426789034.624,-30.313496
1426789034.639,-31.258108
1426789034.655,-32.87526
1426789034.671,-34.926414
1426789034.686,-37.09813
1426789034.702,-39.06733
1426789034.717,-40.522945
1426789034.733,-41.232265
1426789034.749,-41.110176
1426789034.764,-40.145645
1426789034.78,-38.436367
1426789034.796,-36.055405
1426789034.811,-33.033287
1426789034.827,-29.388424
1426789034.842,-25.16227
1426789034.858,-20.441483
1426789034.874,-15.3762045
1426789034.889,-10.168407
1426789034.905,-4.9409914
1426789034.921,0.26725006
1426789034.936,5.545396
1426789034.952,11.016106
1426789034.967,16.729525
1426789034.983,22.605642
1426789034.999,28.445415
1426789035.014,33.993923
1426789035.03,39.09697
1426789035.046,43.733894
1426789035.061,48.09731
1426789035.077,52.531723
1426789035.092,57.41193
1426789035.108,63.074924
1426789035.124,69.73241
1426789035.139,77.27488
1426789035.155,85.20007
1426789035.171,92.52962
1426789035.186,97.92579
1426789035.202,99.94199
1426789035.217,97.44135
1426789035.233,89.92266
1426789035.249,77.6839
1426789035.264,61.782772
1426789035.28,43.712585
1426789035.296,25.063705
1426789035.311,7.2495174
1426789035.327,-8.652138
1426789035.342,-21.96346
1426789035.358,-32.309334
1426789035.374,-39.630547
1426789035.389,-44.12151
1426789035.405,-46.142906
1426789035.421,-46.20172
1426789035.436,-44.793137
1426789035.452,-42.38793
1426789035.468,-39.42002
1426789035.483,-36.324406
1426789035.499,-33.510784
1426789035.514,-31.318478
1426789035.53,-29.948673
1426789035.546,-29.425072
1426789035.561,-29.679878
1426789035.577,-30.572159
1426789035.592,-31.998505
1426789035.608,-33.91496
1426789035.624,-36.16948
1426789035.639,-38.490784
1426789035.655,-40.40097
1426789035.671,-41.38906
1426789035.686,-41.02932
1426789035.702,-39.19436
1426789035.718,-36.064865
1426789035.733,-32.017998
1426789035.749,-27.467743
1426789035.764,-22.672531
1426789035.78,-17.682129
1426789035.796,-12.424355
1426789035.811,-6.833809
1426789035.827,-0.93136597
1426789035.843,5.138489
1426789035.858,11.15448
1426789035.874,16.88427
1426789035.889,22.108543
1426789035.905,26.697556
1426789035.921,30.599716
1426789035.936,33.914734
1426789035.952,36.932434
1426789035.968,40.162125
1426789035.983,44.138397
1426789035.999,49.301964
1426789036.014,55.729156
1426789036.03,63.06292
1426789036.046,70.505486
1426789036.061,76.95539
1426789036.077,81.16423
1426789036.093,81.9682
1426789036.108,78.466545
1426789036.124,70.26459
1426789036.139,57.601807
1426789036.155,41.42575
1426789036.171,23.220367
1426789036.186,4.742523
1426789036.202,-12.4101715
1426789036.218,-27.050049
1426789036.233,-38.588882
1426789036.249,-46.931625
1426789036.264,-52.256775
1426789036.28,-54.87413
1426789036.296,-55.069458
1426789036.311,-53.136734
1426789036.327,-49.423203
1426789036.343,-44.408203
1426789036.358,-38.698334
1426789036.374,-32.981934
1426789036.389,-27.94777
1426789036.405,-24.15306
1426789036.421,-21.949875
1426789036.436,-21.39766
1426789036.452,-22.32956
1426789036.468,-24.33818
1426789036.483,-26.927078
1426789036.499,-29.529556
1426789036.514,-31.643173
1426789036.53,-32.850784
1426789036.546,-32.857178
1426789036.561,-31.527481
1426789036.577,-28.86383
1426789036.593,-24.996918
1426789036.608,-20.097382
1426789036.624,-14.326904
1426789036.639,-7.821533
1426789036.655,-0.72901917
1426789036.671,6.772232
1426789036.686,14.461716
1426789036.702,22.079254
1426789036.718,29.460999
1426789036.733,36.51323
1426789036.749,43.28781
1426789036.764,49.924255
1426789036.78,56.629913
1426789036.796,63.589798
1426789036.811,70.89365
1426789036.827,78.35536
1426789036.843,85.40791
1426789036.858,91.08177
1426789036.874,94.07936
1426789036.889,93.09064
1426789036.905,87.17688
1426789036.921,76.10779
1426789036.936,60.536987
1426789036.952,41.869507
1426789036.968,21.915741
1426789036.983,2.5046082
1426789036.999,-14.930267
1426789037.014,-29.513336
1426789037.03,-40.976257
1426789037.046,-49.430817
1426789037.061,-55.19214
1426789037.077,-58.556793
1426789037.093,-59.68744
1426789037.108,-58.731476
1426789037.124,-55.92682
1426789037.139,-51.736877
1426789037.155,-46.849
1426789037.171,-42.052734
1426789037.186,-38.026215
1426789037.202,-35.193024
1426789037.218,-33.692657
1426789037.233,-33.492004
1426789037.249,-34.50647
1426789037.264,-36.651703
1426789037.28,-39.730164
1426789037.296,-43.392456
1426789037.311,-47.026947
1426789037.327,-49.890472
1426789037.343,-51.341095
1426789037.358,-50.99765
1426789037.374,-48.803192
1426789037.389,-45.002747
1426789037.405,-39.957855
1426789037.421,-33.99057
1426789037.436,-27.324066
1426789037.452,-20.04721
1426789037.468,-12.197327
1426789037.483,-3.850006
1426789037.499,4.826996
1426789037.514,13.515564
1426789037.53,21.768768
1426789037.546,29.16034
1426789037.561,35.42932
1426789037.577,40.617584
1426789037.593,45.118805
1426789037.608,49.615234
1426789037.624,54.835907
1426789037.639,61.291473
1426789037.655,69.00882
1426789037.671,77.42438
1426789037.686,85.4075
1426789037.702,91.46716
1426789037.718,94.07391
1426789037.733,92.01837
1426789037.749,84.73398
1426789037.764,72.43732
1426789037.78,56.13669
1426789037.796,37.366882
1426789037.811,17.832916
1426789037.827,-0.86724854
1426789037.843,-17.528412
1426789037.858,-31.443207
1426789037.874,-42.320435
1426789037.889,-50.202576
1426789037.905,-55.326965
1426789037.921,-58.039795
1426789037.936,-58.771484
1426789037.952,-58.002167
1426789037.968,-56.240723
1426789037.983,-53.98044
1426789037.999,-51.64804
1426789038.014,-49.57898
1426789038.03,-48.044556
1426789038.046,-47.240356
1426789038.061,-47.28238
1426789038.077,-48.17685
1426789038.093,-49.765167
1426789038.108,-51.690857
1426789038.124,-53.469757
1426789038.139,-54.585938
1426789038.155,-54.65219
1426789038.171,-53.46454
1426789038.186,-50.9971
1426789038.202,-47.367523
1426789038.218,-42.735718
1426789038.233,-37.299133
1426789038.249,-31.287323
1426789038.264,-24.927124
1426789038.28,-18.415985
1426789038.296,-11.83139
1426789038.311,-5.1720276
1426789038.327,1.6589966
1426789038.343,8.680023
1426789038.358,15.794495
1426789038.374,22.736237
1426789038.39,29.178162
1426789038.405,34.904266
1426789038.421,39.950714
1426789038.436,44.651306
1426789038.452,49.578827
1426789038.468,55.330322
1426789038.483,62.23227
1426789038.499,70.09778
1426789038.515,78.08591
1426789038.53,84.755005
1426789038.546,88.44821
1426789038.561,87.73566
1426789038.577,81.88403
1426789038.593,71.07358
1426789038.608,56.340363
1426789038.624,39.20764
1426789038.64,21.266724
1426789038.655,3.8474731
1426789038.671,-12.168579
1426789038.686,-26.242798
1426789038.702,-38.062622
1426789038.718,-47.453674
1426789038.733,-54.28253
1426789038.749,-58.539063
1426789038.765,-60.35144
1426789038.78,-60.028503
1426789038.796,-57.997925
1426789038.811,-54.84912
1426789038.827,-51.21631
1426789038.843,-47.72809
1426789038.858,-44.9115
1426789038.874,-43.147217
1426789038.89,-42.592224
1426789038.905,-43.18695
1426789038.921,-44.676636
1426789038.936,-46.592407
1426789038.952,-48.399902
1426789038.968,-49.54419
1426789038.983,-49.576843
1426789038.999,-48.262817
1426789039.015,-45.621094
1426789039.03,-41.865295
1426789039.046,-37.27002
1426789039.061,-32.11609
1426789039.077,-26.531189
1426789039.093,-20.593262
1426789039.108,-14.325073
1426789039.124,-7.79834
1426789039.14,-1.1412964
1426789039.155,5.4769287
1426789039.171,11.885315
1426789039.186,17.958435
1426789039.202,23.637634
1426789039.218,28.987305
1426789039.233,34.210083
1426789039.249,39.57483
1426789039.265,45.32782
1426789039.28,51.452454
1426789039.296,57.523376
1426789039.311,62.65808
1426789039.327,65.6875
1426789039.343,65.44531
1426789039.358,61.2041
1426789039.374,52.8631
1426789039.39,41.02722
1426789039.405,26.80249
1426789039.421,11.459839
1426789039.436,-3.7994385
1426789039.452,-18.018555
1426789039.468,-30.4776
1426789039.483,-40.687866
1426789039.499,-48.297546
1426789039.515,-53.1109
1426789039.53,-55.132507
1426789039.546,-54.5813
1426789039.561,-51.947327
1426789039.577,-47.880127
1426789039.593,-43.138306
1426789039.608,-38.41815
1426789039.624,-34.323547
1426789039.64,-31.29834
1426789039.655,-29.627502
1426789039.671,-29.385925
1426789039.686,-30.391418
1426789039.702,-32.22223
1426789039.718,-34.31842
1426789039.733,-36.1131
1426789039.749,-37.178345
1426789039.765,-37.330933
1426789039.78,-36.61328
1426789039.796,-35.13336
1426789039.811,-33.013367
1426789039.827,-30.193665
1426789039.843,-26.529358
1426789039.858,-21.891663
1426789039.874,-16.299255
1426789039.89,-9.929749
1426789039.905,-3.098175
1426789039.921,3.8449402
1426789039.936,10.628265
1426789039.952,17.055176
1426789039.968,23.086884
1426789039.983,28.814453
1426789039.999,34.41147
1426789040.015,40.144165
1426789040.03,46.258057
1426789040.046,52.8273
1426789040.061,59.538757
1426789040.077,65.65076
1426789040.093,69.99774
1426789040.108,71.2865
1426789040.124,68.4819
1426789040.14,61.137207
1426789040.155,49.578247
1426789040.171,34.856323
1426789040.186,18.469635
1426789040.202,2.0847778
1426789040.218,-12.857697
1426789040.233,-25.370422
1426789040.249,-34.99362
1426789040.265,-41.709717
1426789040.28,-45.836792
1426789040.296,-47.774994
1426789040.311,-47.95053
1426789040.327,-46.770844
1426789040.343,-44.623077
1426789040.358,-41.921234
1426789040.374,-39.142303
1426789040.39,-36.72467
1426789040.405,-35.00122
1426789040.421,-34.128174
1426789040.436,-34.0632
1426789040.452,-34.648895
1426789040.468,-35.73935
1426789040.483,-37.19864
1426789040.499,-38.92151
1426789040.515,-40.735138
1426789040.53,-42.393677
1426789040.546,-43.523315
1426789040.561,-43.71042
1426789040.577,-42.63153
1426789040.593,-40.124695
1426789040.608,-36.265472
1426789040.624,-31.388947
1426789040.64,-25.938263
1426789040.655,-20.321472
1426789040.671,-14.787842
1426789040.686,-9.393372
1426789040.702,-4.061249
1426789040.718,1.2853088
1426789040.733,6.659668
1426789040.749,11.970306
1426789040.765,17.050934
1426789040.78,21.719849
1426789040.796,25.889069
1426789040.811,29.577637
1426789040.827,32.985382
1426789040.843,36.451233
1426789040.858,40.42624
1426789040.874,45.324646
1426789040.89,51.3562
1426789040.905,58.353943
1426789040.921,65.66467
1426789040.936,72.17694
1426789040.952,76.52356
1426789040.968,77.40195
1426789040.983,73.95703
1426789040.999,66.034424
1426789041.015,54.31897
1426789041.03,40.098877
1426789041.046,24.95514
1426789041.062,10.328644
1426789041.077,-2.7399597
1426789041.093,-13.743927
1426789041.108,-22.549286
1426789041.124,-29.282837
1426789041.14,-34.12497
1426789041.155,-37.283752
1426789041.171,-38.996307
1426789041.187,-39.566833
1426789041.202,-39.292572
1426789041.218,-38.427612
1426789041.233,-37.14334
1426789041.249,-35.57019
1426789041.265,-33.905884
1426789041.28,-32.43393
1426789041.296,-31.503174
1426789041.312,-31.376328
1426789041.327,-32.132523
1426789041.343,-33.615982
1426789041.358,-35.510315
1426789041.374,-37.43976
1426789041.39,-39.057434
1426789041.405,-40.080475
1426789041.421,-40.28769
1426789041.437,-39.52385
1426789041.452,-37.711624
1426789041.468,-34.891464
1426789041.483,-31.180542
1426789041.499,-26.821198
1426789041.515,-22.076645
1426789041.53,-17.207336
1426789041.546,-12.413788
1426789041.562,-7.8012085
1426789041.577,-3.371643
1426789041.593,0.93629456
1426789041.608,5.250931
1426789041.624,9.602188
1426789041.64,13.887161
1426789041.655,17.870636
1426789041.671,21.290863
1426789041.687,23.974792
1426789041.702,26.002426
1426789041.718,27.713547
1426789041.733,29.581772
1426789041.749,32.12671
1426789041.765,35.696396
1426789041.78,40.415573
1426789041.796,46.122917
1426789041.812,52.408142
1426789041.827,58.597992
1426789041.843,63.812027
1426789041.858,67.06618
1426789041.874,67.37966
1426789041.89,64.067474
1426789041.905,56.894493
1426789041.921,46.279854
1426789041.937,33.217575
1426789041.952,19.098282
1426789041.968,5.3067093
1426789041.983,-6.996849
1426789041.999,-17.174263
1426789042.015,-25.038452
1426789042.03,-30.751041
1426789042.046,-34.624416
1426789042.062,-36.897808
1426789042.077,-37.748074
1426789042.093,-37.30139
1426789042.108,-35.759247
1426789042.124,-33.428234
1426789042.14,-30.741413
1426789042.155,-28.176334
1426789042.171,-26.12234
1426789042.187,-24.851435
1426789042.202,-24.436075
1426789042.218,-24.75349
1426789042.233,-25.588366
1426789042.249,-26.68155
1426789042.265,-27.800737
1426789042.28,-28.793598
1426789042.296,-29.539518
1426789042.312,-29.923475
1426789042.327,-29.775417
1426789042.343,-28.890816
1426789042.358,-27.071104
1426789042.374,-24.246658
1426789042.39,-20.56725
1426789042.405,-16.373566
1426789042.421,-12.11261
1426789042.437,-8.156868
1426789042.452,-4.6659164
1426789042.468,-1.5429726
1426789042.483,1.4879532
1426789042.499,4.745178
1426789042.515,8.431488
1426789042.53,12.57299
1426789042.546,16.991386
1426789042.562,21.385376
1426789042.577,25.445236
1426789042.593,28.941277
1426789042.608,31.828613
1426789042.624,34.27201
1426789042.64,36.62133
1426789042.655,39.312874
1426789042.671,42.780296
1426789042.687,47.281403
1426789042.702,52.79708
1426789042.718,58.97505
1426789042.733,65.119705
1426789042.749,70.1839
1426789042.765,72.9888
1426789042.78,72.44963
1426789042.796,67.93196
1426789042.812,59.445618
1426789042.827,47.778656
1426789042.843,34.26474
1426789042.858,20.415009
1426789042.874,7.5250244
1426789042.89,-3.601715
1426789042.905,-12.652786
1426789042.921,-19.668
1426789042.937,-24.78012
1426789042.952,-28.12004
1426789042.968,-29.759064
1426789042.983,-29.824814
1426789042.999,-28.565369
1426789043.015,-26.358368
1426789043.03,-23.694046
1426789043.046,-21.084427
1426789043.062,-18.937866
1426789043.077,-17.516891
1426789043.093,-16.894089
1426789043.108,-16.97676
1426789043.124,-17.574081
1426789043.14,-18.504913
1426789043.155,-19.621094
1426789043.171,-20.86316
1426789043.187,-22.115417
1426789043.202,-23.151657
1426789043.218,-23.632797
1426789043.233,-23.20398
1426789043.249,-21.620285
1426789043.265,-18.892532
1426789043.28,-15.291122
1426789043.296,-11.224182
1426789043.312,-7.0897217
1426789043.327,-3.112671
1426789043.343,0.7180786
1426789043.358,4.5620117
1426789043.374,8.607391
1426789043.39,12.904114
1426789043.405,17.313568
1426789043.421,21.553986
1426789043.437,25.32962
1426789043.452,28.497253
1426789043.468,31.17035
1426789043.483,33.690613
1426789043.499,36.479767
1426789043.515,39.894165
1426789043.53,44.102325
1426789043.546,49.0289
1426789043.562,54.41559
1426789043.577,59.7948
1426789043.593,64.47714
1426789043.608,67.59946
1426789043.624,68.22308
1426789043.64,65.59949
1426789043.655,59.432434
1426789043.671,50.04294
1426789043.687,38.30771
1426789043.702,25.45288
1426789043.718,12.676971
1426789043.734,0.9309082
1426789043.749,-9.220825
1426789043.765,-17.534546
1426789043.78,-23.962158
1426789043.796,-28.527283
1426789043.812,-31.322906
1426789043.827,-32.439972
1426789043.843,-32.03488
1426789043.858,-30.354645
1426789043.874,-27.766937
1426789043.89,-24.76828
1426789043.905,-21.919708
1426789043.921,-19.74405
1426789043.937,-18.582764
1426789043.952,-18.544708
1426789043.968,-19.528229
1426789043.984,-21.294098
1426789043.999,-23.550598
1426789044.015,-26.00534
1426789044.03,-28.351532
1426789044.046,-30.294708
1426789044.062,-31.55368
1426789044.077,-31.899078
1426789044.093,-31.25827
1426789044.109,-29.716095
1426789044.124,-27.517517
1426789044.14,-24.895172
1426789044.155,-22.057617
1426789044.171,-19.127838
1426789044.187,-16.120667
1426789044.202,-12.990204
1426789044.218,-9.631592
1426789044.234,-5.945282
1426789044.249,-1.9046631
1426789044.265,2.4102173
1426789044.28,6.7561646
1426789044.296,10.867798
1426789044.312,14.517517
1426789044.327,17.711395
1426789044.343,20.65625
1426789044.359,23.722107
1426789044.374,27.220978
1426789044.39,31.263336
1426789044.405,35.740753
1426789044.421,40.378906
1426789044.437,44.9144
1426789044.452,49.225372
1426789044.468,53.40561
1426789044.484,57.740845
1426789044.499,62.59076
1426789044.515,68.22403
1426789044.53,74.58365
1426789044.546,81.193665
1426789044.562,87.06085
1426789044.577,90.92322
1426789044.593,91.56058
1426789044.609,88.14987
1426789044.624,80.537415
1426789044.64,69.27136
1426789044.655,55.43622
1426789044.671,40.308624
1426789044.687,25.11261
1426789044.702,10.762756
1426789044.718,-2.097351
1426789044.734,-13.067108
1426789044.749,-21.941498
1426789044.765,-28.605011
1426789044.78,-33.104736
1426789044.796,-35.57077
1426789044.812,-36.306427
1426789044.827,-35.678436
1426789044.843,-34.14563
1426789044.859,-32.1279
1426789044.874,-29.987213
1426789044.89,-28.00119
1426789044.905,-26.398743
1426789044.921,-25.39148
1426789044.937,-25.198822
1426789044.952,-25.942444
1426789044.968,-27.568024
1426789044.984,-29.821075
1426789044.999,-32.257904
1426789045.015,-34.350952
1426789045.03,-35.703827
1426789045.046,-36.076202
1426789045.062,-35.470856
1426789045.077,-34.021088
1426789045.093,-31.900024
1426789045.109,-29.205261
1426789045.124,-26.017609
1426789045.14,-22.352875
1426789045.155,-18.233582
1426789045.171,-13.688416
1426789045.187,-8.766296
1426789045.202,-3.5762024
1426789045.218,1.7098694
1426789045.234,6.9107666
1426789045.249,11.8506775
1426789045.265,16.439087
1426789045.28,20.67804
1426789045.296,24.632965
1426789045.312,28.345032
1426789045.327,31.860748
1426789045.343,35.1911
1426789045.359,38.41214
1426789045.374,41.678497
1426789045.39,45.207428
1426789045.405,49.21045
1426789045.421,53.82553
1426789045.437,59.104156
1426789045.452,65.06894
1426789045.468,71.71661
1426789045.484,78.91333
1426789045.499,86.22403
1426789045.515,92.80237
1426789045.53,97.35458
1426789045.546,98.40964
1426789045.562,94.74353
1426789045.577,85.85147
1426789045.593,72.19159
1426789045.609,55.19043
1426789045.624,36.792603
1426789045.64,18.91623
1426789045.655,2.9808044
1426789045.671,-10.282196
1426789045.687,-20.794678
1426789045.702,-28.79892
1426789045.718,-34.542603
1426789045.734,-38.14984
1426789045.749,-39.637726
1426789045.765,-39.12732
1426789045.78,-36.980682
1426789045.796,-33.801636
1426789045.812,-30.34616
1426789045.827,-27.28299
1426789045.843,-25.049774
1426789045.859,-23.8443
1426789045.874,-23.667358
1426789045.89,-24.426239
1426789045.905,-26.011292
1426789045.921,-28.281067
1426789045.937,-31.05133
1426789045.952,-34.051605
1426789045.968,-36.926727
1426789045.984,-39.256897
1426789045.999,-40.635834
1426789046.015,-40.729492
1426789046.03,-39.358
1426789046.046,-36.5235
1426789046.062,-32.418457
1426789046.077,-27.39859
1426789046.093,-21.841797
1426789046.109,-16.066101
1426789046.124,-10.243286
1426789046.14,-4.3788757
1426789046.155,1.5713501
1426789046.171,7.6871643
1426789046.187,13.959076
1426789046.202,20.288147
1426789046.218,26.48909
1426789046.234,32.325485
1426789046.249,37.59984
1426789046.265,42.267487
1426789046.28,46.467834
1426789046.296,50.584625
1426789046.312,55.138885
1426789046.327,60.62001
1426789046.343,67.320724
1426789046.359,75.08092
1426789046.374,83.190445
1426789046.39,90.4749
1426789046.406,95.43971
1426789046.421,96.62764
1426789046.437,92.984375
1426789046.452,84.18443
1426789046.468,70.752014
1426789046.484,53.93358
1426789046.499,35.35341
1426789046.515,16.65274
1426789046.53,-0.84072876
1426789046.546,-16.312729
1426789046.562,-29.38771
1426789046.577,-39.975677
1426789046.593,-48.097733
1426789046.609,-53.797974
1426789046.624,-57.153
1426789046.64,-58.36856
1426789046.656,-57.83156
1426789046.671,-56.073296
1426789046.687,-53.75135
1426789046.702,-51.462555
1426789046.718,-49.691727
1426789046.734,-48.715584
1426789046.749,-48.641518
1426789046.765,-49.370018
1426789046.781,-50.77414
1426789046.796,-52.65275
1426789046.812,-54.78025
1426789046.827,-56.914406
1426789046.843,-58.76741
1426789046.859,-60.022247
1426789046.874,-60.393356
1426789046.89,-59.621964
1426789046.906,-57.584023
1426789046.921,-54.314804
1426789046.937,-50.034935
1426789046.952,-45.094627
1426789046.968,-39.871258
1426789046.984,-34.61619
1426789046.999,-29.464008
1426789047.015,-24.346863
1426789047.031,-19.018818
1426789047.046,-13.196831
1426789047.062,-6.6545315
1426789047.077,0.63677216
1426789047.093,8.463587
1426789047.109,16.376318
1426789047.124,23.850529
1426789047.14,30.470592
1426789047.156,36.052547
1426789047.171,40.793026
1426789047.187,45.133194
1426789047.202,49.70052
1426789047.218,55.133987
1426789047.234,61.91804
1426789047.249,70.100266
1426789047.265,79.215065
1426789047.281,88.14646
1426789047.296,95.25482
1426789047.312,98.7177
1426789047.327,97.06828
1426789047.343,89.633644
1426789047.359,76.76271
1426789047.374,59.717052
1426789047.39,40.278843
1426789047.406,20.309288
1426789047.421,1.3808022
1426789047.437,-15.459465
1426789047.452,-29.654125
1426789047.468,-41.068443
1426789047.484,-49.77655
1426789047.499,-55.97505
1426789047.515,-59.86706
1426789047.531,-61.667946
1426789047.546,-61.62377
1426789047.562,-60.12098
1426789047.577,-57.707962
1426789047.593,-55.010063
1426789047.609,-52.610916
1426789047.624,-50.926414
1426789047.64,-50.112556
1426789047.656,-50.124542
1426789047.671,-50.819054
1426789047.687,-52.045776
1426789047.702,-53.687622
1426789047.718,-55.585464
1426789047.734,-57.455635
1426789047.749,-58.914253
1426789047.765,-59.519745
1426789047.781,-58.952065
1426789047.796,-57.062515
1426789047.812,-53.95823
1426789047.827,-49.90387
1426789047.843,-45.192116
1426789047.859,-40.07135
1426789047.874,-34.688705
1426789047.89,-29.130371
1426789047.906,-23.443962
1426789047.921,-17.690384
1426789047.937,-11.918655
1426789047.952,-6.139183
1426789047.968,-0.3375473
1426789047.984,5.560196
1426789047.999,11.5874405
1426789048.015,17.691406
1426789048.031,23.706375
1426789048.046,29.458237
1426789048.062,34.796005
1426789048.077,39.719833
1426789048.093,44.429398
1426789048.109,49.296005
1426789048.124,54.780212
1426789048.14,61.248657
1426789048.156,68.70982
1426789048.171,76.66963
1426789048.187,84.02057
1426789048.202,89.21451
1426789048.218,90.620834
1426789048.234,87.02684
1426789048.249,77.994415
1426789048.265,64.09883
1426789048.281,46.69536
1426789048.296,27.555344
1426789048.312,8.423676
1426789048.327,-9.329895
1426789048.343,-24.788345
1426789048.359,-37.390076
1426789048.374,-46.880966
1426789048.39,-53.21994
1426789048.406,-56.567444
1426789048.421,-57.32596
1426789048.437,-56.06717
1426789048.452,-53.39218
1426789048.468,-49.86693
1426789048.484,-45.949707
1426789048.499,-42.018845
1426789048.515,-38.470276
1426789048.531,-35.70027
1426789048.546,-34.056885
1426789048.562,-33.770355
1426789048.577,-34.830185
1426789048.593,-36.95247
1426789048.609,-39.67221
1426789048.624,-42.417374
1426789048.64,-44.57541
1426789048.656,-45.683487
1426789048.671,-45.430725
1426789048.687,-43.72847
1426789048.702,-40.685776
1426789048.718,-36.580597
1426789048.734,-31.723099
1426789048.749,-26.363403
1426789048.765,-20.638824
1426789048.781,-14.493652
1426789048.796,-7.866638
1426789048.812,-0.74079895
1426789048.827,6.7358704
1426789048.843,14.261398
1426789048.859,21.534668
1426789048.874,28.321075
1426789048.89,34.577255
1426789048.906,40.453445
1426789048.921,46.259933
1426789048.937,52.28534
1426789048.952,58.76631
1426789048.968,65.718414
1426789048.984,72.853806
1426789048.999,79.47984
1426789049.015,84.46559
1426789049.031,86.42551
1426789049.046,84.09262
1426789049.062,76.74974
1426789049.077,64.5511
1426789049.093,48.618256
1426789049.109,30.720383
1426789049.124,12.7267
1426789049.14,-3.8432922
1426789049.156,-18.148895
1426789049.171,-29.99144
1426789049.187,-39.511078
1426789049.202,-46.89853
1426789049.218,-52.228226
1426789049.234,-55.480118
1426789049.249,-56.64554
1426789049.265,-55.90486
1426789049.281,-53.61841
1426789049.296,-50.32074
1426789049.312,-46.59944
1426789049.328,-43.030014
1426789049.343,-40.142654
1426789049.359,-38.31784
1426789049.374,-37.764694
1426789049.39,-38.46895
1426789049.406,-40.229385
1426789049.421,-42.673264
1426789049.437,-45.406662
1426789049.453,-48.005356
1426789049.468,-50.119583
1426789049.484,-51.421524
1426789049.499,-51.674713
1426789049.515,-50.67531
1426789049.531,-48.368958
1426789049.546,-44.843674
1426789049.562,-40.245544
1426789049.578,-34.786835
1426789049.593,-28.665833
1426789049.609,-22.102554
1426789049.624,-15.37825
1426789049.64,-8.799347
1426789049.656,-2.6198883
1426789049.671,3.037674
1426789049.687,8.168243
1426789049.703,12.949234
1426789049.718,17.593063
1426789049.734,22.29277
1426789049.749,27.067947
1426789049.765,31.811203
1426789049.781,36.371216
1426789049.796,40.623215
1426789049.812,44.618835
1426789049.828,48.669556
1426789049.843,53.28247
1426789049.859,58.997635
1426789049.874,66.107254
1426789049.89,74.35222
1426789049.906,82.73784
1426789049.921,89.65335
1426789049.937,93.23355
1426789049.953,91.96515
1426789049.968,85.14032
1426789049.984,73.1246
1426789049.999,57.14273
1426789050.015,38.91945
1426789050.031,20.166367
1426789050.046,2.2355804
1426789050.062,-13.979507
1426789050.078,-27.96054
1426789050.093,-39.398758
1426789050.109,-48.085464
1426789050.124,-53.943466
1426789050.14,-57.069168
1426789050.156,-57.810547
1426789050.171,-56.687805
1426789050.187,-54.336395
1426789050.203,-51.348175
1426789050.218,-48.23085
1426789050.234,-45.33258
1426789050.249,-42.9413
1426789050.265,-41.290543
1426789050.281,-40.57524
1426789050.296,-40.925064
1426789050.312,-42.352966
1426789050.328,-44.69136
1426789050.343,-47.584106
1426789050.359,-50.472168
1426789050.374,-52.692596
1426789050.39,-53.589874
1426789050.406,-52.72986
1426789050.421,-49.97702
1426789050.437,-45.568832
1426789050.453,-40.008377
1426789050.468,-33.854736
1426789050.484,-27.543976
1426789050.499,-21.255188
1426789050.515,-14.907028
1426789050.531,-8.304169
1426789050.546,-1.2853088
1426789050.562,6.1282806
1426789050.578,13.731323
1426789050.593,21.174057
1426789050.609,28.101227
1426789050.624,34.205917
1426789050.64,39.37819
1426789050.656,43.71788
1426789050.671,47.585052
1426789050.687,51.48947
1426789050.703,56.051834
1426789050.718,61.72307
1426789050.734,68.59917
1426789050.749,76.225204
1426789050.765,83.539856
1426789050.781,89.012405
1426789050.796,91.02019
1426789050.812,88.29076
1426789050.828,80.31334
1426789050.843,67.56897
1426789050.859,51.43869
1426789050.874,33.76918
1426789050.89,16.43547
1426789050.906,0.8420868
1426789050.921,-12.287933
1426789050.937,-22.776657
1426789050.953,-30.794846
1426789050.968,-36.551315
1426789050.984,-40.129623
1426789050.999,-41.57997
1426789051.015,-40.955307
1426789051.031,-38.496628
1426789051.046,-34.640488
1426789051.062,-30.026047
1426789051.078,-25.314972
1426789051.093,-21.16861
1426789051.109,-18.10025
1426789051.124,-16.418701
1426789051.14,-16.182037
1426789051.156,-17.244064
1426789051.171,-19.21814
1426789051.187,-21.644653
1426789051.203,-24.049255
1426789051.218,-26.00473
1426789051.234,-27.222809
1426789051.249,-27.542847
1426789051.265,-26.891693
1426789051.281,-25.295883
1426789051.296,-22.855103
1426789051.312,-19.666458
1426789051.328,-15.812988
1426789051.343,-11.342712
1426789051.359,-6.2239914
1426789051.374,-0.43077087
1426789051.39,5.9420013
1426789051.406,12.719498
1426789051.421,19.553955
1426789051.437,26.086937
1426789051.453,32.04721
1426789051.468,37.361908
1426789051.484,42.257874
1426789051.499,47.144623
1426789051.515,52.433098
1426789051.531,58.19162
1426789051.546,63.981247
1426789051.562,68.729645
1426789051.578,71.01552
1426789051.593,69.48029
1426789051.609,63.30272
1426789051.624,52.549034
1426789051.64,38.22219
1426789051.656,21.93303
1426789051.671,5.453705
1426789051.687,-9.708572
1426789051.703,-22.609406
1426789051.718,-32.832077
1426789051.734,-40.378075
1426789051.749,-45.462227
1426789051.765,-48.35177
1426789051.781,-49.322433
1426789051.796,-48.66443
1426789051.812,-46.733803
1426789051.828,-43.920265
1426789051.843,-40.671143
1426789051.859,-37.408974
1426789051.874,-34.51667
1426789051.89,-32.303604
1426789051.906,-30.98867
1426789051.921,-30.695358
1426789051.937,-31.461044
1426789051.953,-33.181564
1426789051.968,-35.5999
1426789051.984,-38.294975
1426789052,-40.708855
1426789052.015,-42.22197
1426789052.031,-42.364075
1426789052.046,-40.91311
1426789052.062,-37.96907
1426789052.078,-33.89057
1426789052.093,-29.132515
1426789052.109,-24.062225
1426789052.125,-18.86007
1426789052.14,-13.5
1426789052.156,-7.849449
1426789052.171,-1.8054733
1426789052.187,4.6094666
1426789052.203,11.234123
1426789052.218,17.812172
1426789052.234,24.078552
1426789052.25,29.843285
1426789052.265,35.064545
1426789052.281,39.862938
1426789052.296,44.537155
1426789052.312,49.50422
1426789052.328,55.184967
1426789052.343,61.783676
1426789052.359,69.097
1426789052.375,76.406
1426789052.39,82.468376
1426789052.406,85.80559
1426789052.421,85.10033
1426789052.437,79.59587
1426789052.453,69.4479
1426789052.468,55.63301
1426789052.484,39.715225
1426789052.5,23.349007
1426789052.515,7.933296
1426789052.531,-5.7394104
1426789052.546,-17.385254
1426789052.562,-27.077774
1426789052.578,-34.9778
1426789052.593,-41.13015
1426789052.609,-45.479492
1426789052.625,-47.946907
1426789052.64,-48.60495
1426789052.656,-47.739517
1426789052.671,-45.85511
1426789052.687,-43.53225
1426789052.703,-41.35363
1426789052.718,-39.71679
1426789052.734,-38.845932
1426789052.75,-38.838295
1426789052.765,-39.630775
1426789052.781,-41.059555
1426789052.796,-42.85903
1426789052.812,-44.74508
1426789052.828,-46.390297
1426789052.843,-47.47693
1426789052.859,-47.75167
1426789052.875,-47.032974
1426789052.89,-45.27439
1426789052.906,-42.569435
1426789052.921,-39.095413
1426789052.937,-35.129635
1426789052.953,-30.886967
1426789052.968,-26.50222
1426789052.984,-21.959763
1426789053,-17.212898
1426789053.015,-12.210796
1426789053.031,-7.0057526
1426789053.046,-1.7232246
1426789053.062,3.4827194
1426789053.078,8.530697
1426789053.093,13.453754
1426789053.109,18.360332
1426789053.125,23.316269
1426789053.14,28.279114
1426789053.156,33.073257
1426789053.171,37.490295
1426789053.187,41.461555
1426789053.203,45.136513
1426789053.218,48.882416
1426789053.234,53.24341
1426789053.25,58.675217
1426789053.265,65.32161
1426789053.281,72.7569
1426789053.296,79.97942
1426789053.312,85.5414
1426789053.328,87.91702
1426789053.343,85.92165
1426789053.359,79.06131
1426789053.375,67.707016
1426789053.39,52.99645
1426789053.406,36.507187
1426789053.421,19.854774
1426789053.437,4.346611
1426789053.453,-9.162826
1426789053.468,-20.328222
1426789053.484,-29.144058
1426789053.5,-35.788223
1426789053.515,-40.47818
1426789053.531,-43.41187
1426789053.546,-44.750267
1426789053.562,-44.67912
1426789053.578,-43.468895
1426789053.593,-41.478615
1426789053.609,-39.134018
1426789053.625,-36.88513
1426789053.64,-35.113937
1426789053.656,-34.10604
1426789053.671,-33.997173
1426789053.687,-34.779404
1426789053.703,-36.26902
1426789053.718,-38.215572
1426789053.734,-40.2784
1426789053.75,-42.17513
1426789053.765,-43.611015
1426789053.781,-44.349464
1426789053.796,-44.194702
1426789053.812,-42.99962
1426789053.828,-40.663757
1426789053.843,-37.173203
1426789053.859,-32.60303
1426789053.875,-27.180931
1426789053.89,-21.225557
1426789053.906,-15.120398
1426789053.921,-9.200951
1426789053.937,-3.6915684
1426789053.953,1.3608398
1426789053.968,6.0565186
1426789053.984,10.581551
1426789054,15.081696
1426789054.015,19.53397
1426789054.031,23.78191
1426789054.046,27.629158
1426789054.062,30.95507
1426789054.078,33.818798
1426789054.093,36.477673
1426789054.109,39.36343
1426789054.125,42.909016
1426789054.14,47.451405
1426789054.156,53.063564
1426789054.171,59.479565
1426789054.187,66.03862
1426789054.203,71.68393
1426789054.218,75.121765
1426789054.234,75.14095
1426789054.25,70.93173
1426789054.265,62.35598
1426789054.281,50.032524
1426789054.296,35.214302
1426789054.312,19.459023
1426789054.328,4.3232727
1426789054.343,-8.97644
1426789054.359,-19.69085
1426789054.375,-27.562004
1426789054.39,-32.729187
1426789054.406,-35.590675
1426789054.421,-36.616524
1426789054.437,-36.244522
1426789054.453,-34.834618
1426789054.468,-32.667305
1426789054.484,-30.007484
1426789054.5,-27.162048
1426789054.515,-24.519836
1426789054.531,-22.495018
1426789054.546,-21.409729
1426789054.562,-21.42443
1426789054.578,-22.449394
1426789054.593,-24.260757
1426789054.609,-26.537598
1426789054.625,-28.946861
1426789054.64,-31.147987
1426789054.656,-32.814964
1426789054.672,-33.59227
1426789054.687,-33.198677
1426789054.703,-31.452644
1426789054.718,-28.354515
1426789054.734,-24.120193
1426789054.75,-19.098969
1426789054.765,-13.664558
1426789054.781,-8.0984955
1426789054.797,-2.5324326
1426789054.812,3.0769577
1426789054.828,8.8316345
1426789054.843,14.814308
1426789054.859,21.004745
1426789054.875,27.22718
1426789054.89,33.206055
1426789054.906,38.629646
1426789054.922,43.31366
1426789054.937,47.326042
1426789054.953,51.074966
1426789054.968,55.141083
1426789054.984,60.202026
1426789055,66.72987
1426789055.015,74.82132
1426789055.031,84.046005
1426789055.047,93.4808
1426789055.062,101.82569
1426789055.078,107.69121
1426789055.093,109.90554
1426789055.109,107.829605
1426789055.125,101.47659
1426789055.14,91.59024
1426789055.156,79.38257
1426789055.172,66.29025
1426789055.187,53.612686
1426789055.203,42.312386
1426789055.218,32.898415
1426789055.234,25.54441
1426789055.25,20.169693
1426789055.265,16.620659
1426789055.281,14.73024
1426789055.297,14.31192
1426789055.312,15.153549
1426789055.328,16.975254
1426789055.343,19.45031
1426789055.359,22.23684
1426789055.375,24.985947
1426789055.39,27.355282
1426789055.406,28.965391
1426789055.422,29.44817
1426789055.437,28.47334
1426789055.453,25.936426
1426789055.468,21.941872
1426789055.484,16.91431
1426789055.5,11.3945055
1426789055.515,5.9344263
1426789055.531,0.9366112
1426789055.547,-3.3974419
1426789055.562,-7.015911
1426789055.578,-9.844688
1426789055.593,-11.7400055
1426789055.609,-12.455399
1426789055.625,-11.798161
1426789055.64,-9.807049
1426789055.656,-6.802925
1426789055.672,-3.3509598
1426789055.687,-0.094192505
1426789055.703,2.4934006
1426789055.718,4.1984024
1426789055.734,5.1047745
1426789055.75,5.4608917
1426789055.765,5.524193
1426789055.781,5.4166183
1426789055.797,5.1501923
1426789055.812,4.6658325
1426789055.828,3.9653778
1426789055.843,3.1326294
1426789055.859,2.349945
1426789055.875,1.8294373
1426789055.89,1.7564392
1426789055.906,2.2822876
1426789055.922,3.5579987
1426789055.937,5.7626495
1426789055.953,9.073959
1426789055.968,13.457886
1426789055.984,18.491226
1426789056,23.238129
1426789056.015,26.343338
1426789056.031,26.354507
1426789056.047,22.278793
1426789056.062,13.8824005
1426789056.078,1.8877563
1426789056.093,-12.324341
1426789056.109,-27.136902
1426789056.125,-41.11261
1426789056.14,-53.258392
1426789056.156,-62.99124
1426789056.172,-69.99539
1426789056.187,-74.117004
1426789056.203,-75.338684
1426789056.218,-73.892914
1426789056.234,-70.309845
1426789056.25,-65.35782
1426789056.265,-59.846313
1426789056.281,-54.467346
1426789056.297,-49.63559
1426789056.312,-45.5029
1426789056.328,-42.051483
1426789056.343,-39.26654
1426789056.359,-37.143738
1426789056.375,-35.71576
1426789056.39,-34.96939
1426789056.406,-34.792725
1426789056.422,-34.95819
1426789056.437,-35.20288
1426789056.453,-35.23355
1426789056.468,-34.818634
1426789056.484,-33.85022
1426789056.5,-32.33136
1426789056.515,-30.321716
1426789056.531,-27.905243
1426789056.547,-25.132507
1426789056.562,-21.949707
1426789056.578,-18.256073
1426789056.593,-13.925934
1426789056.609,-8.877045
1426789056.625,-3.143036
1426789056.64,3.1229858
1426789056.656,9.703949
1426789056.672,16.368652
1426789056.687,22.933044
1426789056.703,29.33255
1426789056.718,35.587402
1426789056.734,41.8118
1426789056.75,48.204895
1426789056.765,55.025757
1426789056.781,62.470917
1426789056.797,70.48306
1426789056.812,78.60559
1426789056.828,85.92612
1426789056.843,91.22531
1426789056.859,93.26276
1426789056.875,91.23447
1426789056.89,85.01495
1426789056.906,75.22031
1426789056.922,62.99121
1426789056.937,49.592407
1426789056.953,36.07843
1426789056.968,23.141785
1426789056.984,11.142944
1426789057,0.2727661
1426789057.015,-9.257019
1426789057.031,-17.188477
1426789057.047,-23.279846
1426789057.062,-27.462952
1426789057.078,-29.870544
1426789057.093,-30.888489
1426789057.109,-31.02295
1426789057.125,-30.827026
1426789057.14,-30.813354
1426789057.156,-31.373474
1426789057.172,-32.68579
1426789057.187,-34.724854
1426789057.203,-37.23285
1426789057.218,-39.766846
1426789057.234,-41.846313
1426789057.25,-43.08319
1426789057.265,-43.30597
1426789057.281,-42.593628
1426789057.297,-41.237305
1426789057.312,-39.57129
1426789057.328,-37.87982
1426789057.344,-36.25476
1426789057.359,-34.60901
1426789057.375,-32.68628
1426789057.39,-30.197754
1426789057.406,-26.95813
1426789057.422,-22.953125
1426789057.437,-18.361877
1426789057.453,-13.464294
1426789057.468,-8.513855
1426789057.484,-3.6661987
1426789057.5,1.09552
1426789057.515,5.914612
1426789057.531,11.015381
1426789057.547,16.62207
1426789057.562,22.81781
1426789057.578,29.418884
1426789057.594,35.87561
1426789057.609,41.26056
1426789057.625,44.433777
1426789057.64,44.331482
1426789057.656,40.340942
1426789057.672,32.546875
1426789057.687,21.77478
1426789057.703,9.291138
1426789057.719,-3.5438843
1426789057.734,-15.637817
1426789057.75,-26.330444
1426789057.765,-35.378967
1426789057.781,-42.67395
1426789057.797,-48.164307
1426789057.812,-51.759705
1426789057.828,-53.409607
1426789057.844,-53.22107
1426789057.859,-51.539734
1426789057.875,-48.934998
1426789057.89,-46.09149
1426789057.906,-43.62268
1426789057.922,-41.960876
1426789057.937,-41.265747
1426789057.953,-41.466858
1426789057.969,-42.257507
1426789057.984,-43.270264
1426789058,-44.1463
1426789058.015,-44.648376
1426789058.031,-44.682434
1426789058.047,-44.23462
1426789058.062,-43.319397
1426789058.078,-41.95404
1426789058.094,-40.135864
1426789058.109,-37.86676
1426789058.125,-35.174805
1426789058.14,-32.08966
1426789058.156,-28.655396
1426789058.172,-24.905945
1426789058.187,-20.878113
1426789058.203,-16.627502
1426789058.219,-12.220215
1426789058.234,-7.7373047
1426789058.25,-3.2156982
1426789058.265,1.3306885
1426789058.281,5.9714966
1426789058.297,10.825439
1426789058.312,16.08374
1426789058.328,21.940674
1426789058.344,28.543274
1426789058.359,35.842834
1426789058.375,43.432068
1426789058.39,50.436707
1426789058.406,55.65509
1426789058.422,57.844482
1426789058.437,56.171875
1426789058.453,50.544373
1426789058.469,41.70099
1426789058.484,30.937378
1426789058.5,19.692993
1426789058.515,9.096313
1426789058.531,-0.22058105
1426789058.547,-8.060974
1426789058.562,-14.466797
1426789058.578,-19.50653
1426789058.594,-23.181152
1426789058.609,-25.45691
1426789058.625,-26.388489
1426789058.64,-26.174377
1426789058.656,-25.178772
1426789058.672,-23.81665
1426789058.687,-22.479065
1426789058.703,-21.462402
1426789058.719,-20.894714
1426789058.734,-20.77185
1426789058.75,-20.96936
1426789058.765,-21.371216
1426789058.781,-21.877686
1426789058.797,-22.49646
1426789058.812,-23.250366
1426789058.828,-24.14801
1426789058.844,-25.087158
1426789058.859,-25.848816
1426789058.875,-26.189148
1426789058.89,-25.903015
1426789058.906,-24.914185
1426789058.922,-23.272095
1426789058.937,-21.104126
1426789058.953,-18.496155
1426789058.969,-15.479431
1426789058.984,-12.028381
1426789059,-8.10498
1426789059.015,-3.7808838
1426789059.031,0.7583618
1426789059.047,5.273987
1426789059.062,9.544373
1426789059.078,13.482849
1426789059.094,17.214417
1426789059.109,21.05017
1426789059.125,25.338867
1426789059.14,30.258179
1426789059.156,35.590942
1426789059.172,40.65332
1426789059.187,44.413025
1426789059.203,45.71466
1426789059.219,43.67932
1426789059.234,38.01819
1426789059.25,29.142395
1426789059.265,18.032104
1426789059.281,5.970581
1426789059.297,-5.788147
1426789059.312,-16.286316
1426789059.328,-24.924988
1426789059.344,-31.447083
1426789059.359,-35.81848
1426789059.375,-38.181458
1426789059.39,-38.779358
1426789059.406,-37.999207
1426789059.422,-36.30725
1426789059.437,-34.234375
1426789059.453,-32.285217
1426789059.469,-30.839172
1426789059.484,-30.121887
1426789059.5,-30.222351
1426789059.515,-31.143433
1426789059.531,-32.885498
1426789059.547,-35.405273
1426789059.562,-38.603455
1426789059.578,-42.262695
1426789059.594,-46.03827
1426789059.609,-49.492126
1426789059.625,-52.184814
1426789059.64,-53.840576
1426789059.656,-54.38568
1426789059.672,-54.04901
1426789059.687,-53.286987
1426789059.703,-52.685303
1426789059.719,-52.851807
1426789059.734,-54.18805
1426789059.75,-56.80237
1426789059.765,-60.34845
1426789059.781,-64.15881
1426789059.797,-67.28699
1426789059.812,-68.82953
1426789059.828,-68.070435
1426789059.844,-64.61713
1426789059.859,-58.360046
1426789059.875,-49.498413
1426789059.89,-38.43921
1426789059.906,-25.851318
1426789059.922,-12.702209
1426789059.937,-0.15148926
1426789059.953,10.619141
1426789059.969,18.661133
1426789059.984,23.551086
1426789060,25.444214
1426789060.015,24.931458
1426789060.031,22.766174
1426789060.047,19.624573
1426789060.062,15.920105
1426789060.078,11.898865
1426789060.094,7.7229614
1426789060.109,3.63208
1426789060.125,-0.07562256
1426789060.14,-3.1054688
1426789060.156,-5.2893677
1426789060.172,-6.637085
1426789060.187,-7.369385
1426789060.203,-7.742676
1426789060.219,-8.046082
1426789060.234,-8.447998
1426789060.25,-9.06427
1426789060.266,-9.910095
1426789060.281,-10.990967
1426789060.297,-12.250366
1426789060.312,-13.574219
1426789060.328,-14.7786255
1426789060.344,-15.638489
1426789060.359,-15.915161
1426789060.375,-15.42453
1426789060.391,-14.064331
1426789060.406,-11.852783
1426789060.422,-8.955383
1426789060.437,-5.6748047
1426789060.453,-2.3263855
1426789060.469,0.80093384
1426789060.484,3.6033325
1426789060.5,6.164337
1426789060.516,8.727142
1426789060.531,11.573822
1426789060.547,14.958893
1426789060.562,18.933594
1426789060.578,23.371918
1426789060.594,27.987885
1426789060.609,32.46234
1426789060.625,36.520508
1426789060.641,40.047302
1426789060.656,43.12912
1426789060.672,46.075623
1426789060.687,49.307587
1426789060.703,53.238037
1426789060.719,58.020416
1426789060.734,63.38736
1426789060.75,68.56888
1426789060.766,72.49118
1426789060.781,74.02936
1426789060.797,72.42786
1426789060.812,67.53317
1426789060.828,59.820007
1426789060.844,50.220642
1426789060.859,39.82193
1426789060.875,29.491608
1426789060.891,19.752106
1426789060.906,10.763672
1426789060.922,2.5281982
1426789060.937,-4.968384
1426789060.953,-11.545197
1426789060.969,-16.918488
1426789060.984,-20.789093
1426789061,-22.998474
1426789061.016,-23.601624
1426789061.031,-22.88591
1426789061.047,-21.22226
1426789061.062,-18.949783
1426789061.078,-16.316086
1426789061.094,-13.474518
1426789061.109,-10.515533
1426789061.125,-7.563675
1426789061.141,-4.7420654
1426789061.156,-2.1255646
1426789061.172,0.2895813
1426789061.187,2.5975494
1426789061.203,4.9595337
1426789061.219,7.5145264
1426789061.234,10.367798
1426789061.25,13.484726
1426789061.266,16.751007
1426789061.281,19.947205
1426789061.297,22.802185
1426789061.312,25.01892
1426789061.328,26.383575
1426789061.344,26.822021
1426789061.359,26.425613
1426789061.375,25.469894
1426789061.391,24.340881
1426789061.406,23.439087
1426789061.422,23.103622
1426789061.437,23.538376
1426789061.453,24.808426
1426789061.469,26.794685
1426789061.484,29.267235
1426789061.5,31.88272
1426789061.516,34.30612
1426789061.531,36.25805
1426789061.547,37.622597
1426789061.562,38.47252
1426789061.578,39.079346
1426789061.594,39.777603
1426789061.609,40.961708
1426789061.625,42.87375
1426789061.641,45.572487
1426789061.656,48.84899
1426789061.672,52.211304
1426789061.687,54.924736
1426789061.703,56.200417
1426789061.719,55.322
1426789061.734,51.927994
1426789061.75,46.057495
1426789061.766,38.17855
1426789061.781,29.00737
1426789061.797,19.36901
1426789061.812,9.957596
1426789061.828,1.2998123
1426789061.844,-6.2620163
1426789061.859,-12.541786
1426789061.875,-17.440224
1426789061.891,-20.910912
1426789061.906,-22.967392
1426789061.922,-23.718071
1426789061.937,-23.38118
1426789061.953,-22.292198
1426789061.969,-20.901306
1426789061.984,-19.69278
1426789062,-19.098068
1426789062.016,-19.35447
1426789062.031,-20.455704
1426789062.047,-22.170044
1426789062.062,-24.172333
1426789062.078,-26.127449
1426789062.094,-27.837433
1426789062.109,-29.187042
1426789062.125,-30.149216
1426789062.141,-30.68563
1426789062.156,-30.751625
1426789062.172,-30.300064
1426789062.187,-29.334686
1426789062.203,-27.840904
1426789062.219,-25.823936
1426789062.234,-23.233925
1426789062.25,-20.029495
1426789062.266,-16.228188
1426789062.281,-12.010658
1426789062.297,-7.6676865
1426789062.312,-3.5810013
1426789062.328,-0.037643433
1426789062.344,2.89122
1426789062.359,5.333557
1426789062.375,7.578064
1426789062.391,9.943787
1426789062.406,12.60524
1426789062.422,15.601166
1426789062.437,18.832275
1426789062.453,22.121185
1426789062.469,25.3041
1426789062.484,28.29203
1426789062.5,31.017235
1426789062.516,33.50074
1426789062.531,35.84449
1426789062.547,38.22296
1426789062.562,40.83719
1426789062.578,43.813843
1426789062.594,47.029984
1426789062.609,50.072662
1426789062.625,52.222687
1426789062.641,52.67833
1426789062.656,50.847267
1426789062.672,46.555756
1426789062.687,40.106476
1426789062.703,32.24289
1426789062.719,23.794525
1426789062.734,15.480911
1426789062.75,7.7667465
1426789062.766,0.879158
1426789062.781,-5.064247
1426789062.797,-9.895882
1426789062.812,-13.424408
1426789062.828,-15.501221
1426789062.844,-16.14383
1426789062.859,-15.660484
1426789062.875,-14.59816
1426789062.891,-13.507805
1426789062.906,-12.829781
1426789062.922,-12.699242
1426789062.938,-12.992012
1426789062.953,-13.453407
1426789062.969,-13.908554
1426789062.984,-14.276756
1426789063,-14.639648
1426789063.016,-15.124893
1426789063.031,-15.796158
1426789063.047,-16.617447
1426789063.063,-17.460533
1426789063.078,-18.126312
1426789063.094,-18.45681
1426789063.109,-18.367004
1426789063.125,-17.869972
1426789063.141,-17.065384
1426789063.156,-16.089645
1426789063.172,-15.0193405
1426789063.188,-13.868744
1426789063.203,-12.522728
1426789063.219,-10.793396
1426789063.234,-8.496765
1426789063.25,-5.5447464
1426789063.266,-2.0129929
1426789063.281,1.8471298
1426789063.297,5.720543
1426789063.313,9.329964
1426789063.328,12.550575
1426789063.344,15.4147415
1426789063.359,18.128235
1426789063.375,20.976707
1426789063.391,24.23597
1426789063.406,28.079948
1426789063.422,32.458916
1426789063.438,37.07641
1426789063.453,41.383423
1426789063.469,44.664307
1426789063.484,46.161095
1426789063.5,45.33036
1426789063.516,41.995995
1426789063.531,36.425858
1426789063.547,29.282028
1426789063.563,21.389534
1426789063.578,13.535187
1426789063.594,6.293419
1426789063.609,-0.022964478
1426789063.625,-5.3158493
1426789063.641,-9.592003
1426789063.656,-12.873062
1426789063.672,-15.167892
1426789063.688,-16.513016
1426789063.703,-17.011444
1426789063.719,-16.87098
1426789063.734,-16.378952
1426789063.75,-15.858231
1426789063.766,-15.540619
1426789063.781,-15.599716
1426789063.797,-16.055573
1426789063.813,-16.835022
1426789063.828,-17.80574
1426789063.844,-18.838013
1426789063.859,-19.852074
1426789063.875,-20.851929
1426789063.891,-21.88298
1426789063.906,-22.956177
1426789063.922,-24.01793
1426789063.938,-24.903503
1426789063.953,-25.382843
1426789063.969,-25.23581
1426789063.984,-24.34224
1426789064,-22.753601
1426789064.016,-20.658005
1426789064.031,-18.368454
1426789064.047,-16.143494
1426789064.063,-14.130264
1426789064.078,-12.282455
1426789064.094,-10.406174
1426789064.109,-8.243546
1426789064.125,-5.6103516
1426789064.141,-2.480774
1426789064.156,1.0126038
1426789064.172,4.657425
1426789064.188,8.296417
1426789064.203,11.882782
1426789064.219,15.506241
1426789064.234,19.265945
1426789064.25,23.217575
1426789064.266,27.371887
1426789064.281,31.691803
1426789064.297,36.153473
1426789064.313,40.743774
1426789064.328,45.355988
1426789064.344,49.68129
1426789064.359,53.20407
1426789064.375,55.233734
1426789064.391,55.135223
1426789064.406,52.53653
1426789064.422,47.460953
1426789064.438,40.323837
1426789064.453,31.831467
1426789064.469,22.80098
1426789064.484,13.997787
1426789064.5,5.9791107
1426789064.516,-0.9093628
1426789064.531,-6.5624847
1426789064.547,-11.010376
1426789064.563,-14.386734
1426789064.578,-16.79985
1426789064.594,-18.355743
1426789064.609,-19.157059
1426789064.625,-19.349411
1426789064.641,-19.129974
1426789064.656,-18.744644
1426789064.672,-18.469696
1426789064.688,-18.514786
1426789064.703,-19.03656
1426789064.719,-20.065704
1426789064.734,-21.542679
1426789064.75,-23.354492
1426789064.766,-25.355438
1426789064.781,-27.37764
1426789064.797,-29.224579
1426789064.813,-30.728119
1426789064.828,-31.68544
1426789064.844,-31.966125
1426789064.859,-31.454788
1426789064.875,-30.159042
1426789064.891,-28.168304
1426789064.906,-25.671616
1426789064.922,-22.869797
1426789064.938,-19.92685
1426789064.953,-16.939667
1426789064.969,-13.931274
1426789064.984,-10.883957
1426789065,-7.799759
1426789065.016,-4.723694
1426789065.031,-1.71492
1426789065.047,1.1763763
1426789065.063,3.9132538
1426789065.078,6.5410156
1426789065.094,9.101395
1426789065.109,11.681366
1426789065.125,14.377945
1426789065.141,17.283905
1426789065.156,20.505585
1426789065.172,24.167206
1426789065.188,28.35173
1426789065.203,33.06624
1426789065.219,38.223343
1426789065.234,43.574432
1426789065.25,48.683823
1426789065.266,52.920822
1426789065.281,55.497925
1426789065.297,55.68483
1426789065.313,52.98546
1426789065.328,47.384888
1426789065.344,39.33568
1426789065.359,29.725082
1426789065.375,19.523071
1426789065.391,9.591263
1426789065.406,0.4491272
1426789065.422,-7.6665955
1426789065.438,-14.644424
1426789065.453,-20.351028
1426789065.469,-24.589844
1426789065.484,-27.210312
1426789065.5,-28.255829
1426789065.516,-28.08255
1426789065.531,-27.27478
1426789065.547,-26.47171
1426789065.563,-26.13623
1426789065.578,-26.387085
1426789065.594,-27.068115
1426789065.61,-27.889587
1426789065.625,-28.62027
1426789065.641,-29.177307
1426789065.656,-29.683807
1426789065.672,-30.304016
1426789065.688,-31.13092
1426789065.703,-32.09195
1426789065.719,-32.958435
1426789065.735,-33.444458
1426789065.75,-33.32776
1426789065.766,-32.53354
1426789065.781,-31.150879
1426789065.797,-29.35553
1426789065.813,-27.356445
1426789065.828,-25.252869
1426789065.844,-23.063904
1426789065.86,-20.718231
1426789065.875,-18.18338
1426789065.891,-15.433502
1426789065.906,-12.495056
1426789065.922,-9.400848
1426789065.938,-6.156708
1426789065.953,-2.7634888
1426789065.969,0.7657776
1426789065.985,4.352539
1426789066,7.872467
1426789066.016,11.211426
1426789066.031,14.371887
1426789066.047,17.519257
1426789066.063,20.927856
1426789066.078,24.910065
1426789066.094,29.599304
1426789066.11,34.78949
1426789066.125,39.87201
1426789066.141,43.956726
1426789066.156,46.089172
1426789066.172,45.5455
1426789066.188,42.07898
1426789066.203,35.968567
1426789066.219,27.890686
1426789066.235,18.716125
1426789066.25,9.267761
1426789066.266,0.1831665
1426789066.281,-8.087311
1426789066.297,-15.234253
1426789066.313,-21.041748
1426789066.328,-25.383423
1426789066.344,-28.25003
1426789066.36,-29.773438
1426789066.375,-30.256317
1426789066.391,-30.057312
1426789066.406,-29.540497
1426789066.422,-28.974213
1426789066.438,-28.514893
1426789066.453,-28.199646
1426789066.469,-28.011475
1426789066.485,-27.923187
1426789066.5,-27.924316
1426789066.516,-28.057709
1426789066.531,-28.345184
1426789066.547,-28.769012
1426789066.563,-29.235596
1426789066.578,-29.58606
1426789066.594,-29.604156
1426789066.61,-29.123047
1426789066.625,-28.060883
1426789066.641,-26.402039
1426789066.656,-24.238434
1426789066.672,-21.70581
1426789066.688,-18.951447
1426789066.703,-16.083069
1426789066.719,-13.186707
1426789066.735,-10.293152
1426789066.75,-7.4293213
1426789066.766,-4.548279
1426789066.781,-1.5677185
1426789066.797,1.639801
1426789066.813,5.1858826
1426789066.828,9.123566
1426789066.844,13.341705
1426789066.86,17.65393
1426789066.875,21.789642
1426789066.891,25.549866
1426789066.906,28.90393
1426789066.922,32.01474
1426789066.938,35.1427
1426789066.953,38.57428
1426789066.969,42.50351
1426789066.985,46.972015
1426789067,51.870636
1426789067.016,56.87729
1426789067.031,61.445435
1426789067.047,64.84793
1426789067.063,66.24478
1426789067.078,64.90448
1426789067.094,60.454926
1426789067.11,53.092896
1426789067.125,43.494873
1426789067.141,32.71765
1426789067.156,21.80719
1426789067.172,11.59845
1426789067.188,2.5942383
1426789067.203,-5.017639
1426789067.219,-11.217224
1426789067.235,-16.025513
1426789067.25,-19.537231
1426789067.266,-21.89795
1426789067.281,-23.35019
1426789067.297,-24.228241
1426789067.313,-24.873291
1426789067.328,-25.529358
1426789067.344,-26.34793
1426789067.36,-27.325958
1426789067.375,-28.40451
1426789067.391,-29.524048
1426789067.406,-30.680908
1426789067.422,-31.880798
1426789067.438,-33.15323
1426789067.453,-34.45166
1426789067.469,-35.63553
1426789067.485,-36.505615
1426789067.5,-36.88028
1426789067.516,-36.69586
1426789067.531,-36.027893
1426789067.547,-35.071808
1426789067.563,-33.9888
1426789067.578,-32.806915
1426789067.594,-31.410736
1426789067.61,-29.566895
1426789067.625,-27.129395
1426789067.641,-24.102234
1426789067.656,-20.721283
1426789067.672,-17.282654
1426789067.688,-13.994934
1426789067.703,-10.856018
1426789067.719,-7.6986084
1426789067.735,-4.2835693
1426789067.75,-0.4836731
1426789067.766,3.6412048
1426789067.781,7.9134216
1426789067.797,12.1371765
1426789067.813,16.217865
1426789067.828,20.195587
1426789067.844,24.175049
1426789067.86,28.263275
1426789067.875,32.518494
1426789067.891,36.960175
1426789067.906,41.53151
1426789067.922,46.174576
1426789067.938,50.726517
1426789067.953,54.880386
1426789067.969,58.089005
1426789067.985,59.646927
1426789068,58.860703
1426789068.016,55.213608
1426789068.031,48.608902
1426789068.047,39.395126
1426789068.063,28.325378
1426789068.078,16.369827
1426789068.094,4.4817963
1426789068.11,-6.5850677
1426789068.125,-16.369095
1426789068.141,-24.62407
1426789068.156,-31.273544
1426789068.172,-36.297165
1426789068.188,-39.691483
1426789068.203,-41.51184
1426789068.219,-41.934326
1426789068.235,-41.288742
1426789068.25,-40.05455
1426789068.266,-38.765366
1426789068.282,-37.81848
1426789068.297,-37.416534
1426789068.313,-37.51436
1426789068.328,-37.945007
1426789068.344,-38.550064
1426789068.36,-39.290573
1426789068.375,-40.21994
1426789068.391,-41.375504
1426789068.406,-42.67865
1426789068.422,-43.885147
1426789068.438,-44.60266
1426789068.453,-44.422256
1426789068.469,-43.071426
1426789068.485,-40.546814
1426789068.5,-37.103607
1426789068.516,-33.175217
1426789068.532,-29.22194
1426789068.547,-25.586014
1426789068.563,-22.388947
1426789068.578,-19.514938
1426789068.594,-16.660736
1426789068.61,-13.499863
1426789068.625,-9.8293
1426789068.641,-5.6470947
1426789068.657,-1.1454163
1426789068.672,3.3628387
1426789068.688,7.622635
1426789068.703,11.500641
1426789068.719,15.070862
1426789068.735,18.597733
1426789068.75,22.47116
1426789068.766,27.04683
1426789068.782,32.505814
1426789068.797,38.724823
1426789068.813,45.181534
1426789068.828,51.017273
1426789068.844,55.248367
1426789068.86,56.98726
1426789068.875,55.721115
1426789068.891,51.44362
1426789068.907,44.661163
1426789068.922,36.188263
1426789068.938,26.975082
1426789068.953,17.824783
1426789068.969,9.335648
1426789068.985,1.8498383
1426789069,-4.4172974
1426789069.016,-9.328796
1426789069.032,-12.768478
1426789069.047,-14.656006
1426789069.063,-15.0357895
1426789069.078,-14.124947
1426789069.094,-12.292717
1426789069.11,-9.971069
1426789069.125,-7.532028
1426789069.141,-5.2134933
1426789069.157,-3.1212463
1426789069.172,-1.2972946
1426789069.188,0.21322632
1426789069.203,1.2590714
1426789069.219,1.6674271
1426789069.235,1.3304138
1426789069.25,0.3280716
1426789069.266,-1.0630417
1426789069.282,-2.4417648
1426789069.297,-3.3988266
1426789069.313,-3.6043854
1426789069.328,-2.9192657
1426789069.344,-1.3670654
1426789069.36,0.8458252
1426789069.375,3.43602
1426789069.391,6.0438766
1426789069.407,8.358963
1426789069.422,10.1779175
1426789069.438,11.511543
1426789069.453,12.5821
1426789069.469,13.763412
1426789069.485,15.372726
1426789069.5,17.564125
1426789069.516,20.217857
1426789069.532,23.047249
1426789069.547,25.760323
1426789069.563,28.22802
1426789069.578,30.562828
1426789069.594,33.080788
1426789069.61,36.133926
1426789069.625,39.93647
1426789069.641,44.44738
1426789069.657,49.320847
1426789069.672,53.887154
1426789069.688,57.303696
1426789069.703,58.687004
1426789069.719,57.30562
1426789069.735,52.803246
1426789069.75,45.28009
1426789069.766,35.293213
1426789069.782,23.689423
1426789069.797,11.406853
1426789069.813,-0.70762634
1426789069.828,-11.979454
1426789069.844,-21.928734
1426789069.86,-30.250366
1426789069.875,-36.75779
1426789069.891,-41.443146
1426789069.907,-44.487556
1426789069.922,-46.267715
1426789069.938,-47.26777
1426789069.953,-48.019165
1426789069.969,-48.97818
1426789069.985,-50.473137
1426789070,-52.5691
1426789070.016,-55.159836
1426789070.032,-57.95768
1426789070.047,-60.60588
1426789070.063,-62.78457
1426789070.078,-64.32939
1426789070.094,-65.22962
1426789070.11,-65.58583
1426789070.125,-65.48662
1426789070.141,-64.91672
1426789070.157,-63.743267
1426789070.172,-61.78763
1426789070.188,-58.91134
1426789070.203,-55.101177
1426789070.219,-50.47915
1426789070.235,-45.26155
1426789070.25,-39.685516
1426789070.266,-33.943027
1426789070.282,-28.175703
1426789070.297,-22.528172
1426789070.313,-17.120169
1426789070.328,-12.065609
1426789070.344,-7.4409847
1426789070.36,-3.2892904
1426789070.375,0.41906357
1426789070.391,3.7597446
1426789070.407,6.91565
1426789070.422,10.102329
1426789070.438,13.560795
1426789070.453,17.54208
1426789070.469,22.227535
1426789070.485,27.70546
1426789070.5,34.024204
1426789070.516,41.157127
1426789070.532,48.974674
1426789070.547,57.134743
1426789070.563,65.03955
1426789070.578,71.75721
1426789070.594,76.29259
1426789070.61,77.71412
1426789070.625,75.53164
1426789070.641,69.81204
1426789070.657,61.19778
1426789070.672,50.691967
1426789070.688,39.42839
1426789070.703,28.416359
1426789070.719,18.40548
1426789070.735,9.8521805
1426789070.75,2.9327545
1426789070.766,-2.3702621
1426789070.782,-6.208008
1426789070.797,-8.788475
1426789070.813,-10.346855
1426789070.828,-11.126862
1426789070.844,-11.312675
1426789070.86,-11.081268
1426789070.875,-10.552467
1426789070.891,-9.860405
1426789070.907,-9.123505
1426789070.922,-8.507744
1426789070.938,-8.1822815
1426789070.953,-8.303841
1426789070.969,-8.997566
1426789070.985,-10.23819
1426789071,-11.89518
1426789071.016,-13.7048645
1426789071.032,-15.3532715
1426789071.047,-16.566483
1426789071.063,-17.139023
1426789071.078,-16.98014
1426789071.094,-16.067062
1426789071.11,-14.456871
1426789071.125,-12.245796
1426789071.141,-9.62635
1426789071.157,-6.7980423
1426789071.172,-3.9848099
1426789071.188,-1.3311768
1426789071.204,1.1412964
1426789071.219,3.602188
1426789071.235,6.319809
1426789071.25,9.537216
1426789071.266,13.334183
1426789071.282,17.579956
1426789071.297,21.968994
1426789071.313,26.16475
1426789071.329,29.895386
1426789071.344,33.06578
1426789071.36,35.78209
1426789071.375,38.310257
1426789071.391,40.99077
1426789071.407,44.194626
1426789071.422,48.150467
1426789071.438,52.89392
1426789071.454,58.142838
1426789071.469,63.211273
1426789071.485,67.10625
1426789071.5,68.72859
1426789071.516,67.14183
1426789071.532,61.916794
1426789071.547,53.255386
1426789071.563,41.948425
