1425492733.001,0.0
1425492733.017,0.0
1425492733.032,0.0
1425492733.048,0.0
1425492733.064,0.0
1425492733.079,0.0
1425492733.095,0.0
1425492733.111,0.0
1425492733.126,0.0
1425492733.142,0.0020711927
1425492733.157,-0.004950818
1425492733.173,-0.011976331
1425492733.189,-0.012094758
1425492733.204,0.0011102709
1425492733.22,0.027152171
1425492733.236,0.05320505
1425492733.251,0.053933766
1425492733.267,-0.0014478595
1425492733.282,-0.13519168
1425492733.298,-0.36548
1425492733.314,-0.6692537
1425492733.329,-1.0104975
1425492733.345,-1.3509237
1425492733.361,-1.6686136
1425492733.376,-1.9693341
1425492733.392,-2.2841036
1425492733.407,-2.6538548
1425492733.423,-3.1039703
1425492733.439,-3.6666477
1425492733.454,-4.2964873
1425492733.47,-4.9353266
1425492733.486,-5.524324
1425492733.501,-6.033327
1425492733.517,-6.4794283
1425492733.532,-6.9236903
1425492733.548,-7.445465
1425492733.564,-8.09115
1425492733.579,-8.948271
1425492733.595,-9.913052
1425492733.611,-10.860202
1425492733.626,-11.665161
1425492733.642,-12.278011
1425492733.657,-12.772436
1425492733.673,-13.338501
1425492733.689,-14.213797
1425492733.704,-15.55345
1425492733.72,-17.559586
1425492733.736,-19.997406
1425492733.751,-22.554934
1425492733.767,-24.912115
1425492733.782,-26.914928
1425492733.798,-28.68747
1425492733.814,-30.613445
1425492733.829,-33.181866
1425492733.845,-36.719994
1425492733.861,-41.555836
1425492733.876,-47.240574
1425492733.892,-53.151585
1425492733.907,-58.651157
1425492733.923,-63.405254
1425492733.939,-67.57705
1425492733.954,-71.78542
1425492733.97,-76.832306
1425492733.986,-83.26468
1425492734.001,-91.526054
1425492734.017,-100.94023
1425492734.032,-110.540344
1425492734.048,-119.34305
1425492734.064,-126.81761
1425492734.079,-133.15338
1425492734.095,-139.18675
1425492734.111,-146.3828
1425492734.126,-153.48564
1425492734.142,-162.64772
1425492734.157,-174.27821
1425492734.173,-188.30678
1425492734.189,-203.40889
1425492734.204,-216.60089
1425492734.22,-223.51544
1425492734.236,-219.56937
1425492734.251,-201.63997
1425492734.267,-169.345
1425492734.282,-125.71884
1425492734.298,-75.13864
1425492734.314,-22.043793
1425492734.329,30.829529
1425492734.345,82.91199
1425492734.361,135.03836
1425492734.376,188.07864
1425492734.392,241.89001
1425492734.407,295.21332
1425492734.423,345.93576
1425492734.439,392.6218
1425492734.454,434.4046
1425492734.47,470.82434
1425492734.486,501.19397
1425492734.501,524.1676
1425492734.517,537.83813
1425492734.532,540.2108
1425492734.548,530.0493
1425492734.564,507.15305
1425492734.579,472.88727
1425492734.595,429.53265
1425492734.611,379.8246
1425492734.626,326.31113
1425492734.642,271.0361
1425492734.657,215.47623
1425492734.673,160.71677
1425492734.689,107.74518
1425492734.704,57.521057
1425492734.72,11.204437
1425492734.736,-30.146301
1425492734.751,-65.77261
1425492734.767,-95.3985
1425492734.782,-119.26135
1425492734.798,-137.98776
1425492734.814,-152.37032
1425492734.829,-163.1294
1425492734.845,-170.81105
1425492734.861,-175.70537
1425492734.876,-177.98503
1425492734.892,-177.82204
1425492734.908,-175.49266
1425492734.923,-171.39307
1425492734.939,-165.99928
1425492734.954,-159.76747
1425492734.97,-153.05365
1425492734.986,-146.07281
1425492735.001,-138.92273
1425492735.017,-131.62666
1425492735.033,-124.20209
1425492735.048,-116.698555
1425492735.064,-109.19747
1425492735.079,-101.79986
1425492735.095,-94.59015
1425492735.111,-87.62851
1425492735.126,-80.93566
1425492735.142,-74.51799
1425492735.158,-68.36992
1425492735.173,-62.49331
1425492735.189,-56.9007
1425492735.204,-51.60252
1425492735.22,-46.60892
1425492735.236,-41.92514
1425492735.251,-37.55055
1425492735.267,-33.469616
1425492735.283,-29.680887
1425492735.298,-26.174875
1425492735.314,-22.943075
1425492735.329,-19.981945
1425492735.345,-17.292933
1425492735.361,-14.860119
1425492735.376,-12.6790085
1425492735.392,-10.7441435
1425492735.408,-9.039298
1425492735.423,-7.5539894
1425492735.439,-6.269405
1425492735.454,-5.16987
1425492735.47,-4.235109
1425492735.486,-3.4499264
1425492735.501,-2.7939763
1425492735.517,-2.249941
1425492735.533,-1.8059123
1425492735.548,-1.4426117
1425492735.564,-1.1497183
1425492735.579,-0.91784906
1425492735.595,-0.732193
1425492735.611,-0.58415806
1425492735.626,-0.4714471
1425492735.642,-0.38164568
1425492735.658,-0.3129555
1425492735.673,-0.25861132
1425492735.689,-0.21888936
1425492735.704,-0.18576854
1425492735.72,-0.16413885
1425492735.736,-0.14338797
1425492735.751,-0.12730002
1425492735.767,-0.11648381
1425492735.783,-0.10719073
1425492735.798,-0.09883261
1425492735.814,-0.09283656
1425492735.829,-0.08611184
1425492735.845,-0.08010036
1425492735.861,-0.0780046
1425492735.876,-0.072297394
1425492735.892,-0.07039368
1425492735.908,-0.067282975
1425492735.923,-0.06341845
1425492735.939,-0.060400605
1425492735.954,-0.059414685
1425492735.97,-0.055205286
1425492735.986,-0.053629637
1425492736.001,-0.05217123
1425492736.017,-0.04958099
1425492736.033,-0.048303485
1425492736.048,-0.044680417
1425492736.064,-0.044441104
1425492736.079,-0.042492986
1425492736.095,-0.041310787
1425492736.111,-0.03931099
1425492736.126,-0.037641168
1425492736.142,-0.037338138
1425492736.158,-0.03433287
1425492736.173,-0.03510809
1425492736.189,-0.033583283
1425492736.204,-0.03231263
1425492736.22,-0.031340957
1425492736.236,-0.030968249
1425492736.251,-0.02673909
1425492736.267,-0.029284716
1425492736.283,-0.027206123
1425492736.298,-0.025669485
1425492736.314,-0.028269142
1425492736.329,-0.021582901
1425492736.345,-0.026162952
1425492736.361,-0.023473501
1425492736.376,-0.023142159
1425492736.392,-0.022068352
1425492736.408,-0.02483818
1425492736.423,-0.024045944
1425492736.439,-0.018071085
1425492736.454,-0.015676618
1425492736.47,-0.013534218
1425492736.486,-0.0173482
1425492736.501,-0.024686426
1425492736.517,-0.04263395
1425492736.533,-0.047400236
1425492736.548,-0.043153256
1425492736.564,-0.011762351
1425492736.579,0.054233313
1425492736.595,0.13894859
1425492736.611,0.22555542
1425492736.626,0.29301822
1425492736.642,0.32600364
1425492736.658,0.33307272
1425492736.673,0.31871745
1425492736.689,0.29843694
1425492736.704,0.30641976
1425492736.72,0.34176987
1425492736.736,0.4013288
1425492736.751,0.45832276
1425492736.767,0.49729407
1425492736.783,0.484066
1425492736.798,0.44083723
1425492736.814,0.38184908
1425492736.829,0.34518304
1425492736.845,0.37792584
1425492736.861,0.49026078
1425492736.876,0.65502214
1425492736.892,0.82794285
1425492736.908,0.9427254
1425492736.923,0.94565606
1425492736.939,0.86587524
1425492736.954,0.7536204
1425492736.97,0.71863556
1425492736.986,0.8518486
1425492737.001,1.1962523
1425492737.017,1.690644
1425492737.033,2.1983192
1425492737.048,2.5605755
1425492737.064,2.6586251
1425492737.079,2.5164537
1425492737.095,2.2686908
1425492737.111,2.156335
1425492737.126,2.3780756
1425492737.142,3.0050566
1425492737.158,3.9444191
1425492737.173,4.91654
1425492737.189,5.6203485
1425492737.204,5.835167
1425492737.22,5.583306
1425492737.236,5.1112385
1425492737.251,4.801441
1425492737.267,4.993759
1425492737.283,5.822036
1425492737.298,7.1370664
1425492737.314,8.529827
1425492737.329,9.57071
1425492737.345,9.988831
1425492737.361,9.737108
1425492737.376,9.08055
1425492737.392,8.391516
1425492737.408,8.034901
1425492737.423,8.294993
1425492737.439,9.475455
1425492737.454,11.687033
1425492737.47,14.679878
1425492737.486,17.558327
1425492737.501,18.78712
1425492737.517,16.616732
1425492737.533,9.889478
1425492737.548,-1.2292023
1425492737.564,-15.094775
1425492737.58,-29.026411
1425492737.595,-40.422577
1425492737.611,-47.672035
1425492737.626,-50.578613
1425492737.642,-50.03799
1425492737.658,-47.293396
1425492737.673,-43.28029
1425492737.689,-38.360622
1425492737.705,-32.710167
1425492737.72,-26.349018
1425492737.736,-19.764381
1425492737.751,-13.590303
1425492737.767,-8.349186
1425492737.783,-4.152627
1425492737.798,-0.7077055
1425492737.814,2.505558
1425492737.83,5.8835135
1425492737.845,9.498931
1425492737.861,13.014153
1425492737.876,15.856232
1425492737.892,17.550179
1425492737.908,17.953606
1425492737.923,17.262949
1425492737.939,15.987091
1425492737.955,14.638673
1425492737.97,13.539203
1425492737.986,12.76934
1425492738.001,12.238736
1425492738.017,11.746476
1425492738.033,11.158693
1425492738.048,10.377541
1425492738.064,9.349592
1425492738.08,8.093385
1425492738.095,6.712393
1425492738.111,5.3767357
1425492738.126,4.277294
1425492738.142,3.527153
1425492738.158,3.1028595
1425492738.173,2.8624659
1425492738.189,2.6843224
1425492738.205,2.4722843
1425492738.22,2.242958
1425492738.236,1.9942741
1425492738.251,1.7276192
1425492738.267,1.4005804
1425492738.283,1.0416718
1425492738.298,0.7483969
1425492738.314,0.7268963
1425492738.33,1.1570549
1425492738.345,2.0774841
1425492738.361,3.3011312
1425492738.376,4.5633535
1425492738.392,5.629569
1425492738.408,6.4141445
1425492738.423,6.953226
1425492738.439,7.4051247
1425492738.455,7.815151
1425492738.47,8.135862
1425492738.486,8.179913
1425492738.501,7.7872066
1425492738.517,6.8911
1425492738.533,5.67696
1425492738.548,4.614128
1425492738.564,4.365286
1425492738.58,5.5770245
1425492738.595,8.610947
1425492738.611,13.287226
1425492738.626,18.883326
1425492738.642,24.31565
1425492738.658,28.529331
1425492738.673,30.863636
1425492738.689,31.23684
1425492738.705,30.116325
1425492738.72,28.311672
1425492738.736,26.757645
1425492738.751,26.189568
1425492738.767,26.845303
1425492738.783,28.45702
1425492738.798,30.32093
1425492738.814,31.605686
1425492738.83,31.545895
1425492738.845,29.64032
1425492738.861,25.700478
1425492738.876,19.874752
1425492738.892,12.617935
1425492738.908,4.7160606
1425492738.923,-2.8822708
1425492738.939,-9.139336
1425492738.955,-13.279442
1425492738.97,-14.991936
1425492738.986,-14.624214
1425492739.001,-13.052971
1425492739.017,-11.298233
1425492739.033,-10.228569
1425492739.048,-10.269226
1425492739.064,-11.420479
1425492739.08,-13.4627
1425492739.095,-16.138138
1425492739.111,-19.292381
1425492739.126,-22.793732
1425492739.142,-26.423218
1425492739.158,-29.812836
1425492739.173,-32.63047
1425492739.189,-34.751297
1425492739.205,-36.392944
1425492739.22,-38.069878
1425492739.236,-40.301346
1425492739.251,-43.27307
1425492739.267,-46.704758
1425492739.283,-49.96041
1425492739.298,-52.45524
1425492739.314,-54.048332
1425492739.33,-55.14135
1425492739.345,-56.461563
1425492739.361,-58.650032
1425492739.376,-61.81987
1425492739.392,-65.46811
1425492739.408,-68.551956
1425492739.423,-69.97636
1425492739.439,-69.00533
1425492739.455,-65.53023
1425492739.47,-60.01297
1425492739.486,-53.180084
1425492739.501,-45.646164
1425492739.517,-37.632103
1425492739.533,-28.901184
1425492739.548,-19.015015
1425492739.564,-7.6926575
1425492739.58,4.8706512
1425492739.595,17.95324
1425492739.611,30.591385
1425492739.626,41.95112
1425492739.642,51.66034
1425492739.658,59.828674
1425492739.673,66.70472
1425492739.689,72.34408
1425492739.705,76.43094
1425492739.72,78.35837
1425492739.736,77.52142
1425492739.751,73.632515
1425492739.767,66.78266
1425492739.783,57.456055
1425492739.798,46.348213
1425492739.814,34.22303
1425492739.83,21.826218
1425492739.845,9.856834
1425492739.861,-1.0945778
1425492739.876,-10.62999
1425492739.892,-18.587212
1425492739.908,-24.97657
1425492739.923,-29.896927
1425492739.939,-33.441486
1425492739.955,-35.72845
1425492739.97,-37.002174
1425492739.986,-37.626404
1425492740.001,-38.0199
1425492740.017,-38.46887
1425492740.033,-38.973965
1425492740.048,-39.23244
1425492740.064,-38.823376
1425492740.08,-37.438164
1425492740.095,-35.02681
1425492740.111,-31.813347
1425492740.126,-28.149605
1425492740.142,-24.373705
1425492740.158,-20.66212
1425492740.173,-17.052612
1425492740.189,-13.523024
1425492740.205,-10.059004
1425492740.22,-6.7219753
1425492740.236,-3.6170502
1425492740.252,-0.8666916
1425492740.267,1.411089
1425492740.283,3.1836414
1425492740.298,4.526333
1425492740.314,5.5962954
1425492740.33,6.599494
1425492740.345,7.755071
1425492740.361,9.166137
1425492740.376,10.856374
1425492740.392,12.7656355
1425492740.408,14.840634
1425492740.423,17.078548
1425492740.439,19.577393
1425492740.455,22.418451
1425492740.47,25.601185
1425492740.486,28.937946
1425492740.502,32.02713
1425492740.517,34.37232
1425492740.533,35.46572
1425492740.548,34.98939
1425492740.564,32.90856
1425492740.58,29.510036
1425492740.595,25.328094
1425492740.611,20.977846
1425492740.627,17.000446
1425492740.642,13.6415
1425492740.658,10.871904
1425492740.673,8.398556
1425492740.689,5.8884068
1425492740.705,3.1281128
1425492740.72,0.17667007
1425492740.736,-2.6425743
1425492740.752,-4.910942
1425492740.767,-6.334362
1425492740.783,-6.933628
1425492740.798,-7.0188828
1425492740.814,-7.043358
1425492740.83,-7.358921
1425492740.845,-8.011463
1425492740.861,-8.768211
1425492740.877,-9.260784
1425492740.892,-9.235222
1425492740.908,-8.6587715
1425492740.923,-7.7262573
1425492740.939,-6.742798
1425492740.955,-5.9081306
1425492740.97,-5.299324
1425492740.986,-4.8655205
1425492741.002,-4.5453796
1425492741.017,-4.354191
1425492741.033,-4.386471
1425492741.048,-4.772442
1425492741.064,-5.5562897
1425492741.08,-6.6334343
1425492741.095,-7.7881775
1425492741.111,-8.757893
1425492741.127,-9.296181
1425492741.142,-9.264542
1425492741.158,-8.630997
1425492741.173,-7.4573135
1425492741.189,-5.8552094
1425492741.205,-3.9691544
1425492741.22,-1.940239
1425492741.236,0.12882996
1425492741.252,2.1841583
1425492741.267,4.287155
1425492741.283,6.489189
1425492741.298,8.862877
1425492741.314,11.393509
1425492741.33,13.862282
1425492741.345,15.931244
1425492741.361,17.141838
1425492741.377,17.116165
1425492741.392,15.650307
1425492741.408,12.847191
1425492741.423,9.088676
1425492741.439,4.8691254
1425492741.455,0.75614166
1425492741.47,-2.795723
1425492741.486,-5.526581
1425492741.502,-7.4006195
1425492741.517,-8.58197
1425492741.533,-9.338295
1425492741.548,-9.9756775
1425492741.564,-10.732803
1425492741.58,-11.7085495
1425492741.595,-12.846573
1425492741.611,-14.024292
1425492741.627,-15.050018
1425492741.642,-15.778992
1425492741.658,-16.113808
1425492741.673,-16.064835
1425492741.689,-15.682869
1425492741.705,-15.099571
1425492741.72,-14.465851
1425492741.736,-13.949089
1425492741.752,-13.704376
1425492741.767,-13.80088
1425492741.783,-14.194687
1425492741.798,-14.6831665
1425492741.814,-14.94342
1425492741.83,-14.645401
1425492741.845,-13.545593
1425492741.861,-11.659531
1425492741.877,-9.283463
1425492741.892,-6.893936
1425492741.908,-4.9714813
1425492741.923,-3.7953339
1425492741.939,-3.3504486
1425492741.955,-3.3556366
1425492741.97,-3.4240265
1425492741.986,-3.2468414
1425492742.002,-2.6851196
1425492742.017,-1.7758789
1425492742.033,-0.59799194
1425492742.048,0.802475
1425492742.064,2.4634247
1425492742.08,4.444046
1425492742.095,6.760544
1425492742.111,9.278244
1425492742.127,11.884903
1425492742.142,14.422302
1425492742.158,16.824844
1425492742.173,19.097656
1425492742.189,21.162552
1425492742.205,22.781052
1425492742.22,23.5419
1425492742.236,23.065842
1425492742.252,21.218964
1425492742.267,18.274582
1425492742.283,14.893204
1425492742.298,11.856537
1425492742.314,9.76326
1425492742.33,8.737534
1425492742.345,8.506592
1425492742.361,8.537323
1425492742.377,8.3862
1425492742.392,7.8190002
1425492742.408,6.8742676
1425492742.423,5.6650543
1425492742.439,4.282776
1425492742.455,2.75914
1425492742.47,1.0874634
1425492742.486,-0.6448822
1425492742.502,-2.3058167
1425492742.517,-3.7009888
1425492742.533,-4.69545
1425492742.548,-5.2846527
1425492742.564,-5.5112915
1425492742.58,-5.473755
1425492742.595,-5.238678
1425492742.611,-4.9209137
1425492742.627,-4.550064
1425492742.642,-4.176117
1425492742.658,-3.7961884
1425492742.673,-3.3838959
1425492742.689,-2.930069
1425492742.705,-2.4822998
1425492742.72,-2.1765442
1425492742.736,-2.148346
1425492742.752,-2.4390564
1425492742.767,-2.9153137
1425492742.783,-3.2972717
1425492742.798,-3.2792664
1425492742.814,-2.6632996
1425492742.83,-1.4342346
1425492742.845,0.26031494
1425492742.861,2.1816711
1425492742.877,4.139557
1425492742.892,5.963196
1425492742.908,7.577759
1425492742.924,8.913361
1425492742.939,9.933929
1425492742.955,10.682709
1425492742.97,11.251343
1425492742.986,11.842377
1425492743.002,12.65979
1425492743.017,13.884491
1425492743.033,15.565765
1425492743.048,17.602966
1425492743.064,19.735596
1425492743.08,21.564606
1425492743.095,22.653503
1425492743.111,22.592255
1425492743.127,21.141266
1425492743.142,18.289001
1425492743.158,14.305542
1425492743.174,9.639038
1425492743.189,4.815918
1425492743.205,0.32418823
1425492743.22,-3.5096436
1425492743.236,-6.5096436
1425492743.252,-8.660889
1425492743.267,-10.093414
1425492743.283,-11.05069
1425492743.299,-11.785187
1425492743.314,-12.531433
1425492743.33,-13.435883
1425492743.345,-14.461182
1425492743.361,-15.506561
1425492743.377,-16.390137
1425492743.392,-16.919373
1425492743.408,-16.881714
1425492743.424,-15.993408
1425492743.439,-13.8974
1425492743.455,-10.255493
1425492743.47,-4.962158
1425492743.486,1.7244568
1425492743.502,9.13678
1425492743.517,16.418884
1425492743.533,22.84256
1425492743.549,28.088348
1425492743.564,32.330383
1425492743.58,36.02838
1425492743.595,39.613647
1425492743.611,43.194122
1425492743.627,46.541077
1425492743.642,49.190155
1425492743.658,50.815765
1425492743.674,51.39328
1425492743.689,51.205566
1425492743.705,50.678406
1425492743.72,50.11133
1425492743.736,49.602966
1425492743.752,48.998566
1425492743.767,48.09851
1425492743.783,46.835175
1425492743.799,45.388123
1425492743.814,44.145416
1425492743.83,43.49359
1425492743.845,43.670288
1425492743.861,44.429535
1425492743.877,44.996704
1425492743.892,44.3244
1425492743.908,41.464752
1425492743.924,36.025635
1425492743.939,28.410492
1425492743.955,19.628174
1425492743.97,10.863922
1425492743.986,2.9480286
1425492744.002,-3.9116516
1425492744.017,-10.005829
1425492744.033,-15.69519
1425492744.049,-21.027466
1425492744.064,-25.668427
1425492744.08,-29.111755
1425492744.095,-31.103943
1425492744.111,-31.890259
1425492744.127,-32.097687
1425492744.142,-32.397476
1425492744.158,-33.153336
1425492744.174,-34.28763
1425492744.189,-35.430084
1425492744.205,-36.175003
1425492744.22,-36.32167
1425492744.236,-35.869736
1425492744.252,-35.01544
1425492744.267,-34.056
1425492744.283,-33.193695
1425492744.299,-32.532272
1425492744.314,-32.009827
1425492744.33,-31.45871
1425492744.345,-30.623398
1425492744.361,-29.28186
1425492744.377,-27.345032
1425492744.392,-24.90895
1425492744.408,-22.186218
1425492744.424,-19.412308
1425492744.439,-16.722595
1425492744.455,-14.131363
1425492744.47,-11.60173
1425492744.486,-9.087082
1425492744.502,-6.642746
1425492744.517,-4.4182587
1425492744.533,-2.562317
1425492744.549,-1.1909637
1425492744.564,-0.3210144
1425492744.58,0.11982727
1425492744.595,0.2480774
1425492744.611,0.22021484
1425492744.627,0.19081116
1425492744.642,0.2919159
1425492744.658,0.6375122
1425492744.674,1.3787689
1425492744.689,2.6745453
1425492744.705,4.6613617
1425492744.72,7.384445
1425492744.736,10.667633
1425492744.752,14.160309
1425492744.767,17.340927
1425492744.783,19.649094
1425492744.799,20.662048
1425492744.814,20.228851
1425492744.83,18.524506
1425492744.845,15.9592285
1425492744.861,13.040161
1425492744.877,10.17308
1425492744.892,7.5757904
1425492744.908,5.2666473
1425492744.924,3.1727295
1425492744.939,1.2024689
1425492744.955,-0.69529724
1425492744.97,-2.5435638
1425492744.986,-4.366684
1425492745.002,-6.2069244
1425492745.017,-8.100586
1425492745.033,-9.949463
1425492745.049,-11.576553
1425492745.064,-12.738632
1425492745.08,-13.2821045
1425492745.095,-13.250992
1425492745.111,-12.861023
1425492745.127,-12.386719
1425492745.142,-12.032135
1425492745.158,-11.836014
1425492745.174,-11.713974
1425492745.189,-11.534225
1425492745.205,-11.222397
1425492745.22,-10.822403
1425492745.236,-10.444717
1425492745.252,-10.210083
1425492745.267,-10.149216
1425492745.283,-10.2269745
1425492745.299,-10.326019
1425492745.314,-10.301422
1425492745.33,-10.039383
1425492745.345,-9.46019
1425492745.361,-8.530594
1425492745.377,-7.2502747
1425492745.392,-5.622513
1425492745.408,-3.6548462
1425492745.424,-1.3816833
1425492745.439,1.127243
1425492745.455,3.6975555
1425492745.47,6.129318
1425492745.486,8.287079
1425492745.502,10.235779
1425492745.517,12.2204895
1425492745.533,14.585648
1425492745.549,17.562881
1425492745.564,21.009583
1425492745.58,24.400925
1425492745.595,26.973846
1425492745.611,28.02806
1425492745.627,27.273148
1425492745.642,24.915009
1425492745.658,21.551071
1425492745.674,17.83841
1425492745.689,14.251617
1425492745.705,10.95108
1425492745.72,7.850586
1425492745.736,4.824814
1425492745.752,1.868454
1425492745.767,-0.888031
1425492745.783,-3.2534943
1425492745.799,-5.115692
1425492745.814,-6.51947
1425492745.83,-7.608246
1425492745.846,-8.560135
1425492745.861,-9.474319
1425492745.877,-10.393677
1425492745.892,-11.28624
1425492745.908,-12.077896
1425492745.924,-12.691757
1425492745.939,-13.022583
1425492745.955,-12.968964
1425492745.971,-12.493454
1425492745.986,-11.683594
1425492746.002,-10.700485
1425492746.017,-9.777374
1425492746.033,-9.056076
1425492746.049,-8.5576935
1425492746.064,-8.143204
1425492746.08,-7.665909
1425492746.096,-7.0193787
1425492746.111,-6.2273407
1425492746.127,-5.394188
1425492746.142,-4.6183243
1425492746.158,-3.900566
1425492746.174,-3.1258698
1425492746.189,-2.151558
1425492746.205,-0.91031647
1425492746.221,0.6289139
1425492746.236,2.3501816
1425492746.252,4.151108
1425492746.267,5.9498367
1425492746.283,7.682312
1425492746.299,9.296547
1425492746.314,10.738037
1425492746.33,12.013512
1425492746.346,13.247093
1425492746.361,14.676048
1425492746.377,16.57769
1425492746.392,19.115906
1425492746.408,22.224579
1425492746.424,25.567047
1425492746.439,28.628876
1425492746.455,30.881569
1425492746.471,31.972893
1425492746.486,31.763
1425492746.502,30.378937
1425492746.517,28.050644
1425492746.533,25.121536
1425492746.549,21.915771
1425492746.564,18.756706
1425492746.58,15.891975
1425492746.596,13.447914
1425492746.611,11.451347
1425492746.627,9.840363
1425492746.642,8.573677
1425492746.658,7.6552505
1425492746.674,7.134102
1425492746.689,7.0320663
1425492746.705,7.2678223
1425492746.721,7.7624817
1425492746.736,8.431381
1425492746.752,9.230003
1425492746.767,10.103077
1425492746.783,10.903183
1425492746.799,11.269939
1425492746.814,10.739532
1425492746.83,8.948029
1425492746.846,5.860855
1425492746.861,1.8845901
1425492746.877,-2.261963
1425492746.892,-5.842621
1425492746.908,-8.354553
1425492746.924,-9.7299
1425492746.939,-10.273905
1425492746.955,-10.434435
1425492746.971,-10.583063
1425492746.986,-10.895271
1425492747.002,-11.312647
1425492747.017,-11.691309
1425492747.033,-11.840871
1425492747.049,-11.685098
1425492747.064,-11.238659
1425492747.08,-10.569991
1425492747.096,-9.766165
1425492747.111,-8.805195
1425492747.127,-7.6015997
1425492747.142,-6.111231
1425492747.158,-4.389432
1425492747.174,-2.6576862
1425492747.189,-1.1543655
1425492747.205,0.043769836
1425492747.221,1.1699963
1425492747.236,2.679617
1425492747.252,5.037695
1425492747.267,8.336937
1425492747.283,12.149334
1425492747.299,15.585064
1425492747.314,17.674168
1425492747.33,17.738358
1425492747.346,15.691284
1425492747.361,12.029259
1425492747.377,7.6168175
1425492747.392,3.3337173
1425492747.408,-0.18095016
1425492747.424,-2.6821594
1425492747.439,-4.2333527
1425492747.455,-5.131813
1425492747.471,-5.7061234
1425492747.486,-6.2836685
1425492747.502,-7.054306
1425492747.517,-8.18679
1425492747.533,-9.742683
1425492747.549,-11.682335
1425492747.564,-13.892532
1425492747.58,-16.167046
1425492747.596,-18.25721
1425492747.611,-19.991837
1425492747.627,-21.277481
1425492747.642,-22.159393
1425492747.658,-22.723717
1425492747.674,-23.10125
1425492747.689,-23.396858
1425492747.705,-23.692795
1425492747.721,-24.005226
1425492747.736,-24.359818
1425492747.752,-24.769043
1425492747.767,-25.215034
1425492747.783,-25.584549
1425492747.799,-25.716988
1425492747.814,-25.39849
1425492747.83,-24.40577
1425492747.846,-22.667587
1425492747.861,-20.28598
1425492747.877,-17.529083
1425492747.892,-14.756058
1425492747.908,-12.307922
1425492747.924,-10.403702
1425492747.939,-9.01796
1425492747.955,-8.014709
1425492747.971,-7.2059937
1425492747.986,-6.4375305
1425492748.002,-5.5773163
1425492748.017,-4.488922
1425492748.033,-2.980835
1425492748.049,-0.7993622
1425492748.064,2.249115
1425492748.08,6.216385
1425492748.096,10.952652
1425492748.111,16.13237
1425492748.127,21.297134
1425492748.142,25.873428
1425492748.158,29.315247
1425492748.174,31.129883
1425492748.189,31.050568
1425492748.205,29.107635
1425492748.221,25.743195
1425492748.236,21.634537
1425492748.252,17.474976
1425492748.267,13.693436
1425492748.283,10.3564
1425492748.299,7.2594147
1425492748.314,4.0941772
1425492748.33,0.73498535
1425492748.346,-2.7298431
1425492748.361,-6.0435333
1425492748.377,-9.009338
1425492748.392,-11.585831
1425492748.408,-13.866058
1425492748.424,-16.013184
1425492748.439,-17.994385
1425492748.455,-19.615433
1425492748.471,-20.555725
1425492748.486,-20.599594
1425492748.502,-19.762177
1425492748.518,-18.338028
1425492748.533,-16.696503
1425492748.549,-15.124939
1425492748.564,-13.695114
1425492748.58,-12.280151
1425492748.596,-10.732513
1425492748.611,-8.9785
1425492748.627,-7.061844
1425492748.643,-5.1215515
1425492748.658,-3.2242584
1425492748.674,-1.3992004
1425492748.689,0.39169312
1425492748.705,2.0896912
1425492748.721,3.5915527
1425492748.736,4.724579
1425492748.752,5.3766937
1425492748.768,5.619629
1425492748.783,5.6148224
1425492748.799,5.507431
1425492748.814,5.2940063
1425492748.83,4.812622
1425492748.846,3.8952332
1425492748.861,2.5313263
1425492748.877,0.95954895
1425492748.893,-0.42912292
1425492748.908,-1.3107758
1425492748.924,-1.6871948
1425492748.939,-1.8629913
1425492748.955,-2.3381195
1425492748.971,-3.5240784
1425492748.986,-5.544281
1425492749.002,-8.194534
1425492749.018,-11.120483
1425492749.033,-14.110352
1425492749.049,-17.18512
1425492749.064,-20.654526
1425492749.08,-24.810974
1425492749.096,-29.603882
1425492749.111,-34.406235
1425492749.127,-38.03035
1425492749.143,-39.1194
1425492749.158,-36.58615
1425492749.174,-30.198837
1425492749.189,-20.716919
1425492749.205,-9.759842
1425492749.221,0.80278015
1425492749.236,9.518814
1425492749.252,15.785492
1425492749.268,19.885376
1425492749.283,22.660706
1425492749.299,24.996078
1425492749.314,27.408539
1425492749.33,29.955856
1425492749.346,32.370712
1425492749.361,34.237534
1425492749.377,35.159622
1425492749.393,34.762558
1425492749.408,32.682617
1425492749.424,28.593094
1425492749.439,22.418747
1425492749.455,14.440247
1425492749.471,5.4059296
1425492749.486,-3.6749115
1425492749.502,-11.76445
1425492749.518,-18.106384
1425492749.533,-22.419418
1425492749.549,-24.793976
1425492749.564,-25.569992
1425492749.58,-25.191422
1425492749.596,-24.092438
1425492749.611,-22.715225
1425492749.627,-21.437302
1425492749.643,-20.54541
1425492749.658,-20.084183
1425492749.674,-19.826157
1425492749.689,-19.3685
1425492749.705,-18.324722
1425492749.721,-16.507324
1425492749.736,-14.048477
1425492749.752,-11.293777
1425492749.768,-8.653702
1425492749.783,-6.369858
1425492749.799,-4.4172516
1425492749.814,-2.5317535
1425492749.83,-0.3511505
1425492749.846,2.387146
1425492749.861,5.718338
1425492749.877,9.4405365
1425492749.893,13.1635895
1425492749.908,16.435898
1425492749.924,18.811462
1425492749.939,20.004303
1425492749.955,19.82222
1425492749.971,18.229614
1425492749.986,15.30246
1425492750.002,11.244263
1425492750.018,6.4086304
1425492750.033,1.2682495
1425492750.049,-3.6674194
1425492750.064,-7.9526825
1425492750.08,-11.376602
1425492750.096,-13.971115
1425492750.111,-15.971695
1425492750.127,-17.658783
1425492750.143,-19.237823
1425492750.158,-20.787262
1425492750.174,-22.27565
1425492750.189,-23.624512
1425492750.205,-24.80693
1425492750.221,-25.78534
1425492750.236,-26.562546
1425492750.252,-27.133148
1425492750.268,-27.48555
1425492750.283,-27.64154
1425492750.299,-27.682236
1425492750.314,-27.761673
1425492750.33,-28.021591
1425492750.346,-28.53238
1425492750.361,-29.192932
1425492750.377,-29.705627
1425492750.393,-29.689316
1425492750.408,-28.81668
1425492750.424,-26.98993
1425492750.439,-24.405853
1425492750.455,-21.479675
1425492750.471,-18.679901
1425492750.486,-16.331253
1425492750.502,-14.479889
1425492750.518,-12.932129
1425492750.533,-11.375473
1425492750.549,-9.539719
1425492750.564,-7.2539825
1425492750.58,-4.526642
1425492750.596,-1.4658966
1425492750.611,1.7614288
1425492750.627,5.0096893
1425492750.643,8.177002
1425492750.658,11.294678
1425492750.674,14.473297
1425492750.689,17.920227
1425492750.705,21.82193
1425492750.721,26.255234
1425492750.736,31.07167
1425492750.752,35.88806
1425492750.768,40.12578
1425492750.783,43.16652
1425492750.799,44.480286
1425492750.814,43.807846
1425492750.83,41.204056
1425492750.846,37.047638
1425492750.861,31.89473
1425492750.877,26.40738
1425492750.893,21.145706
1425492750.908,16.523315
1425492750.924,12.707779
1425492750.939,9.607925
1425492750.955,7.002182
1425492750.971,4.604271
1425492750.986,2.2123718
1425492751.002,-0.2335434
1425492751.018,-2.642273
1425492751.033,-4.801399
1425492751.049,-6.5041733
1425492751.064,-7.6090927
1425492751.08,-8.113739
1425492751.096,-8.094444
1425492751.111,-7.7248077
1425492751.127,-7.1959534
1425492751.143,-6.745682
1425492751.158,-6.5730743
1425492751.174,-6.831291
1425492751.19,-7.5427628
1425492751.205,-8.555077
1425492751.221,-9.534554
1425492751.236,-10.109222
1425492751.252,-10.029724
1425492751.268,-9.307335
1425492751.283,-8.17627
1425492751.299,-6.9893875
1425492751.315,-5.9800186
1425492751.33,-5.170372
1425492751.346,-4.319771
1425492751.361,-3.1441345
1425492751.377,-1.436058
1425492751.393,0.7824478
1425492751.408,3.3596191
1425492751.424,6.07209
1425492751.44,8.807121
1425492751.455,11.570976
1425492751.471,14.402451
1425492751.486,17.298492
1425492751.502,20.162651
1425492751.518,22.86097
1425492751.533,25.358833
1425492751.549,27.777
1425492751.565,30.336319
1425492751.58,33.134705
1425492751.596,36.044197
1425492751.611,38.588127
1425492751.627,40.177032
1425492751.643,40.28222
1425492751.658,38.73127
1425492751.674,35.726723
1425492751.69,31.793411
1425492751.705,27.516747
1425492751.721,23.34259
1425492751.736,19.454048
1425492751.752,15.782288
1425492751.768,12.101814
1425492751.783,8.195511
1425492751.799,3.988968
1425492751.815,-0.39598846
1425492751.83,-4.64534
1425492751.846,-8.35321
1425492751.861,-11.203369
1425492751.877,-13.05645
1425492751.893,-14.039818
1425492751.908,-14.468056
1425492751.924,-14.703316
1425492751.94,-15.024925
1425492751.955,-15.555534
1425492751.971,-16.301544
1425492751.986,-17.247498
1425492752.002,-18.388725
1425492752.018,-19.768967
1425492752.033,-21.425476
1425492752.049,-23.319794
1425492752.065,-25.264694
1425492752.08,-26.943474
1425492752.096,-27.94291
1425492752.111,-27.979874
1425492752.127,-26.956116
1425492752.143,-25.159622
1425492752.158,-23.108253
1425492752.174,-21.400658
1425492752.19,-20.393913
1425492752.205,-20.023865
1425492752.221,-19.833733
1425492752.236,-19.215607
1425492752.252,-17.726776
1425492752.268,-15.303841
1425492752.283,-12.287537
1425492752.299,-9.212578
1425492752.315,-6.491997
1425492752.33,-4.275505
1425492752.346,-2.400673
1425492752.361,-0.58229065
1425492752.377,1.504158
1425492752.393,4.055626
1425492752.408,7.1523285
1425492752.424,10.76503
1425492752.44,14.75441
1425492752.455,18.840576
1425492752.471,22.59607
1425492752.486,25.49324
1425492752.502,27.027718
1425492752.518,26.845001
1425492752.533,24.931488
1425492752.549,21.621635
1425492752.565,17.55545
1425492752.58,13.447273
1425492752.596,9.874382
1425492752.611,7.065544
1425492752.627,4.906372
1425492752.643,3.0223465
1425492752.658,1.0223618
1425492752.674,-1.3161926
1425492752.69,-3.9440002
1425492752.705,-6.6054688
1425492752.721,-8.997723
1425492752.736,-10.921467
1425492752.752,-12.3566475
1425492752.768,-13.407009
1425492752.783,-14.1895485
1425492752.799,-14.759735
1425492752.815,-15.033318
1425492752.83,-14.889893
1425492752.846,-14.280445
1425492752.861,-13.347683
1425492752.877,-12.386181
1425492752.893,-11.752926
1425492752.908,-11.678867
1425492752.924,-12.157982
1425492752.94,-12.923599
1425492752.955,-13.563084
1425492752.971,-13.700806
1425492752.986,-13.166969
1425492753.002,-12.0156555
1425492753.018,-10.494835
1425492753.033,-8.893364
1425492753.049,-7.449402
1425492753.065,-6.2793694
1425492753.08,-5.425686
1425492753.096,-4.819523
1425492753.111,-4.3507347
1425492753.127,-3.825077
1425492753.143,-3.0517998
1425492753.158,-1.8903503
1425492753.174,-0.3244915
1425492753.19,1.5365448
1425492753.205,3.5411434
1425492753.221,5.5967407
1425492753.236,7.6897144
1425492753.252,9.904417
1425492753.268,12.305033
1425492753.283,14.903286
1425492753.299,17.631317
1425492753.315,20.390764
1425492753.33,23.124567
1425492753.346,25.816984
1425492753.361,28.367659
1425492753.377,30.543526
1425492753.393,31.97105
1425492753.408,32.267296
1425492753.424,31.118607
1425492753.44,28.54005
1425492753.455,24.767563
1425492753.471,20.237822
1425492753.486,15.463501
1425492753.502,10.848506
1425492753.518,6.677472
1425492753.533,3.0841875
1425492753.549,0.14916039
1425492753.565,-2.0627632
1425492753.58,-3.527121
1425492753.596,-4.273101
1425492753.611,-4.4633656
1425492753.627,-4.35966
1425492753.643,-4.2772045
1425492753.658,-4.441716
1425492753.674,-4.9255934
1425492753.69,-5.596261
1425492753.705,-6.245843
1425492753.721,-6.6881247
1425492753.736,-6.907099
1425492753.752,-7.0508337
1425492753.768,-7.344291
1425492753.783,-7.9000363
1425492753.799,-8.596251
1425492753.815,-9.108084
1425492753.83,-9.052537
1425492753.846,-8.206226
1425492753.862,-6.6591454
1425492753.877,-4.760822
1425492753.893,-3.0041194
1425492753.908,-1.722947
1425492753.924,-1.0344651
1425492753.94,-0.6935259
1425492753.955,-0.35983348
1425492753.971,0.24273658
1425492753.986,1.211648
1425492754.002,2.3781037
1425492754.018,3.5036316
1425492754.033,4.4717083
1425492754.049,5.365411
1425492754.065,6.45688
1425492754.08,8.007766
1425492754.096,10.077144
1425492754.112,12.417257
1425492754.127,14.576086
1425492754.143,16.102074
1425492754.158,16.797031
1425492754.174,16.821218
1425492754.19,16.617386
1425492754.205,16.67298
1425492754.221,17.312277
1425492754.237,18.55408
1425492754.252,20.182362
1425492754.268,21.900352
1425492754.283,23.431858
1425492754.299,24.552109
1425492754.315,25.061295
1425492754.33,24.672665
1425492754.346,23.127016
1425492754.362,20.28587
1425492754.377,16.380714
1425492754.393,11.949989
1425492754.408,7.749517
1425492754.424,4.4821095
1425492754.44,2.4965396
1425492754.455,1.6240807
1425492754.471,1.3110456
1425492754.487,0.80863476
1425492754.502,-0.47521782
1425492754.518,-2.7745285
1425492754.533,-5.8858223
1425492754.549,-9.313184
1425492754.565,-12.517621
1425492754.58,-15.157801
1425492754.596,-17.194874
1425492754.612,-18.865734
1425492754.627,-20.445484
1425492754.643,-22.104597
1425492754.658,-23.762379
1425492754.674,-25.164156
1425492754.69,-25.9827
1425492754.705,-26.020376
1425492754.721,-25.256065
1425492754.737,-23.853024
1425492754.752,-22.039755
1425492754.768,-20.048761
1425492754.783,-18.0788
1425492754.799,-16.288513
1425492754.815,-14.737864
1425492754.83,-13.429586
1425492754.846,-12.250542
1425492754.862,-11.064981
1425492754.877,-9.737328
1425492754.893,-8.284376
1425492754.908,-6.8237705
1425492754.924,-5.5585556
1425492754.94,-4.586191
1425492754.955,-3.8904552
1425492754.971,-3.2548103
1425492754.987,-2.4558449
1425492755.002,-1.3709545
1425492755.018,-0.11306
1425492755.033,1.0038757
1425492755.049,1.6371326
1425492755.065,1.5937786
1425492755.08,0.9559097
1425492755.096,0.059638977
1425492755.112,-0.6430626
1425492755.127,-0.80947495
1425492755.143,-0.39813614
1425492755.158,0.28381348
1425492755.174,0.6473112
1425492755.19,0.13004875
1425492755.205,-1.6157846
1425492755.221,-4.4965906
1425492755.237,-8.082355
1425492755.252,-11.721873
1425492755.268,-14.789295
1425492755.283,-16.869915
1425492755.299,-17.836
1425492755.315,-17.769108
1425492755.33,-16.94578
1425492755.346,-15.720805
1425492755.362,-14.499741
1425492755.377,-13.618061
1425492755.393,-13.307729
1425492755.408,-13.628686
1425492755.424,-14.484523
1425492755.44,-15.67132
1425492755.455,-16.984062
1425492755.471,-18.285961
1425492755.487,-19.529837
1425492755.502,-20.657633
1425492755.518,-21.617855
1425492755.533,-22.306921
1425492755.549,-22.654661
1425492755.565,-22.59015
1425492755.58,-22.112001
1425492755.596,-21.153097
1425492755.612,-19.60437
1425492755.627,-17.33427
1425492755.643,-14.303246
1425492755.658,-10.628899
1425492755.674,-6.591385
1425492755.69,-2.5475807
1425492755.705,1.1953201
1425492755.721,4.4073257
1425492755.737,6.9901085
1425492755.752,8.966969
1425492755.768,10.474033
1425492755.783,11.840488
1425492755.799,13.553719
1425492755.815,16.085468
1425492755.83,19.666756
1425492755.846,24.099304
1425492755.862,28.708374
1425492755.877,32.647278
1425492755.893,35.23098
1425492755.908,36.299507
1425492755.924,36.28244
1425492755.94,36.011856
1425492755.955,36.355278
1425492755.971,37.92775
1425492755.987,40.921425
1425492756.002,45.168213
1425492756.018,50.279686
1425492756.033,55.82453
1425492756.049,61.304375
1425492756.065,66.17296
1425492756.08,69.820595
1425492756.096,71.613525
1425492756.112,71.07561
1425492756.127,68.01882
1425492756.143,62.667282
1425492756.158,55.61846
1425492756.174,47.70234
1425492756.19,39.73697
1425492756.205,32.314133
1425492756.221,25.650307
1425492756.237,19.599258
1425492756.252,13.830559
1425492756.268,8.010773
1425492756.283,1.9873657
1425492756.299,-4.153076
1425492756.315,-10.123177
1425492756.33,-15.556942
1425492756.346,-20.146076
1425492756.362,-23.742725
1425492756.377,-26.393871
1425492756.393,-28.30296
1425492756.408,-29.747585
1425492756.424,-30.923134
1425492756.44,-31.873974
1425492756.455,-32.493908
1425492756.471,-32.583992
1425492756.487,-31.99263
1425492756.502,-30.708427
1425492756.518,-28.952534
1425492756.533,-27.079773
1425492756.549,-25.479988
1425492756.565,-24.382431
1425492756.58,-23.765045
1425492756.596,-23.393166
1425492756.612,-22.94344
1425492756.627,-22.159458
1425492756.643,-20.975796
1425492756.658,-19.49522
1425492756.674,-17.940079
1425492756.69,-16.471733
1425492756.705,-15.151661
1425492756.721,-13.885677
1425492756.737,-12.500641
1425492756.752,-10.8567505
1425492756.768,-8.953932
1425492756.784,-6.9166164
1425492756.799,-4.919073
1425492756.815,-3.050331
1425492756.83,-1.2201996
1425492756.846,0.8201332
1425492756.862,3.3188133
1425492756.877,6.3844967
1425492756.893,9.848505
1425492756.909,13.3467865
1425492756.924,16.464035
1425492756.94,18.944063
1425492756.955,20.775705
1425492756.971,22.184437
1425492756.987,23.388351
1425492757.002,24.498816
1425492757.018,25.381998
1425492757.034,25.729635
1425492757.049,25.179195
1425492757.065,23.493176
1425492757.08,20.619347
1425492757.096,16.740187
1425492757.112,12.160072
1425492757.127,7.2586727
1425492757.143,2.3854523
1425492757.159,-2.1568508
1425492757.174,-6.1669655
1425492757.19,-9.44787
1425492757.205,-11.89907
1425492757.221,-13.45776
1425492757.237,-14.1839695
1425492757.252,-14.252573
1425492757.268,-13.993931
1425492757.284,-13.762926
1425492757.299,-13.845592
1425492757.315,-14.361678
1425492757.33,-15.232286
1425492757.346,-16.223122
1425492757.362,-17.066477
1425492757.377,-17.593048
1425492757.393,-17.803228
1425492757.409,-17.853838
1425492757.424,-17.923693
1425492757.44,-18.08901
1425492757.455,-18.258606
1425492757.471,-18.161257
1425492757.487,-17.524769
1425492757.502,-16.207882
1425492757.518,-14.337361
1425492757.534,-12.225775
1425492757.549,-10.308997
1425492757.565,-8.90549
1425492757.58,-8.076166
1425492757.596,-7.6130595
1425492757.612,-7.13682
1425492757.627,-6.2381196
1425492757.643,-4.696685
1425492757.659,-2.5441525
1425492757.674,-0.08044851
1425492757.69,2.2772245
1425492757.705,4.126501
1425492757.721,5.300035
1425492757.737,5.904527
1425492757.752,6.270503
1425492757.768,6.7668676
1425492757.784,7.6655097
1425492757.799,9.068988
1425492757.815,11.006169
1425492757.83,13.489465
1425492757.846,16.549562
1425492757.862,20.157177
1425492757.877,24.081266
1425492757.893,27.862064
1425492757.909,30.924427
1425492757.924,32.790703
1425492757.94,33.280663
1425492757.955,32.53801
1425492757.971,30.89495
1425492757.987,28.60656
1425492758.002,25.812021
1425492758.018,22.483414
1425492758.034,18.684643
1425492758.049,14.652725
1425492758.065,10.816664
1425492758.08,7.548472
1425492758.096,4.9872274
1425492758.112,2.8978205
1425492758.127,0.8523617
1425492758.143,-1.5001688
1425492758.159,-4.240983
1425492758.174,-7.123989
1425492758.19,-9.729279
1425492758.205,-11.774342
1425492758.221,-13.2781315
1425492758.237,-14.516143
1425492758.252,-15.843895
1425492758.268,-17.44146
1425492758.284,-19.195557
1425492758.299,-20.784027
1425492758.315,-21.829916
1425492758.33,-22.15653
1425492758.346,-21.826141
1425492758.362,-21.060812
1425492758.377,-20.091745
1425492758.393,-19.065685
1425492758.409,-17.961683
1425492758.424,-16.68708
1425492758.44,-15.150236
1425492758.455,-13.349457
1425492758.471,-11.3636875
1425492758.487,-9.34234
1425492758.502,-7.3976364
1425492758.518,-5.5802765
1425492758.534,-3.8695374
1425492758.549,-2.1947365
1425492758.565,-0.4793377
1425492758.58,1.3085346
1425492758.596,3.1660728
1425492758.612,5.0412273
1425492758.627,6.853489
1425492758.643,8.533337
1425492758.659,10.066498
1425492758.674,11.464508
1425492758.69,12.793106
1425492758.705,14.099171
1425492758.721,15.449375
1425492758.737,16.889496
1425492758.752,18.44091
1425492758.768,20.07301
1425492758.784,21.668377
1425492758.799,22.97364
1425492758.815,23.628033
1425492758.83,23.254082
1425492758.846,21.572987
1425492758.862,18.570202
1425492758.877,14.5432205
1425492758.893,10.053528
1425492758.909,5.771431
1425492758.924,2.2215614
1425492758.94,-0.33867264
1425492758.955,-2.0080566
1425492758.971,-3.1194916
1425492758.987,-4.078224
1425492759.002,-5.208557
1425492759.018,-6.649353
1425492759.034,-8.348042
1425492759.049,-10.17009
1425492759.065,-11.903355
1425492759.08,-13.312382
1425492759.096,-14.219307
1425492759.112,-14.522785
1425492759.127,-14.208675
1425492759.143,-13.433025
1425492759.159,-12.435314
1425492759.174,-11.488155
1425492759.19,-10.7449
1425492759.205,-10.232948
1425492759.221,-9.88208
1425492759.237,-9.600609
1425492759.252,-9.330082
1425492759.268,-9.0728035
1425492759.284,-8.83662
1425492759.299,-8.6145935
1425492759.315,-8.31892
1425492759.33,-7.903469
1425492759.346,-7.386547
1425492759.362,-6.877262
1425492759.377,-6.5037155
1425492759.393,-6.337715
1425492759.409,-6.288353
1425492759.424,-6.1479263
1425492759.44,-5.6352158
1425492759.456,-4.565422
1425492759.471,-2.8815613
1425492759.487,-0.71320343
1425492759.502,1.7281494
1425492759.518,4.2029877
1425492759.534,6.567894
1425492759.549,8.763466
1425492759.565,10.806084
1425492759.581,12.741402
1425492759.596,14.660881
1425492759.612,16.676575
1425492759.627,18.977104
1425492759.643,21.673965
1425492759.659,24.765755
1425492759.674,27.971733
1425492759.69,30.753181
1425492759.706,32.503494
1425492759.721,32.732956
1425492759.737,31.314919
1425492759.752,28.471214
1425492759.768,24.703308
1425492759.784,20.539436
1425492759.799,16.359962
1425492759.815,12.383942
1425492759.831,8.686554
1425492759.846,5.315262
1425492759.862,2.267891
1425492759.877,-0.46728516
1425492759.893,-3.0271683
1425492759.909,-5.5680237
1425492759.924,-8.265015
1425492759.94,-11.140434
1425492759.956,-14.075394
1425492759.971,-16.824791
1425492759.987,-19.132309
1425492760.002,-20.806198
1425492760.018,-21.810982
1425492760.034,-22.272156
1425492760.049,-22.436981
1425492760.065,-22.57138
1425492760.081,-22.871384
1425492760.096,-23.372658
1425492760.112,-23.94226
1425492760.127,-24.301407
1425492760.143,-24.193748
1425492760.159,-23.466995
1425492760.174,-22.172592
1425492760.19,-20.4804
1425492760.206,-18.633064
1425492760.221,-16.798653
1425492760.237,-15.098503
1425492760.252,-13.588043
1425492760.268,-12.319359
1425492760.284,-11.345688
1425492760.299,-10.674118
1425492760.315,-10.207588
1425492760.331,-9.698746
1425492760.346,-8.80545
1425492760.362,-7.234947
1425492760.377,-4.8513412
1425492760.393,-1.7870941
1425492760.409,1.642395
1425492760.424,5.0708466
1425492760.44,8.270935
1425492760.456,11.191124
1425492760.471,13.942711
1425492760.487,16.632217
1425492760.502,19.284737
1425492760.518,21.836937
1425492760.534,24.243805
1425492760.549,26.53302
1425492760.565,28.828217
1425492760.581,31.205795
1425492760.596,33.485596
1425492760.612,35.163055
1425492760.627,35.55269
1425492760.643,34.04805
1425492760.659,30.465347
1425492760.674,25.162338
1425492760.69,18.971878
1425492760.706,12.8324585
1425492760.721,7.4994965
1425492760.737,3.272232
1425492760.752,0.029418945
1425492760.768,-2.6371002
1425492760.784,-5.1500244
1425492760.799,-7.788971
1425492760.815,-10.619766
1425492760.831,-13.533585
1425492760.846,-16.355865
1425492760.862,-18.928955
1425492760.877,-21.143341
1425492760.893,-22.927048
1425492760.909,-24.194641
1425492760.924,-24.865005
1425492760.94,-24.852966
1425492760.956,-24.212524
1425492760.971,-23.136597
1425492760.987,-21.988739
1425492761.002,-21.19754
1425492761.018,-21.14444
1425492761.034,-22.013977
1425492761.049,-23.767792
1425492761.065,-26.151138
1425492761.081,-28.729538
1425492761.096,-31.004929
1425492761.112,-32.504303
1425492761.127,-32.887985
1425492761.143,-32.032333
1425492761.159,-30.038712
1425492761.174,-27.224045
1425492761.19,-23.937866
1425492761.206,-20.496445
1425492761.221,-17.052567
1425492761.237,-13.631958
1425492761.252,-10.148788
1425492761.268,-6.476776
1425492761.284,-2.4239807
1425492761.299,2.2590637
1425492761.315,7.8343964
1425492761.331,14.403839
1425492761.346,21.778992
1425492761.362,29.377533
1425492761.377,36.372696
1425492761.393,42.02942
1425492761.409,46.00496
1425492761.424,48.47484
1425492761.44,50.069458
1425492761.456,51.480072
1425492761.471,53.14383
1425492761.487,54.98958
1425492761.502,56.53218
1425492761.518,57.049423
1425492761.534,55.925613
1425492761.549,52.818573
1425492761.565,47.760025
1425492761.581,41.11203
1425492761.596,33.481735
1425492761.612,25.6288
1425492761.627,18.33397
1425492761.643,12.24118
1425492761.659,7.6802063
1425492761.674,4.5384216
1425492761.69,2.3429108
1425492761.706,0.37982178
1425492761.721,-1.9696503
1425492761.737,-5.011841
1425492761.752,-8.627472
1425492761.768,-12.386063
1425492761.784,-15.78862
1425492761.799,-18.466248
1425492761.815,-20.28984
1425492761.831,-21.340576
1425492761.846,-21.81366
1425492761.862,-21.92595
1425492761.877,-21.901901
1425492761.893,-21.99289
1425492761.909,-22.409088
1425492761.924,-23.298355
1425492761.94,-24.582016
1425492761.956,-25.985016
1425492761.971,-27.063843
1425492761.987,-27.43843
1425492762.002,-26.961044
1425492762.018,-25.817856
1425492762.034,-24.415695
1425492762.049,-23.220001
1425492762.065,-22.518372
1425492762.081,-22.31401
1425492762.096,-22.386215
1425492762.112,-22.417923
1425492762.128,-22.145416
1425492762.143,-21.432983
1425492762.159,-20.242172
1425492762.174,-18.58574
1425492762.19,-16.434479
1425492762.206,-13.796524
1425492762.221,-10.677673
1425492762.237,-7.215317
1425492762.253,-3.5799713
1425492762.268,0.060165405
1425492762.284,3.6717834
1425492762.299,7.345169
1425492762.315,11.246872
1425492762.331,15.405212
1425492762.346,19.588242
1425492762.362,23.284637
1425492762.378,25.81601
1425492762.393,26.615173
1425492762.409,25.474686
1425492762.424,22.618073
1425492762.44,18.631256
1425492762.456,14.137283
1425492762.471,9.591812
1425492762.487,5.1516876
1425492762.503,0.79278564
1425492762.518,-3.472519
1425492762.534,-7.4465027
1425492762.549,-10.809067
1425492762.565,-13.262085
1425492762.581,-14.736191
1425492762.596,-15.434235
1425492762.612,-15.721313
1425492762.628,-15.897522
1425492762.643,-16.07666
1425492762.659,-16.2117
1425492762.674,-16.243134
1425492762.69,-16.185837
1425492762.706,-16.215927
1425492762.721,-16.495453
1425492762.737,-17.108765
1425492762.753,-17.961884
1425492762.768,-18.90538
1425492762.784,-19.785797
1425492762.799,-20.542755
1425492762.815,-21.143265
1425492762.831,-21.530258
1425492762.846,-21.546005
1425492762.862,-21.02919
1425492762.878,-19.911133
1425492762.893,-18.347809
1425492762.909,-16.639801
1425492762.924,-15.13942
1425492762.94,-13.999527
1425492762.956,-13.161163
1425492762.971,-12.353027
1425492762.987,-11.3025055
1425492763.003,-9.8424835
1425492763.018,-7.997757
1425492763.034,-5.90654
1425492763.049,-3.722168
1425492763.065,-1.4911957
1425492763.081,0.82969666
1425492763.096,3.3898163
1425492763.112,6.312134
1425492763.128,9.69986
1425492763.143,13.577652
1425492763.159,17.890762
1425492763.174,22.498734
1425492763.19,27.165741
1425492763.206,31.511078
1425492763.221,35.053757
1425492763.237,37.247345
1425492763.253,37.658295
1425492763.268,36.09459
1425492763.284,32.70468
1425492763.299,27.956955
1425492763.315,22.529633
1425492763.331,17.069305
1425492763.346,12.064972
1425492763.362,7.756012
1425492763.378,4.0946655
1425492763.393,0.93795776
1425492763.409,-1.9076233
1425492763.424,-4.60054
1425492763.44,-7.2064056
1425492763.456,-9.734848
1425492763.471,-12.1237335
1425492763.487,-14.276474
1425492763.503,-16.078888
1425492763.518,-17.475037
1425492763.534,-18.465164
1425492763.549,-19.155838
1425492763.565,-19.627457
1425492763.581,-19.934937
1425492763.596,-20.073196
1425492763.612,-20.003006
1425492763.628,-19.7193
1425492763.643,-19.242737
1425492763.659,-18.605576
1425492763.674,-17.782013
1425492763.69,-16.688995
1425492763.706,-15.242264
1425492763.721,-13.431046
1425492763.737,-11.392166
1425492763.753,-9.344757
1425492763.768,-7.5454865
1425492763.784,-6.1639404
1425492763.799,-5.2184143
1425492763.815,-4.558914
1425492763.831,-4.004898
1425492763.846,-3.3959808
1425492763.862,-2.6605988
1425492763.878,-1.8066254
1425492763.893,-0.888031
1425492763.909,0.062316895
1425492763.924,1.0562286
1425492763.94,2.194397
1425492763.956,3.5821838
1425492763.971,5.3359985
1425492763.987,7.446167
1425492764.003,9.853378
1425492764.018,12.417435
1425492764.034,15.06427
1425492764.049,17.775772
1425492764.065,20.602798
1425492764.081,23.59259
1425492764.096,26.650375
1425492764.112,29.5177
1425492764.128,31.805603
1425492764.143,33.075165
1425492764.159,32.983078
1425492764.174,31.380707
1425492764.19,28.372635
1425492764.206,24.305298
1425492764.221,19.706993
1425492764.237,15.131538
1425492764.253,11.028572
1425492764.268,7.5727386
1425492764.284,4.6823196
1425492764.299,2.059082
1425492764.315,-0.58171844
1425492764.331,-3.395218
1425492764.346,-6.361435
1425492764.362,-9.338974
1425492764.378,-12.160347
1425492764.393,-14.713211
1425492764.409,-16.953186
1425492764.424,-18.835884
1425492764.44,-20.337791
1425492764.456,-21.45858
1425492764.471,-22.246613
1425492764.487,-22.790443
1425492764.503,-23.119247
1425492764.518,-23.207047
1425492764.534,-22.956154
1425492764.549,-22.277557
1425492764.565,-21.213074
1425492764.581,-19.94619
1425492764.596,-18.68824
1425492764.612,-17.555664
1425492764.628,-16.49218
1425492764.643,-15.321663
1425492764.659,-13.867607
1425492764.674,-12.131493
1425492764.69,-10.3066635
1425492764.706,-8.688004
1425492764.721,-7.5000916
1425492764.737,-6.7540436
1425492764.753,-6.2417297
1425492764.768,-5.6325607
1425492764.784,-4.6007385
1425492764.8,-2.947731
1425492764.815,-0.6380539
1425492764.831,2.2416992
1425492764.846,5.542816
1425492764.862,9.07605
1425492764.878,12.70459
1425492764.893,16.326637
1425492764.909,19.887115
1425492764.924,23.368103
1425492764.94,26.804695
1425492764.956,30.186539
1425492764.971,33.42189
1425492764.987,36.273064
1425492765.003,38.35527
1425492765.018,39.21051
1425492765.034,38.481712
1425492765.05,36.046417
1425492765.065,32.130684
1425492765.081,27.291512
1425492765.096,22.22715
1425492765.112,17.545807
1425492765.128,13.595375
1425492765.143,10.340233
1425492765.159,7.533287
1425492765.175,4.855942
1425492765.19,2.1093216
1425492765.206,-0.7480316
1425492765.221,-3.602066
1425492765.237,-6.314682
1425492765.253,-8.766014
1425492765.268,-10.922234
1425492765.284,-12.797096
1425492765.3,-14.428867
1425492765.315,-15.818249
1425492765.331,-16.963242
1425492765.346,-17.823273
1425492765.362,-18.413464
1425492765.378,-18.815353
1425492765.393,-19.183167
1425492765.409,-19.674183
1425492765.425,-20.344986
1425492765.44,-21.039936
1425492765.456,-21.433704
1425492765.471,-21.154182
1425492765.487,-20.014652
1425492765.503,-18.126678
1425492765.518,-15.926025
1425492765.534,-13.922852
1425492765.55,-12.484234
1425492765.565,-11.639576
1425492765.581,-11.104305
1425492765.596,-10.464977
1425492765.612,-9.36087
1425492765.628,-7.510315
1425492765.643,-4.8192024
1425492765.659,-1.3203278
1425492765.675,2.7973366
1425492765.69,7.169674
1425492765.706,11.3113785
1425492765.721,14.757652
1425492765.737,17.207935
1425492765.753,18.698193
1425492765.768,19.58342
1425492765.784,20.381073
1425492765.8,21.56298
1425492765.815,23.351212
1425492765.831,25.602913
1425492765.846,27.847958
1425492765.862,29.41362
1425492765.878,29.644878
1425492765.893,28.084728
1425492765.909,24.704948
1425492765.925,19.903782
1425492765.94,14.432854
1425492765.956,9.119923
1425492765.971,4.5841446
1425492765.987,1.0342789
1425492766.003,-1.6994591
1425492766.018,-3.9929943
1425492766.034,-6.1914406
1425492766.05,-8.466265
1425492766.065,-10.792255
1425492766.081,-13.030073
1425492766.096,-15.027828
1425492766.112,-16.698086
1425492766.128,-17.98694
1425492766.143,-18.86958
1425492766.159,-19.281126
1425492766.175,-19.142605
1425492766.19,-18.409801
1425492766.206,-17.145924
1425492766.221,-15.561029
1425492766.237,-13.975483
1425492766.253,-12.692865
1425492766.268,-11.869749
1425492766.284,-11.433821
1425492766.3,-11.139492
1425492766.315,-10.658327
1425492766.331,-9.757288
1425492766.346,-8.400978
1425492766.362,-6.755596
1425492766.378,-5.0484333
1425492766.393,-3.469595
1425492766.409,-2.0596905
1425492766.425,-0.7567291
1425492766.44,0.52521706
1425492766.456,1.8365345
1425492766.471,3.14847
1425492766.487,4.4040146
1425492766.503,5.5839415
1425492766.518,6.697364
1425492766.534,7.7970266
1425492766.55,8.948431
1425492766.565,10.231703
1425492766.581,11.716569
1425492766.596,13.474982
1425492766.612,15.535362
1425492766.628,17.842556
1425492766.643,20.167336
1425492766.659,22.163975
1425492766.675,23.401934
1425492766.69,23.548159
1425492766.706,22.46616
1425492766.721,20.305305
1425492766.737,17.42774
1425492766.753,14.325618
1425492766.768,11.426643
1425492766.784,8.9966545
1425492766.8,7.05703
1425492766.815,5.452322
1425492766.831,3.9342337
1425492766.846,2.2745957
1425492766.862,0.32844734
1425492766.878,-1.919447
1425492766.893,-4.382703
1425492766.909,-6.874383
1425492766.925,-9.18322
1425492766.94,-11.100176
1425492766.956,-12.508407
1425492766.971,-13.425664
1425492766.987,-14.023264
1425492767.003,-14.512664
1425492767.018,-15.098482
1425492767.034,-15.833634
1425492767.05,-16.623081
1425492767.065,-17.244287
1425492767.081,-17.530514
1425492767.096,-17.37866
1425492767.112,-16.797832
1425492767.128,-15.788805
1425492767.143,-14.329096
1425492767.159,-12.346991
1425492767.175,-9.865372
1425492767.19,-7.0607452
1425492767.206,-4.286188
1425492767.221,-1.9003544
1425492767.237,-0.09355736
1425492767.253,1.2410812
1425492767.268,2.45994
1425492767.284,3.989523
1425492767.3,6.0383224
1425492767.315,8.533634
1425492767.331,11.087955
1425492767.346,13.277874
1425492767.362,14.817585
1425492767.378,15.765179
1425492767.393,16.484297
1425492767.409,17.484478
1425492767.425,19.221302
1425492767.44,21.882215
1425492767.456,25.360968
1425492767.471,29.26281
1425492767.487,33.03085
1425492767.503,36.10148
1425492767.518,37.975136
1425492767.534,38.31741
1425492767.55,36.986313
1425492767.565,34.128304
1425492767.581,30.134966
1425492767.596,25.621166
1425492767.612,21.22601
1425492767.628,17.394955
1425492767.643,14.199192
1425492767.659,11.307354
1425492767.675,8.136869
1425492767.69,4.143202
1425492767.706,-0.96362114
1425492767.722,-7.0519676
1425492767.737,-13.6649685
1425492767.753,-20.223543
1425492767.768,-26.2899
1425492767.784,-31.676908
1425492767.8,-36.50892
1425492767.815,-41.06881
1425492767.831,-45.67598
1425492767.847,-50.484356
1425492767.862,-55.50387
1425492767.878,-60.54648
1425492767.893,-65.28154
1425492767.909,-69.30627
1425492767.925,-72.23888
1425492767.94,-73.78572
1425492767.956,-73.82216
1425492767.972,-72.43211
1425492767.987,-69.872955
1425492768.003,-66.473724
1425492768.018,-62.48351
1425492768.034,-57.886826
1425492768.05,-52.286053
1425492768.065,-44.862797
1425492768.081,-34.685165
1425492768.097,-21.105656
1425492768.112,-4.2867165
1425492768.128,14.661392
1425492768.143,33.785667
1425492768.159,50.94046
1425492768.175,64.473404
1425492768.19,73.6699
1425492768.206,78.76892
1425492768.222,80.60676
1425492768.237,80.120285
1425492768.253,78.0536
1425492768.268,74.895615
1425492768.284,71.02394
1425492768.3,66.86122
1425492768.315,62.92611
1425492768.331,59.633415
1425492768.347,57.166183
1425492768.362,55.342705
1425492768.378,53.657837
1425492768.393,51.44448
1425492768.409,48.159096
1425492768.425,43.489777
1425492768.44,37.556435
1425492768.456,30.846611
1425492768.472,24.051758
1425492768.487,17.795074
1425492768.503,12.411972
1425492768.518,7.8248444
1425492768.534,3.693428
1425492768.55,-0.39520264
1425492768.565,-4.640999
1425492768.581,-8.973221
1425492768.597,-13.159142
1425492768.612,-16.954262
1425492768.628,-20.156586
1425492768.643,-22.704628
1425492768.659,-24.600304
1425492768.675,-25.900772
1425492768.69,-26.695007
1425492768.706,-27.124779
1425492768.722,-27.317337
1425492768.737,-27.426254
1425492768.753,-27.512718
1425492768.768,-27.603195
1425492768.784,-27.69928
1425492768.8,-27.793976
1425492768.815,-27.85476
1425492768.831,-27.837486
1425492768.847,-27.628876
1425492768.862,-27.101662
1425492768.878,-26.142296
1425492768.893,-24.77015
1425492768.909,-23.0738
1425492768.925,-21.271294
1425492768.94,-19.573753
1425492768.956,-18.148087
1425492768.972,-17.067635
1425492768.987,-16.312294
1425492769.003,-15.7838745
1425492769.018,-15.371239
1425492769.034,-14.964844
1425492769.05,-14.511047
1425492769.065,-13.972992
1425492769.081,-13.351364
1425492769.097,-12.612564
1425492769.112,-11.736534
1425492769.128,-10.682716
1425492769.143,-9.486435
1425492769.159,-8.226112
1425492769.175,-7.056221
1425492769.19,-6.1223145
1425492769.206,-5.542412
1425492769.222,-5.3442993
1425492769.237,-5.4748383
1425492769.253,-5.7854767
1425492769.268,-6.108284
1425492769.284,-6.250618
1425492769.3,-6.074257
1425492769.315,-5.532707
1425492769.331,-4.7497406
1425492769.347,-4.0670624
1425492769.362,-3.9509048
1425492769.378,-4.7652893
1425492769.393,-6.606613
1425492769.409,-9.117981
1425492769.425,-11.542381
1425492769.44,-12.872314
1425492769.456,-12.150711
1425492769.472,-8.7369
1425492769.487,-2.5235443
1425492769.503,6.0163956
1425492769.518,15.990578
1425492769.534,26.37709
1425492769.55,36.24343
1425492769.565,44.952133
1425492769.581,52.083084
1425492769.597,57.389557
1425492769.612,60.66501
1425492769.628,61.888657
1425492769.643,61.293488
1425492769.659,59.475464
1425492769.675,57.197113
1425492769.69,55.101852
1425492769.706,53.368958
1425492769.722,51.653366
1425492769.737,49.294464
1425492769.753,45.793564
1425492769.768,41.09131
1425492769.784,35.6243
1425492769.8,30.009048
1425492769.815,24.696335
1425492769.831,19.732864
1425492769.847,14.928101
1425492769.862,10.058533
1425492769.878,5.173111
1425492769.893,0.55133057
1425492769.909,-3.4631805
1425492769.925,-6.712799
1425492769.94,-9.297386
1425492769.956,-11.461052
1425492769.972,-13.376312
1425492769.987,-14.984238
1425492770.003,-15.9865265
1425492770.018,-16.119781
1425492770.034,-15.28743
1425492770.05,-13.697998
1425492770.065,-11.802658
1425492770.081,-10.085457
1425492770.097,-8.82753
1425492770.112,-8.018005
1425492770.128,-7.311096
1425492770.143,-6.2623215
1425492770.159,-4.5245667
1425492770.175,-2.032959
1425492770.19,0.99124146
1425492770.206,4.0822144
1425492770.222,6.7370453
1425492770.237,8.520813
1425492770.253,9.141159
1425492770.268,8.504578
1425492770.284,6.6969986
1425492770.3,3.9595795
1425492770.315,0.6922684
1425492770.331,-2.6313019
1425492770.347,-5.55925
1425492770.362,-7.8264008
1425492770.378,-9.399879
1425492770.394,-10.516769
1425492770.409,-11.553902
1425492770.425,-12.891556
1425492770.44,-14.736877
1425492770.456,-17.086365
1425492770.472,-19.700111
1425492770.487,-22.204613
1425492770.503,-24.182396
1425492770.519,-25.318687
1425492770.534,-25.50595
1425492770.55,-24.914871
1425492770.565,-23.89428
1425492770.581,-22.848541
1425492770.597,-22.03424
1425492770.612,-21.520805
1425492770.628,-21.15664
1425492770.644,-20.768402
1425492770.659,-20.246666
1425492770.675,-19.62407
1425492770.69,-18.940033
1425492770.706,-18.228584
1425492770.722,-17.42749
1425492770.737,-16.468727
1425492770.753,-15.316536
1425492770.769,-14.089348
1425492770.784,-12.9398575
1425492770.8,-11.956413
1425492770.815,-11.117477
1425492770.831,-10.257889
1425492770.847,-9.143982
1425492770.862,-7.631302
1425492770.878,-5.697296
1425492770.894,-3.4671707
1425492770.909,-1.0880432
1425492770.925,1.3029404
1425492770.94,3.6153564
1425492770.956,5.805214
1425492770.972,7.813507
1425492770.987,9.592979
1425492771.003,11.08065
1425492771.019,12.309708
1425492771.034,13.446228
1425492771.05,14.760277
1425492771.065,16.57309
1425492771.081,19.056732
1425492771.097,22.156952
1425492771.112,25.462875
1425492771.128,28.354729
1425492771.144,30.136528
1425492771.159,30.303734
1425492771.175,28.654999
1425492771.19,25.370193
1425492771.206,20.913368
1425492771.222,15.876617
1425492771.237,10.816933
1425492771.253,6.20166
1425492771.269,2.2943802
1425492771.284,-0.84163666
1425492771.3,-3.3291779
1425492771.315,-5.4424515
1425492771.331,-7.493889
1425492771.347,-9.736542
1425492771.362,-12.195549
1425492771.378,-14.711105
1425492771.394,-17.012161
1425492771.409,-18.83815
1425492771.425,-20.089111
1425492771.44,-20.804619
1425492771.456,-21.1307
1425492771.472,-21.169777
1425492771.487,-20.996696
1425492771.503,-20.605026
1425492771.519,-19.971802
1425492771.534,-19.057693
1425492771.55,-17.776024
1425492771.565,-15.97374
1425492771.581,-13.473465
1425492771.597,-10.1788025
1425492771.612,-6.1354675
1425492771.628,-1.5332413
1425492771.644,3.342575
1425492771.659,8.247482
1425492771.675,13.089401
1425492771.69,17.84095
1425492771.706,22.512138
1425492771.722,27.028168
1425492771.737,31.184128
1425492771.753,34.746353
1425492771.769,37.474075
1425492771.784,39.24521
1425492771.8,40.022263
1425492771.815,39.855164
1425492771.831,38.78588
1425492771.847,36.83107
1425492771.862,34.009346
1425492771.878,30.376228
1425492771.894,26.113503
1425492771.909,21.558441
1425492771.925,17.176376
1425492771.94,13.465836
1425492771.956,10.787422
1425492771.972,9.260529
1425492771.987,8.727753
1425492772.003,8.892708
1425492772.019,9.432358
1425492772.034,10.161659
1425492772.05,11.014572
1425492772.065,11.979637
1425492772.081,12.937187
1425492772.097,13.628281
1425492772.112,13.691704
1425492772.128,12.838089
1425492772.144,10.979782
1425492772.159,8.316963
1425492772.175,5.2694473
1425492772.19,2.2654572
1425492772.206,-0.38931274
1425492772.222,-2.626999
1425492772.237,-4.6098404
1425492772.253,-6.528351
1425492772.269,-8.510429
1425492772.284,-10.5271
1425492772.3,-12.428253
1425492772.315,-14.054497
1425492772.331,-15.338577
1425492772.347,-16.264755
1425492772.362,-16.859264
1425492772.378,-17.074272
1425492772.394,-16.826317
1425492772.409,-16.04794
1425492772.425,-14.865051
1425492772.44,-13.539154
1425492772.456,-12.418392
1425492772.472,-11.759975
1425492772.487,-11.577213
1425492772.503,-11.664669
1425492772.519,-11.716694
1425492772.534,-11.523472
1425492772.55,-11.095848
1425492772.565,-10.627277
1425492772.581,-10.45018
1425492772.597,-10.801109
1425492772.612,-11.746563
1425492772.628,-13.108868
1425492772.644,-14.562569
1425492772.659,-15.745335
1425492772.675,-16.441494
1425492772.69,-16.653103
1425492772.706,-16.515522
1425492772.722,-16.180431
1425492772.737,-15.662178
1425492772.753,-14.80554
1425492772.769,-13.398567
1425492772.784,-11.368711
1425492772.8,-8.882353
1425492772.815,-6.278345
1425492772.831,-3.9425526
1425492772.847,-2.041521
1425492772.862,-0.47499275
1425492772.878,1.0074444
1425492772.894,2.662325
1425492772.909,4.6115685
1425492772.925,6.7875137
1425492772.94,9.125042
1425492772.956,11.592596
1425492772.972,14.252716
1425492772.987,17.14663
1425492773.003,20.155956
1425492773.019,22.987595
1425492773.034,25.236052
1425492773.05,26.536135
1425492773.066,26.710041
1425492773.081,25.79307
1425492773.097,23.99593
1425492773.112,21.579586
1425492773.128,18.763956
1425492773.144,15.653416
1425492773.159,12.249463
1425492773.175,8.492426
1425492773.191,4.381653
1425492773.206,0.014630318
1425492773.222,-4.351611
1425492773.237,-8.433403
1425492773.253,-12.0009775
1425492773.269,-15.006555
1425492773.284,-17.572721
1425492773.3,-19.909689
1425492773.316,-22.095978
1425492773.331,-24.045681
1425492773.347,-25.463322
1425492773.362,-26.074955
1425492773.378,-25.80064
1425492773.394,-24.848501
1425492773.409,-23.617212
1425492773.425,-22.54268
1425492773.441,-21.857893
1425492773.456,-21.51007
1425492773.472,-21.27451
1425492773.487,-20.926096
1425492773.503,-20.32586
1425492773.519,-19.488096
1425492773.534,-18.46789
1425492773.55,-17.282545
1425492773.566,-15.851676
1425492773.581,-14.082212
1425492773.597,-11.934483
1425492773.612,-9.51269
1425492773.628,-7.016782
1425492773.644,-4.641322
1425492773.659,-2.4935675
1425492773.675,-0.538471
1425492773.691,1.3932558
1425492773.706,3.4834316
1425492773.722,5.846925
1425492773.737,8.508757
1425492773.753,11.416623
1425492773.769,14.475351
1425492773.784,17.64579
1425492773.8,20.888382
1425492773.816,24.23304
1425492773.831,27.66468
1425492773.847,31.150658
1425492773.862,34.58675
1425492773.878,37.896217
1425492773.894,40.969975
1425492773.909,43.71348
1425492773.925,45.964684
1425492773.941,47.487442
1425492773.956,48.038883
1425492773.972,47.41883
1425492773.987,45.52516
1425492774.003,42.35972
1425492774.019,38.028313
1425492774.034,32.702927
1425492774.05,26.666157
1425492774.066,20.33981
1425492774.081,14.22595
1425492774.097,8.795692
1425492774.112,4.28784
1425492774.128,0.6427498
1425492774.144,-2.5209656
1425492774.159,-5.689123
1425492774.175,-9.264645
1425492774.191,-13.4079075
1425492774.206,-18.028463
1425492774.222,-22.921728
1425492774.237,-27.875998
1425492774.253,-32.712807
1425492774.269,-37.243774
1425492774.284,-41.198467
1425492774.3,-44.229145
1425492774.316,-45.99311
1425492774.331,-46.309937
1425492774.347,-45.25593
1425492774.362,-43.211834
1425492774.378,-40.739464
1425492774.394,-38.402348
1425492774.409,-36.54563
1425492774.425,-35.15072
1425492774.441,-33.827415
1425492774.456,-32.08818
1425492774.472,-29.589092
1425492774.487,-26.406803
1425492774.503,-22.965622
1425492774.519,-19.871357
1425492774.534,-17.510635
1425492774.55,-15.875336
1425492774.566,-14.5548935
1425492774.581,-13.003109
1425492774.597,-10.876438
1425492774.612,-8.211552
1425492774.628,-5.3671074
1425492774.644,-2.8105736
1425492774.659,-0.8133774
1425492774.675,0.6413841
1425492774.691,1.8424873
1425492774.706,3.17247
1425492774.722,4.89645
1425492774.737,7.108364
1425492774.753,9.762066
1425492774.769,12.78204
1425492774.784,16.128258
1425492774.8,19.74324
1425492774.816,23.477654
1425492774.831,26.921139
1425492774.847,29.468853
1425492774.862,30.46576
1425492774.878,29.516918
1425492774.894,26.695892
1425492774.909,22.571102
1425492774.925,17.970757
1425492774.941,13.632759
1425492774.956,9.900002
1425492774.972,6.748375
1425492774.987,3.8584442
1425492775.003,1.0128517
1425492775.019,-1.8404789
1425492775.034,-4.5340786
1425492775.05,-6.9198265
1425492775.066,-8.9693775
1425492775.081,-10.846764
1425492775.097,-12.723686
1425492775.112,-14.689476
1425492775.128,-16.613123
1425492775.144,-18.219084
1425492775.159,-19.229307
1425492775.175,-19.52499
1425492775.191,-19.236673
1425492775.206,-18.678646
1425492775.222,-18.273745
1425492775.237,-18.360706
1425492775.253,-19.018812
1425492775.269,-20.04974
1425492775.284,-20.992071
1425492775.3,-21.333202
1425492775.316,-20.71846
1425492775.331,-19.125143
1425492775.347,-16.836885
1425492775.362,-14.354715
1425492775.378,-12.071188
1425492775.394,-10.206522
1425492775.409,-8.705712
1425492775.425,-7.386323
1425492775.441,-6.0537434
1425492775.456,-4.618574
1425492775.472,-3.0591125
1425492775.487,-1.3823395
1425492775.503,0.37976933
1425492775.519,2.2312484
1425492775.534,4.1394506
1425492775.55,6.064906
1425492775.566,8.051975
1425492775.581,10.223864
1425492775.597,12.807779
1425492775.612,16.036083
1425492775.628,20.006178
1425492775.644,24.572512
1425492775.659,29.36681
1425492775.675,33.82592
1425492775.691,37.338394
1425492775.706,39.38779
1425492775.722,39.644398
1425492775.738,38.056435
1425492775.753,34.85898
1425492775.769,30.54284
1425492775.784,25.69644
1425492775.8,20.910631
1425492775.816,16.625805
1425492775.831,13.038828
1425492775.847,10.140493
1425492775.862,7.7618847
1425492775.878,5.672082
1425492775.894,3.628971
1425492775.909,1.452198
1425492775.925,-0.98073196
1425492775.941,-3.66681
1425492775.956,-6.4818497
1425492775.972,-9.210484
1425492775.988,-11.620235
1425492776.003,-13.505034
1425492776.019,-14.802039
1425492776.034,-15.548747
1425492776.05,-15.875801
1425492776.066,-15.941955
1425492776.081,-15.872933
1425492776.097,-15.741432
1425492776.113,-15.529606
1425492776.128,-15.115909
1425492776.144,-14.388373
1425492776.159,-13.288674
1425492776.175,-11.892608
1425492776.191,-10.4038105
1425492776.206,-9.049386
1425492776.222,-7.998225
1425492776.238,-7.2422314
1425492776.253,-6.646734
1425492776.269,-5.9816084
1425492776.284,-5.054776
1425492776.3,-3.7958097
1425492776.316,-2.1852798
1425492776.331,-0.2376337
1425492776.347,2.0260162
1425492776.363,4.5416355
1425492776.378,7.1927624
1425492776.394,9.739836
1425492776.409,11.936985
1425492776.425,13.637686
1425492776.441,14.926155
1425492776.456,16.079712
1425492776.472,17.505142
1425492776.488,19.463327
1425492776.503,22.010643
1425492776.519,24.831348
1425492776.534,27.351627
1425492776.55,28.916178
1425492776.566,29.001892
1425492776.581,27.403566
1425492776.597,24.314556
1425492776.613,20.228355
1425492776.628,15.790062
1425492776.644,11.557796
1425492776.659,7.8897657
1425492776.675,4.8863773
1425492776.691,2.4802465
1425492776.706,0.49809074
1425492776.722,-1.2579727
1425492776.738,-3.0101137
1425492776.753,-4.958026
1425492776.769,-7.2578745
1425492776.784,-9.932576
1425492776.8,-12.843128
1425492776.816,-15.699896
1425492776.831,-18.156822
1425492776.847,-19.926603
1425492776.863,-20.900133
1425492776.878,-21.171772
1425492776.894,-20.948135
1425492776.909,-20.46433
1425492776.925,-19.911997
1425492776.941,-19.371134
1425492776.956,-18.83923
1425492776.972,-18.29146
1425492776.988,-17.716732
1425492777.003,-17.150778
1425492777.019,-16.648993
1425492777.034,-16.241707
1425492777.05,-15.871293
1425492777.066,-15.358451
1425492777.081,-14.521812
1425492777.097,-13.242238
1425492777.113,-11.590842
1425492777.128,-9.736747
1425492777.144,-7.926982
1425492777.159,-6.240635
1425492777.175,-4.594062
1425492777.191,-2.7937098
1425492777.206,-0.70018387
1425492777.222,1.6675215
1425492777.238,4.135975
1425492777.253,6.519534
1425492777.269,8.764339
1425492777.284,10.996254
1425492777.3,13.432131
1425492777.316,16.2567
1425492777.331,19.523918
1425492777.347,23.133404
1425492777.363,26.880756
1425492777.378,30.481049
1425492777.394,33.551594
1425492777.409,35.671066
1425492777.425,36.416
1425492777.441,35.52964
1425492777.456,33.066017
1425492777.472,29.390415
1425492777.488,25.068035
1425492777.503,20.66814
1425492777.519,16.556643
1425492777.534,12.81515
1425492777.55,9.327341
1425492777.566,5.912217
1425492777.581,2.4539976
1425492777.597,-1.0258865
1425492777.613,-4.413991
1425492777.628,-7.471157
1425492777.644,-9.999184
1425492777.659,-11.833853
1425492777.675,-12.930293
1425492777.691,-13.392778
1425492777.706,-13.404369
1425492777.722,-13.1452675
1425492777.738,-12.750679
1425492777.753,-12.280642
1425492777.769,-11.796128
1425492777.784,-11.374396
1425492777.8,-11.042168
1425492777.816,-10.729933
1425492777.831,-10.235812
1425492777.847,-9.288172
1425492777.863,-7.725748
1425492777.878,-5.64483
1425492777.894,-3.4327033
1425492777.909,-1.5726061
1425492777.925,-0.42312384
1425492777.941,-0.032419443
1425492777.956,-0.11669159
1425492777.972,-0.25565004
1425492777.988,-0.11101198
1425492778.003,0.5059509
1425492778.019,1.6123409
1425492778.034,3.1793995
1425492778.05,5.220208
1425492778.066,7.7823677
1425492778.081,10.853956
1425492778.097,14.305993
1425492778.113,17.882576
1425492778.128,21.285524
1425492778.144,24.254902
1425492778.159,26.67346
1425492778.175,28.577864
1425492778.191,30.119555
1425492778.206,31.529709
1425492778.222,33.005745
1425492778.238,34.607372
1425492778.253,36.21238
1425492778.269,37.5038
1425492778.284,38.11523
1425492778.3,37.74722
1425492778.316,36.339348
1425492778.331,34.04215
1425492778.347,31.156101
1425492778.363,27.971657
1425492778.378,24.703121
1425492778.394,21.424835
1425492778.41,18.13556
1425492778.425,14.73682
1425492778.441,11.080616
1425492778.456,6.9195786
1425492778.472,1.9882622
1425492778.488,-3.8496437
1425492778.503,-10.488674
1425492778.519,-17.553158
1425492778.534,-24.470901
1425492778.55,-30.700172
1425492778.566,-35.877296
1425492778.581,-39.938583
1425492778.597,-43.05925
1425492778.613,-45.519302
1425492778.628,-47.541428
1425492778.644,-49.279785
1425492778.66,-50.786636
1425492778.675,-52.081062
1425492778.691,-53.15486
1425492778.706,-53.996323
1425492778.722,-54.558647
1425492778.738,-54.75358
1425492778.753,-54.43126
1425492778.769,-53.440598
1425492778.785,-51.64769
1425492778.8,-49.008453
1425492778.816,-45.5709
1425492778.831,-41.470924
1425492778.847,-36.884163
1425492778.863,-31.984337
1425492778.878,-26.900024
1425492778.894,-21.73185
1425492778.91,-16.56527
1425492778.925,-11.540955
1425492778.941,-6.799736
1425492778.956,-2.4462738
1425492778.972,1.4969864
1425492778.988,5.153366
1425492779.003,8.818649
1425492779.019,12.77047
1425492779.035,17.24604
1425492779.05,22.247276
1425492779.066,27.506538
1425492779.081,32.52337
1425492779.097,36.669327
1425492779.113,39.340332
1425492779.128,40.161995
1425492779.144,38.998016
1425492779.16,35.984085
1425492779.175,31.460114
1425492779.191,25.949844
1425492779.206,20.068413
1425492779.222,14.495224
1425492779.238,9.818169
1425492779.253,6.337364
1425492779.269,4.0161743
1425492779.285,2.4434586
1425492779.3,1.021164
1425492779.316,-0.71043396
1425492779.331,-2.9254303
1425492779.347,-5.3952866
1425492779.363,-7.746231
1425492779.378,-9.608429
1425492779.394,-10.866791
1425492779.41,-11.637932
1425492779.425,-12.147675
1425492779.441,-12.591522
1425492779.456,-13.054855
1425492779.472,-13.551231
1425492779.488,-14.085022
1425492779.503,-14.660454
1425492779.519,-15.282738
1425492779.535,-15.897385
1425492779.55,-16.38652
1425492779.566,-16.645195
1425492779.581,-16.679863
1425492779.597,-16.595276
1425492779.613,-16.603195
1425492779.628,-16.850258
1425492779.644,-17.367645
1425492779.66,-18.02095
1425492779.675,-18.593254
1425492779.691,-18.833992
1425492779.706,-18.54615
1425492779.722,-17.596527
1425492779.738,-15.934425
1425492779.753,-13.580479
1425492779.769,-10.660099
1425492779.785,-7.370762
1425492779.8,-3.965042
1425492779.816,-0.6796799
1425492779.831,2.343895
1425492779.847,5.147049
1425492779.863,7.897705
1425492779.878,10.831554
1425492779.894,14.057869
1425492779.91,17.460777
1425492779.925,20.620796
1425492779.941,23.005524
1425492779.956,24.136906
1425492779.972,23.838749
1425492779.988,22.273155
1425492780.003,19.882706
1425492780.019,17.172054
1425492780.035,14.553783
1425492780.05,12.257107
1425492780.066,10.39164
1425492780.081,8.961754
1425492780.097,7.917671
1425492780.113,7.143097
1425492780.128,6.4362793
1425492780.144,5.599304
1425492780.16,4.5343857
1425492780.175,3.3533363
1425492780.191,2.3458061
1425492780.206,1.8754692
1425492780.222,2.186512
1425492780.238,3.2661667
1425492780.253,4.88393
1425492780.269,6.6450233
1425492780.285,8.180428
1425492780.3,9.253326
1425492780.316,9.796967
1425492780.331,9.881973
1425492780.347,9.645622
1425492780.363,9.283024
1425492780.378,8.929039
1425492780.394,8.666912
1425492780.41,8.492943
1425492780.425,8.314808
1425492780.441,8.059891
1425492780.456,7.689209
1425492780.472,7.248146
1425492780.488,6.768837
1425492780.503,6.313801
1425492780.519,5.824875
1425492780.535,5.2197304
1425492780.55,4.3831367
1425492780.566,3.2498398
1425492780.581,1.8492775
1425492780.597,0.32537842
1425492780.613,-1.0672951
1425492780.628,-1.9730339
1425492780.644,-2.0614014
1425492780.66,-1.1650581
1425492780.675,0.60795975
1425492780.691,2.8108673
1425492780.706,4.759285
1425492780.722,5.710209
1425492780.738,5.118305
1425492780.753,2.8213997
1425492780.769,-0.9592514
1425492780.785,-5.6514244
1425492780.8,-10.609779
1425492780.816,-15.195793
1425492780.831,-19.008522
1425492780.847,-21.877487
1425492780.863,-23.862011
1425492780.878,-25.183456
1425492780.894,-26.13168
1425492780.91,-26.93747
1425492780.925,-27.708553
1425492780.941,-28.420704
1425492780.956,-28.969326
1425492780.972,-29.252846
1425492780.988,-29.263845
1425492781.003,-28.97879
1425492781.019,-28.398712
1425492781.035,-27.417534
1425492781.05,-25.949884
1425492781.066,-23.971565
1425492781.081,-21.660519
1425492781.097,-19.334911
1425492781.113,-17.35801
1425492781.128,-15.944675
1425492781.144,-15.086529
1425492781.16,-14.537088
1425492781.175,-13.969233
1425492781.191,-13.109413
1425492781.206,-11.8609295
1425492781.222,-10.302916
1425492781.238,-8.619106
1425492781.253,-6.9780564
1425492781.269,-5.4787364
1425492781.285,-4.0967016
1425492781.3,-2.788395
1425492781.316,-1.4870329
1425492781.332,-0.18909287
1425492781.347,1.1020498
1425492781.363,2.3679504
1425492781.378,3.660674
1425492781.394,5.0328608
1425492781.41,6.536764
1425492781.425,8.116917
1425492781.441,9.690126
1425492781.457,11.141922
1425492781.472,12.506672
1425492781.488,13.964571
1425492781.503,15.85943
1425492781.519,18.449268
1425492781.535,21.765295
1425492781.55,25.456913
1425492781.566,28.921633
1425492781.582,31.450163
1425492781.597,32.520622
1425492781.613,31.930069
1425492781.628,29.871899
1425492781.644,26.76257
1425492781.66,23.132664
1425492781.675,19.441738
1425492781.691,15.998119
1425492781.707,12.955158
1425492781.722,10.304981
1425492781.738,7.9401894
1425492781.753,5.7051125
1425492781.769,3.389679
1425492781.785,0.9012985
1425492781.8,-1.751545
1425492781.816,-4.35421
1425492781.832,-6.5928955
1425492781.847,-8.181717
1425492781.863,-9.043545
1425492781.878,-9.386768
1425492781.894,-9.599937
1425492781.91,-10.072002
1425492781.925,-10.965813
1425492781.941,-12.134399
1425492781.957,-13.225281
1425492781.972,-13.92569
1425492781.988,-14.166771
1425492782.003,-14.089691
1425492782.019,-13.975784
1425492782.035,-13.98954
1425492782.05,-14.119026
1425492782.066,-14.156082
1425492782.082,-13.9120865
1425492782.097,-13.291412
1425492782.113,-12.360786
1425492782.128,-11.179832
1425492782.144,-9.78553
1425492782.16,-8.152367
1425492782.175,-6.2663116
1425492782.191,-4.215904
1425492782.207,-2.1944885
1425492782.222,-0.4231491
1425492782.238,0.96266174
1425492782.253,1.9837799
1425492782.269,2.7751617
1425492782.285,3.5067978
1425492782.3,4.2924194
1425492782.316,5.1926193
1425492782.332,6.2117233
1425492782.347,7.3863144
1425492782.363,8.752686
1425492782.378,10.3536
1425492782.394,12.146736
1425492782.41,14.037605
1425492782.425,15.903496
1425492782.441,17.659882
1425492782.457,19.305252
1425492782.472,20.876945
1425492782.488,22.344604
1425492782.503,23.597992
1425492782.519,24.406677
1425492782.535,24.498817
1425492782.55,23.647827
1425492782.566,21.799118
1425492782.582,19.089813
1425492782.597,15.847954
1425492782.613,12.491112
1425492782.628,9.432037
1425492782.644,6.978859
1425492782.66,5.265709
1425492782.675,4.220154
1425492782.691,3.604065
1425492782.707,3.0705566
1425492782.722,2.294365
1425492782.738,1.0328674
1425492782.753,-0.76646423
1425492782.769,-3.0061188
1425492782.785,-5.423111
1425492782.8,-7.698883
1425492782.816,-9.553085
1425492782.832,-10.833008
1425492782.847,-11.577362
1425492782.863,-11.964981
1425492782.878,-12.215179
1425492782.894,-12.5117035
1425492782.91,-12.91008
1425492782.925,-13.324005
1425492782.941,-13.621887
1425492782.957,-13.673584
1425492782.972,-13.3888855
1425492782.988,-12.764618
1425492783.003,-11.826614
1425492783.019,-10.649521
1425492783.035,-9.300858
1425492783.05,-7.9284363
1425492783.066,-6.6877136
1425492783.082,-5.734619
1425492783.097,-5.1209717
1425492783.113,-4.7443237
1425492783.128,-4.363632
1425492783.144,-3.6978302
1425492783.16,-2.536972
1425492783.175,-0.89889526
1425492783.191,0.96958923
1425492783.207,2.683792
1425492783.222,3.913086
1425492783.238,4.5229034
1425492783.253,4.693878
1425492783.269,4.79895
1425492783.285,5.2219086
1425492783.3,6.19104
1425492783.316,7.7087708
1425492783.332,9.646683
1425492783.347,11.880005
1425492783.363,14.335495
1425492783.378,16.937927
1425492783.394,19.490524
1425492783.41,21.598495
1425492783.425,22.799393
1425492783.441,22.745575
1425492783.457,21.417435
1425492783.472,19.16864
1425492783.488,16.567505
1425492783.503,14.136795
1425492783.519,12.143784
1425492783.535,10.517151
1425492783.55,8.996033
1425492783.566,7.263611
1425492783.582,5.1439667
1425492783.597,2.6670532
1425492783.613,0.034561157
1425492783.628,-2.4411469
1425492783.644,-4.4787445
1425492783.66,-5.944092
1425492783.675,-6.909439
1425492783.691,-7.602844
1425492783.707,-8.300537
1425492783.722,-9.14064
1425492783.738,-10.041931
1425492783.753,-10.740524
1425492783.769,-10.942566
1425492783.785,-10.517822
1425492783.8,-9.584732
1425492783.816,-8.432327
1425492783.832,-7.3686676
1425492783.847,-6.5625763
1425492783.863,-6.0076294
1425492783.878,-5.5614777
1425492783.894,-5.0935974
1425492783.91,-4.5079803
1425492783.925,-3.8429718
1425492783.941,-3.1651306
1425492783.957,-2.5569153
1425492783.972,-2.0552979
1425492783.988,-1.6318359
1425492784.004,-1.1779327
1425492784.019,-0.54351807
1425492784.035,0.3899231
1425492784.05,1.6587524
1425492784.066,3.198471
1425492784.082,4.868103
1425492784.097,6.5053253
1425492784.113,7.977295
1425492784.129,9.221191
1425492784.144,10.238541
1425492784.16,11.102554
1425492784.175,11.945633
1425492784.191,12.959961
1425492784.207,14.307861
1425492784.222,16.041
1425492784.238,18.007935
1425492784.254,19.80928
1425492784.269,20.926712
1425492784.285,20.93155
1425492784.3,19.666351
1425492784.316,17.327438
1425492784.332,14.392639
1425492784.347,11.399704
1425492784.363,8.730347
1425492784.379,6.5798035
1425492784.394,4.9002075
1425492784.41,3.5953217
1425492784.425,2.547638
1425492784.441,1.6998291
1425492784.457,0.9963074
1425492784.472,0.35757446
1425492784.488,-0.33494568
1425492784.504,-1.2106323
1425492784.519,-2.355835
1425492784.535,-3.7202606
1425492784.55,-5.143173
1425492784.566,-6.328537
1425492784.582,-6.994461
1425492784.597,-6.973465
1425492784.613,-6.300232
1425492784.629,-5.177582
1425492784.644,-3.9445038
1425492784.66,-2.9028778
1425492784.675,-2.2410278
1425492784.691,-1.98909
1425492784.707,-2.0675812
1425492784.722,-2.3225708
1425492784.738,-2.558487
1425492784.754,-2.5640564
1425492784.769,-2.1363525
1425492784.785,-1.139389
1425492784.8,0.40419006
1425492784.816,2.3300629
1425492784.832,4.382187
1425492784.847,6.3099976
1425492784.863,7.9795227
1425492784.879,9.367996
1425492784.894,10.501877
1425492784.91,11.441864
1425492784.925,12.255875
1425492784.941,13.075943
1425492784.957,14.045044
1425492784.972,15.307571
1425492784.988,16.810394
1425492785.004,18.328705
1425492785.019,19.494934
1425492785.035,20.039597
1425492785.05,19.922852
1425492785.066,19.405853
1425492785.082,18.853546
1425492785.097,18.497742
1425492785.113,18.236084
1425492785.129,17.73146
1425492785.144,16.586136
1425492785.16,14.659653
1425492785.175,12.171661
1425492785.191,9.696442
1425492785.207,7.8739166
1425492785.222,7.1822968
1425492785.238,7.753998
1425492785.254,9.349136
1425492785.269,11.478195
1425492785.285,13.655838
1425492785.3,15.507431
1425492785.316,16.860046
1425492785.332,17.641739
1425492785.347,17.812225
1425492785.363,17.292053
1425492785.379,16.060898
1425492785.394,14.219086
1425492785.41,12.056519
1425492785.425,9.949348
1425492785.441,8.13826
1425492785.457,6.5041275
1425492785.472,4.532875
1425492785.488,1.557663
1425492785.504,-2.8410645
1425492785.519,-8.570183
1425492785.535,-14.897598
1425492785.55,-20.820343
1425492785.566,-25.41124
1425492785.582,-28.210823
1425492785.597,-29.245842
1425492785.613,-28.921852
1425492785.629,-27.75843
1425492785.644,-26.153702
1425492785.66,-24.355782
1425492785.675,-22.486496
1425492785.691,-20.56614
1425492785.707,-18.617958
1425492785.722,-16.594994
1425492785.738,-14.457268
1425492785.754,-12.147316
1425492785.769,-9.695259
1425492785.785,-7.2192535
1425492785.8,-4.9125977
1425492785.816,-2.950325
1425492785.832,-1.4280701
1425492785.847,-0.32993317
1425492785.863,0.42432404
1425492785.879,0.94314194
1425492785.894,1.2857857
1425492785.91,1.4908142
1425492785.925,1.5009689
1425492785.941,1.2789879
1425492785.957,0.7654877
1425492785.972,-0.09688187
1425492785.988,-1.3953209
1425492786.004,-3.184681
1425492786.019,-5.5022087
1425492786.035,-8.252396
1425492786.05,-11.227154
1425492786.066,-14.066898
1425492786.082,-16.417538
1425492786.097,-18.033878
1425492786.113,-18.861393
1425492786.129,-19.06546
1425492786.144,-18.924839
1425492786.16,-18.69664
1425492786.175,-18.531338
1425492786.191,-18.414524
1425492786.207,-18.272697
1425492786.222,-18.079647
1425492786.238,-17.87601
1425492786.254,-17.746609
1425492786.269,-17.769066
1425492786.285,-17.889755
1425492786.3,-17.968822
1425492786.316,-17.833485
1425492786.332,-17.309967
1425492786.347,-16.302673
1425492786.363,-14.793156
1425492786.379,-12.796776
1425492786.394,-10.377487
1425492786.41,-7.5938187
1425492786.425,-4.524235
1425492786.441,-1.2193794
1425492786.457,2.232891
1425492786.472,5.7855415
1425492786.488,9.392193
1425492786.504,13.03466
1425492786.519,16.683865
1425492786.535,20.291601
1425492786.55,23.730474
1425492786.566,26.77485
1425492786.582,29.130465
1425492786.597,30.473154
1425492786.613,30.576359
1425492786.629,29.405767
1425492786.644,27.123903
1425492786.66,24.078606
1425492786.676,20.650423
1425492786.691,17.227684
1425492786.707,14.084169
1425492786.722,11.398779
1425492786.738,9.252821
1425492786.754,7.628929
1425492786.769,6.3806705
1425492786.785,5.3083515
1425492786.8,4.2251244
1425492786.816,3.043808
1425492786.832,1.8202839
1425492786.847,0.71347046
1425492786.863,-0.13743591
1425492786.879,-0.6877384
1425492786.894,-1.0295887
1425492786.91,-1.3188744
1425492786.926,-1.7089462
1425492786.941,-2.2942247
1425492786.957,-3.1297703
1425492786.972,-4.241742
1425492786.988,-5.6661854
1425492787.004,-7.309598
1425492787.019,-9.005793
1425492787.035,-10.461822
1425492787.051,-11.415209
1425492787.066,-11.731413
1425492787.082,-11.511919
1425492787.097,-11.0542965
1425492787.113,-10.729595
1425492787.129,-10.773087
1425492787.144,-11.219898
1425492787.16,-11.83754
1425492787.176,-12.265958
1425492787.191,-12.121103
1425492787.207,-11.168273
1425492787.222,-9.42191
1425492787.238,-7.1126747
1425492787.254,-4.647126
1425492787.269,-2.4313326
1425492787.285,-0.7383156
1425492787.301,0.3956995
1425492787.316,1.1892862
1425492787.332,2.018386
1425492787.347,3.291871
1425492787.363,5.219322
1425492787.379,7.809391
1425492787.394,10.822756
1425492787.41,13.902275
1425492787.426,16.659964
1425492787.441,18.755835
1425492787.457,19.951283
1425492787.472,20.099663
1425492787.488,19.11397
1425492787.504,17.025763
1425492787.519,14.000631
1425492787.535,10.376369
1425492787.551,6.629339
1425492787.566,3.2504063
1425492787.582,0.5789604
1425492787.597,-1.337904
1425492787.613,-2.771387
1425492787.629,-4.1102943
1425492787.644,-5.664587
1425492787.66,-7.505993
1425492787.676,-9.46804
1425492787.691,-11.297081
1425492787.707,-12.826958
1425492787.722,-14.027367
1425492787.738,-14.990738
1425492787.754,-15.724903
1425492787.769,-16.19318
1425492787.785,-16.27369
1425492787.801,-15.954681
1425492787.816,-15.376102
1425492787.832,-14.825901
1425492787.847,-14.556896
1425492787.863,-14.68531
1425492787.879,-15.087833
1425492787.894,-15.541698
1425492787.91,-15.815289
1425492787.926,-15.792023
1425492787.941,-15.468098
1425492787.957,-14.884113
1425492787.972,-14.068748
1425492787.988,-13.027962
1425492788.004,-11.749546
1425492788.019,-10.215328
1425492788.035,-8.406555
1425492788.051,-6.302639
1425492788.066,-3.921856
1425492788.082,-1.36969
1425492788.097,1.1722946
1425492788.113,3.4868317
1425492788.129,5.4678497
1425492788.144,7.159401
1425492788.16,8.733936
1425492788.176,10.303833
1425492788.191,11.884705
1425492788.207,13.311806
1425492788.222,14.40892
1425492788.238,15.116657
1425492788.254,15.589943
1425492788.269,16.087307
1425492788.285,16.842827
1425492788.301,17.858662
1425492788.316,18.934933
1425492788.332,19.694962
1425492788.347,19.808731
1425492788.363,19.056282
1425492788.379,17.429817
1425492788.394,15.044006
1425492788.41,12.109299
1425492788.426,8.859184
1425492788.441,5.4708176
1425492788.457,2.0707626
1425492788.472,-1.2517357
1425492788.488,-4.441063
1425492788.504,-7.4158707
1425492788.519,-10.091984
1425492788.535,-12.433876
1425492788.551,-14.480114
1425492788.566,-16.33723
1425492788.582,-18.13041
1425492788.597,-19.880127
1425492788.613,-21.491985
1425492788.629,-22.77974
1425492788.644,-23.628601
1425492788.66,-24.006042
1425492788.676,-24.02985
1425492788.691,-23.849533
1425492788.707,-23.540691
1425492788.722,-23.096867
1425492788.738,-22.47166
1425492788.754,-21.643532
1425492788.769,-20.671589
1425492788.785,-19.643394
1425492788.801,-18.634624
1425492788.816,-17.662422
1425492788.832,-16.698185
1425492788.847,-15.682388
1425492788.863,-14.5800705
1425492788.879,-13.298954
1425492788.894,-11.735344
1425492788.91,-9.805626
1425492788.926,-7.489094
1425492788.941,-4.887764
1425492788.957,-2.2310753
1425492788.972,0.20876694
1425492788.988,2.2140694
1425492789.004,3.734829
1425492789.019,4.9121475
1425492789.035,6.0181046
1425492789.051,7.3599396
1425492789.066,9.193199
1425492789.082,11.620899
1425492789.097,14.538757
1425492789.113,17.619122
1425492789.129,20.371628
1425492789.144,22.264534
1425492789.16,22.889908
1425492789.176,22.078
1425492789.191,19.971645
1425492789.207,16.903427
1425492789.222,13.313915
1425492789.238,9.623539
1425492789.254,6.1775665
1425492789.269,3.2084656
1425492789.285,0.81176376
1425492789.301,-1.102932
1425492789.316,-2.7193985
1425492789.332,-4.3142815
1425492789.348,-6.110586
1425492789.363,-8.176443
1425492789.379,-10.403477
1425492789.394,-12.537947
1425492789.41,-14.295654
1425492789.426,-15.5141735
1425492789.441,-16.176517
1425492789.457,-16.427418
1425492789.472,-16.473951
1425492789.488,-16.512783
1425492789.504,-16.605494
1425492789.519,-16.703722
1425492789.535,-16.654343
1425492789.551,-16.304964
1425492789.566,-15.57793
1425492789.582,-14.495655
1425492789.598,-13.170816
1425492789.613,-11.729346
1425492789.629,-10.227552
1425492789.644,-8.620522
1425492789.66,-6.821165
1425492789.676,-4.790188
1425492789.691,-2.5932636
1425492789.707,-0.43456268
1425492789.723,1.444696
1425492789.738,2.8662248
1425492789.754,3.7917852
1425492789.769,4.3044577
1425492789.785,4.573125
1425492789.801,4.7436385
1425492789.816,4.9834228
1425492789.832,5.4275904
1425492789.848,6.222159
1425492789.863,7.4488955
1425492789.879,9.113185
1425492789.894,11.071762
1425492789.91,13.13792
1425492789.926,15.123647
1425492789.941,16.972534
1425492789.957,18.789633
1425492789.973,20.742779
1425492789.988,22.891792
1425492790.004,25.130024
1425492790.019,27.047274
1425492790.035,28.14837
1425492790.051,28.02875
1425492790.066,26.600288
1425492790.082,24.112812
1425492790.098,21.098436
1425492790.113,18.068851
1425492790.129,15.293961
1425492790.144,12.750195
1425492790.16,10.20278
1425492790.176,7.4170837
1425492790.191,4.4066925
1425492790.207,1.3806934
1425492790.223,-1.3610878
1425492790.238,-3.6813488
1425492790.254,-5.676113
1425492790.269,-7.595539
1425492790.285,-9.598965
1425492790.301,-11.632641
1425492790.316,-13.4121475
1425492790.332,-14.594162
1425492790.348,-15.002794
1425492790.363,-14.768845
1425492790.379,-14.215357
1425492790.394,-13.735794
1425492790.41,-13.559008
1425492790.426,-13.6951275
1425492790.441,-13.986916
1425492790.457,-14.240175
1425492790.473,-14.3081
1425492790.488,-14.184576
1425492790.504,-13.929508
1425492790.519,-13.653009
1425492790.535,-13.391254
1425492790.551,-13.103142
1425492790.566,-12.646713
1425492790.582,-11.894749
1425492790.598,-10.8008
1425492790.613,-9.474407
1425492790.629,-8.164833
1425492790.644,-7.080364
1425492790.66,-6.277878
1425492790.676,-5.6003
1425492790.691,-4.735752
1425492790.707,-3.4134407
1425492790.723,-1.521492
1425492790.738,0.80476
1425492790.754,3.3177032
1425492790.769,5.749489
1425492790.785,7.9600906
1425492790.801,9.943462
1425492790.816,11.7609825
1425492790.832,13.44455
1425492790.848,15.044632
1425492790.863,16.617146
1425492790.879,18.268135
1425492790.894,20.126331
1425492790.91,22.25296
1425492790.926,24.523308
1425492790.941,26.595268
1425492790.957,27.974964
1425492790.973,28.17006
1425492790.988,26.85749
1425492791.004,24.059113
1425492791.019,20.124817
1425492791.035,15.663223
1425492791.051,11.305283
1425492791.066,7.5154877
1425492791.082,4.464756
1425492791.098,2.052349
1425492791.113,0.075107574
1425492791.129,-1.6172142
1425492791.144,-3.08527
1425492791.16,-4.325714
1425492791.176,-5.360138
1425492791.191,-6.2771873
1425492791.207,-7.230812
1425492791.223,-8.280029
1425492791.238,-9.380566
1425492791.254,-10.343021
1425492791.269,-10.97047
1425492791.285,-11.171925
1425492791.301,-11.025265
1425492791.316,-10.711105
1425492791.332,-10.443161
1425492791.348,-10.3422165
1425492791.363,-10.414528
1425492791.379,-10.577602
1425492791.394,-10.769863
1425492791.41,-10.935871
1425492791.426,-11.051296
1425492791.441,-11.083946
1425492791.457,-11.018906
1425492791.473,-10.7839775
1425492791.488,-10.344826
1425492791.504,-9.644245
1425492791.519,-8.689247
1425492791.535,-7.507309
1425492791.551,-6.198967
1425492791.566,-4.8511276
1425492791.582,-3.5019531
1425492791.598,-2.1145859
1425492791.613,-0.6137161
1425492791.629,1.064064
1425492791.644,2.873085
1425492791.66,4.6490707
1425492791.676,6.230362
1425492791.691,7.551262
1425492791.707,8.687698
1425492791.723,9.831833
1425492791.738,11.174576
1425492791.754,12.78289
1425492791.769,14.577293
1425492791.785,16.442787
1425492791.801,18.24768
1425492791.816,19.951042
1425492791.832,21.490845
1425492791.848,22.71479
1425492791.863,23.3582
1425492791.879,23.135605
1425492791.894,21.8964
1425492791.91,19.75917
1425492791.926,17.048752
1425492791.941,14.235603
1425492791.957,11.717606
1425492791.973,9.705681
1425492791.988,8.14547
1425492792.004,6.7809143
1425492792.019,5.249794
1425492792.035,3.232132
1425492792.051,0.605072
1425492792.066,-2.4524612
1425492792.082,-5.546028
1425492792.098,-8.195091
1425492792.113,-10.061073
1425492792.129,-11.066032
1425492792.144,-11.418007
1425492792.16,-11.445618
1425492792.176,-11.448242
1425492792.191,-11.5434265
1425492792.207,-11.723389
1425492792.223,-11.931541
1425492792.238,-12.136436
1425492792.254,-12.334656
1425492792.27,-12.53878
1425492792.285,-12.678062
1425492792.301,-12.648361
1425492792.316,-12.32766
1425492792.332,-11.654823
1425492792.348,-10.658463
1425492792.363,-9.451828
1425492792.379,-8.222061
1425492792.395,-7.155487
1425492792.41,-6.356697
1425492792.426,-5.86425
1425492792.441,-5.5622864
1425492792.457,-5.254631
1425492792.473,-4.719742
1425492792.488,-3.846138
1425492792.504,-2.6572342
1425492792.52,-1.3302917
1425492792.535,-0.0872879
1425492792.551,0.90338135
1425492792.566,1.6179199
1425492792.582,2.1881104
1425492792.598,2.8420181
1425492792.613,3.8285675
1425492792.629,5.336258
1425492792.645,7.4200134
1425492792.66,9.965767
1425492792.676,12.726013
1425492792.691,15.433723
1425492792.707,17.849243
1425492792.723,19.897392
1425492792.738,21.592659
1425492792.754,22.957863
1425492792.77,23.863213
1425492792.785,24.018723
1425492792.801,23.116478
1425492792.816,21.045403
1425492792.832,18.072777
1425492792.848,14.768997
1425492792.863,11.77787
1425492792.879,9.538635
1425492792.895,8.083733
1425492792.91,7.1107864
1425492792.926,6.176552
1425492792.941,4.9537125
1425492792.957,3.3328476
1425492792.973,1.4164047
1425492792.988,-0.6348648
1425492793.004,-2.6343536
1425492793.02,-4.4888153
1425492793.035,-6.1300354
1425492793.051,-7.5585785
1425492793.066,-8.762764
1425492793.082,-9.761719
1425492793.098,-10.565384
1425492793.113,-11.170181
1425492793.129,-11.586906
1425492793.145,-11.834091
1425492793.16,-11.954853
1425492793.176,-12.007351
1425492793.191,-11.991077
1425492793.207,-11.850544
1425492793.223,-11.488922
1425492793.238,-10.886826
1425492793.254,-10.105839
1425492793.27,-9.285942
1425492793.285,-8.576248
1425492793.301,-8.055561
1425492793.316,-7.735611
1425492793.332,-7.5751762
1425492793.348,-7.534374
1425492793.363,-7.529373
1425492793.379,-7.375046
1425492793.395,-6.840687
1425492793.41,-5.688736
1425492793.426,-3.8620338
1425492793.441,-1.511406
1425492793.457,0.98853683
1425492793.473,3.2544746
1425492793.488,5.028282
1425492793.504,6.3161354
1425492793.52,7.3023186
1425492793.535,8.233948
1425492793.551,9.263992
1425492793.566,10.465599
1425492793.582,11.822308
1425492793.598,13.332851
1425492793.613,15.024342
1425492793.629,16.952702
1425492793.645,19.094349
1425492793.66,21.34631
1425492793.676,23.497906
1425492793.691,25.270065
1425492793.707,26.346996
1425492793.723,26.443035
1425492793.738,25.350128
1425492793.754,23.025497
1425492793.77,19.648666
1425492793.785,15.616531
1425492793.801,11.465191
1425492793.816,7.7664604
1425492793.832,4.9118195
1425492793.848,3.022541
1425492793.863,1.815361
1425492793.879,0.8064308
1425492793.895,-0.54192734
1425492793.91,-2.5415573
1425492793.926,-5.226574
1425492793.941,-8.264713
1425492793.957,-11.192459
1425492793.973,-13.598564
1425492793.988,-15.286747
1425492794.004,-16.258682
1425492794.02,-16.6592
1425492794.035,-16.679792
1425492794.051,-16.467966
1425492794.066,-16.163715
1425492794.082,-15.880302
1425492794.098,-15.712065
1425492794.113,-15.667355
1425492794.129,-15.581648
1425492794.145,-15.246817
1425492794.16,-14.4365425
1425492794.176,-13.108959
1425492794.191,-11.377356
1425492794.207,-9.509651
1425492794.223,-7.789137
1425492794.238,-6.362219
1425492794.254,-5.1965275
1425492794.27,-4.1102123
1425492794.285,-2.87504
1425492794.301,-1.3321838
1425492794.316,0.53069115
1425492794.332,2.5895996
1425492794.348,4.6880484
1425492794.363,6.6775885
1425492794.379,8.526257
1425492794.395,10.2612505
1425492794.41,12.017761
1425492794.426,13.798012
1425492794.441,15.537699
1425492794.457,17.034456
1425492794.473,18.053524
1425492794.488,18.421547
1425492794.504,18.209698
1425492794.52,17.695345
1425492794.535,17.30697
1425492794.551,17.468773
1425492794.566,18.400202
1425492794.582,20.047924
1425492794.598,22.082684
1425492794.613,24.048195
1425492794.629,25.520123
1425492794.645,26.179161
1425492794.66,25.921202
1425492794.676,24.679024
1425492794.691,22.504509
1425492794.707,19.479221
1425492794.723,15.765343
1425492794.738,11.674036
1425492794.754,7.6379204
1425492794.77,4.079794
1425492794.785,1.2937202
1425492794.801,-0.73023224
1425492794.816,-2.2748432
1425492794.832,-3.7593575
1425492794.848,-5.5056343
1425492794.863,-7.597849
1425492794.879,-9.835945
1425492794.895,-11.9086
1425492794.91,-13.525135
1425492794.926,-14.656944
1425492794.942,-15.430717
1425492794.957,-16.1162
1425492794.973,-16.892338
1425492794.988,-17.791317
1425492795.004,-18.685661
1425492795.02,-19.46857
1425492795.035,-20.100323
1425492795.051,-20.669579
1425492795.067,-21.267563
1425492795.082,-21.908127
1425492795.098,-22.537022
1425492795.113,-23.027267
1425492795.129,-23.305035
1425492795.145,-23.400555
1425492795.16,-23.296791
1425492795.176,-22.971157
1425492795.192,-22.320683
1425492795.207,-21.227215
1425492795.223,-19.698296
1425492795.238,-17.94796
1425492795.254,-16.272095
1425492795.27,-14.9748
1425492795.285,-14.133522
1425492795.301,-13.61837
1425492795.317,-13.121681
1425492795.332,-12.344543
1425492795.348,-11.120956
1425492795.363,-9.455795
1425492795.379,-7.4057083
1425492795.395,-5.015854
1425492795.41,-2.2299042
1425492795.426,1.023674
1425492795.442,4.8355637
1425492795.457,9.1775055
1425492795.473,13.88282
1425492795.488,18.68795
1425492795.504,23.324371
1425492795.52,27.558105
1425492795.535,31.237175
1425492795.551,34.197716
1425492795.567,36.236122
1425492795.582,37.072403
1425492795.598,36.465088
1425492795.613,34.344032
1425492795.629,30.99002
1425492795.645,26.921242
1425492795.66,22.751358
1425492795.676,18.940521
1425492795.692,15.629517
1425492795.707,12.678299
1425492795.723,9.859383
1425492795.738,6.993065
1425492795.754,4.1293716
1425492795.77,1.4370804
1425492795.785,-0.8700638
1425492795.801,-2.670761
1425492795.817,-3.989273
1425492795.832,-4.969063
1425492795.848,-5.8171463
1425492795.863,-6.7668457
1425492795.879,-7.955467
1425492795.895,-9.423164
1425492795.91,-11.085327
1425492795.926,-12.81897
1425492795.942,-14.552185
1425492795.957,-16.27784
1425492795.973,-18.032745
1425492795.988,-19.796844
1425492796.004,-21.353104
1425492796.02,-22.365746
1425492796.035,-22.496727
1425492796.051,-21.617462
1425492796.067,-19.868698
1425492796.082,-17.651764
1425492796.098,-15.415794
1425492796.113,-13.453667
1425492796.129,-11.811089
1425492796.145,-10.345642
1425492796.16,-8.878456
1425492796.176,-7.348015
1425492796.192,-5.782791
1425492796.207,-4.260376
1425492796.223,-2.8326569
1425492796.238,-1.4437714
1425492796.254,0.013748169
1425492796.27,1.6437225
1425492796.285,3.4997406
1425492796.301,5.6128693
1425492796.317,8.01004
1425492796.332,10.737244
1425492796.348,13.8585205
1425492796.363,17.31929
1425492796.379,20.888794
1425492796.395,24.087708
1425492796.41,26.310562
1425492796.426,26.971909
1425492796.442,25.826508
1425492796.457,23.078796
1425492796.473,19.373154
1425492796.488,15.530411
1425492796.504,12.189819
1425492796.52,9.571472
1425492796.535,7.488098
1425492796.551,5.498108
1425492796.567,3.286148
1425492796.582,0.80599976
1425492796.598,-1.7476349
1425492796.613,-4.097534
1425492796.629,-6.0845947
1425492796.645,-7.7513733
1425492796.66,-9.241226
1425492796.676,-10.749908
1425492796.692,-12.342636
1425492796.707,-13.982208
1425492796.723,-15.602005
1425492796.738,-17.182251
1425492796.754,-18.736664
1425492796.77,-20.262024
1425492796.785,-21.686432
1425492796.801,-22.84375
1425492796.817,-23.527924
1425492796.832,-23.623428
1425492796.848,-23.176483
1425492796.863,-22.352234
1425492796.879,-21.372757
1425492796.895,-20.394196
1425492796.91,-19.457703
1425492796.926,-18.510132
1425492796.942,-17.41858
1425492796.957,-16.1165
1425492796.973,-14.587814
1425492796.988,-12.872116
1425492797.004,-10.952301
1425492797.02,-8.784714
1425492797.035,-6.284027
1425492797.051,-3.394394
1425492797.067,-0.16885376
1425492797.082,3.202423
1425492797.098,6.5106964
1425492797.113,9.6595
1425492797.129,12.771118
1425492797.145,16.121475
1425492797.16,19.97464
1425492797.176,24.381302
1425492797.192,29.07515
1425492797.207,33.50885
1425492797.223,37.089844
1425492797.238,39.32695
1425492797.254,39.959167
1425492797.27,38.919098
1425492797.285,36.268173
1425492797.301,32.108032
1425492797.317,26.683762
1425492797.332,20.370743
1425492797.348,13.73024
1425492797.363,7.393219
1425492797.379,1.8845215
1425492797.395,-2.5529175
1425492797.41,-5.9953156
1425492797.426,-8.765732
1425492797.442,-11.272293
1425492797.457,-13.81102
1425492797.473,-16.519547
1425492797.488,-19.376144
1425492797.504,-22.177322
1425492797.52,-24.687988
1425492797.535,-26.657822
1425492797.551,-27.941788
1425492797.567,-28.499985
1425492797.582,-28.467453
1425492797.598,-28.048721
1425492797.614,-27.462326
1425492797.629,-26.858582
1425492797.645,-26.284195
1425492797.66,-25.699753
1425492797.676,-25.073135
1425492797.692,-24.315094
1425492797.707,-23.38681
1425492797.723,-22.260437
1425492797.739,-20.96698
1425492797.754,-19.575455
1425492797.77,-18.185883
1425492797.785,-16.83229
1425492797.801,-15.437073
1425492797.817,-13.826126
1425492797.832,-11.821274
1425492797.848,-9.380676
1425492797.864,-6.621399
1425492797.879,-3.7835846
1425492797.895,-1.1053467
1425492797.91,1.2604675
1425492797.926,3.3041534
1425492797.942,5.071106
1425492797.957,6.554764
1425492797.973,7.6918945
1425492797.989,8.403488
1425492798.004,8.686996
1425492798.02,8.665649
1425492798.035,8.590881
1425492798.051,8.778183
1425492798.067,9.5486145
1425492798.082,11.172882
1425492798.098,13.813034
1425492798.114,17.46643
1425492798.129,21.888443
1425492798.145,26.52452
1425492798.16,30.639969
1425492798.176,33.46405
1425492798.192,34.427216
1425492798.207,33.281937
1425492798.223,30.208923
1425492798.239,25.680786
1425492798.254,20.43457
1425492798.27,15.267654
1425492798.285,10.920502
1425492798.301,7.874054
1425492798.317,6.2879944
1425492798.332,5.8901215
1425492798.348,6.0692444
1425492798.364,6.0760956
1425492798.379,5.325821
1425492798.395,3.6006775
1425492798.41,1.1118927
1425492798.426,-1.6363068
1425492798.442,-4.015274
1425492798.457,-5.5794067
1425492798.473,-6.1326294
1425492798.489,-5.815262
1425492798.504,-4.9193573
1425492798.52,-3.9011688
1425492798.535,-3.237564
1425492798.551,-3.3656006
1425492798.567,-4.630142
1425492798.582,-7.1597595
1425492798.598,-10.70549
1425492798.614,-14.61528
1425492798.629,-17.913239
1425492798.645,-19.711304
1425492798.66,-19.616776
1425492798.676,-17.979782
1425492798.692,-15.787842
1425492798.707,-14.240906
1425492798.723,-14.1549225
1425492798.739,-15.602875
1425492798.754,-18.011353
1425492798.77,-20.479736
1425492798.785,-22.296509
1425492798.801,-23.20433
1425492798.817,-23.360687
1425492798.832,-23.06128
1425492798.848,-22.448654
1425492798.864,-21.437698
1425492798.879,-19.80864
1425492798.895,-17.444946
1425492798.91,-14.442993
1425492798.926,-11.061356
1425492798.942,-7.5599365
1425492798.957,-3.976059
1425492798.973,-0.101119995
1425492798.989,4.3790436
1425492799.004,9.737091
1425492799.02,15.890274
1425492799.035,22.363907
1425492799.051,28.32051
1425492799.067,32.834717
1425492799.082,35.14496
1425492799.098,34.92578
1425492799.114,32.34085
1425492799.129,27.966187
1425492799.145,22.599426
1425492799.16,17.036285
1425492799.176,11.942337
1425492799.192,7.724411
1425492799.207,4.5122223
1425492799.223,2.1307983
1425492799.239,0.21273804
1425492799.254,-1.7118835
1425492799.27,-3.9988708
1425492799.285,-6.7211456
1425492799.301,-9.671219
1425492799.317,-12.434326
1425492799.332,-14.628494
1425492799.348,-16.05774
1425492799.364,-16.822708
1425492799.379,-17.153473
1425492799.395,-17.305862
1425492799.41,-17.387497
1425492799.426,-17.41359
1425492799.442,-17.340607
1425492799.457,-17.174759
1425492799.473,-16.999084
1425492799.489,-16.91043
1425492799.504,-16.906006
1425492799.52,-16.870193
1425492799.535,-16.623886
1425492799.551,-15.998367
1425492799.567,-14.912033
1425492799.582,-13.426376
1425492799.598,-11.731949
1425492799.614,-10.033676
1425492799.629,-8.529205
1425492799.645,-7.3237915
1425492799.66,-6.413513
1425492799.676,-5.726059
1425492799.692,-5.0808105
1425492799.707,-4.293442
1425492799.723,-3.1909027
1425492799.739,-1.717453
1425492799.754,0.05256653
1425492799.77,1.8569794
1425492799.785,3.3886871
1425492799.801,4.384094
1425492799.817,4.8149414
1425492799.832,4.9350433
1425492799.848,5.2896576
1425492799.864,6.5346527
1425492799.879,9.163437
1425492799.895,13.2677765
1425492799.91,18.43718
1425492799.926,23.827957
1425492799.942,28.47409
1425492799.957,31.588852
1425492799.973,32.775665
1425492799.989,32.056824
1425492800.004,29.824951
1425492800.02,26.621857
1425492800.035,23.042694
1425492800.051,19.626907
1425492800.067,16.828522
1425492800.082,14.923584
1425492800.098,13.971924
1425492800.114,13.778885
1425492800.129,13.92308
1425492800.145,13.952301
1425492800.16,13.549698
1425492800.176,12.699661
1425492800.192,11.685974
1425492800.207,10.895737
1425492800.223,10.612503
1425492800.239,10.835342
1425492800.254,11.254608
1425492800.27,11.403229
1425492800.286,10.870911
1425492800.301,9.473892
1425492800.317,7.337265
1425492800.332,4.7691345
1425492800.348,2.0660095
1425492800.364,-0.64237976
1425492800.379,-3.3714447
1425492800.395,-6.1883698
1425492800.41,-9.083542
1425492800.426,-11.92482
1425492800.442,-14.512604
1425492800.457,-16.719788
1425492800.473,-18.53244
1425492800.489,-20.031815
1425492800.504,-21.191696
1425492800.52,-21.904083
1425492800.536,-21.940414
1425492800.551,-21.19313
1425492800.567,-19.7052
1425492800.582,-17.7995
1425492800.598,-15.888184
1425492800.614,-14.280762
1425492800.629,-13.087555
1425492800.645,-12.187683
1425492800.661,-11.331497
1425492800.676,-10.190506
1425492800.692,-8.385162
1425492800.707,-5.559021
1425492800.723,-1.5191498
1425492800.739,3.5697327
1425492800.754,9.033035
1425492800.77,13.777405
1425492800.786,16.659317
1425492800.801,16.928207
1425492800.817,14.57547
1425492800.832,10.350403
1425492800.848,5.4480896
1425492800.864,1.0020599
1425492800.879,-2.2366333
1425492800.895,-4.101776
1425492800.911,-4.8359375
1425492800.926,-4.9032288
1425492800.942,-4.757248
1425492800.957,-4.7644043
1425492800.973,-5.203018
1425492800.989,-6.2869873
1425492801.004,-8.136505
1425492801.02,-10.723526
1425492801.036,-13.821335
1425492801.051,-17.016861
1425492801.067,-19.736755
1425492801.082,-21.48471
1425492801.098,-21.997833
1425492801.114,-21.420517
1425492801.129,-20.240967
1425492801.145,-19.157623
1425492801.161,-18.742569
1425492801.176,-19.22676
1425492801.192,-20.36589
1425492801.207,-21.61824
1425492801.223,-22.33905
1425492801.239,-22.060455
1425492801.254,-20.542831
1425492801.27,-17.82602
1425492801.286,-14.132828
1425492801.301,-9.813446
1425492801.317,-5.2714386
1425492801.332,-0.97802734
1425492801.348,2.640564
1425492801.364,5.3202057
1425492801.379,7.052017
1425492801.395,8.059906
1425492801.411,8.764862
1425492801.426,9.569962
1425492801.442,10.807312
1425492801.457,12.636856
1425492801.473,15.06871
1425492801.489,18.016281
1425492801.504,21.364594
1425492801.52,24.98146
1425492801.536,28.783676
1425492801.551,32.670197
1425492801.567,36.48889
1425492801.582,39.958817
1425492801.598,42.722305
1425492801.614,44.38188
1425492801.629,44.672318
1425492801.645,43.531265
1425492801.661,41.12355
1425492801.676,37.780334
1425492801.692,33.854477
1425492801.707,29.626587
1425492801.723,25.285095
1425492801.739,20.895813
1425492801.754,16.473526
1425492801.77,11.996506
1425492801.786,7.453583
1425492801.801,2.890091
1425492801.817,-1.509079
1425492801.832,-5.4615173
1425492801.848,-8.700333
1425492801.864,-11.097565
1425492801.879,-12.76123
1425492801.895,-14.003021
1425492801.911,-15.155899
1425492801.926,-16.425812
1425492801.942,-17.784378
1425492801.957,-19.042633
1425492801.973,-20.056458
1425492801.989,-20.820404
1425492802.004,-21.479675
1425492802.02,-22.24353
1425492802.036,-23.17128
1425492802.051,-24.175735
1425492802.067,-24.967209
1425492802.082,-25.27246
1425492802.098,-24.906342
1425492802.114,-23.893188
1425492802.129,-22.409805
1425492802.145,-20.68985
1425492802.161,-18.961716
1425492802.176,-17.312897
1425492802.192,-15.709076
1425492802.207,-14.051163
1425492802.223,-12.261993
1425492802.239,-10.363632
1425492802.254,-8.460007
1425492802.27,-6.708359
1425492802.286,-5.232849
1425492802.301,-4.0762787
1425492802.317,-3.1498566
1425492802.332,-2.291809
1425492802.348,-1.2715454
1425492802.364,0.1381836
1425492802.379,2.1471252
1425492802.395,4.826874
1425492802.411,8.046524
1425492802.426,11.375305
1425492802.442,14.166931
1425492802.457,15.721237
1425492802.473,15.498886
1425492802.489,13.326874
1425492802.504,9.416107
1425492802.52,4.255966
1425492802.536,-1.5316772
1425492802.551,-7.367218
1425492802.567,-12.763351
1425492802.582,-17.394272
1425492802.598,-21.091965
1425492802.614,-23.960922
1425492802.629,-26.26242
1425492802.645,-28.319763
1425492802.661,-30.322876
1425492802.676,-32.20894
1425492802.692,-33.687393
1425492802.707,-34.391342
1425492802.723,-34.12973
1425492802.739,-32.92324
1425492802.754,-30.944931
1425492802.77,-28.346443
1425492802.786,-25.159111
1425492802.801,-21.32399
1425492802.817,-16.853668
1425492802.832,-11.999413
1425492802.848,-7.180893
1425492802.864,-2.8872223
1425492802.879,0.60713196
1425492802.895,3.322815
1425492802.911,5.5634155
1425492802.926,7.6943054
1425492802.942,9.996094
1425492802.957,12.502647
1425492802.973,15.031021
1425492802.989,17.287544
1425492803.004,18.990608
1425492803.02,20.001343
1425492803.036,20.316383
1425492803.051,20.11692
1425492803.067,19.653984
1425492803.082,19.249802
1425492803.098,19.176735
1425492803.114,19.64235
1425492803.129,20.783485
1425492803.145,22.618805
1425492803.161,25.000587
1425492803.176,27.594124
1425492803.192,29.962349
1425492803.208,31.675735
1425492803.223,32.569687
1425492803.239,32.844376
1425492803.254,32.995552
1425492803.27,33.577087
1425492803.286,34.872936
1425492803.301,36.790375
1425492803.317,38.848637
1425492803.333,40.450794
1425492803.348,41.111206
1425492803.364,40.61446
1425492803.379,38.97604
1425492803.395,36.328953
1425492803.411,32.82032
1425492803.426,28.57219
1425492803.442,23.71114
1425492803.458,18.43969
1425492803.473,13.032425
1425492803.489,7.721031
1425492803.504,2.724144
1425492803.52,-1.8749428
1425492803.536,-6.0662384
1425492803.551,-9.872978
1425492803.567,-13.341404
1425492803.583,-16.4888
1425492803.598,-19.345058
1425492803.614,-21.891537
1425492803.629,-24.114185
1425492803.645,-26.002407
1425492803.661,-27.580559
1425492803.676,-28.88375
1425492803.692,-29.879028
1425492803.708,-30.464005
1425492803.723,-30.462593
1425492803.739,-29.731644
1425492803.754,-28.269474
1425492803.77,-26.311092
1425492803.786,-24.244385
1425492803.801,-22.4766
1425492803.817,-21.252083
1425492803.833,-20.506092
1425492803.848,-19.945793
1425492803.864,-19.16552
1425492803.879,-17.869236
1425492803.895,-16.014954
1425492803.911,-13.851631
1425492803.926,-11.7445755
1425492803.942,-10.037994
1425492803.958,-8.837498
1425492803.973,-8.014217
1425492803.989,-7.2730675
1425492804.004,-6.338642
1425492804.02,-5.079361
1425492804.036,-3.5525742
1425492804.051,-1.8936119
1425492804.067,-0.19671631
1425492804.083,1.5516205
1425492804.098,3.4530487
1425492804.114,5.609993
1425492804.129,8.024479
1425492804.145,10.617474
1425492804.161,13.228241
1425492804.176,15.700142
1425492804.192,17.865143
1425492804.208,19.52301
1425492804.223,20.376114
1425492804.239,20.092964
1425492804.254,18.433334
1425492804.27,15.331753
1425492804.286,11.017681
1425492804.301,5.9401474
1425492804.317,0.67115784
1425492804.333,-4.2107925
1425492804.348,-8.254925
1425492804.364,-11.209509
1425492804.379,-13.058277
1425492804.395,-13.987423
1425492804.411,-14.31599
1425492804.426,-14.356762
1425492804.442,-14.274782
1425492804.458,-14.043676
1425492804.473,-13.49861
1425492804.489,-12.486349
1425492804.504,-10.956171
1425492804.52,-9.013922
1425492804.536,-6.8715897
1425492804.551,-4.6904945
1425492804.567,-2.5847263
1425492804.583,-0.5612154
1425492804.598,1.3507109
1425492804.614,3.0765734
1425492804.629,4.492152
1425492804.645,5.501089
1425492804.661,6.1052837
1425492804.676,6.4260054
1425492804.692,6.6438637
1425492804.708,6.8843365
1425492804.723,7.1606083
1425492804.739,7.385394
1425492804.754,7.4128323
1425492804.77,7.0979576
1425492804.786,6.375053
1425492804.801,5.2601886
1425492804.817,3.888949
1425492804.833,2.497706
1425492804.848,1.3354316
1425492804.864,0.6302185
1425492804.879,0.4761076
1425492804.895,0.8480363
1425492804.911,1.6630716
1425492804.926,2.8914013
1425492804.942,4.5617657
1425492804.958,6.785857
1425492804.973,9.631848
1425492804.989,13.044146
1425492805.004,16.840809
1425492805.02,20.779343
1425492805.036,24.622967
1425492805.051,28.21619
1425492805.067,31.40818
1425492805.083,33.992485
1425492805.098,35.64061
1425492805.114,35.987198
1425492805.129,34.68576
1425492805.145,31.652512
1425492805.161,27.054081
1425492805.176,21.372334
1425492805.192,15.248169
1425492805.208,9.396406
1425492805.223,4.3408937
1425492805.239,0.38873863
1425492805.254,-2.4375362
1425492805.27,-4.346487
1425492805.286,-5.6483803
1425492805.301,-6.651533
1425492805.317,-7.6156826
1425492805.333,-8.689663
1425492805.348,-9.973639
1425492805.364,-11.5011215
1425492805.379,-13.239336
1425492805.395,-15.0825
1425492805.411,-16.946075
1425492805.426,-18.724604
1425492805.442,-20.388636
1425492805.458,-21.981014
1425492805.473,-23.567251
1425492805.489,-25.161077
1425492805.504,-26.718733
1425492805.52,-28.120613
1425492805.536,-29.230751
1425492805.551,-30.000654
1425492805.567,-30.39341
1425492805.583,-30.444567
1425492805.598,-30.24054
1425492805.614,-29.83599
1425492805.629,-29.273111
1425492805.645,-28.530869
1425492805.661,-27.55179
1425492805.676,-26.221737
1425492805.692,-24.499554
1425492805.708,-22.403502
1425492805.723,-20.05556
1425492805.739,-17.611475
1425492805.754,-15.15546
1425492805.77,-12.666111
1425492805.786,-10.020706
1425492805.801,-7.0571365
1425492805.817,-3.6658974
1425492805.833,0.10892868
1425492805.848,4.1069183
1425492805.864,8.067516
1425492805.88,11.7159195
1425492805.895,14.884644
1425492805.911,17.590878
1425492805.926,20.049728
1425492805.942,22.670856
1425492805.958,25.819435
1425492805.973,29.553581
1425492805.989,33.523697
1425492806.005,36.963287
1425492806.02,38.971035
1425492806.036,38.96338
1425492806.051,36.935265
1425492806.067,33.4498
1425492806.083,29.398373
1425492806.098,25.550495
1425492806.114,22.27961
1425492806.13,19.549988
1425492806.145,17.093815
1425492806.161,14.653572
1425492806.176,12.135178
1425492806.192,9.616478
1425492806.208,7.175293
1425492806.223,4.82386
1425492806.239,2.4856186
1425492806.255,0.03086853
1425492806.27,-2.588028
1425492806.286,-5.3032303
1425492806.301,-7.94709
1425492806.317,-10.2740555
1425492806.333,-12.099892
1425492806.348,-13.345337
1425492806.364,-14.051048
1425492806.38,-14.297363
1425492806.395,-14.18631
1425492806.411,-13.751411
1425492806.426,-13.017403
1425492806.442,-12.06395
1425492806.458,-11.063881
1425492806.473,-10.302666
1425492806.489,-10.047073
1425492806.505,-10.369171
1425492806.52,-11.074059
1425492806.536,-11.80265
1425492806.551,-12.178841
1425492806.567,-12.010025
1425492806.583,-11.337608
1425492806.598,-10.358452
1425492806.614,-9.222931
1425492806.63,-7.99942
1425492806.645,-6.604889
1425492806.661,-4.971657
1425492806.676,-3.1029434
1425492806.692,-1.0277405
1425492806.708,1.1825104
1425492806.723,3.4817276
1425492806.739,5.8494797
1425492806.755,8.238113
1425492806.77,10.556152
1425492806.786,12.704971
1425492806.801,14.669418
1425492806.817,16.572273
1425492806.833,18.643555
1425492806.848,21.086998
1425492806.864,23.93583
1425492806.88,26.98056
1425492806.895,29.779274
1425492806.911,31.798843
1425492806.926,32.575447
1425492806.942,31.852005
1425492806.958,29.606659
1425492806.973,26.058006
1425492806.989,21.576431
1425492807.005,16.585518
1425492807.02,11.520248
1425492807.036,6.7587204
1425492807.051,2.597107
1425492807.067,-0.7656326
1425492807.083,-3.2417526
1425492807.098,-4.921173
1425492807.114,-6.0135345
1425492807.13,-6.804573
1425492807.145,-7.5174103
1425492807.161,-8.234207
1425492807.176,-8.90004
1425492807.192,-9.432091
1425492807.208,-9.834389
1425492807.223,-10.270134
1425492807.239,-10.967133
1425492807.255,-12.069336
1425492807.27,-13.492043
1425492807.286,-14.98938
1425492807.301,-16.256714
1425492807.317,-17.099846
1425492807.333,-17.528664
1425492807.348,-17.659927
1425492807.364,-17.558205
1425492807.38,-17.205345
1425492807.395,-16.478775
1425492807.411,-15.305428
1425492807.426,-13.741043
1425492807.442,-11.969513
