1426798181.349,0.0
1426798181.364,0.0
1426798181.38,0.0
1426798181.395,0.0
1426798181.411,0.0
1426798181.427,0.0
1426798181.442,0.0
1426798181.458,0.0
1426798181.474,0.0
1426798181.489,0.0022315353
1426798181.505,-0.0045169927
1426798181.52,-0.011265522
1426798181.536,-0.011383951
1426798181.552,0.0011864507
1426798181.567,0.025910312
1426798181.583,0.050634187
1426798181.599,0.051362894
1426798181.614,-0.0014929791
1426798181.63,-0.1302426
1426798181.645,-0.35562757
1426798181.661,-0.6591247
1426798181.677,-1.0095103
1426798181.692,-1.3709826
1426798181.708,-1.7197359
1426798181.724,-2.0551105
1426798181.739,-2.39945
1426798181.755,-2.7866635
1426798181.77,-3.2399073
1426798181.786,-3.796012
1426798181.802,-4.418684
1426798181.817,-5.0592937
1426798181.833,-5.6644096
1426798181.849,-6.2021537
1426798181.864,-6.6808796
1426798181.88,-7.149598
1426798181.895,-7.6782336
1426798181.911,-8.310739
1426798181.927,-9.143657
1426798181.942,-10.089731
1426798181.958,-11.041313
1426798181.974,-11.8842125
1426798181.989,-12.564316
1426798182.005,-13.13563
1426798182.02,-13.760044
1426798182.036,-14.65232
1426798182.052,-15.962056
1426798182.067,-17.914442
1426798182.083,-20.317299
1426798182.099,-22.903854
1426798182.114,-25.37947
1426798182.13,-27.578028
1426798182.145,-29.57246
1426798182.161,-31.675173
1426798182.177,-34.3178
1426798182.192,-37.813618
1426798182.208,-42.541233
1426798182.224,-48.1463
1426798182.239,-54.104755
1426798182.255,-59.83309
1426798182.27,-64.972374
1426798182.286,-69.58293
1426798182.302,-74.14353
1426798182.317,-79.344986
1426798182.333,-85.70726
1426798182.349,-93.76193
1426798182.364,-102.99779
1426798182.38,-112.61757
1426798182.395,-121.73034
1426798182.411,-129.76602
1426798182.427,-136.75102
1426798182.442,-143.30344
1426798182.458,-150.74623
1426798182.474,-157.77356
1426798182.489,-166.64323
1426798182.505,-177.94798
1426798182.52,-191.79102
1426798182.536,-206.96808
1426798182.552,-220.56592
1426798182.567,-228.24644
1426798182.583,-225.36154
1426798182.599,-208.53198
1426798182.614,-176.87024
1426798182.63,-132.76222
1426798182.645,-80.04997
1426798182.661,-23.069275
1426798182.677,34.94339
1426798182.692,92.43695
1426798182.708,149.15695
1426798182.724,205.22772
1426798182.739,260.36963
1426798182.755,313.74133
1426798182.77,363.87396
1426798182.786,409.83353
1426798182.802,450.90775
1426798182.817,486.50244
1426798182.833,515.73865
1426798182.849,537.2274
1426798182.864,549.22
1426798182.88,549.9613
1426798182.895,538.367
1426798182.911,514.2055
1426798182.927,478.674
1426798182.942,433.87952
1426798182.958,382.45126
1426798182.974,327.02106
1426798182.989,269.84186
1426798183.005,212.63379
1426798183.02,156.6594
1426798183.036,102.95233
1426798183.052,52.373596
1426798183.067,5.9046936
1426798183.083,-35.580414
1426798183.099,-71.42584
1426798183.114,-101.35184
1426798183.13,-125.50113
1426798183.145,-144.3797
1426798183.161,-158.69403
1426798183.177,-169.15071
1426798183.192,-176.3711
1426798183.208,-180.75139
1426798183.224,-182.57419
1426798183.239,-182.06863
1426798183.255,-179.5066
1426798183.27,-175.23325
1426798183.286,-169.65286
1426798183.302,-163.17691
1426798183.317,-156.14568
1426798183.333,-148.80681
1426798183.349,-141.29686
1426798183.364,-133.68983
1426798183.38,-126.01962
1426798183.395,-118.33268
1426798183.411,-110.68864
1426798183.427,-103.15572
1426798183.442,-95.80455
1426798183.458,-88.684166
1426798183.474,-81.82744
1426798183.489,-75.24594
1426798183.505,-68.9526
1426798183.52,-62.949085
1426798183.536,-57.247463
1426798183.552,-51.857048
1426798183.567,-46.7825
1426798183.583,-42.02714
1426798183.599,-37.584236
1426798183.614,-33.450447
1426798183.63,-29.612392
1426798183.645,-26.069788
1426798183.661,-22.808771
1426798183.677,-19.827501
1426798183.692,-17.120352
1426798183.708,-14.680467
1426798183.724,-12.50347
1426798183.739,-10.576486
1426798183.755,-8.889657
1426798183.77,-7.426056
1426798183.786,-6.1724215
1426798183.802,-5.109093
1426798183.817,-4.216861
1426798183.833,-3.4764202
1426798183.849,-2.8715544
1426798183.864,-2.3824873
1426798183.88,-1.9903865
1426798183.896,-1.6842408
1426798183.911,-1.4492435
1426798183.927,-1.2746618
1426798183.942,-1.1476325
1426798183.958,-1.0621707
1426798183.974,-1.0107703
1426798183.989,-0.98561645
1426798184.005,-0.9878317
1426798184.021,-1.0084428
1426798184.036,-1.0468708
1426798184.052,-1.100267
1426798184.067,-1.1701887
1426798184.083,-1.2577654
1426798184.099,-1.3581048
1426798184.114,-1.475297
1426798184.13,-1.6091355
1426798184.146,-1.7615571
1426798184.161,-1.935101
1426798184.177,-2.127798
1426798184.192,-2.3440979
1426798184.208,-2.5793016
1426798184.224,-2.846449
1426798184.239,-3.13684
1426798184.255,-3.4587147
1426798184.271,-3.8099585
1426798184.286,-4.1977067
1426798184.302,-4.616405
1426798184.317,-5.070724
1426798184.333,-5.5587955
1426798184.349,-6.083278
1426798184.364,-6.646885
1426798184.38,-7.2499213
1426798184.396,-7.8906155
1426798184.411,-8.571629
1426798184.427,-9.29273
1426798184.442,-10.05494
1426798184.458,-10.859825
1426798184.474,-11.702687
1426798184.489,-12.587013
1426798184.505,-13.525253
1426798184.521,-14.519926
1426798184.536,-15.575856
1426798184.552,-16.69489
1426798184.567,-17.876148
1426798184.583,-19.095127
1426798184.599,-20.329407
1426798184.614,-21.518745
1426798184.63,-22.594128
1426798184.646,-23.459816
1426798184.661,-24.003546
1426798184.677,-24.107605
1426798184.692,-23.6519
1426798184.708,-22.553293
1426798184.724,-20.747477
1426798184.739,-18.237537
1426798184.755,-15.055458
1426798184.771,-11.258976
1426798184.786,-7.0165176
1426798184.802,-2.4885635
1426798184.817,2.1133728
1426798184.833,6.5901833
1426798184.849,10.73753
1426798184.864,14.395527
1426798184.88,17.43026
1426798184.896,19.780193
1426798184.911,21.403496
1426798184.927,22.325008
1426798184.942,22.618
1426798184.958,22.384895
1426798184.974,21.733002
1426798184.989,20.781414
1426798185.005,19.6489
1426798185.021,18.404354
1426798185.036,17.141937
1426798185.052,15.889099
1426798185.067,14.663971
1426798185.083,13.493088
1426798185.099,12.387856
1426798185.114,11.336784
1426798185.13,10.328247
1426798185.146,9.349487
1426798185.161,8.373238
1426798185.177,7.3651886
1426798185.192,6.312065
1426798185.208,5.140106
1426798185.224,3.8947983
1426798185.239,2.5723343
1426798185.255,1.1493454
1426798185.271,-0.42751312
1426798185.286,-2.2204514
1426798185.302,-4.319519
1426798185.317,-6.811371
1426798185.333,-9.856842
1426798185.349,-13.64505
1426798185.364,-18.175522
1426798185.38,-23.497803
1426798185.396,-29.676865
1426798185.411,-36.678802
1426798185.427,-44.451767
1426798185.442,-52.834465
1426798185.458,-61.633415
1426798185.474,-70.640274
1426798185.489,-79.724594
1426798185.505,-88.47893
1426798185.521,-96.645905
1426798185.536,-104.089554
1426798185.552,-110.71901
1426798185.567,-116.4866
1426798185.583,-121.39575
1426798185.599,-125.483826
1426798185.614,-128.87534
1426798185.63,-131.82791
1426798185.646,-134.24763
1426798185.661,-136.18968
1426798185.677,-137.7094
1426798185.692,-138.75433
1426798185.708,-139.0996
1426798185.724,-138.23857
1426798185.739,-135.35385
1426798185.755,-129.21454
1426798185.771,-121.37079
1426798185.786,-112.37912
1426798185.802,-102.78235
1426798185.817,-93.07486
1426798185.833,-83.59714
1426798185.849,-74.42395
1426798185.864,-65.37012
1426798185.88,-56.0567
1426798185.896,-46.21396
1426798185.911,-35.842346
1426798185.927,-24.907837
1426798185.942,-13.7517395
1426798185.958,-2.8712769
1426798185.974,7.434143
1426798185.989,17.249817
1426798186.005,27.084839
1426798186.021,37.65271
1426798186.036,49.53766
1426798186.052,62.83777
1426798186.067,77.38147
1426798186.083,92.49872
1426798186.099,107.43402
1426798186.114,121.677124
1426798186.13,135.25006
1426798186.146,148.5943
1426798186.161,162.3432
1426798186.177,177.07727
1426798186.192,193.31238
1426798186.208,211.68549
1426798186.224,232.54218
1426798186.239,255.49878
1426798186.255,278.9037
1426798186.271,299.65607
1426798186.286,313.8015
1426798186.302,317.82446
1426798186.317,310.12402
1426798186.333,291.83978
1426798186.349,266.55945
1426798186.364,238.74628
1426798186.38,212.02466
1426798186.396,188.13733
1426798186.411,166.99371
1426798186.427,147.69055
1426798186.442,129.68384
1426798186.458,113.31256
1426798186.474,99.4704
1426798186.489,88.78229
1426798186.505,80.91321
1426798186.521,74.57477
1426798186.536,68.194824
1426798186.552,60.874268
1426798186.568,52.949158
1426798186.583,45.842285
1426798186.599,41.298706
1426798186.614,40.21924
1426798186.63,41.991577
1426798186.646,44.52838
1426798186.661,45.127563
1426798186.677,41.655334
1426798186.692,33.51001
1426798186.708,21.778198
1426798186.724,8.615601
1426798186.739,-3.9449463
1426798186.755,-14.974487
1426798186.771,-24.8844
1426798186.786,-34.921844
1426798186.802,-46.238983
1426798186.818,-59.020508
1426798186.833,-72.32834
1426798186.849,-84.52362
1426798186.864,-94.07883
1426798186.88,-100.32718
1426798186.896,-103.60452
1426798186.911,-104.96924
1426798186.927,-105.530396
1426798186.943,-105.837036
1426798186.958,-105.68613
1426798186.974,-104.39435
1426798186.989,-101.36093
1426798187.005,-96.59305
1426798187.021,-90.80322
1426798187.036,-85.13818
1426798187.052,-80.58435
1426798187.068,-77.37851
1426798187.083,-74.842255
1426798187.099,-71.69931
1426798187.114,-66.794495
1426798187.13,-59.77002
1426798187.146,-51.283478
1426798187.161,-42.687134
1426798187.177,-35.30893
1426798187.193,-29.72696
1426798187.208,-25.449799
1426798187.224,-21.200287
1426798187.239,-15.588348
1426798187.255,-7.9183655
1426798187.271,1.5369568
1426798187.286,11.73526
1426798187.302,21.388336
1426798187.318,29.637695
1426798187.333,36.250854
1426798187.349,41.422363
1426798187.364,45.249207
1426798187.38,47.407837
1426798187.396,47.081238
1426798187.411,43.41809
1426798187.427,36.03601
1426798187.443,25.429047
1426798187.458,12.909882
1426798187.474,0.11534119
1426798187.489,-11.654892
1426798187.505,-21.881714
1426798187.521,-30.875702
1426798187.536,-39.31691
1426798187.552,-47.75099
1426798187.568,-56.041824
1426798187.583,-63.395905
1426798187.599,-68.72102
1426798187.614,-71.184326
1426798187.63,-70.72412
1426798187.646,-68.118774
1426798187.661,-64.59065
1426798187.677,-61.298645
1426798187.693,-58.720245
1426798187.708,-56.514435
1426798187.724,-53.88356
1426798187.739,-50.056473
1426798187.755,-44.904327
1426798187.771,-39.07715
1426798187.786,-33.574356
1426798187.802,-29.241272
1426798187.818,-26.126175
1426798187.833,-23.377335
1426798187.849,-19.625504
1426798187.864,-13.846237
1426798187.88,-5.9410706
1426798187.896,3.0516663
1426798187.911,11.478394
1426798187.927,17.940186
1426798187.943,22.132004
1426798187.958,25.071472
1426798187.974,28.614761
1426798187.989,34.467453
1426798188.005,43.160934
1426798188.021,53.631836
1426798188.036,63.616684
1426798188.052,70.40761
1426798188.068,71.97394
1426798188.083,67.58482
1426798188.099,57.904556
1426798188.114,44.637543
1426798188.13,29.894516
1426798188.146,15.560715
1426798188.161,3.0363007
1426798188.177,-6.9504395
1426798188.193,-14.25145
1426798188.208,-19.040253
1426798188.224,-21.64383
1426798188.239,-22.311478
1426798188.255,-21.242249
1426798188.271,-18.730118
1426798188.286,-15.140579
1426798188.302,-10.987244
1426798188.318,-6.6322937
1426798188.333,-2.1557007
1426798188.349,2.778183
1426798188.364,8.557541
1426798188.38,15.154709
1426798188.396,21.68808
1426798188.411,26.437866
1426798188.427,27.345184
1426798188.443,22.943787
1426798188.458,13.116043
1426798188.474,-0.56562805
1426798188.489,-15.248215
1426798188.505,-27.820923
1426798188.521,-35.9606
1426798188.536,-38.807785
1426798188.552,-37.08911
1426798188.568,-32.415054
1426798188.583,-26.470596
1426798188.599,-20.386612
1426798188.614,-14.613434
1426798188.63,-9.299896
1426798188.646,-4.825302
1426798188.661,-1.9017792
1426798188.677,-1.387085
1426798188.693,-3.657257
1426798188.708,-8.122696
1426798188.724,-13.347519
1426798188.739,-17.68393
1426798188.755,-20.181671
1426798188.771,-21.212524
1426798188.786,-22.303055
1426798188.802,-25.37999
1426798188.818,-31.720078
1426798188.833,-41.261963
1426798188.849,-52.614197
1426798188.864,-63.759903
1426798188.88,-73.00551
1426798188.896,-79.69763
1426798188.911,-84.26747
1426798188.927,-87.82301
1426798188.943,-91.33867
1426798188.958,-95.03581
1426798188.974,-98.19801
1426798188.989,-99.42047
1426798189.005,-97.357544
1426798189.021,-91.442444
1426798189.036,-82.16795
1426798189.052,-71.02818
1426798189.068,-59.909744
1426798189.083,-50.31328
1426798189.099,-42.705933
1426798189.114,-36.47928
1426798189.13,-30.364471
1426798189.146,-23.314438
1426798189.161,-14.969513
1426798189.177,-5.945877
1426798189.193,2.7167969
1426798189.208,10.261246
1426798189.224,16.757263
1426798189.24,23.050888
1426798189.255,30.224243
1426798189.271,38.79648
1426798189.286,48.304443
1426798189.302,57.485016
1426798189.318,64.96484
1426798189.333,70.17261
1426798189.349,73.72598
1426798189.364,77.23111
1426798189.38,82.47836
1426798189.396,90.401276
1426798189.411,100.641754
1426798189.427,111.60828
1426798189.443,121.21231
1426798189.458,127.785065
1426798189.474,130.65424
1426798189.49,130.12793
1426798189.505,127.04831
1426798189.521,122.03137
1426798189.536,115.11478
1426798189.552,105.8515
1426798189.568,93.89694
1426798189.583,79.544464
1426798189.599,63.963074
1426798189.615,48.872955
1426798189.63,35.870544
1426798189.646,25.697906
1426798189.661,18.121368
1426798189.677,12.166779
1426798189.693,6.808838
1426798189.708,1.5829773
1426798189.724,-3.1549377
1426798189.74,-6.6707764
1426798189.755,-8.373291
1426798189.771,-8.277008
1426798189.786,-7.096283
1426798189.802,-5.9109497
1426798189.818,-5.636627
1426798189.833,-6.46756
1426798189.849,-7.8368225
1426798189.865,-8.652771
1426798189.88,-7.853058
1426798189.896,-4.987854
1426798189.911,-0.4036255
1426798189.927,4.9150696
1426798189.943,9.882843
1426798189.958,13.862854
1426798189.974,17.02835
1426798189.99,20.196075
1426798190.005,24.322357
1426798190.021,29.92775
1426798190.036,36.765213
1426798190.052,44.019043
1426798190.068,50.76042
1426798190.083,56.57547
1426798190.099,61.760437
1426798190.115,66.955185
1426798190.13,72.548416
1426798190.146,78.02373
1426798190.161,82.02202
1426798190.177,82.824875
1426798190.193,79.16812
1426798190.208,70.947845
1426798190.224,59.335846
1426798190.24,46.257065
1426798190.255,33.487976
1426798190.271,21.940903
1426798190.286,11.451935
1426798190.302,1.1824036
1426798190.318,-9.692886
1426798190.333,-21.342033
1426798190.349,-32.970093
1426798190.365,-43.16452
1426798190.38,-50.523933
1426798190.396,-54.44004
1426798190.411,-55.348022
1426798190.427,-54.547905
1426798190.443,-53.530212
1426798190.458,-53.195824
1426798190.474,-53.5084
1426798190.49,-53.59736
1426798190.505,-52.460407
1426798190.521,-49.605747
1426798190.536,-45.43601
1426798190.552,-40.91672
1426798190.568,-37.077038
1426798190.583,-34.280796
1426798190.599,-31.923344
1426798190.615,-28.743494
1426798190.63,-23.48285
1426798190.646,-15.670833
1426798190.661,-5.8807793
1426798190.677,4.484005
1426798190.693,13.878883
1426798190.708,21.410767
1426798190.724,27.33746
1426798190.74,32.8797
1426798190.755,39.607246
1426798190.771,48.526276
1426798190.786,59.55693
1426798190.802,71.49614
1426798190.818,82.61848
1426798190.833,91.38658
1426798190.849,97.07224
1426798190.865,99.833786
1426798190.88,100.29403
1426798190.896,98.8974
1426798190.911,95.46719
1426798190.927,89.2382
1426798190.943,79.33257
1426798190.958,65.41995
1426798190.974,48.198875
1426798190.99,29.376282
1426798191.005,11.167282
1426798191.021,-4.567169
1426798191.036,-16.903854
1426798191.052,-26.082413
1426798191.068,-33.14856
1426798191.083,-39.270737
1426798191.099,-45.05838
1426798191.115,-50.34764
1426798191.13,-54.435745
1426798191.146,-56.802307
1426798191.161,-57.527374
1426798191.177,-57.410492
1426798191.193,-57.600464
1426798191.208,-58.9516
1426798191.224,-61.573395
1426798191.24,-64.78937
1426798191.255,-67.57901
1426798191.271,-69.17239
1426798191.286,-69.5119
1426798191.302,-69.18054
1426798191.318,-68.988464
1426798191.333,-69.41046
1426798191.349,-70.17456
1426798191.365,-70.36148
1426798191.38,-68.89041
1426798191.396,-65.17441
1426798191.411,-59.47705
1426798191.427,-52.858307
1426798191.443,-46.499237
1426798191.458,-41.107056
1426798191.474,-36.404602
1426798191.49,-31.211365
1426798191.505,-24.15213
1426798191.521,-14.58078
1426798191.536,-3.0920715
1426798191.552,8.489319
1426798191.568,17.779663
1426798191.583,22.899414
1426798191.599,23.28299
1426798191.615,19.820038
1426798191.63,14.420288
1426798191.646,8.994476
1426798191.661,4.663269
1426798191.677,1.46344
1426798191.693,-1.369812
1426798191.708,-4.6674194
1426798191.724,-8.661804
1426798191.74,-12.802887
1426798191.755,-16.146942
1426798191.771,-18.068024
1426798191.786,-18.790497
1426798191.802,-19.327759
1426798191.818,-20.899841
1426798191.833,-24.219208
1426798191.849,-28.91504
1426798191.865,-33.692535
1426798191.88,-37.01538
1426798191.896,-37.958527
1426798191.911,-36.712036
1426798191.927,-34.58307
1426798191.943,-33.247925
1426798191.958,-33.89099
1426798191.974,-36.611023
1426798191.99,-40.33069
1426798192.005,-43.329773
1426798192.021,-44.150574
1426798192.036,-42.18091
1426798192.052,-37.812683
1426798192.068,-32.051697
1426798192.083,-25.847412
1426798192.099,-19.503052
1426798192.115,-12.572632
1426798192.13,-4.230896
1426798192.146,6.0734863
1426798192.162,18.18274
1426798192.177,31.22998
1426798192.193,44.065796
1426798192.208,55.761475
1426798192.224,66.0231
1426798192.24,75.118286
1426798192.255,83.42673
1426798192.271,90.89038
1426798192.287,96.67276
1426798192.302,99.28763
1426798192.318,97.22946
1426798192.333,89.6228
1426798192.349,76.812256
1426798192.365,60.354492
1426798192.38,42.480713
1426798192.396,25.242065
1426798192.412,9.824036
1426798192.427,-3.7503662
1426798192.443,-16.178833
1426798192.458,-28.223999
1426798192.474,-39.971985
1426798192.49,-50.631775
1426798192.505,-58.90039
1426798192.521,-63.765747
1426798192.537,-65.1405
1426798192.552,-64.054016
1426798192.568,-62.150513
1426798192.583,-60.96405
1426798192.599,-61.11371
1426798192.615,-62.09607
1426798192.63,-62.637024
1426798192.646,-61.51599
1426798192.662,-58.31842
1426798192.677,-53.627502
1426798192.693,-48.696106
1426798192.708,-44.64337
1426798192.724,-41.783997
1426798192.74,-39.4541
1426798192.755,-36.329773
1426798192.771,-31.271667
1426798192.787,-23.961182
1426798192.802,-15.167664
1426798192.818,-6.327759
1426798192.833,1.1842651
1426798192.849,6.8919067
1426798192.865,11.448669
1426798192.88,16.30011
1426798192.896,22.986633
1426798192.912,32.171143
1426798192.927,43.164978
1426798192.943,54.22705
1426798192.958,63.155884
1426798192.974,68.287476
1426798192.99,69.04541
1426798193.005,66.07068
1426798193.021,60.55371
1426798193.037,53.47998
1426798193.052,45.09265
1426798193.068,35.006042
1426798193.083,22.61322
1426798193.099,7.8721313
1426798193.115,-8.327087
1426798193.13,-24.341797
1426798193.146,-38.430725
1426798193.162,-49.550964
1426798193.177,-57.621277
1426798193.193,-63.47351
1426798193.208,-68.14978
1426798193.224,-72.1889
1426798193.24,-75.38867
1426798193.255,-76.84924
1426798193.271,-75.70831
1426798193.287,-71.7876
1426798193.302,-65.8996
1426798193.318,-59.50598
1426798193.333,-54.148865
1426798193.349,-50.58191
1426798193.365,-48.401978
1426798193.38,-46.382324
1426798193.396,-43.07849
1426798193.412,-37.71289
1426798193.427,-30.646484
1426798193.443,-23.127502
1426798193.458,-16.630676
1426798193.474,-11.990234
1426798193.49,-8.95697
1426798193.505,-6.3517456
1426798193.521,-2.807129
1426798193.537,2.4715576
1426798193.552,9.226318
1426798193.568,16.48407
1426798193.583,23.147827
1426798193.599,28.803528
1426798193.615,33.997437
1426798193.63,39.907715
1426798193.646,47.530823
1426798193.662,56.784668
1426798193.677,66.26758
1426798193.693,73.66754
1426798193.708,76.742676
1426798193.724,74.37134
1426798193.74,66.94238
1426798193.755,56.16931
1426798193.771,44.121033
1426798193.787,32.267456
1426798193.802,20.959534
1426798193.818,9.663086
1426798193.833,-2.4154663
1426798193.849,-15.441467
1426798193.865,-28.524841
1426798193.88,-40.02826
1426798193.896,-48.306152
1426798193.912,-52.582703
1426798193.927,-53.396484
1426798193.943,-52.294067
1426798193.958,-51.07318
1426798193.974,-50.897095
1426798193.99,-51.70276
1426798194.005,-52.402344
1426798194.021,-51.60376
1426798194.037,-48.486816
1426798194.052,-43.3255
1426798194.068,-37.340576
1426798194.083,-32.038025
1426798194.099,-28.302795
1426798194.115,-25.937622
1426798194.13,-23.796387
1426798194.146,-20.496765
1426798194.162,-15.278076
1426798194.177,-8.490906
1426798194.193,-1.4319458
1426798194.208,4.3830566
1426798194.224,8.102173
1426798194.24,10.059631
1426798194.255,11.606873
1426798194.271,14.399048
1426798194.287,19.439697
1426798194.302,26.620544
1426798194.318,34.916626
1426798194.333,42.97406
1426798194.349,49.890564
1426798194.365,55.569214
1426798194.38,60.52954
1426798194.396,65.2193
1426798194.412,69.43396
1426798194.427,72.02661
1426798194.443,71.38501
1426798194.458,66.232605
1426798194.474,56.35437
1426798194.49,42.911743
1426798194.505,28.010803
1426798194.521,13.89032
1426798194.537,1.9680786
1426798194.552,-7.5545654
1426798194.568,-15.548401
1426798194.583,-23.177307
1426798194.599,-31.156372
1426798194.615,-39.165527
1426798194.63,-46.02417
1426798194.646,-50.430176
1426798194.662,-51.70099
1426798194.677,-50.29254
1426798194.693,-47.54962
1426798194.708,-45.088623
1426798194.724,-43.923584
1426798194.74,-43.967224
1426798194.755,-44.24286
1426798194.771,-43.463806
1426798194.787,-40.89868
1426798194.802,-36.823486
1426798194.818,-32.31189
1426798194.834,-28.615295
1426798194.849,-26.418457
1426798194.865,-25.364197
1426798194.88,-24.265747
1426798194.896,-21.769653
1426798194.912,-17.124573
1426798194.927,-10.589294
1426798194.943,-3.2852173
1426798194.959,3.421692
1426798194.974,8.682007
1426798194.99,12.647888
1426798195.005,16.355042
1426798195.021,21.223022
1426798195.037,28.218689
1426798195.052,37.265747
1426798195.068,47.166443
1426798195.084,56.044373
1426798195.099,62.059753
1426798195.115,64.22595
1426798195.13,62.70398
1426798195.146,58.472595
1426798195.162,52.741333
1426798195.177,46.092163
1426798195.193,38.331055
1426798195.209,28.732422
1426798195.224,16.670715
1426798195.24,2.3516235
1426798195.255,-13.066101
1426798195.271,-27.7854
1426798195.287,-40.16162
1426798195.302,-49.39148
1426798195.318,-55.71588
1426798195.334,-60.08667
1426798195.349,-63.49518
1426798195.365,-66.37384
1426798195.38,-68.42279
1426798195.396,-68.93469
1426798195.412,-67.354675
1426798195.427,-63.77234
1426798195.443,-59.019592
1426798195.459,-54.291138
1426798195.474,-50.578064
1426798195.49,-48.119995
1426798195.505,-46.29834
1426798195.521,-43.9682
1426798195.537,-40.10193
1426798195.552,-34.423523
1426798195.568,-27.555054
1426798195.584,-20.638306
1426798195.599,-14.787781
1426798195.615,-10.313965
1426798195.63,-6.6139526
1426798195.646,-2.52948
1426798195.662,2.9732666
1426798195.677,10.060059
1426798195.693,17.984375
1426798195.709,25.48706
1426798195.724,31.544678
1426798195.74,36.10846
1426798195.755,40.141724
1426798195.771,45.09192
1426798195.787,51.989563
1426798195.802,60.63971
1426798195.818,69.49188
1426798195.834,76.274445
1426798195.849,78.86185
1426798195.865,76.29114
1426798195.88,69.095
1426798195.896,58.9433
1426798195.912,47.788696
1426798195.927,36.960052
1426798195.943,26.710724
1426798195.959,16.437256
1426798195.974,5.3461304
1426798195.99,-6.784607
1426798196.005,-19.241943
1426798196.021,-30.609192
1426798196.037,-39.512146
1426798196.052,-45.337646
1426798196.068,-48.61499
1426798196.084,-50.59836
1426798196.099,-52.63925
1426798196.115,-55.29138
1426798196.13,-58.076813
1426798196.146,-59.8114
1426798196.162,-59.3143
1426798196.177,-56.330536
1426798196.193,-51.66681
1426798196.209,-46.83304
1426798196.224,-43.227478
1426798196.24,-41.31775
1426798196.255,-40.352966
1426798196.271,-38.81317
1426798196.287,-35.210144
1426798196.302,-28.97293
1426798196.318,-20.787628
1426798196.334,-12.148865
1426798196.349,-4.6938477
1426798196.365,0.7991638
1426798196.38,4.6542053
1426798196.396,8.109009
1426798196.412,12.5251465
1426798196.427,18.618439
1426798196.443,26.101288
1426798196.459,33.94998
1426798196.474,41.04001
1426798196.49,46.84845
1426798196.505,51.701965
1426798196.521,56.42935
1426798196.537,61.631012
1426798196.552,67.05432
1426798196.568,71.40234
1426798196.584,72.87912
1426798196.599,70.04736
1426798196.615,62.582092
1426798196.63,51.557953
1426798196.646,38.97116
1426798196.662,26.860962
1426798196.677,16.389343
1426798196.693,7.556732
1426798196.709,-0.4930725
1426798196.724,-8.757538
1426798196.74,-17.528381
1426798196.755,-26.122467
1426798196.771,-33.22757
1426798196.787,-37.557495
1426798196.802,-38.73239
1426798196.818,-37.476837
1426798196.834,-35.263702
1426798196.849,-33.616486
1426798196.865,-33.23529
1426798196.88,-33.665253
1426798196.896,-33.637115
1426798196.912,-31.86673
1426798196.927,-27.86853
1426798196.943,-22.317963
1426798196.959,-16.66452
1426798196.974,-12.364655
1426798196.99,-10.035461
1426798197.005,-9.024902
1426798197.021,-7.8355713
1426798197.037,-4.933899
1426798197.052,0.31018066
1426798197.068,7.275238
1426798197.084,14.394775
1426798197.099,20.049408
1426798197.115,23.445984
1426798197.13,25.067627
1426798197.146,26.342224
1426798197.162,28.881744
1426798197.177,33.504242
1426798197.193,39.895844
1426798197.209,46.84659
1426798197.224,52.85666
1426798197.24,56.94629
1426798197.255,59.022278
1426798197.271,59.591064
1426798197.287,59.244965
1426798197.302,58.019684
1426798197.318,55.294205
1426798197.334,50.0934
1426798197.349,41.765152
1426798197.365,30.435028
1426798197.38,17.231537
1426798197.396,3.8754272
1426798197.412,-7.9779663
1426798197.427,-17.395203
1426798197.443,-24.422867
1426798197.459,-29.845963
1426798197.474,-34.64424
1426798197.49,-39.349915
1426798197.506,-43.778458
1426798197.521,-47.113785
1426798197.537,-48.441498
1426798197.552,-47.365143
1426798197.568,-44.308777
1426798197.584,-40.378677
1426798197.599,-36.853577
1426798197.615,-34.566406
1426798197.63,-33.426514
1426798197.646,-32.577225
1426798197.662,-30.911667
1426798197.677,-27.730026
1426798197.693,-23.197037
1426798197.709,-18.16278
1426798197.724,-13.663925
1426798197.74,-10.261932
1426798197.756,-7.6210327
1426798197.771,-4.72229
1426798197.787,-0.43229675
1426798197.802,5.7469177
1426798197.818,13.324951
1426798197.834,21.088089
1426798197.849,27.76831
1426798197.865,32.74623
1426798197.881,36.53412
1426798197.896,40.48079
1426798197.912,46.053513
1426798197.927,53.924286
1426798197.943,63.50177
1426798197.959,73.04674
1426798197.974,80.35589
1426798197.99,83.74971
1426798198.006,82.6969
1426798198.021,77.88175
1426798198.037,70.70533
1426798198.052,62.449074
1426798198.068,53.68985
1426798198.084,44.155342
1426798198.099,33.20047
1426798198.115,20.456528
1426798198.131,6.388031
1426798198.146,-7.721634
1426798198.162,-20.242554
1426798198.177,-29.927383
1426798198.193,-36.48604
1426798198.209,-40.600403
1426798198.224,-43.405884
1426798198.24,-45.848434
1426798198.256,-48.093796
1426798198.271,-49.52948
1426798198.287,-49.184067
1426798198.302,-46.467545
1426798198.318,-41.669525
1426798198.334,-35.912033
1426798198.349,-30.619232
1426798198.365,-26.853043
1426798198.381,-24.742523
1426798198.396,-23.506317
1426798198.412,-21.90181
1426798198.427,-18.96611
1426798198.443,-14.462051
1426798198.459,-8.945251
1426798198.474,-3.357605
1426798198.49,1.5087128
1426798198.506,5.4244995
1426798198.521,8.825607
1426798198.537,12.451866
1426798198.552,16.896667
1426798198.568,22.239159
1426798198.584,28.047264
1426798198.599,33.632965
1426798198.615,38.491608
1426798198.631,42.72251
1426798198.646,46.97651
1426798198.662,52.096024
1426798198.677,58.460884
1426798198.693,65.50836
1426798198.709,71.666565
1426798198.724,74.95214
1426798198.74,73.77135
1426798198.756,67.775085
1426798198.771,57.99193
1426798198.787,46.336105
1426798198.802,34.709
1426798198.818,24.089348
1426798198.834,14.305199
1426798198.849,4.439865
1426798198.865,-6.3410034
1426798198.881,-18.03418
1426798198.896,-29.5681
1426798198.912,-39.286682
1426798198.927,-45.802704
1426798198.943,-48.734283
1426798198.959,-48.89604
1426798198.974,-47.840195
1426798198.99,-47.03647
1426798199.006,-47.107925
1426798199.021,-47.64325
1426798199.037,-47.542328
1426798199.052,-45.81082
1426798199.068,-42.234406
1426798199.084,-37.535812
1426798199.099,-33.001404
1426798199.115,-29.791458
1426798199.131,-28.219177
1426798199.146,-27.587997
1426798199.162,-26.554733
1426798199.177,-23.82431
1426798199.193,-18.91278
1426798199.209,-12.341751
1426798199.224,-5.320404
1426798199.24,0.84117126
1426798199.256,5.5158386
1426798199.271,9.034195
1426798199.287,12.443481
1426798199.302,16.927353
1426798199.318,23.01883
1426798199.334,30.376328
1426798199.349,37.99588
1426798199.365,44.816566
1426798199.381,50.356934
1426798199.396,54.92717
1426798199.412,59.202164
1426798199.427,63.623207
1426798199.443,67.79265
1426798199.459,70.37177
1426798199.474,69.71518
1426798199.49,64.60089
1426798199.506,54.972733
1426798199.521,42.07823
1426798199.537,27.903793
1426798199.552,14.328735
1426798199.568,2.314911
1426798199.584,-8.274155
1426798199.599,-18.278946
1426798199.615,-28.495361
1426798199.631,-38.96646
1426798199.646,-48.736847
1426798199.662,-56.328735
1426798199.677,-60.492996
1426798199.693,-61.009872
1426798199.709,-58.836807
1426798199.724,-55.712616
1426798199.74,-53.318024
1426798199.756,-52.44084
1426798199.771,-52.707367
1426798199.787,-52.975647
1426798199.802,-52.021072
1426798199.818,-49.386612
1426798199.834,-45.60765
1426798199.849,-41.834045
1426798199.865,-39.160004
1426798199.881,-37.908737
1426798199.896,-37.37137
1426798199.912,-36.220856
1426798199.927,-33.249527
1426798199.943,-28.059631
1426798199.959,-21.355957
1426798199.974,-14.540619
1426798199.99,-8.990631
1426798200.006,-5.3007355
1426798200.021,-2.9359283
1426798200.037,-0.5379791
1426798200.052,3.3753662
1426798200.068,9.555603
1426798200.084,17.694107
1426798200.099,26.570984
1426798200.115,34.741837
1426798200.131,41.225334
1426798200.146,45.915108
1426798200.162,49.34114
1426798200.178,52.066254
1426798200.193,54.032425
1426798200.209,54.37815
1426798200.224,51.79928
1426798200.24,45.27202
1426798200.256,34.807747
1426798200.271,21.665985
1426798200.287,7.910782
1426798200.302,-4.417755
1426798200.318,-14.173759
1426798200.334,-21.488571
1426798200.349,-27.409386
1426798200.365,-33.174896
1426798200.381,-39.368668
1426798200.396,-45.55165
1426798200.412,-50.491577
1426798200.428,-52.9019
1426798200.443,-52.249077
1426798200.459,-49.081337
1426798200.474,-44.827927
1426798200.49,-41.109573
1426798200.506,-38.911133
1426798200.521,-38.085663
1426798200.537,-37.571793
1426798200.553,-36.022804
1426798200.568,-32.666107
1426798200.584,-27.709953
1426798200.599,-22.247047
1426798200.615,-17.567745
1426798200.631,-14.406963
1426798200.646,-12.432365
1426798200.662,-10.438274
1426798200.678,-7.054714
1426798200.693,-1.5536194
1426798200.709,5.641712
1426798200.724,13.200827
1426798200.74,19.598213
1426798200.756,23.988789
1426798200.771,26.728775
1426798200.787,29.196018
1426798200.803,33.09931
1426798200.818,39.5054
1426798200.834,48.25038
1426798200.849,57.975388
1426798200.865,66.72036
1426798200.881,72.737885
1426798200.896,75.22323
1426798200.912,74.41666
1426798200.928,71.23003
1426798200.943,66.57817
1426798200.959,60.80197
1426798200.974,53.637917
1426798200.99,44.485348
1426798201.006,33.03951
1426798201.021,19.72742
1426798201.037,5.7357802
1426798201.053,-7.398949
1426798201.068,-18.518349
1426798201.084,-27.26373
1426798201.099,-34.113144
1426798201.115,-39.959366
1426798201.131,-45.47925
1426798201.146,-50.59657
1426798201.162,-54.5558
1426798201.178,-56.347244
1426798201.193,-55.39402
1426798201.209,-51.989132
1426798201.224,-47.2502
1426798201.24,-42.57759
1426798201.256,-38.980255
1426798201.271,-36.588955
1426798201.287,-34.6894
1426798201.303,-32.23627
1426798201.318,-28.50896
1426798201.334,-23.602985
1426798201.349,-18.298574
1426798201.365,-13.5835495
1426798201.381,-10.049351
1426798201.396,-7.44722
1426798201.412,-4.855152
1426798201.428,-1.1771507
1426798201.443,4.1992035
1426798201.459,11.031849
1426798201.474,18.356815
1426798201.49,24.969833
1426798201.506,30.095936
1426798201.521,33.85056
1426798201.537,37.191074
1426798201.553,41.480827
1426798201.568,47.642853
1426798201.584,55.50367
1426798201.599,63.738686
1426798201.615,70.32288
1426798201.631,73.39758
1426798201.646,72.13592
1426798201.662,67.02512
1426798201.678,59.50364
1426798201.693,51.15728
1426798201.709,42.896156
1426798201.724,34.61547
1426798201.74,25.54898
1426798201.756,14.99012
1426798201.771,3.0046234
1426798201.787,-9.417091
1426798201.803,-20.727882
1426798201.818,-29.586464
1426798201.834,-35.520775
1426798201.849,-39.014267
1426798201.865,-41.192425
1426798201.881,-43.135986
1426798201.896,-45.229572
1426798201.912,-47.05449
1426798201.928,-47.66668
1426798201.943,-46.231262
1426798201.959,-42.684807
1426798201.974,-37.827194
1426798201.99,-32.94941
1426798202.006,-29.225784
1426798202.021,-27.065018
1426798202.037,-25.888405
1426798202.053,-24.47799
1426798202.068,-21.638748
1426798202.084,-16.90223
1426798202.099,-10.774124
1426798202.115,-4.4438934
1426798202.131,0.89190674
1426798202.146,4.7385406
1426798202.162,7.5536804
1426798202.178,10.446297
1426798202.193,14.508553
1426798202.209,20.103897
1426798202.224,26.709648
1426798202.24,33.22474
1426798202.256,38.622215
1426798202.271,42.70601
1426798202.287,46.220085
1426798202.303,50.405266
1426798202.318,56.226013
1426798202.334,63.509804
1426798202.349,70.789215
1426798202.365,75.852646
1426798202.381,76.64428
1426798202.396,72.277435
1426798202.412,63.458244
1426798202.428,52.056854
1426798202.443,40.1979
1426798202.459,29.264908
1426798202.474,19.408272
1426798202.49,9.829491
1426798202.506,-0.47817993
1426798202.521,-11.909058
1426798202.537,-23.797493
1426798202.553,-34.682022
1426798202.568,-43.05452
1426798202.584,-48.1528
1426798202.599,-50.314194
1426798202.615,-50.742935
1426798202.631,-50.859375
1426798202.646,-51.484917
1426798202.662,-52.398575
1426798202.678,-52.613182
1426798202.693,-50.93953
1426798202.709,-46.888397
1426798202.724,-41.049416
1426798202.74,-34.88894
1426798202.756,-30.04116
1426798202.771,-27.438911
1426798202.787,-26.738495
1426798202.803,-26.560158
1426798202.818,-25.254944
1426798202.834,-21.832
1426798202.849,-16.487549
1426798202.865,-10.367157
1426798202.881,-4.854965
1426798202.896,-0.7404938
1426798202.912,2.2684937
1426798202.928,5.323456
1426798202.943,9.700607
1426798202.959,16.004608
1426798202.974,23.806213
1426798202.99,31.963577
1426798203.006,39.293198
1426798203.021,45.205338
1426798203.037,49.950684
1426798203.053,54.266388
1426798203.068,58.74208
1426798203.084,63.165726
1426798203.1,66.45711
1426798203.115,67.11076
1426798203.131,63.902725
1426798203.146,56.559296
1426798203.162,45.96939
1426798203.178,33.79715
1426798203.193,21.832962
1426798203.209,11.178497
1426798203.225,1.9683228
1426798203.24,-6.45282
1426798203.256,-14.930527
1426798203.271,-23.933838
1426798203.287,-32.98671
1426798203.303,-40.85988
1426798203.318,-46.147934
1426798203.334,-48.03965
1426798203.35,-46.834793
1426798203.365,-43.87861
1426798203.381,-40.93109
1426798203.396,-39.24848
1426798203.412,-39.02101
1426798203.428,-39.26658
1426798203.443,-38.55681
1426798203.459,-35.920937
1426798203.475,-31.479263
1426798203.49,-26.396652
1426798203.506,-22.197525
1426798203.521,-19.78386
1426798203.537,-18.854752
1426798203.553,-18.036865
1426798203.568,-15.674042
1426798203.584,-10.814697
1426798203.6,-3.7809296
1426798203.615,4.0347595
1426798203.631,10.897705
1426798203.646,15.736618
1426798203.662,18.663239
1426798203.678,20.863358
1426798203.693,23.894287
1426798203.709,28.864426
1426798203.725,35.839462
1426798203.74,43.972763
1426798203.756,52.003616
1426798203.771,58.84668
1426798203.787,64.06085
1426798203.803,67.824844
1426798203.818,70.49933
1426798203.834,72.08478
1426798203.85,72.00125
1426798203.865,69.239624
1426798203.881,62.853973
1426798203.896,52.64151
1426798203.912,39.425446
1426798203.928,24.85736
1426798203.943,10.826782
1426798203.959,-1.2709045
1426798203.975,-11.113998
1426798203.99,-19.264694
1426798204.006,-26.671066
1426798204.021,-33.97
1426798204.037,-40.94507
1426798204.053,-46.624893
1426798204.068,-49.881775
1426798204.084,-50.110794
1426798204.1,-47.764793
1426798204.115,-44.169846
1426798204.131,-40.941772
1426798204.146,-39.140656
1426798204.162,-38.780235
1426798204.178,-38.85417
1426798204.193,-37.964653
1426798204.209,-35.099213
1426798204.225,-30.268845
1426798204.24,-24.433983
1426798204.256,-19.008453
1426798204.271,-14.9991455
1426798204.287,-12.457596
1426798204.303,-10.456909
1426798204.318,-7.5941772
1426798204.334,-2.845169
1426798204.35,3.8235626
1426798204.365,11.500122
1426798204.381,18.746307
1426798204.396,24.404327
1426798204.412,28.291534
1426798204.428,31.25769
1426798204.443,34.746796
1426798204.459,40.025543
1426798204.475,47.426926
1426798204.49,56.091858
1426798204.506,64.37727
1426798204.521,70.45929
1426798204.537,73.13176
1426798204.553,72.20862
1426798204.568,68.36528
1426798204.584,62.639038
1426798204.6,55.74597
1426798204.615,47.83937
1426798204.631,38.55722
1426798204.646,27.562302
1426798204.662,14.989037
1426798204.678,1.7408295
1426798204.693,-10.838211
1426798204.709,-21.488152
1426798204.725,-29.611633
1426798204.74,-35.461433
1426798204.756,-39.894936
1426798204.771,-43.852425
1426798204.787,-47.730232
1426798204.803,-51.216743
1426798204.818,-53.47301
1426798204.834,-53.665714
1426798204.85,-51.628475
1426798204.865,-47.964653
1426798204.881,-43.852043
1426798204.896,-40.50714
1426798204.912,-38.56443
1426798204.928,-37.78769
1426798204.943,-37.312202
1426798204.959,-36.106384
1426798204.975,-33.647224
1426798204.99,-30.189209
1426798205.006,-26.524925
1426798205.021,-23.4338
1426798205.037,-21.159897
1426798205.053,-19.144386
1426798205.068,-16.34092
1426798205.084,-11.852753
1426798205.1,-5.4732513
1426798205.115,2.1051254
1426798205.131,9.715225
1426798205.146,16.310486
1426798205.162,21.622093
1426798205.178,26.343216
1426798205.193,31.736816
1426798205.209,38.96891
1426798205.225,48.223785
1426798205.24,58.49131
1426798205.256,67.88454
1426798205.271,74.3294
1426798205.287,76.47808
1426798205.303,74.24941
1426798205.318,68.65679
1426798205.334,61.222984
1426798205.35,53.066048
1426798205.365,44.37359
1426798205.381,34.612137
1426798205.396,23.023659
1426798205.412,9.449982
1426798205.428,-5.245079
1426798205.443,-19.489155
1426798205.459,-31.570568
1426798205.475,-40.505104
1426798205.49,-46.372284
1426798205.506,-50.12345
1426798205.521,-52.94527
1426798205.537,-55.61466
1426798205.553,-58.07313
1426798205.568,-59.572803
1426798205.584,-59.234806
1426798205.6,-56.6989
1426798205.615,-52.448742
1426798205.631,-47.635128
1426798205.646,-43.60579
1426798205.662,-41.13885
1426798205.678,-40.082657
1426798205.693,-39.41715
1426798205.709,-37.804516
1426798205.725,-34.371674
1426798205.74,-29.205185
1426798205.756,-23.254803
1426798205.772,-17.701855
1426798205.787,-13.24086
1426798205.803,-9.576447
1426798205.818,-5.6718674
1426798205.834,-0.3246231
1426798205.85,7.0280075
1426798205.865,15.886242
1426798205.881,25.064003
1426798205.897,33.259613
1426798205.912,39.930264
1426798205.928,45.567085
1426798205.943,51.417492
1426798205.959,58.683853
1426798205.975,67.67375
1426798205.99,77.41614
1426798206.006,85.913895
1426798206.022,91.01709
1426798206.037,91.290436
1426798206.053,86.68532
1426798206.068,78.413605
1426798206.084,68.30288
1426798206.1,57.849995
1426798206.115,47.633904
1426798206.131,37.351154
1426798206.147,26.248669
1426798206.162,13.921612
1426798206.178,0.7988777
1426798206.193,-11.853832
1426798206.209,-22.53421
1426798206.225,-30.2481
1426798206.24,-35.05856
1426798206.256,-38.067238
1426798206.272,-40.836193
1426798206.287,-44.629246
1426798206.303,-49.652786
1426798206.318,-55.08066
1426798206.334,-59.43548
1426798206.35,-61.449455
1426798206.365,-60.76063
1426798206.381,-58.048637
1426798206.397,-54.638336
1426798206.412,-51.710842
1426798206.428,-49.640583
1426798206.443,-47.820023
1426798206.459,-45.097397
1426798206.475,-40.5915
1426798206.49,-34.284508
1426798206.506,-27.15329
1426798206.522,-20.61144
1426798206.537,-15.813234
1426798206.553,-12.950668
1426798206.568,-11.2309
1426798206.584,-9.347111
1426798206.6,-6.27092
1426798206.615,-1.774868
1426798206.631,3.553237
1426798206.647,8.772635
1426798206.662,13.283123
1426798206.678,17.232534
1426798206.693,21.458595
1426798206.709,26.854002
1426798206.725,33.666634
1426798206.74,40.99662
1426798206.756,46.984314
1426798206.772,49.59428
1426798206.787,47.422905
1426798206.803,40.47575
1426798206.818,30.09603
1426798206.834,18.364342
1426798206.85,7.1557693
1426798206.865,-2.6331701
1426798206.881,-11.226195
1426798206.897,-19.488647
1426798206.912,-28.162323
1426798206.928,-37.161102
1426798206.943,-45.50099
1426798206.959,-51.718277
1426798206.975,-54.684605
1426798206.99,-54.305405
1426798207.006,-51.59874
1426798207.022,-48.21352
1426798207.037,-45.577324
1426798207.053,-44.223824
1426798207.068,-43.532394
1426798207.084,-42.237442
1426798207.1,-39.25127
1426798207.115,-34.424908
1426798207.131,-28.671091
1426798207.147,-23.475729
1426798207.162,-20.040756
1426798207.178,-18.542856
1426798207.193,-17.956284
1426798207.209,-16.606815
1426798207.225,-12.997276
1426798207.24,-6.7036667
1426798207.256,1.4347687
1426798207.272,9.781372
1426798207.287,16.724358
1426798207.303,21.56308
1426798207.318,24.859356
1426798207.334,28.098701
1426798207.35,32.889317
1426798207.365,40.126034
1426798207.381,49.587547
1426798207.397,60.107185
1426798207.412,70.15062
1426798207.428,78.54575
1426798207.443,84.79785
1426798207.459,88.99843
1426798207.475,91.42357
1426798207.49,91.99498
1426798207.506,90.22957
1426798207.522,85.45382
1426798207.537,77.316055
1426798207.553,66.20424
1426798207.568,53.27325
1426798207.584,40.05809
1426798207.6,27.894192
1426798207.615,17.335674
1426798207.631,8.082565
1426798207.647,-0.6629677
1426798207.662,-9.691696
1426798207.678,-19.140911
1426798207.693,-28.37864
1426798207.709,-36.276436
1426798207.725,-41.74833
1426798207.74,-44.378525
1426798207.756,-44.623238
1426798207.772,-43.56806
1426798207.787,-42.34095
1426798207.803,-41.60141
1426798207.818,-41.266235
1426798207.834,-40.709152
1426798207.85,-39.229755
1426798207.865,-36.648582
1426798207.881,-33.377533
1426798207.897,-30.255808
1426798207.912,-28.036768
1426798207.928,-26.947721
1426798207.943,-26.48536
1426798207.959,-25.736313
1426798207.975,-23.866138
1426798207.99,-20.635193
1426798208.006,-16.567902
1426798208.022,-12.638445
1426798208.037,-9.7525215
1426798208.053,-8.114839
1426798208.068,-6.9834538
1426798208.084,-4.958359
1426798208.1,-0.6457405
1426798208.115,6.4723673
1426798208.131,15.527517
1426798208.147,24.417328
1426798208.162,30.539627
1426798208.178,31.940952
1426798208.193,28.214321
1426798208.209,20.59909
1426798208.225,11.42643
1426798208.24,2.891364
1426798208.256,-3.8608236
1426798208.272,-9.096437
1426798208.287,-14.013207
1426798208.303,-19.791918
1426798208.318,-26.794567
1426798208.334,-34.297134
1426798208.35,-40.979733
1426798208.365,-45.770176
1426798208.381,-48.47561
1426798208.397,-49.79785
1426798208.412,-50.861473
1426798208.428,-52.430145
1426798208.444,-54.37653
1426798208.459,-55.744076
1426798208.475,-55.318134
1426798208.49,-52.43748
1426798208.506,-47.522194
1426798208.522,-41.99084
1426798208.537,-37.614548
1426798208.553,-35.654724
1426798208.569,-36.121487
1426798208.584,-37.752758
1426798208.6,-38.61807
1426798208.615,-37.1238
1426798208.631,-32.79012
1426798208.647,-26.40929
1426798208.662,-19.621334
1426798208.678,-14.009998
1426798208.694,-10.301292
1426798208.709,-8.082108
1426798208.725,-6.102104
1426798208.74,-3.0462646
1426798208.756,1.7752457
1426798208.772,8.2328415
1426798208.787,15.675911
1426798208.803,23.464073
1426798208.819,31.449196
1426798208.834,39.86725
1426798208.85,48.917038
1426798208.865,58.109337
1426798208.881,66.07614
1426798208.897,70.989914
1426798208.912,71.38345
1426798208.928,66.98373
1426798208.944,59.03504
1426798208.959,49.75573
1426798208.975,41.402824
1426798208.99,35.181076
1426798209.006,30.814621
1426798209.022,26.872238
1426798209.037,21.702408
1426798209.053,14.376205
1426798209.069,5.240326
1426798209.084,-4.2558136
1426798209.1,-12.309433
1426798209.115,-17.564987
1426798209.131,-19.84114
1426798209.147,-19.960938
1426798209.162,-19.295929
1426798209.178,-19.03334
1426798209.194,-19.560196
1426798209.209,-20.360336
1426798209.225,-20.502426
1426798209.24,-19.240326
1426798209.256,-16.518845
1426798209.272,-13.085388
1426798209.287,-9.990311
1426798209.303,-7.9557037
1426798209.319,-6.891739
1426798209.334,-5.910843
1426798209.35,-3.8050842
1426798209.365,0.18745422
1426798209.381,5.8281403
1426798209.397,11.977402
1426798209.412,17.119202
1426798209.428,20.189407
1426798209.444,21.28302
1426798209.459,21.684525
1426798209.475,23.300964
1426798209.49,27.717438
1426798209.506,35.23256
1426798209.522,44.646362
1426798209.537,53.742783
1426798209.553,60.202713
1426798209.569,62.60089
1426798209.584,60.92845
1426798209.6,56.271484
1426798209.615,50.061844
1426798209.631,43.188538
1426798209.647,35.66916
1426798209.662,26.913177
1426798209.678,16.406143
1426798209.694,4.378311
1426798209.709,-7.990631
1426798209.725,-19.017715
1426798209.74,-27.233078
1426798209.756,-32.10565
1426798209.772,-34.15126
1426798209.787,-34.593628
1426798209.803,-34.648895
1426798209.819,-34.876205
1426798209.834,-35.008606
1426798209.85,-34.223206
1426798209.865,-31.732483
1426798209.881,-27.423462
1426798209.897,-21.989258
1426798209.912,-16.675186
1426798209.928,-12.626144
1426798209.944,-10.318665
1426798209.959,-9.222916
1426798209.975,-8.087723
1426798209.99,-5.5691223
1426798210.006,-1.0239105
1426798210.022,5.162613
1426798210.037,11.80513
1426798210.053,17.54654
1426798210.069,21.61081
1426798210.084,24.233017
1426798210.1,26.477219
1426798210.115,29.646957
1426798210.131,34.49829
1426798210.147,40.92978
1426798210.162,48.110153
1426798210.178,54.98761
1426798210.194,60.918243
1426798210.209,65.83748
1426798210.225,70.0636
1426798210.24,73.765305
1426798210.256,76.511826
1426798210.272,77.23428
1426798210.287,74.723526
1426798210.303,68.21677
1426798210.319,57.934174
1426798210.334,45.082108
1426798210.35,31.369019
1426798210.365,18.39804
1426798210.381,6.947159
1426798210.397,-3.0779572
1426798210.412,-12.384842
1426798210.428,-21.631683
1426798210.444,-30.922546
1426798210.459,-39.55493
1426798210.475,-46.33362
1426798210.49,-50.173706
1426798210.506,-50.75447
1426798210.522,-48.756622
1426798210.537,-45.59674
1426798210.553,-42.748093
1426798210.569,-41.053177
1426798210.584,-40.355423
1426798210.6,-39.72368
1426798210.615,-38.023346
1426798210.631,-34.71353
1426798210.647,-30.11522
1426798210.662,-25.242645
1426798210.678,-21.172882
1426798210.694,-18.395737
1426798210.709,-16.472244
1426798210.725,-14.266541
1426798210.74,-10.532501
1426798210.756,-4.6538544
1426798210.772,2.974411
1426798210.787,11.188446
1426798210.803,18.6259
1426798210.819,24.436798
1426798210.834,28.812195
1426798210.85,32.811417
1426798210.865,37.772934
1426798210.881,44.450806
1426798210.897,52.47763
1426798210.912,60.306625
1426798210.928,65.928604
1426798210.944,67.72719
1426798210.959,65.188
1426798210.975,59.034386
1426798210.99,50.7089
1426798211.006,41.47999
1426798211.022,31.815025
1426798211.037,21.338615
1426798211.053,9.346184
1426798211.069,-4.419815
1426798211.084,-19.237198
1426798211.1,-33.504524
1426798211.116,-45.359642
1426798211.131,-53.552322
1426798211.147,-58.028522
1426798211.162,-59.79628
1426798211.178,-60.304646
1426798211.194,-60.711033
1426798211.209,-61.222958
1426798211.225,-61.272312
1426798211.24,-59.88893
1426798211.256,-56.457153
1426798211.272,-51.20655
1426798211.287,-45.156246
1426798211.303,-39.632366
1426798211.319,-35.65603
1426798211.334,-33.402237
1426798211.35,-32.135387
1426798211.366,-30.611145
1426798211.381,-27.737774
1426798211.397,-23.037125
1426798211.412,-16.94574
1426798211.428,-10.418518
1426798211.444,-4.4976273
1426798211.459,0.3446808
1426798211.475,4.351425
1426798211.491,8.329521
1426798211.506,13.147575
1426798211.522,19.15963
1426798211.537,26.11258
1426798211.553,33.329674
1426798211.569,40.13555
1426798211.584,46.284233
1426798211.6,51.918907
1426798211.616,57.249184
1426798211.631,62.088875
1426798211.647,65.54373
1426798211.662,66.27899
1426798211.678,63.081657
1426798211.694,55.45172
1426798211.709,44.03913
1426798211.725,30.377525
1426798211.741,16.321884
1426798211.756,3.329319
1426798211.772,-8.054916
1426798211.787,-18.132404
1426798211.803,-27.610836
1426798211.819,-37.000416
1426798211.834,-46.19907
1426798211.85,-54.39724
1426798211.866,-60.453342
1426798211.881,-63.526073
1426798211.897,-63.527653
1426798211.912,-61.24557
1426798211.928,-57.963417
1426798211.944,-54.926243
1426798211.959,-52.652267
1426798211.975,-50.853046
1426798211.991,-48.652412
1426798212.006,-45.234035
1426798212.022,-40.45743
1426798212.037,-34.97151
1426798212.053,-29.87621
1426798212.069,-26.071442
1426798212.084,-23.626587
1426798212.1,-21.66957
1426798212.116,-18.824299
1426798212.131,-13.930382
1426798212.147,-6.8036118
1426798212.162,1.6727257
1426798212.178,9.98074
1426798212.194,16.74379
1426798212.209,21.491673
1426798212.225,24.960255
1426798212.241,28.64014
1426798212.256,34.084816
1426798212.272,41.96801
1426798212.287,51.774914
1426798212.303,61.891884
1426798212.319,70.33518
1426798212.334,75.490234
1426798212.35,76.65166
1426798212.366,74.13272
1426798212.381,68.85664
1426798212.397,61.713276
1426798212.412,53.057083
1426798212.428,42.847298
1426798212.444,30.814281
1426798212.459,17.14785
1426798212.475,2.7407532
1426798212.491,-10.9753
1426798212.506,-22.549702
1426798212.522,-31.179256
1426798212.537,-37.03112
1426798212.553,-40.9902
1426798212.569,-44.123436
1426798212.584,-47.044323
1426798212.6,-49.537006
1426798212.616,-50.782387
1426798212.631,-49.905384
1426798212.647,-46.622463
1426798212.662,-41.49152
1426798212.678,-35.739525
1426798212.694,-30.746128
1426798212.709,-27.342537
1426798212.725,-25.47163
1426798212.741,-24.22837
1426798212.756,-22.35102
1426798212.772,-18.91689
1426798212.787,-13.784149
1426798212.803,-7.6499863
1426798212.819,-1.6273918
1426798212.834,3.4276085
1426798212.85,7.403881
1426798212.866,10.908119
1426798212.881,14.836418
1426798212.897,19.774788
1426798212.912,25.480804
1426798212.928,31.147625
1426798212.944,35.935513
1426798212.959,39.606415
1426798212.975,42.85263
1426798212.991,46.98026
1426798213.006,53.0174
1426798213.022,60.93744
1426798213.037,69.311745
1426798213.053,75.83998
1426798213.069,78.25208
1426798213.084,75.32834
1426798213.1,67.390236
1426798213.116,56.03211
1426798213.131,43.28496
1426798213.147,30.643753
1426798213.162,18.553818
1426798213.178,6.58654
1426798213.194,-6.014267
1426798213.209,-19.498016
1426798213.225,-33.180943
1426798213.241,-45.57003
1426798213.256,-54.99859
1426798213.272,-60.41084
1426798213.287,-61.87662
1426798213.303,-60.53466
1426798213.319,-58.02002
1426798213.334,-55.71431
1426798213.35,-54.096886
1426798213.366,-52.67284
1426798213.381,-50.46585
1426798213.397,-46.770336
1426798213.412,-41.69906
1426798213.428,-36.199017
1426798213.444,-31.539448
1426798213.459,-28.584845
1426798213.475,-27.263395
1426798213.491,-26.528862
1426798213.506,-24.871557
1426798213.522,-21.122934
1426798213.537,-15.109156
1426798213.553,-7.632165
1426798213.569,-0.12128639
1426798213.584,6.1815853
1426798213.6,10.825322
1426798213.616,14.39552
1426798213.631,18.063368
1426798213.647,22.975178
1426798213.662,29.5979
1426798213.678,37.60274
1426798213.694,46.065014
1426798213.709,53.99481
1426798213.725,60.751595
1426798213.741,66.148224
1426798213.756,70.213646
1426798213.772,72.73828
1426798213.787,73.13606
1426798213.803,70.51663
1426798213.819,64.13991
1426798213.834,53.91156
1426798213.85,40.616535
1426798213.866,25.743763
1426798213.881,10.985672
1426798213.897,-2.392446
1426798213.912,-13.986147
1426798213.928,-24.164446
1426798213.944,-33.72465
1426798213.959,-43.206688
1426798213.975,-52.470455
1426798213.991,-60.671753
1426798214.006,-66.620026
1426798214.022,-69.45939
1426798214.038,-69.2282
1426798214.053,-66.84851
1426798214.069,-63.714226
1426798214.084,-60.99899
1426798214.1,-59.07305
1426798214.116,-57.344173
1426798214.131,-54.77025
1426798214.147,-50.55967
1426798214.163,-44.766815
1426798214.178,-38.254265
1426798214.194,-32.289555
1426798214.209,-27.751812
1426798214.225,-24.61164
1426798214.241,-21.924652
1426798214.256,-18.303228
1426798214.272,-12.771625
1426798214.288,-5.304598
1426798214.303,3.1322784
1426798214.319,11.079745
1426798214.334,17.301205
1426798214.35,21.501474
1426798214.366,24.472883
1426798214.381,27.634327
1426798214.397,32.442234
1426798214.413,39.580605
1426798214.428,48.65156
1426798214.444,58.351845
1426798214.459,66.924576
1426798214.475,72.89129
1426798214.491,75.521454
1426798214.506,74.92891
1426798214.522,71.73091
1426798214.538,66.49373
1426798214.553,59.361347
1426798214.569,50.065826
1426798214.584,38.277462
1426798214.6,24.178947
1426798214.616,8.706413
1426798214.631,-6.6139383
1426798214.647,-20.222012
1426798214.663,-31.284002
1426798214.678,-39.892742
1426798214.694,-46.88792
1426798214.709,-53.161797
1426798214.725,-58.974964
1426798214.741,-63.737606
1426798214.756,-66.33131
1426798214.772,-65.82031
1426798214.788,-62.17884
1426798214.803,-56.52413
1426798214.819,-50.55585
1426798214.834,-45.870884
1426798214.85,-43.17921
1426798214.866,-41.94557
1426798214.881,-40.86786
1426798214.897,-38.588066
1426798214.913,-34.524384
1426798214.928,-29.141462
1426798214.944,-23.591602
1426798214.959,-19.027308
1426798214.975,-15.841024
1426798214.991,-13.457332
1426798215.006,-10.659546
1426798215.022,-6.305641
1426798215.038,-0.055805683
1426798215.053,7.4733715
1426798215.069,15.052596
1426798215.084,21.520641
1426798215.1,26.51436
1426798215.116,30.659595
1426798215.131,35.23111
1426798215.147,41.48078
1426798215.163,49.823708
1426798215.178,59.512775
1426798215.194,68.824486
1426798215.209,75.78344
1426798215.225,78.97205
1426798215.241,78.081985
1426798215.256,73.876755
1426798215.272,67.64155
1426798215.288,60.43424
1426798215.303,52.540054
1426798215.319,43.52089
1426798215.334,32.69682
1426798215.35,19.821774
1426798215.366,5.559538
1426798215.381,-8.655509
1426798215.397,-21.128078
1426798215.413,-30.741472
1426798215.428,-37.34401
1426798215.444,-41.6839
1426798215.459,-44.86548
1426798215.475,-47.64442
1426798215.491,-49.99679
1426798215.506,-51.238174
1426798215.522,-50.51559
1426798215.538,-47.526688
1426798215.553,-42.89485
1426798215.569,-37.93839
1426798215.584,-34.085022
1426798215.6,-32.0476
1426798215.616,-31.453606
1426798215.631,-31.014748
1426798215.647,-29.286304
1426798215.663,-25.484076
1426798215.678,-19.867264
1426798215.694,-13.575775
1426798215.709,-7.8733253
1426798215.725,-3.4077797
1426798215.741,0.12635422
1426798215.756,3.7151299
1426798215.772,8.402725
1426798215.788,14.565666
1426798215.803,21.68665
1426798215.819,28.719337
1426798215.834,34.705845
1426798215.85,39.348488
1426798215.866,43.24534
1426798215.881,47.514313
1426798215.897,53.11956
1426798215.913,60.227448
1426798215.928,67.89723
1426798215.944,74.336975
1426798215.959,77.57997
1426798215.975,76.31973
1426798215.991,70.45827
1426798216.006,61.053444
1426798216.022,49.792564
1426798216.038,38.15294
1426798216.053,26.817928
1426798216.069,15.58562
1426798216.084,3.8358374
1426798216.1,-8.795381
1426798216.116,-21.905483
1426798216.131,-34.320107
1426798216.147,-44.600166
1426798216.163,-51.771732
1426798216.178,-55.765366
1426798216.194,-57.393955
1426798216.209,-57.920307
1426798216.225,-58.346077
1426798216.241,-58.915604
1426798216.256,-59.15192
1426798216.272,-58.23793
1426798216.288,-55.61113
1426798216.303,-51.470764
1426798216.319,-46.77452
1426798216.334,-42.76305
1426798216.35,-40.323093
1426798216.366,-39.411797
1426798216.381,-38.995846
1426798216.397,-37.56585
1426798216.413,-33.95048
1426798216.428,-27.939648
1426798216.444,-20.388813
1426798216.459,-12.741927
1426798216.475,-6.263484
1426798216.491,-1.3620434
1426798216.506,2.5836687
1426798216.522,6.7371798
1426798216.538,12.085583
1426798216.553,18.814102
1426798216.569,26.292923
1426798216.584,33.517715
1426798216.6,39.791943
1426798216.616,45.18895
1426798216.631,50.463715
1426798216.647,56.48057
1426798216.663,63.42649
1426798216.678,70.39882
1426798216.694,75.59856
1426798216.71,77.06727
1426798216.725,73.55935
1426798216.741,65.20853
1426798216.756,53.447792
1426798216.772,40.35032
1426798216.788,27.781605
1426798216.803,16.647213
1426798216.819,6.8078213
1426798216.835,-2.5651722
1426798216.85,-12.273703
1426798216.866,-22.43303
1426798216.881,-32.270554
1426798216.897,-40.451565
1426798216.913,-45.754745
1426798216.928,-47.7471
1426798216.944,-47.056828
1426798216.96,-45.080112
1426798216.975,-43.275284
1426798216.991,-42.474728
1426798217.006,-42.43007
1426798217.022,-42.1357
1426798217.038,-40.467358
1426798217.053,-36.98179
1426798217.069,-32.298546
1426798217.085,-27.73866
1426798217.1,-24.61512
1426798217.116,-23.393126
1426798217.131,-23.394947
1426798217.147,-23.101934
1426798217.163,-21.061718
1426798217.178,-16.679207
1426798217.194,-10.555939
1426798217.21,-4.1486893
1426798217.225,1.0764818
1426798217.241,4.41273
1426798217.256,6.331273
1426798217.272,8.085396
1426798217.288,11.038751
1426798217.303,15.850146
1426798217.319,22.251709
1426798217.335,29.272291
1426798217.35,35.77
1426798217.366,41.018173
1426798217.381,44.982285
1426798217.397,48.02913
1426798217.413,50.387737
1426798217.428,51.716766
1426798217.444,50.984074
1426798217.46,46.929657
1426798217.475,38.76263
1426798217.491,26.712166
1426798217.506,12.225403
1426798217.522,-2.547676
1426798217.538,-15.607571
1426798217.553,-25.96761
1426798217.569,-33.91684
1426798217.585,-40.657074
1426798217.6,-47.41001
1426798217.616,-54.615273
1426798217.631,-61.545288
1426798217.647,-66.70709
1426798217.663,-68.71229
1426798217.678,-67.13875
1426798217.694,-62.81955
1426798217.71,-57.41572
1426798217.725,-52.631886
1426798217.741,-49.34781
1426798217.756,-47.307667
1426798217.772,-45.40111
1426798217.788,-42.438427
1426798217.803,-37.899933
1426798217.819,-32.27404
1426798217.835,-26.703342
1426798217.85,-22.360909
1426798217.866,-19.70797
1426798217.881,-18.223717
1426798217.897,-16.63406
1426798217.913,-13.598911
1426798217.928,-8.478424
1426798217.944,-1.6510048
1426798217.96,5.6791153
1426798217.975,12.223549
1426798217.991,17.262299
1426798218.006,21.09108
1426798218.022,24.76564
1426798218.038,29.512207
1426798218.053,36.0073
1426798218.069,44.032608
1426798218.085,52.624054
1426798218.1,60.590454
1426798218.116,67.05335
1426798218.131,71.77043
1426798218.147,74.990135
1426798218.163,77.04462
1426798218.178,77.83489
1426798218.194,76.68249
1426798218.21,72.670204
1426798218.225,65.04517
1426798218.241,53.78041
1426798218.256,39.78076
1426798218.272,24.637428
1426798218.288,10.069542
1426798218.303,-2.6945267
1426798218.319,-13.297562
1426798218.335,-22.104706
1426798218.35,-29.77385
1426798218.366,-36.659477
1426798218.381,-42.557022
1426798218.397,-46.760017
1426798218.413,-48.523026
1426798218.428,-47.652878
1426798218.444,-44.703644
1426798218.46,-40.87143
1426798218.475,-37.415947
1426798218.491,-35.135414
1426798218.506,-33.97361
1426798218.522,-33.099342
1426798218.538,-31.436447
1426798218.553,-28.271255
1426798218.569,-23.663406
1426798218.585,-18.404358
1426798218.6,-13.547684
1426798218.616,-9.734009
1426798218.631,-6.7561035
1426798218.647,-3.6557312
1426798218.663,0.7723236
1426798218.678,7.22052
1426798218.694,15.292145
1426798218.71,23.66217
1426798218.725,30.749588
1426798218.741,35.53322
1426798218.756,38.232742
1426798218.772,40.156525
1426798218.788,43.046875
1426798218.803,48.119812
1426798218.819,55.378403
1426798218.835,63.645615
1426798218.85,71.121445
1426798218.866,76.277054
1426798218.881,78.46515
1426798218.897,78.01091
1426798218.913,75.75964
1426798218.928,72.38997
1426798218.944,67.952896
1426798218.96,61.869675
1426798218.975,53.360992
1426798218.991,42.093796
1426798219.006,28.599335
1426798219.022,14.2929535
1426798219.038,0.8902588
1426798219.053,-10.215408
1426798219.069,-18.521622
1426798219.085,-24.505783
1426798219.1,-29.166725
1426798219.116,-33.379326
1426798219.131,-37.359154
1426798219.147,-40.558617
1426798219.163,-42.060524
1426798219.178,-41.192444
1426798219.194,-38.05995
1426798219.21,-33.58986
1426798219.225,-29.127045
1426798219.241,-25.853485
1426798219.256,-24.19587
1426798219.272,-23.674873
1426798219.288,-23.254051
1426798219.303,-21.880447
1426798219.319,-19.102058
1426798219.335,-15.22451
1426798219.35,-11.117249
1426798219.366,-7.6420593
1426798219.382,-5.1101074
1426798219.397,-3.0664215
1426798219.413,-0.53034973
1426798219.428,3.3792877
1426798219.444,8.895149
1426798219.46,15.466011
1426798219.475,22.048973
1426798219.491,27.699928
1426798219.507,32.169136
1426798219.522,36.110626
1426798219.538,40.670303
1426798219.553,46.810684
1426798219.569,54.57254
1426798219.585,62.81839
1426798219.6,69.57494
1426798219.616,72.82014
1426798219.632,71.38653
1426798219.647,65.44887
1426798219.663,56.355553
1426798219.678,45.96039
1426798219.694,35.68401
1426798219.71,25.951508
1426798219.725,16.2873
1426798219.741,5.862377
1426798219.757,-5.7548714
1426798219.772,-18.077404
1426798219.788,-29.874416
1426798219.803,-39.740986
1426798219.819,-46.8944
1426798219.835,-51.478962
1426798219.85,-54.43393
1426798219.866,-56.879784
1426798219.882,-59.3924
1426798219.897,-61.687447
1426798219.913,-62.79209
1426798219.928,-61.67968
1426798219.944,-58.027523
1426798219.96,-52.528297
1426798219.975,-46.601856
1426798219.991,-41.750908
1426798220.007,-38.738552
1426798220.022,-37.216846
1426798220.038,-35.969574
1426798220.053,-33.60848
1426798220.069,-29.407358
1426798220.085,-23.622688
1426798220.1,-17.291458
1426798220.116,-11.672281
1426798220.132,-7.398099
1426798220.147,-4.185232
1426798220.163,-1.0652561
1426798220.178,3.034265
1426798220.194,8.596338
1426798220.21,15.324086
1426798220.225,22.298979
1426798220.241,28.68166
1426798220.257,34.16213
1426798220.272,39.18798
1426798220.288,44.588867
1426798220.303,50.95101
1426798220.319,57.999306
1426798220.335,64.49274
1426798220.35,68.6795
1426798220.366,68.94324
1426798220.382,64.62481
1426798220.397,56.31408
1426798220.413,45.567673
1426798220.428,34.166237
1426798220.444,23.317562
1426798220.46,13.244179
1426798220.475,3.3551083
1426798220.491,-7.1033154
1426798220.507,-18.380383
1426798220.522,-29.743753
1426798220.538,-39.79859
1426798220.553,-47.055454
1426798220.569,-50.85092
1426798220.585,-51.63932
1426798220.6,-50.79421
1426798220.616,-49.966923
1426798220.632,-50.17272
1426798220.647,-51.354717
1426798220.663,-52.49523
1426798220.678,-52.29269
1426798220.694,-50.00816
1426798220.71,-45.948124
1426798220.725,-41.305065
1426798220.741,-37.467316
1426798220.757,-35.25762
1426798220.772,-34.34279
1426798220.788,-33.469063
1426798220.803,-31.108524
1426798220.819,-26.34974
1426798220.835,-19.412971
1426798220.85,-11.46867
1426798220.866,-3.9869995
1426798220.882,2.0457497
1426798220.897,6.6564255
1426798220.913,10.757397
1426798220.928,15.53709
1426798220.944,21.717087
1426798220.96,29.182499
1426798220.975,37.09639
1426798220.991,44.394924
1426798221.007,50.345184
1426798221.022,54.850563
1426798221.038,58.202827
1426798221.053,60.733997
1426798221.069,62.311413
1426798221.085,62.204628
1426798221.1,59.410423
1426798221.116,53.16385
1426798221.132,43.37312
1426798221.147,30.885979
1426798221.163,17.19281
1426798221.178,3.9621048
1426798221.194,-7.628853
1426798221.21,-17.22776
1426798221.225,-25.231186
1426798221.241,-32.35434
1426798221.257,-39.104736
1426798221.272,-45.354218
1426798221.288,-50.394257
1426798221.303,-53.340607
1426798221.319,-53.71569
1426798221.335,-51.84046
1426798221.35,-48.71302
1426798221.366,-45.560318
1426798221.382,-43.23607
1426798221.397,-41.856667
1426798221.413,-40.861763
1426798221.428,-39.425774
1426798221.444,-36.962364
1426798221.46,-33.51571
1426798221.475,-29.658363
1426798221.491,-26.146751
1426798221.507,-23.491035
1426798221.522,-21.543816
1426798221.538,-19.593819
1426798221.553,-16.746925
1426798221.569,-12.384094
1426798221.585,-6.5863266
1426798221.6,-0.18156433
1426798221.616,5.7083054
1426798221.632,10.143593
1426798221.647,13.000175
1426798221.663,15.052322
1426798221.678,17.66745
1426798221.694,22.052845
1426798221.71,28.555576
1426798221.725,36.3689
1426798221.741,43.83712
1426798221.757,49.150112
1426798221.772,51.189205
1426798221.788,49.90663
1426798221.803,46.12028
1426798221.819,40.9535
1426798221.835,35.05721
1426798221.85,28.353783
1426798221.866,20.234016
1426798221.882,10.107697
1426798221.897,-1.9361839
1426798221.913,-14.931793
1426798221.928,-27.369362
1426798221.944,-37.84758
1426798221.96,-45.686695
1426798221.975,-51.195065
1426798221.991,-55.32515
1426798222.007,-59.120403
1426798222.022,-63.05194
1426798222.038,-66.80252
1426798222.054,-69.548386
1426798222.069,-70.51224
1426798222.085,-69.550835
1426798222.1,-67.26515
1426798222.116,-64.796234
1426798222.132,-63.18679
1426798222.147,-62.915764
1426798222.163,-63.623566
1426798222.178,-64.359406
1426798222.194,-64.15514
1426798222.21,-62.586445
1426798222.225,-59.997116
1426798222.241,-57.217896
1426798222.257,-55.138218
1426798222.272,-54.09725
1426798222.288,-53.66456
1426798222.304,-52.92099
1426798222.319,-50.910652
1426798222.335,-47.211098
1426798222.35,-42.14607
1426798222.366,-36.519176
1426798222.382,-31.035728
1426798222.397,-25.78611
1426798222.413,-20.028603
1426798222.429,-12.534828
1426798222.444,-2.3671188
1426798222.46,10.3971405
1426798222.475,24.385902
1426798222.491,37.39724
1426798222.507,47.21296
1426798222.522,52.554184
1426798222.538,53.593384
1426798222.554,51.68515
1426798222.569,48.600403
1426798222.585,45.588463
1426798222.6,42.86161
1426798222.616,39.700165
1426798222.632,35.098602
1426798222.647,28.603058
1426798222.663,20.75978
1426798222.679,12.943436
1426798222.694,6.736206
1426798222.71,3.0852966
1426798222.725,1.843338
1426798222.741,1.9436646
1426798222.757,2.0117493
1426798222.772,1.1525421
1426798222.788,-0.48931885
1426798222.804,-1.907608
1426798222.819,-1.8738708
1426798222.835,0.24105835
1426798222.85,4.004318
1426798222.866,8.109055
1426798222.882,11.118011
1426798222.897,12.298523
1426798222.913,12.011063
1426798222.929,11.545853
1426798222.944,12.303497
1426798222.96,14.949997
1426798222.975,19.053574
1426798222.991,23.363342
1426798223.007,26.602722
1426798223.022,28.281647
1426798223.038,29.061829
1426798223.054,30.423065
1426798223.069,33.805817
1426798223.085,39.79648
1426798223.1,47.796448
1426798223.116,56.39395
1426798223.132,64.0647
1426798223.147,69.91324
1426798223.163,74.03552
1426798223.179,77.145325
1426798223.194,79.878174
1426798223.21,82.15912
1426798223.225,83.02179
1426798223.241,81.06842
1426798223.257,75.251495
1426798223.272,65.52005
1426798223.288,53.04013
1426798223.304,39.71237
1426798223.319,27.36612
1426798223.335,17.019867
1426798223.35,8.604858
1426798223.366,1.2973633
1426798223.382,-5.8612976
1426798223.397,-13.22467
1426798223.413,-20.337738
1426798223.429,-26.185028
1426798223.444,-29.828308
1426798223.46,-30.963684
1426798223.475,-30.140991
1426798223.491,-28.398193
1426798223.507,-26.803009
1426798223.522,-25.931244
1426798223.538,-25.553741
1426798223.554,-24.913544
1426798223.569,-23.201202
1426798223.585,-20.088684
1426798223.6,-15.969208
1426798223.616,-11.727295
1426798223.632,-8.298889
1426798223.647,-6.0992737
1426798223.663,-4.7093506
1426798223.679,-3.0068665
1426798223.694,0.24084473
1426798223.71,5.683075
1426798223.725,12.923553
1426798223.741,20.670715
1426798223.757,27.36618
1426798223.772,32.052704
1426798223.788,34.946045
1426798223.804,37.3349
1426798223.819,40.8049
1426798223.835,46.278778
1426798223.85,53.297607
1426798223.866,60.163605
1426798223.882,64.68677
1426798223.897,65.16797
1426798223.913,61.17154
1426798223.929,53.608826
1426798223.944,44.118866
1426798223.96,34.25647
1426798223.975,24.773468
1426798223.991,15.553741
1426798224.007,5.9852295
1426798224.022,-4.4010315
1426798224.038,-15.389038
1426798224.054,-25.980042
1426798224.069,-34.814575
1426798224.085,-40.797516
1426798224.1,-43.691315
1426798224.116,-44.21811
1426798224.132,-43.66568
1426798224.147,-43.24414
1426798224.163,-43.39987
1426798224.179,-43.681763
1426798224.194,-43.07367
1426798224.21,-40.709534
1426798224.225,-36.49228
1426798224.241,-31.200409
1426798224.257,-26.169647
1426798224.272,-22.498291
1426798224.288,-20.472565
1426798224.304,-19.358582
1426798224.319,-17.893005
1426798224.335,-14.823914
1426798224.35,-9.752136
1426798224.366,-3.2839966
1426798224.382,3.3256226
1426798224.397,8.78949
1426798224.413,12.545929
1426798224.429,14.985413
1426798224.444,17.250916
1426798224.46,20.582184
1426798224.475,25.647614
1426798224.491,32.19211
1426798224.507,39.21347
1426798224.522,45.477203
1426798224.538,50.15857
1426798224.554,53.147095
1426798224.569,54.85437
1426798224.585,55.81848
1426798224.6,56.087708
1426798224.616,55.11197
1426798224.632,52.00766
1426798224.647,46.04895
1426798224.663,37.232513
1426798224.679,26.389954
1426798224.694,14.905182
1426798224.71,4.1322937
1426798224.725,-5.2520447
1426798224.741,-13.351379
1426798224.757,-20.848816
1426798224.772,-28.36905
1426798224.788,-35.964905
1426798224.804,-42.86554
1426798224.819,-47.9451
1426798224.835,-50.191772
1426798224.85,-49.37567
1426798224.866,-46.218475
1426798224.882,-42.065445
1426798224.897,-38.297882
1426798224.913,-35.62686
1426798224.929,-33.895264
1426798224.944,-32.287292
1426798224.96,-29.901535
1426798224.976,-26.361755
1426798224.991,-22.043655
1426798225.007,-17.846878
1426798225.022,-14.589752
1426798225.038,-12.518036
1426798225.054,-11.051346
1426798225.069,-9.12117
1426798225.085,-5.714859
1426798225.101,-0.55636597
1426798225.116,5.7923126
1426798225.132,12.206528
1426798225.147,17.653076
1426798225.163,21.829865
1426798225.179,25.3965
1426798225.194,29.630539
1426798225.21,35.69339
1426798225.226,43.872498
1426798225.241,53.221313
1426798225.257,61.837814
1426798225.272,67.617355
1426798225.288,69.094406
1426798225.304,66.118744
1426798225.319,59.665863
1426798225.335,51.312393
1426798225.351,42.320206
1426798225.366,33.08226
1426798225.382,23.222305
1426798225.397,12.094879
1426798225.413,-0.47003174
1426798225.429,-13.720886
1426798225.444,-26.227158
1426798225.46,-36.4617
1426798225.476,-43.53508
1426798225.491,-47.583786
1426798225.507,-49.553772
1426798225.522,-50.630737
1426798225.538,-51.550278
1426798225.554,-52.26918
1426798225.569,-52.13803
1426798225.585,-50.38463
1426798225.601,-46.77913
1426798225.616,-41.897217
1426798225.632,-36.92717
1426798225.647,-33.08586
1426798225.663,-30.98059
1426798225.679,-30.227707
1426798225.694,-29.649231
1426798225.71,-27.860184
1426798225.726,-24.021606
1426798225.741,-18.25061
1426798225.757,-11.533432
1426798225.772,-5.114853
1426798225.788,0.15553284
1426798225.804,4.2974396
1426798225.819,8.084793
1426798225.835,12.548553
1426798225.851,18.376984
1426798225.866,25.51706
1426798225.882,33.244278
1426798225.897,40.599075
1426798225.913,46.7984
1426798225.929,51.61052
1426798225.944,55.26799
1426798225.96,58.095474
1426798225.976,60.081467
1426798225.991,60.639404
1426798226.007,58.75876
1426798226.022,53.51213
1426798226.038,44.62935
1426798226.054,32.86943
1426798226.069,19.807281
1426798226.085,7.247284
1426798226.101,-3.5421753
1426798226.116,-12.332657
1426798226.132,-19.828064
1426798226.147,-27.035233
1426798226.163,-34.53691
1426798226.179,-41.967697
1426798226.194,-48.155563
1426798226.21,-51.743477
1426798226.226,-51.990303
1426798226.241,-49.27176
1426798226.257,-44.94213
1426798226.272,-40.6644
1426798226.288,-37.64572
1426798226.304,-36.06183
1426798226.319,-35.079094
1426798226.335,-33.520973
1426798226.351,-30.576096
1426798226.366,-26.296364
1426798226.382,-21.595383
1426798226.397,-17.545395
1426798226.413,-14.763153
1426798226.429,-12.949295
1426798226.444,-11.004913
1426798226.46,-7.684616
1426798226.476,-2.3073273
1426798226.491,4.7881927
1426798226.507,12.455261
1426798226.522,19.31192
1426798226.538,24.499023
1426798226.554,28.147507
1426798226.569,31.314514
1426798226.585,35.40901
1426798226.601,41.417786
1426798226.616,49.264725
1426798226.632,57.686783
1426798226.647,64.70958
1426798226.663,68.39058
1426798226.679,67.7426
1426798226.694,63.011322
1426798226.71,55.50621
1426798226.726,46.876778
1426798226.741,38.216698
1426798226.757,29.69648
1426798226.772,20.699883
1426798226.788,10.43145
1426798226.804,-1.3154602
1426798226.819,-13.693047
1426798226.835,-25.105873
1426798226.851,-33.929176
1426798226.866,-39.30506
1426798226.882,-41.598907
1426798226.897,-42.06481
1426798226.913,-42.17491
1426798226.929,-42.74601
1426798226.944,-43.60771
1426798226.96,-43.769524
1426798226.976,-42.194763
1426798226.991,-38.580284
1426798227.007,-33.618187
1426798227.022,-28.688354
1426798227.038,-25.113579
1426798227.054,-23.392075
1426798227.069,-22.859413
1426798227.085,-22.104988
1426798227.101,-19.689873
1426798227.116,-14.994118
1426798227.132,-8.485123
1426798227.147,-1.4387512
1426798227.163,4.7833786
1426798227.179,9.484253
1426798227.194,12.990845
1426798227.21,16.405228
1426798227.226,20.975906
1426798227.241,27.373314
1426798227.257,35.338234
1426798227.272,43.881813
1426798227.288,51.71974
1426798227.304,57.902832
1426798227.319,62.062904
1426798227.335,64.31715
1426798227.351,64.8516
1426798227.366,63.49688
1426798227.382,59.62351
1426798227.397,52.48452
1426798227.413,41.654224
1426798227.429,27.5358
1426798227.444,11.46817
1426798227.46,-4.678322
1426798227.476,-19.186924
1426798227.491,-31.169373
1426798227.507,-40.813564
1426798227.522,-49.104706
1426798227.538,-57.098175
1426798227.554,-65.28047
1426798227.569,-73.15912
1426798227.585,-79.56717
1426798227.601,-83.28194
1426798227.616,-83.76994
1426798227.632,-81.49787
1426798227.648,-77.725426
1426798227.663,-73.85238
1426798227.679,-70.72355
1426798227.694,-68.268036
1426798227.71,-65.638245
1426798227.726,-61.826523
1426798227.741,-56.29117
1426798227.757,-49.300163
1426798227.773,-41.70276
1426798227.788,-34.417645
1426798227.804,-27.841972
1426798227.819,-21.612759
1426798227.835,-14.837273
1426798227.851,-6.6534004
1426798227.866,3.138668
1426798227.882,13.8533325
1426798227.898,24.292057
1426798227.913,33.31089
1426798227.929,40.518024
1426798227.944,46.516033
1426798227.96,52.51933
1426798227.976,59.646397
1426798227.991,68.18031
1426798228.007,77.22115
1426798228.023,84.952545
1426798228.038,89.38122
1426798228.054,89.16886
1426798228.069,84.17632
1426798228.085,75.44052
1426798228.101,64.58313
1426798228.116,53.04642
1426798228.132,41.579655
1426798228.148,30.134666
1426798228.163,18.235039
1426798228.179,5.6177483
1426798228.194,-7.30492
1426798228.21,-19.40464
1426798228.226,-29.264137
1426798228.241,-35.868057
1426798228.257,-39.105366
1426798228.273,-39.82787
1426798228.288,-39.384136
1426798228.304,-38.965294
1426798228.319,-38.944687
1426798228.335,-38.87085
1426798228.351,-37.870052
1426798228.366,-35.30748
1426798228.382,-31.40401
1426798228.398,-27.119514
1426798228.413,-23.71045
1426798228.429,-21.954391
1426798228.444,-21.610798
1426798228.46,-21.408058
1426798228.476,-19.707897
1426798228.491,-15.354874
1426798228.507,-8.351509
1426798228.523,0.15596771
1426798228.538,8.467312
1426798228.554,15.175051
1426798228.569,19.932592
1426798228.585,23.535185
1426798228.601,27.47435
1426798228.616,33.08925
1426798228.632,40.92958
1426798228.648,50.501312
1426798228.663,60.58144
1426798228.679,69.79594
1426798228.694,77.14399
1426798228.71,82.29035
1426798228.726,85.356125
1426798228.741,86.613594
1426798228.757,86.0201
1426798228.773,83.20032
1426798228.788,77.70154
1426798228.804,69.34655
1426798228.819,58.715096
1426798228.835,47.161255
1426798228.851,36.492123
1426798228.866,28.313807
1426798228.882,23.447144
1426798228.898,21.696806
1426798228.913,22.140617
1426798228.929,23.77081
1426798228.944,25.985039
1426798228.96,28.818256
1426798228.976,32.552765
1426798228.991,37.20615
1426798229.007,42.069534
1426798229.023,45.815887
1426798229.038,47.01999
1426798229.054,44.784935
1426798229.069,39.285614
1426798229.085,31.65548
1426798229.101,23.46392
1426798229.116,15.944687
1426798229.132,9.442192
1426798229.148,3.3714676
1426798229.163,-3.4009323
1426798229.179,-11.786255
1426798229.194,-21.91861
1426798229.21,-32.885895
1426798229.226,-43.104706
1426798229.241,-50.92012
1426798229.257,-55.41461
1426798229.273,-56.68898
1426798229.288,-55.634445
1426798229.304,-53.267487
1426798229.319,-50.02545
1426798229.335,-45.542587
1426798229.351,-38.99582
1426798229.366,-29.962692
1426798229.382,-19.135925
1426798229.398,-8.487152
1426798229.413,-0.6745758
1426798229.429,1.9423523
1426798229.444,-1.8434296
1426798229.46,-11.623962
1426798229.476,-25.736877
1426798229.491,-41.960617
1426798229.507,-58.378723
1426798229.523,-73.80867
1426798229.538,-87.84018
1426798229.554,-100.48088
1426798229.569,-111.66698
1426798229.585,-120.95325
1426798229.601,-127.50253
1426798229.616,-130.37221
1426798229.632,-129.02725
1426798229.648,-123.67633
1426798229.663,-115.26828
1426798229.679,-105.15909
1426798229.694,-94.5112
1426798229.71,-83.79233
1426798229.726,-72.90451
1426798229.741,-61.471375
1426798229.757,-49.45993
1426798229.773,-37.35376
1426798229.788,-25.848877
1426798229.804,-15.322357
1426798229.819,-5.4236755
1426798229.835,4.9005127
1426798229.851,16.694153
1426798229.866,30.259644
1426798229.882,44.643433
1426798229.898,57.82248
1426798229.913,67.59503
1426798229.929,72.70332
1426798229.944,73.41611
1426798229.96,71.52319
1426798229.976,69.46214
1426798229.991,69.20923
1426798230.007,71.421234
1426798230.023,75.313965
1426798230.038,79.22705
1426798230.054,81.4926
1426798230.069,81.21103
1426798230.085,78.49338
1426798230.101,74.02127
1426798230.116,68.414276
1426798230.132,61.68109
1426798230.148,53.180984
1426798230.163,42.131073
1426798230.179,28.226257
1426798230.194,11.953033
1426798230.21,-5.4506836
1426798230.226,-22.532928
1426798230.241,-38.22943
1426798230.257,-52.234406
1426798230.273,-64.9892
1426798230.288,-77.197784
1426798230.304,-89.24634
1426798230.32,-100.80557
1426798230.335,-110.80444
1426798230.351,-117.90155
1426798230.366,-121.056915
1426798230.382,-120.11536
1426798230.398,-115.908936
1426798230.413,-109.8891
1426798230.429,-103.38309
1426798230.445,-96.900024
1426798230.46,-89.79892
1426798230.476,-80.67639
1426798230.491,-68.151
1426798230.507,-51.7437
1426798230.523,-32.397736
1426798230.538,-12.136627
1426798230.554,6.651291
1426798230.57,22.199707
1426798230.585,33.924652
1426798230.601,42.39621
1426798230.616,48.790222
1426798230.632,54.100403
1426798230.648,58.630875
1426798230.663,61.952698
1426798230.679,63.48993
1426798230.695,63.08928
1426798230.71,61.46132
1426798230.726,59.965027
1426798230.741,60.010468
1426798230.757,62.16838
1426798230.773,65.70749
1426798230.788,68.75923
1426798230.804,69.03914
1426798230.82,64.89925
1426798230.835,56.141052
1426798230.851,44.032486
1426798230.866,30.664963
1426798230.882,17.948486
1426798230.898,6.735794
1426798230.913,-3.3399048
1426798230.929,-13.351227
1426798230.945,-24.246124
1426798230.96,-36.064697
1426798230.976,-47.763123
1426798230.991,-57.68335
1426798231.007,-64.41963
1426798231.023,-67.600464
1426798231.038,-68.15494
1426798231.054,-67.849655
1426798231.07,-68.36064
1426798231.085,-70.33951
1426798231.101,-73.06177
1426798231.116,-74.8031
1426798231.132,-73.89725
1426798231.148,-69.66284
1426798231.163,-62.83557
1426798231.179,-55.14554
1426798231.195,-48.34001
1426798231.21,-43.236053
1426798231.226,-39.44008
1426798231.241,-35.731003
1426798231.257,-31.035812
1426798231.273,-25.181458
1426798231.288,-18.990677
1426798231.304,-13.569763
1426798231.32,-9.450027
1426798231.335,-5.8950653
1426798231.351,-1.1560516
1426798231.366,6.676674
1426798231.382,18.561165
1426798231.398,33.77191
1426798231.413,50.03531
1426798231.429,64.34202
1426798231.445,74.15683
1426798231.46,78.31917
1426798231.476,77.31383
1426798231.491,72.749306
1426798231.507,66.37713
1426798231.523,59.19374
1426798231.538,51.13266
1426798231.554,41.377922
1426798231.57,29.205376
1426798231.585,14.793503
1426798231.601,-0.4913025
1426798231.616,-14.38205
1426798231.632,-24.579254
1426798231.648,-29.647453
1426798231.663,-29.443436
1426798231.679,-25.01276
1426798231.695,-17.980713
1426798231.71,-9.735016
1426798231.726,-0.9349861
1426798231.741,8.435276
1426798231.757,18.683716
1426798231.773,29.864044
1426798231.788,41.42446
1426798231.804,52.362644
1426798231.82,61.572098
1426798231.835,68.470764
1426798231.851,73.25627
1426798231.866,76.77547
1426798231.882,79.99368
1426798231.898,83.32739
1426798231.913,86.37791
1426798231.929,88.09924
1426798231.945,87.49743
1426798231.96,84.29664
1426798231.976,79.32441
1426798231.991,74.18799
1426798232.007,70.58443
1426798232.023,69.39878
1426798232.038,70.30458
1426798232.054,72.11861
1426798232.07,73.38898
1426798232.085,73.26116
1426798232.101,71.7503
1426798232.116,69.472336
1426798232.132,67.012985
1426798232.148,64.29033
1426798232.163,60.49398
1426798232.179,54.505814
1426798232.195,45.53784
1426798232.21,33.60845
1426798232.226,19.620552
1426798232.241,4.913437
1426798232.257,-9.314812
1426798232.273,-22.414253
1426798232.288,-34.40979
1426798232.304,-45.551117
1426798232.32,-56.018875
1426798232.335,-65.54342
1426798232.351,-73.39037
1426798232.366,-78.61894
1426798232.382,-80.47597
1426798232.398,-78.88226
1426798232.413,-74.53641
1426798232.429,-68.79817
1426798232.445,-63.17906
1426798232.46,-58.780502
1426798232.476,-55.797348
1426798232.491,-53.491867
1426798232.507,-50.56453
1426798232.523,-45.84729
1426798232.538,-38.897415
1426798232.554,-30.145187
1426798232.57,-20.638367
1426798232.585,-11.451691
1426798232.601,-3.1054688
1426798232.616,4.6022797
1426798232.632,12.297806
1426798232.648,20.514313
1426798232.663,29.25116
1426798232.679,37.913544
1426798232.695,45.624344
1426798232.71,51.782333
1426798232.726,56.40634
1426798232.741,60.124863
1426798232.757,63.645737
1426798232.773,67.17688
1426798232.788,70.00099
1426798232.804,70.68234
1426798232.82,67.64949
1426798232.835,60.032196
1426798232.851,48.22711
1426798232.866,33.85211
1426798232.882,19.110413
1426798232.898,5.8175354
1426798232.913,-5.305603
1426798232.929,-14.697327
1426798232.945,-23.503174
1426798232.96,-32.71646
1426798232.976,-42.551514
1426798232.992,-52.25116
1426798233.007,-60.616425
1426798233.023,-66.64267
1426798233.038,-70.139496
1426798233.054,-71.76529
1426798233.07,-72.63931
1426798233.085,-73.70065
1426798233.101,-75.24512
1426798233.116,-76.88898
1426798233.132,-77.84235
1426798233.148,-77.51437
1426798233.163,-75.86734
1426798233.179,-73.42169
1426798233.195,-70.92746
1426798233.21,-68.875
1426798233.226,-67.163086
1426798233.242,-65.02374
1426798233.257,-61.42798
1426798233.273,-55.595978
1426798233.288,-47.58722
1426798233.304,-38.32614
1426798233.32,-29.279755
1426798233.335,-21.824585
1426798233.351,-16.56308
1426798233.367,-13.0190735
1426798233.382,-9.844299
1426798233.398,-5.5388794
1426798233.413,0.80548096
1426798233.429,9.008179
1426798233.445,17.96402
1426798233.46,26.150085
1426798233.476,32.38211
1426798233.492,36.2912
1426798233.507,38.186127
1426798233.523,38.62036
1426798233.538,37.765167
1426798233.554,35.257233
1426798233.57,30.335754
1426798233.585,22.506378
1426798233.601,12.08136
1426798233.617,0.38415527
1426798233.632,-10.644043
1426798233.648,-19.193542
1426798233.663,-24.35318
1426798233.679,-26.45456
1426798233.695,-26.749084
1426798233.71,-26.716736
1426798233.726,-27.30951
1426798233.742,-28.465637
1426798233.757,-29.360016
1426798233.773,-28.970367
1426798233.788,-26.913544
1426798233.804,-23.72528
1426798233.82,-20.658752
1426798233.835,-19.030548
1426798233.851,-19.384918
1426798233.867,-21.195465
1426798233.882,-23.056274
1426798233.898,-23.442688
1426798233.913,-21.525467
1426798233.929,-17.550919
1426798233.945,-12.586761
1426798233.96,-7.8823853
1426798233.976,-4.1620026
1426798233.992,-1.2084198
1426798234.007,1.8217163
1426798234.023,5.905426
1426798234.038,11.438675
1426798234.054,18.034332
1426798234.07,24.788925
1426798234.085,30.806839
1426798234.101,35.65619
1426798234.117,39.560516
1426798234.132,43.09903
1426798234.148,46.586426
1426798234.163,49.63173
1426798234.179,51.096878
1426798234.195,49.549988
1426798234.21,44.029053
1426798234.226,34.644073
1426798234.242,22.696106
1426798234.257,10.232346
1426798234.273,-0.7590027
1426798234.288,-9.249466
1426798234.304,-15.426346
1426798234.32,-20.353607
1426798234.335,-25.23761
1426798234.351,-30.628006
1426798234.367,-36.013702
1426798234.382,-40.158356
1426798234.398,-41.79274
1426798234.413,-40.41246
1426798234.429,-36.63556
1426798234.445,-31.892517
1426798234.46,-27.741898
1426798234.476,-25.131134
1426798234.492,-23.980469
1426798234.507,-23.38182
1426798234.523,-22.213287
1426798234.538,-19.816116
1426798234.554,-16.318787
1426798234.57,-12.548965
1426798234.585,-9.394699
1426798234.601,-7.3084106
1426798234.617,-6.0184784
1426798234.632,-4.665573
1426798234.648,-2.2879028
1426798234.663,1.6042938
1426798234.679,6.7903595
1426798234.695,12.497116
1426798234.71,17.839798
1426798234.726,22.312073
1426798234.742,26.083206
1426798234.757,29.810806
1426798234.773,34.199547
1426798234.788,39.404335
1426798234.804,44.752228
1426798234.82,48.863663
1426798234.835,50.23343
1426798234.851,47.82921
1426798234.867,41.540283
1426798234.882,32.249207
1426798234.898,21.38324
1426798234.913,10.411758
1426798234.929,0.20127106
1426798234.945,-9.057915
1426798234.96,-17.74923
1426798234.976,-26.324211
1426798234.992,-34.92955
1426798235.007,-43.1659
1426798235.023,-50.33732
1426798235.038,-55.926445
1426798235.054,-60.018936
1426798235.07,-63.359573
1426798235.085,-66.86892
1426798235.101,-70.92537
1426798235.117,-74.72494
1426798235.132,-76.38231
1426798235.148,-73.71769
1426798235.163,-65.438354
1426798235.179,-52.106415
1426798235.195,-36.15706
1426798235.21,-20.976158
1426798235.226,-9.462902
1426798235.242,-2.7536507
1426798235.257,0.097644806
1426798235.273,1.5729866
1426798235.288,4.3451004
1426798235.304,10.019192
1426798235.32,18.591873
1426798235.335,28.69849
1426798235.351,38.46709
1426798235.367,46.543324
1426798235.382,52.528812
1426798235.398,56.933342
1426798235.413,60.609795
1426798235.429,64.09276
1426798235.445,67.287766
1426798235.46,69.64642
1426798235.476,70.570526
1426798235.492,69.88479
1426798235.507,67.99834
1426798235.523,65.54463
1426798235.538,62.927097
1426798235.554,59.816418
1426798235.57,55.287106
1426798235.585,48.20196
1426798235.601,37.96523
1426798235.617,24.999147
1426798235.632,10.700989
1426798235.648,-2.9890213
1426798235.664,-14.441
1426798235.679,-22.95566
1426798235.695,-29.03136
1426798235.71,-33.987457
1426798235.726,-39.259453
1426798235.742,-45.578377
1426798235.757,-52.52596
1426798235.773,-58.62845
1426798235.788,-61.92326
1426798235.804,-60.984745
1426798235.82,-55.655346
1426798235.835,-47.23919
1426798235.851,-38.003815
1426798235.867,-30.13248
1426798235.882,-24.675575
1426798235.898,-21.115265
1426798235.914,-17.795319
1426798235.929,-12.987728
1426798235.945,-5.9617653
1426798235.96,2.642067
1426798235.976,11.269531
1426798235.992,18.501064
1426798236.007,23.976421
1426798236.023,28.530205
1426798236.039,33.587135
1426798236.054,40.119377
1426798236.07,48.10396
1426798236.085,56.553947
1426798236.101,64.19855
1426798236.117,70.33888
1426798236.132,75.15296
1426798236.148,79.388535
1426798236.164,83.643
1426798236.179,87.696236
1426798236.195,90.30493
1426798236.21,89.76798
1426798236.226,84.7631
1426798236.242,75.05857
1426798236.257,61.778473
1426798236.273,46.91387
1426798236.289,32.42354
1426798236.304,19.439087
1426798236.32,7.9122467
1426798236.335,-2.9990692
1426798236.351,-14.150291
1426798236.367,-25.684963
1426798236.382,-36.76332
1426798236.398,-45.89912
1426798236.414,-51.751713
1426798236.429,-53.79899
1426798236.445,-52.538754
1426798236.46,-49.1871
1426798236.476,-45.017696
1426798236.492,-40.78154
1426798236.507,-36.536663
1426798236.523,-31.89685
1426798236.539,-26.546997
1426798236.554,-20.688644
1426798236.57,-15.135628
1426798236.585,-10.933735
1426798236.601,-8.857483
1426798236.617,-8.964203
1426798236.632,-10.372047
1426798236.648,-11.63736
1426798236.664,-11.369621
1426798236.679,-8.931923
1426798236.695,-4.718155
1426798236.71,0.10521698
1426798236.726,4.2332916
1426798236.742,6.935974
1426798236.757,8.463821
1426798236.773,9.92141
1426798236.789,12.610466
1426798236.804,17.302246
1426798236.82,23.659447
1426798236.835,30.374046
1426798236.851,35.667236
1426798236.867,38.109474
1426798236.882,37.252403
1426798236.898,33.68598
1426798236.914,28.583824
1426798236.929,22.971504
1426798236.945,17.161957
1426798236.96,10.701813
1426798236.976,2.8481522
1426798236.992,-6.735985
1426798237.007,-17.493378
1426798237.023,-27.970428
1426798237.039,-36.522064
1426798237.054,-42.092155
1426798237.07,-44.810173
1426798237.085,-45.856445
1426798237.101,-46.780792
1426798237.117,-48.587257
1426798237.132,-51.0306
1426798237.148,-52.74508
1426798237.164,-51.94536
1426798237.179,-47.50071
1426798237.195,-39.642883
1426798237.21,-29.993423
1426798237.226,-20.744362
1426798237.242,-13.6107025
1426798237.257,-9.01696
1426798237.273,-6.003731
1426798237.289,-2.9396133
1426798237.304,1.4404602
1426798237.32,7.2163696
1426798237.335,13.325348
1426798237.351,18.127457
1426798237.367,20.433975
1426798237.382,20.265373
1426798237.398,18.855263
1426798237.414,18.068825
1426798237.429,19.42643
1426798237.445,23.278572
1426798237.46,28.76619
1426798237.476,34.299713
1426798237.492,38.425117
1426798237.507,40.541595
1426798237.523,41.08835
1426798237.539,41.035126
1426798237.554,41.150253
1426798237.57,41.302612
1426798237.585,40.415016
1426798237.601,37.01925
1426798237.617,30.020515
1426798237.632,19.47232
1426798237.648,6.685005
1426798237.664,-6.2618027
1426798237.679,-17.425941
1426798237.695,-25.854782
1426798237.71,-31.79824
1426798237.726,-36.41265
1426798237.742,-40.89502
1426798237.757,-45.743988
1426798237.773,-50.43917
1426798237.789,-53.81112
1426798237.804,-54.787933
1426798237.82,-53.14627
1426798237.835,-49.71753
1426798237.851,-45.93589
1426798237.867,-43.07901
1426798237.882,-41.488327
1426798237.898,-40.387756
1426798237.914,-38.405083
1426798237.929,-34.29547
1426798237.945,-27.81324
1426798237.96,-19.79876
1426798237.976,-11.778397
1426798237.992,-5.153633
1426798238.007,-0.51768494
1426798238.023,2.6242676
1426798238.039,5.41243
1426798238.054,8.934647
1426798238.07,13.593872
1426798238.085,18.865341
1426798238.101,23.669052
1426798238.117,27.018951
1426798238.132,28.667313
1426798238.148,29.329285
1426798238.164,30.28328
1426798238.179,32.685196
1426798238.195,36.747482
1426798238.21,41.54825
1426798238.226,45.333115
1426798238.242,46.338303
1426798238.257,43.599228
1426798238.273,37.46707
1426798238.289,29.285309
1426798238.304,20.730743
1426798238.32,12.922699
1426798238.335,5.933792
1426798238.351,-0.95988464
1426798238.367,-8.710297
1426798238.382,-17.644043
1426798238.398,-27.044067
1426798238.414,-35.378067
1426798238.429,-41.025497
1426798238.445,-43.192276
1426798238.46,-42.329086
1426798238.476,-39.93158
1426798238.492,-37.744843
1426798238.507,-36.85646
1426798238.523,-37.143326
1426798238.539,-37.483
1426798238.554,-36.47377
1426798238.57,-33.371628
1426798238.586,-28.53209
1426798238.601,-23.175858
1426798238.617,-18.681793
1426798238.632,-15.75882
1426798238.648,-13.979507
1426798238.664,-12.049606
1426798238.679,-8.502548
1426798238.695,-2.581665
1426798238.711,5.3414154
1426798238.726,13.935593
1426798238.742,21.611084
1426798238.757,27.37053
1426798238.773,31.303467
1426798238.789,34.50107
1426798238.804,38.41397
1426798238.82,44.032043
1426798238.836,51.30139
1426798238.851,59.08571
1426798238.867,65.727356
1426798238.882,69.81639
1426798238.898,70.801834
1426798238.914,69.07092
1426798238.929,65.53601
1426798238.945,60.90863
1426798238.961,55.269638
1426798238.976,48.08348
1426798238.992,38.657333
1426798239.007,26.767792
1426798239.023,13.140961
1426798239.039,-0.74739075
1426798239.054,-13.147293
1426798239.07,-22.904709
1426798239.086,-29.81578
1426798239.101,-34.57672
1426798239.117,-38.259033
1426798239.132,-41.586746
1426798239.148,-44.487106
1426798239.164,-46.197937
1426798239.179,-45.843872
1426798239.195,-43.040436
1426798239.211,-38.298447
1426798239.226,-32.835205
1426798239.242,-28.052673
1426798239.257,-24.812485
1426798239.273,-23.035675
1426798239.289,-21.764542
1426798239.304,-19.761658
1426798239.32,-16.22113
1426798239.336,-11.214523
1426798239.351,-5.683197
1426798239.367,-0.9083557
1426798239.382,2.1907349
1426798239.398,3.6409912
1426798239.414,4.408081
1426798239.429,5.958832
1426798239.445,9.479401
1426798239.461,15.272827
1426798239.476,22.65921
1426798239.492,30.487457
1426798239.507,37.71588
1426798239.523,44.057404
1426798239.539,49.96512
1426798239.554,56.196747
1426798239.57,63.06433
1426798239.586,69.963806
1426798239.601,75.447754
1426798239.617,77.845276
1426798239.632,76.01712
1426798239.648,69.94122
1426798239.664,60.71411
1426798239.679,49.960327
1426798239.695,39.107758
1426798239.711,28.688568
1426798239.726,18.382843
1426798239.742,7.395508
1426798239.757,-4.8354187
1426798239.773,-17.996582
1426798239.789,-30.829712
1426798239.804,-41.52968
1426798239.82,-48.58403
1426798239.836,-51.496643
1426798239.851,-51.049805
1426798239.867,-48.91823
1426798239.882,-46.87146
1426798239.898,-45.87697
1426798239.914,-45.718994
1426798239.929,-45.264282
1426798239.945,-43.189636
1426798239.961,-38.862946
1426798239.976,-32.744156
1426798239.992,-26.088501
1426798240.007,-20.26297
1426798240.023,-15.93335
1426798240.039,-12.6622925
1426798240.054,-9.19899
1426798240.07,-4.253601
1426798240.086,2.6833801
1426798240.101,10.968323
1426798240.117,19.1391
1426798240.132,25.723633
1426798240.148,30.128128
1426798240.164,33.056396
1426798240.179,36.05211
1426798240.195,40.71318
1426798240.211,47.545044
1426798240.226,55.666916
1426798240.242,63.125214
1426798240.257,67.80737
1426798240.273,68.50375
1426798240.289,65.38916
1426798240.304,59.827866
1426798240.32,53.480194
1426798240.336,47.4494
1426798240.351,41.762894
1426798240.367,35.65007
1426798240.382,28.23198
1426798240.398,19.285767
1426798240.414,9.588501
1426798240.429,0.5232239
1426798240.445,-6.5881653
1426798240.461,-11.190964
1426798240.476,-13.801697
1426798240.492,-15.5168
1426798240.507,-17.468948
1426798240.523,-20.117905
1426798240.539,-23.072403
1426798240.554,-25.348953
1426798240.57,-25.976807
1426798240.586,-24.666473
1426798240.601,-21.922455
1426798240.617,-18.821838
1426798240.632,-16.380692
1426798240.648,-15.013916
1426798240.664,-14.175262
1426798240.679,-12.769119
1426798240.695,-9.709366
1426798240.711,-4.689041
1426798240.726,1.4735565
1426798240.742,7.2312317
1426798240.757,10.908234
1426798240.773,11.731293
1426798240.789,10.192795
1426798240.804,7.9394073
1426798240.82,6.889679
1426798240.836,8.364624
1426798240.851,12.491287
1426798240.867,18.310303
1426798240.882,24.39009
1426798240.898,29.56874
1426798240.914,33.421707
1426798240.929,36.14792
1426798240.945,38.05768
1426798240.961,39.085403
1426798240.976,38.53749
1426798240.992,35.447678
1426798241.007,29.07312
1426798241.023,19.51995
1426798241.039,7.8654785
1426798241.054,-4.138687
1426798241.07,-14.788017
1426798241.086,-23.07782
1426798241.101,-29.031013
1426798241.117,-33.50302
1426798241.132,-37.57479
1426798241.148,-41.94423
1426798241.164,-46.417664
1426798241.179,-50.052376
1426798241.195,-51.70324
1426798241.211,-50.716583
1426798241.226,-47.41366
1426798241.242,-42.9346
1426798241.258,-38.745834
1426798241.273,-35.85205
1426798241.289,-34.342865
1426798241.304,-33.33261
1426798241.32,-31.556145
1426798241.336,-28.165184
1426798241.351,-23.17025
1426798241.367,-17.429436
1426798241.383,-12.163422
1426798241.398,-8.187431
1426798241.414,-5.461708
1426798241.429,-3.1536903
1426798241.445,-0.15733719
1426798241.461,4.2817307
1426798241.476,10.113716
1426798241.492,16.6333
1426798241.508,22.861313
1426798241.523,28.187359
1426798241.539,32.706432
1426798241.554,37.114193
1426798241.57,42.151768
1426798241.586,47.96473
1426798241.601,53.70659
1426798241.617,57.71904
1426798241.633,58.19545
1426798241.648,54.01172
1426798241.664,45.303787
1426798241.679,33.52497
1426798241.695,20.82838
1426798241.711,9.155672
1426798241.726,-0.53873634
1426798241.742,-8.466326
1426798241.758,-15.635368
1426798241.773,-23.015411
1426798241.789,-30.874706
1426798241.804,-38.522923
1426798241.82,-44.729717
1426798241.836,-48.46705
1426798241.851,-49.52768
1426798241.867,-48.65923
1426798241.883,-47.14972
1426798241.898,-46.147186
1426798241.914,-45.92619
1426798241.929,-45.80469
1426798241.945,-44.644115
1426798241.961,-41.511787
1426798241.976,-36.3786
1426798241.992,-30.148546
1426798242.008,-24.258762
1426798242.023,-19.943195
1426798242.039,-17.554941
1426798242.054,-16.382587
1426798242.07,-15.060845
1426798242.086,-12.2545395
1426798242.101,-7.438299
1426798242.117,-1.1152954
1426798242.133,5.4426193
1426798242.148,10.911589
1426798242.164,14.730745
1426798242.179,17.408709
1426798242.195,20.309744
1426798242.211,24.910986
1426798242.226,31.97099
1426798242.242,41.132305
1426798242.258,51.08116
1426798242.273,60.141903
1426798242.289,67.03766
1426798242.304,71.31044
1426798242.32,73.17613
1426798242.336,73.06644
1426798242.351,71.08059
1426798242.367,66.824646
1426798242.383,59.718998
1426798242.398,49.396824
1426798242.414,36.191483
1426798242.429,21.312737
1426798242.445,6.424301
1426798242.461,-6.932762
1426798242.476,-17.994026
1426798242.492,-26.924416
1426798242.508,-34.542984
1426798242.523,-41.71955
1426798242.539,-48.710434
1426798242.554,-54.932198
1426798242.57,-59.290718
1426798242.586,-60.77845
1426798242.601,-59.245438
1426798242.617,-55.56221
1426798242.633,-51.270195
1426798242.648,-47.89608
1426798242.664,-46.179054
1426798242.679,-45.758812
1426798242.695,-45.49639
1426798242.711,-44.16417
1426798242.726,-41.152992
1426798242.742,-36.791138
1426798242.758,-32.042496
1426798242.773,-27.941666
1426798242.789,-24.907684
1426798242.804,-22.472115
1426798242.82,-19.523506
1426798242.836,-14.995407
1426798242.851,-8.556358
1426798242.867,-0.88495636
1426798242.883,6.720825
1426798242.898,13.027245
1426798242.914,17.633484
1426798242.929,21.159126
1426798242.945,24.933075
1426798242.961,30.255363
1426798242.976,37.532036
1426798242.992,45.985466
1426798243.008,53.934624
1426798243.023,59.49356
1426798243.039,61.40078
1426798243.054,59.590416
1426798243.07,54.96673
1426798243.086,48.880577
1426798243.101,42.324852
1426798243.117,35.425255
1426798243.133,27.557953
1426798243.148,17.850288
1426798243.164,5.8971252
1426798243.179,-7.755211
1426798243.195,-21.665222
1426798243.211,-34.042236
1426798243.226,-43.541
1426798243.242,-49.789032
1426798243.258,-53.382217
1426798243.273,-55.470947
1426798243.289,-56.98439
1426798243.304,-58.138992
1426798243.32,-58.48256
1426798243.336,-57.28929
1426798243.351,-54.228333
1426798243.367,-49.804688
1426798243.383,-45.202988
1426798243.398,-41.78035
1426798243.414,-40.31862
1426798243.429,-40.564682
1426798243.445,-41.33687
1426798243.461,-41.107178
1426798243.476,-38.830444
1426798243.492,-34.424957
1426798243.508,-28.71463
1426798243.523,-22.86322
1426798243.539,-17.748276
1426798243.554,-13.4015045
1426798243.57,-9.096817
1426798243.586,-3.7937775
1426798243.601,3.1844482
1426798243.617,11.751617
1426798243.633,21.145775
1426798243.648,30.30938
1426798243.664,38.575493
1426798243.679,46.004433
1426798243.695,53.301613
1426798243.711,61.24855
1426798243.726,70.02026
1426798243.742,78.73753
1426798243.758,85.65031
1426798243.773,88.778
1426798243.789,86.78592
1426798243.804,79.63638
1426798243.82,68.56561
1426798243.836,55.49656
1426798243.851,42.136322
1426798243.867,29.345528
1426798243.883,16.996078
1426798243.898,4.464752
1426798243.914,-8.689346
1426798243.93,-22.069962
1426798243.945,-34.44786
1426798243.961,-44.181747
1426798243.976,-50.08647
1426798243.992,-52.056625
1426798244.008,-51.11029
1426798244.023,-48.940353
1426798244.039,-47.118484
1426798244.054,-46.32663
1426798244.07,-46.187073
1426798244.086,-45.61078
1426798244.101,-43.597946
1426798244.117,-39.868362
1426798244.133,-35.118958
1426798244.148,-30.66571
1426798244.164,-27.70781
1426798244.18,-26.695038
1426798244.195,-27.00319
1426798244.211,-27.366318
1426798244.226,-26.542068
1426798244.242,-24.027588
1426798244.258,-20.241577
1426798244.273,-16.207733
1426798244.289,-12.884979
1426798244.305,-10.508545
1426798244.32,-8.362946
1426798244.336,-5.1064453
1426798244.351,0.3996277
1426798244.367,8.481781
1426798244.383,18.410439
1426798244.398,28.783112
1426798244.414,38.164093
1426798244.43,45.754677
1426798244.445,51.569504
1426798244.461,56.125458
1426798244.476,59.84514
1426798244.492,62.452263
1426798244.508,63.03595
1426798244.523,60.385178
1426798244.539,53.711952
1426798244.555,43.156433
1426798244.57,29.903511
1426798244.586,15.70018
1426798244.601,2.139923
1426798244.617,-9.8989105
1426798244.633,-20.403946
1426798244.648,-29.879837
1426798244.664,-38.733215
1426798244.68,-46.811096
1426798244.695,-53.358444
1426798244.711,-57.37091
1426798244.726,-58.26648
1426798244.742,-56.391144
1426798244.758,-52.92575
1426798244.773,-49.447968
1426798244.789,-47.174698
1426798244.805,-46.42215
1426798244.82,-46.5206
1426798244.836,-46.21782
1426798244.851,-44.404938
1426798244.867,-40.712555
1426798244.883,-35.61783
1426798244.898,-30.09188
1426798244.914,-25.03746
1426798244.93,-20.717659
1426798244.945,-16.66224
1426798244.961,-11.953468
1426798244.976,-5.858078
1426798244.992,1.6119461
1426798245.008,9.6464
1426798245.023,17.0195
1426798245.039,22.72454
1426798245.055,26.59948
1426798245.07,29.533005
1426798245.086,33.064255
1426798245.101,38.623474
1426798245.117,46.704063
1426798245.133,56.50006
1426798245.148,66.14892
1426798245.164,73.50591
1426798245.18,77.08997
1426798245.195,76.56748
1426798245.211,72.76496
1426798245.226,67.06072
1426798245.242,60.495804
1426798245.258,53.30104
1426798245.273,44.94368
1426798245.289,34.665848
1426798245.305,22.278488
1426798245.32,8.582428
1426798245.336,-4.725197
1426798245.351,-15.767853
1426798245.367,-23.366333
1426798245.383,-27.514923
1426798245.398,-29.222794
1426798245.414,-29.987541
1426798245.43,-30.886139
1426798245.445,-32.121513
1426798245.461,-33.09268
1426798245.476,-32.88452
1426798245.492,-31.073967
1426798245.508,-28.041573
1426798245.523,-24.827827
1426798245.539,-22.581268
1426798245.555,-21.929955
1426798245.57,-22.562134
1426798245.586,-23.480194
1426798245.601,-23.523155
1426798245.617,-22.048225
1426798245.633,-19.27536
1426798245.648,-16.089539
1426798245.664,-13.50341
1426798245.68,-11.964821
1426798245.695,-11.05368
1426798245.711,-9.698555
1426798245.726,-6.799507
1426798245.742,-1.94133
1426798245.758,4.348503
1426798245.773,10.867699
1426798245.789,16.405075
1426798245.805,20.508354
1426798245.82,23.780693
1426798245.836,27.571495
1426798245.851,33.183548
1426798245.867,40.967194
1426798245.883,49.93264
1426798245.898,58.068077
1426798245.914,63.18319
1426798245.93,63.840805
1426798245.945,60.002083
1426798245.961,52.88005
1426798245.976,44.276466
1426798245.992,35.642906
1426798246.008,27.510254
1426798246.023,19.52481
1426798246.039,10.928566
1426798246.055,1.3311386
1426798246.07,-8.834938
1426798246.086,-18.34462
1426798246.101,-25.775223
1426798246.117,-30.233116
1426798246.133,-31.823364
1426798246.148,-31.538597
1426798246.164,-30.773827
1426798246.18,-30.57872
1426798246.195,-31.103851
1426798246.211,-31.667404
1426798246.226,-31.17936
1426798246.242,-28.950928
1426798246.258,-25.174522
1426798246.273,-20.907524
1426798246.289,-17.567589
1426798246.305,-16.179092
1426798246.32,-16.749115
1426798246.336,-18.219757
1426798246.351,-18.973549
1426798246.367,-17.698425
1426798246.383,-14.085693
1426798246.398,-8.979843
1426798246.414,-3.8576202
1426798246.43,-0.016845703
1426798246.445,2.18042
1426798246.461,3.539978
1426798246.476,5.5281982
1426798246.492,9.446632
1426798246.508,15.71553
1426798246.523,23.730316
1426798246.539,32.28469
1426798246.555,40.245964
1426798246.57,47.08085
1426798246.586,52.938408
1426798246.602,58.200905
1426798246.617,62.93573
1426798246.633,66.45464
1426798246.648,67.53164
1426798246.664,64.93406
1426798246.68,58.078407
1426798246.695,47.50406
1426798246.711,34.71875
1426798246.726,21.705353
1426798246.742,10.12941
1426798246.758,0.69880676
1426798246.773,-6.887207
1426798246.789,-13.553146
1426798246.805,-20.13527
1426798246.82,-26.804337
1426798246.836,-32.9299
1426798246.852,-37.438416
1426798246.867,-39.522354
1426798246.883,-39.202454
1426798246.898,-37.423553
1426798246.914,-35.584854
1426798246.93,-34.878906
1426798246.945,-35.677002
1426798246.961,-37.379883
1426798246.977,-38.777237
1426798246.992,-38.748367
1426798247.008,-36.875946
1426798247.023,-33.619293
1426798247.039,-30.03035
1426798247.055,-27.009262
1426798247.07,-24.828705
1426798247.086,-22.829483
1426798247.102,-19.831741
1426798247.117,-14.761749
1426798247.133,-7.4267273
1426798247.148,1.3135986
1426798247.164,9.911484
1426798247.18,16.89444
1426798247.195,21.715622
1426798247.211,25.000992
1426798247.227,28.314224
1426798247.242,33.30037
1426798247.258,40.772522
1426798247.273,50.358124
1426798247.289,60.57434
1426798247.305,69.50769
1426798247.32,75.58569
1426798247.336,78.15549
1426798247.352,77.429
1426798247.367,74.11305
1426798247.383,68.7666
1426798247.398,61.46443
1426798247.414,51.866165
1426798247.43,39.64612
1426798247.445,24.998291
1426798247.461,8.945328
1426798247.477,-6.9185333
1426798247.492,-20.974655
1426798247.508,-32.312775
1426798247.523,-41.00612
1426798247.539,-47.955765
1426798247.555,-54.20424
1426798247.57,-60.30455
1426798247.586,-65.88649
1426798247.602,-69.92827
1426798247.617,-71.32997
1426798247.633,-69.713715
1426798247.648,-65.67355
1426798247.664,-60.617126
1426798247.68,-56.114838
1426798247.695,-53.109528
1426798247.711,-51.525146
1426798247.727,-50.45575
1426798247.742,-48.706482
1426798247.758,-45.633453
1426798247.773,-41.47647
1426798247.789,-37.14389
1426798247.805,-33.660522
1426798247.82,-31.48352
1426798247.836,-30.121094
1426798247.852,-28.41806
1426798247.867,-25.154144
1426798247.883,-19.782684
1426798247.898,-12.751923
1426798247.914,-5.26828
1426798247.93,1.407074
1426798247.945,6.618988
1426798247.961,10.791809
1426798247.977,15.200073
1426798247.992,21.254059
1426798248.008,29.651459
1426798248.023,39.876938
1426798248.039,50.2919
1426798248.055,58.790237
1426798248.07,63.72223
1426798248.086,64.54492
1426798248.102,61.86609
1426798248.117,56.95717
1426798248.133,50.872467
1426798248.148,43.912003
1426798248.164,35.644867
1426798248.18,25.356247
1426798248.195,12.785339
1426798248.211,-1.3424988
1426798248.227,-15.5312805
1426798248.242,-28.081818
1426798248.258,-37.872406
1426798248.273,-44.790222
1426798248.289,-49.6261
1426798248.305,-53.467865
1426798248.32,-57.04184
1426798248.336,-60.29889
1426798248.352,-62.513855
1426798248.367,-62.848602
1426798248.383,-60.941315
1426798248.398,-57.210632
1426798248.414,-52.703186
1426798248.43,-48.48639
1426798248.445,-45.159454
1426798248.461,-42.502655
1426798248.477,-39.707092
1426798248.492,-35.861267
1426798248.508,-30.56009
1426798248.523,-24.164978
1426798248.539,-17.62616
1426798248.555,-12.032562
1426798248.57,-8.0047455
1426798248.586,-5.3472595
1426798248.602,-3.1414948
1426798248.617,-0.24397278
1426798248.633,4.0941315
1426798248.648,9.7912445
1426798248.664,15.9953
1426798248.68,21.545502
1426798248.695,25.662796
1426798248.711,28.49231
1426798248.727,31.092987
1426798248.742,34.890823
1426798248.758,40.84079
1426798248.773,48.753067
1426798248.789,57.165207
1426798248.805,63.898575
1426798248.82,66.9444
1426798248.836,65.31619
1426798248.852,59.36693
1426798248.867,50.522232
1426798248.883,40.40703
1426798248.898,30.115784
1426798248.914,19.864182
1426798248.93,9.23645
1426798248.945,-2.2480774
1426798248.961,-14.411758
1426798248.977,-26.2388
1426798248.992,-36.18495
1426798249.008,-42.852844
1426798249.023,-45.718903
1426798249.039,-45.349487
1426798249.055,-43.083084
1426798249.07,-40.364273
1426798249.086,-37.964462
1426798249.102,-35.615997
1426798249.117,-32.4346
1426798249.133,-27.514648
1426798249.148,-20.72313
1426798249.164,-12.937958
1426798249.18,-5.658203
1426798249.195,-0.29167175
1426798249.211,2.6036072
1426798249.227,3.6462097
1426798249.242,4.2805786
1426798249.258,5.951996
1426798249.273,9.378525
1426798249.289,14.178589
1426798249.305,19.1734
1426798249.32,23.13498
1426798249.336,25.540894
1426798249.352,26.814651
1426798249.367,28.07988
1426798249.383,30.44368
1426798249.398,34.29222
1426798249.414,39.146835
1426798249.43,44.043274
1426798249.445,48.121353
1426798249.461,51.350037
1426798249.477,54.503006
1426798249.492,58.62944
1426798249.508,64.31564
1426798249.524,71.02579
1426798249.539,77.01399
1426798249.555,80.09412
1426798249.57,78.51619
1426798249.586,71.75203
1426798249.602,60.801773
1426798249.617,47.583954
1426798249.633,34.06688
1426798249.649,21.44896
1426798249.664,9.819855
1426798249.68,-1.4795074
1426798249.695,-13.132416
1426798249.711,-25.17366
1426798249.727,-36.72473
1426798249.742,-46.28189
1426798249.758,-52.509216
1426798249.774,-55.026733
1426798249.789,-54.651276
1426798249.805,-53.08255
1426798249.82,-52.119064
1426798249.836,-52.715866
1426798249.852,-54.54425
1426798249.867,-56.213745
1426798249.883,-56.060852
1426798249.899,-53.18004
1426798249.914,-47.961914
1426798249.93,-41.86763
1426798249.945,-36.68596
1426798249.961,-33.4644
1426798249.977,-31.895966
1426798249.992,-30.5849
1426798250.008,-27.87088
1426798250.024,-22.81276
1426798250.039,-15.759644
1426798250.055,-8.0963745
1426798250.07,-1.4085693
1426798250.086,3.4081726
1426798250.102,6.646881
1426798250.117,9.583237
1426798250.133,13.6763
1426798250.149,19.725464
1426798250.164,27.470383
1426798250.18,35.875443
1426798250.195,43.748596
1426798250.211,50.44426
1426798250.227,56.15999
1426798250.242,61.472885
1426798250.258,66.7923
1426798250.274,71.70911
1426798250.289,74.8595
1426798250.305,74.529465
1426798250.32,69.399414
1426798250.336,59.32312
1426798250.352,45.47995
1426798250.367,29.898499
1426798250.383,14.626282
1426798250.399,0.9371033
1426798250.414,-11.032135
1426798250.43,-21.984955
1426798250.445,-32.765594
1426798250.461,-43.689636
1426798250.477,-54.154175
1426798250.492,-62.88504
1426798250.508,-68.624725
1426798250.524,-70.90091
1426798250.539,-70.30203
1426798250.555,-68.26987
1426798250.57,-66.35568
1426798250.586,-65.42648
1426798250.602,-65.300934
1426798250.617,-64.90048
1426798250.633,-63.017487
1426798250.649,-59.05652
1426798250.664,-53.526855
1426798250.68,-47.736237
1426798250.695,-43.06482
1426798250.711,-40.268494
1426798250.727,-38.947968
1426798250.742,-37.878662
1426798250.758,-35.624146
1426798250.774,-31.362762
1426798250.789,-25.34314
1426798250.805,-18.680511
1426798250.82,-12.78421
1426798250.836,-8.469025
1426798250.852,-5.4892273
1426798250.867,-2.604126
1426798250.883,1.7896423
1426798250.899,8.831406
1426798250.914,18.626938
1426798250.93,30.169968
1426798250.945,41.772293
1426798250.961,51.84201
1426798250.977,59.44258
1426798250.992,64.44528
1426798251.008,67.26668
1426798251.024,68.27431
1426798251.039,67.31662
1426798251.055,63.794907
1426798251.07,57.01367
1426798251.086,46.739014
1426798251.102,33.662674
1426798251.117,19.293518
1426798251.133,5.395996
1426798251.149,-6.724472
1426798251.164,-16.707565
1426798251.18,-25.106934
1426798251.195,-32.882736
1426798251.211,-40.645554
1426798251.227,-48.179077
1426798251.242,-54.519287
1426798251.258,-58.467514
1426798251.274,-59.34938
1426798251.289,-57.46736
1426798251.305,-53.93477
1426798251.32,-50.209564
1426798251.336,-47.277176
1426798251.352,-45.19458
1426798251.367,-43.215927
1426798251.383,-40.309372
1426798251.399,-35.878937
1426798251.414,-30.23384
1426798251.43,-24.37555
1426798251.445,-19.480576
1426798251.461,-16.20819
1426798251.477,-14.19899
1426798251.492,-12.296829
1426798251.508,-9.117172
1426798251.524,-3.8336792
1426798251.539,3.3394012
1426798251.555,11.245148
1426798251.57,18.459976
1426798251.586,24.045868
1426798251.602,28.073318
1426798251.617,31.605682
1426798251.633,36.12764
1426798251.649,42.721527
1426798251.664,51.44983
1426798251.68,61.3004
1426798251.695,70.569435
1426798251.711,77.575714
1426798251.727,81.35997
1426798251.742,81.82846
1426798251.758,79.548645
1426798251.774,75.22473
1426798251.789,69.14844
1426798251.805,61.125473
1426798251.82,50.719345
1426798251.836,37.73262
1426798251.852,22.649994
1426798251.867,6.730072
1426798251.883,-8.425018
1426798251.899,-21.380234
1426798251.914,-31.460297
1426798251.93,-38.78981
1426798251.945,-44.063858
1426798251.961,-48.048553
1426798251.977,-51.106018
1426798251.992,-53.02855
1426798252.008,-53.25734
1426798252.024,-51.343063
1426798252.039,-47.307922
1426798252.055,-41.784973
1426798252.07,-35.86467
1426798252.086,-30.593689
1426798252.102,-26.532486
1426798252.117,-23.549088
1426798252.133,-20.973267
1426798252.149,-17.979431
1426798252.164,-14.135681
1426798252.18,-9.60437
1426798252.196,-4.997238
1426798252.211,-0.98233795
1426798252.227,2.236
1426798252.242,5.1355667
1426798252.258,8.656517
1426798252.274,13.641594
1426798252.289,20.27034
1426798252.305,27.864662
1426798252.321,35.212387
1426798252.336,41.237953
1426798252.352,45.661583
1426798252.367,49.262993
1426798252.383,53.44377
1426798252.399,59.447475
1426798252.414,67.36978
1426798252.43,75.86403
1426798252.446,82.58329
1426798252.461,85.11875
1426798252.477,82.14345
1426798252.492,73.99419
1426798252.508,62.411293
1426798252.524,49.57302
1426798252.539,36.987312
1426798252.555,24.959328
1426798252.571,12.792038
1426798252.586,-0.4088745
1426798252.602,-14.813889
1426798252.617,-29.401672
1426798252.633,-42.344757
1426798252.649,-51.847023
1426798252.664,-57.130676
1426798252.68,-58.740875
1426798252.696,-58.243202
1426798252.711,-57.345787
1426798252.727,-56.996384
1426798252.742,-57.03161
1426798252.758,-56.386765
1426798252.774,-53.927048
1426798252.789,-49.222794
1426798252.805,-42.907097
1426798252.821,-36.395058
1426798252.836,-31.232727
1426798252.852,-28.215858
1426798252.867,-27.024498
1426798252.883,-26.3759
1426798252.899,-24.690468
1426798252.914,-21.002792
1426798252.93,-15.420853
1426798252.946,-8.9872055
1426798252.961,-3.1440659
1426798252.977,1.1286392
1426798252.992,3.8288574
1426798253.008,5.884041
1426798253.024,8.584824
1426798253.039,12.757141
1426798253.055,18.369476
1426798253.071,24.617828
1426798253.086,30.523582
1426798253.102,35.54194
1426798253.117,39.972427
1426798253.133,44.646027
1426798253.149,50.23678
1426798253.164,56.507378
1426798253.18,62.131783
1426798253.196,65.11245
1426798253.211,63.655518
1426798253.227,57.069195
1426798253.242,46.144104
1426798253.258,32.798546
1426798253.274,19.272423
1426798253.289,7.1215744
1426798253.305,-3.2786636
1426798253.321,-12.513565
1426798253.336,-21.557182
1426798253.352,-30.843094
1426798253.367,-39.86441
1426798253.383,-47.345726
1426798253.399,-51.92093
1426798253.414,-53.002716
1426798253.43,-51.199883
1426798253.446,-47.99945
1426798253.461,-45.115265
1426798253.477,-43.56344
1426798253.492,-43.157677
1426798253.508,-42.780586
1426798253.524,-41.093285
1426798253.539,-37.47206
1426798253.555,-32.380424
1426798253.571,-27.182068
1426798253.586,-23.339882
1426798253.602,-21.572433
1426798253.617,-21.403397
1426798253.633,-21.364296
1426798253.649,-19.79927
1426798253.664,-15.774277
1426798253.68,-9.558014
1426798253.696,-2.4911118
1426798253.711,3.710678
1426798253.727,7.857071
1426798253.742,9.960785
1426798253.758,11.155052
1426798253.774,13.18779
1426798253.789,17.448631
1426798253.805,24.342026
1426798253.821,33.18489
1426798253.836,42.589813
1426798253.852,51.177193
1426798253.867,58.150696
1426798253.883,63.3559
1426798253.899,66.95201
1426798253.914,68.914444
1426798253.93,68.693405
1426798253.946,65.437584
1426798253.961,58.514683
1426798253.977,48.05681
1426798253.992,35.21866
1426798254.008,21.818123
1426798254.024,9.681038
1426798254.039,-0.17318726
1426798254.055,-7.805519
1426798254.071,-14.15007
1426798254.086,-20.306862
1426798254.102,-26.855698
1426798254.117,-33.41037
1426798254.133,-38.91765
1426798254.149,-42.224762
1426798254.164,-42.7912
1426798254.18,-41.10697
1426798254.196,-38.425186
1426798254.211,-36.166153
1426798254.227,-35.20685
1426798254.242,-35.477287
1426798254.258,-36.023224
1426798254.274,-35.68786
1426798254.289,-33.744186
1426798254.305,-30.347023
1426798254.321,-26.438164
1426798254.336,-23.191254
1426798254.352,-21.315323
1426798254.367,-20.560463
1426798254.383,-19.821869
1426798254.399,-17.755684
1426798254.414,-13.579498
1426798254.43,-7.6171494
1426798254.446,-1.1661072
1426798254.461,4.1135063
1426798254.477,7.1094437
1426798254.492,8.001472
1426798254.508,8.181145
1426798254.524,9.661018
1426798254.539,14.032185
1426798254.555,21.646996
1426798254.571,31.400747
1426798254.586,41.25199
1426798254.602,49.053368
1426798254.617,53.487827
1426798254.633,54.40703
1426798254.649,52.5335
1426798254.664,48.8612
1426798254.68,43.905396
1426798254.696,37.54971
1426798254.711,29.255886
1426798254.727,18.679428
1426798254.742,6.191963
1426798254.758,-6.9768524
1426798254.774,-19.217579
1426798254.789,-29.251694
1426798254.805,-36.701015
1426798254.821,-42.14245
1426798254.836,-46.62169
1426798254.852,-50.970642
1426798254.868,-55.186398
1426798254.883,-58.433533
1426798254.899,-59.4953
1426798254.914,-57.56154
1426798254.93,-52.78186
1426798254.946,-46.253876
1426798254.961,-39.53344
1426798254.977,-33.91864
1426798254.993,-29.802053
1426798255.008,-26.643513
1426798255.024,-23.428
1426798255.039,-19.275307
1426798255.055,-14.075151
1426798255.071,-8.4311495
1426798255.086,-3.3138304
1426798255.102,0.53647614
1426798255.118,3.0742598
1426798255.133,4.9515266
1426798255.149,7.1225314
1426798255.164,10.26498
1426798255.18,14.34471
1426798255.196,18.66156
1426798255.211,22.3481
1426798255.227,24.883413
1426798255.243,26.601555
1426798255.258,28.633804
1426798255.274,32.4114
1426798255.289,38.88967
1426798255.305,47.816895
1426798255.321,57.63471
1426798255.336,65.99922
1426798255.352,70.6583
1426798255.368,70.420876
1426798255.383,65.5805
1426798255.399,57.649033
1426798255.414,48.518486
1426798255.43,39.49144
1426798255.446,30.821173
1426798255.461,21.912048
1426798255.477,11.967773
1426798255.493,0.8573437
1426798255.508,-10.549038
1426798255.524,-20.680893
1426798255.539,-27.954283
1426798255.555,-31.647291
1426798255.571,-32.21115
1426798255.586,-30.9813
1426798255.602,-29.453733
1426798255.618,-28.478474
1426798255.633,-27.899317
1426798255.649,-26.76052
1426798255.664,-24.00321
1426798255.68,-19.276272
1426798255.696,-13.197348
1426798255.711,-7.0996914
1426798255.727,-2.389038
1426798255.743,0.3387642
1426798255.758,1.5700417
1426798255.774,2.623764
1426798255.789,4.925686
1426798255.805,9.174988
1426798255.821,14.95369
1426798255.836,20.98508
1426798255.852,25.866302
1426798255.868,28.867939
1426798255.883,30.320984
1426798255.899,31.399908
1426798255.914,33.45427
1426798255.93,37.21295
1426798255.946,42.428696
1426798255.961,48.15641
1426798255.977,53.291008
1426798255.993,57.283844
1426798256.008,60.317223
1426798256.024,62.957787
1426798256.039,65.514366
1426798256.055,67.5017
1426798256.071,67.565765
1426798256.086,64.131516
1426798256.102,56.22278
1426798256.118,44.045933
1426798256.133,29.105005
1426798256.149,13.527949
1426798256.164,-0.7853527
1426798256.18,-12.973148
1426798256.196,-23.316029
1426798256.211,-32.72937
1426798256.227,-42.03871
