1426786587.863,0.0
1426786587.879,0.0
1426786587.894,0.0
1426786587.91,0.0
1426786587.926,0.0
1426786587.941,0.0
1426786587.957,0.0
1426786587.973,0.0
1426786587.988,0.0
1426786588.004,0.0022315353
1426786588.019,-0.0045169927
1426786588.035,-0.011265522
1426786588.051,-0.011383951
1426786588.066,0.0011864507
1426786588.082,0.025910312
1426786588.098,0.050634187
1426786588.113,0.051362894
1426786588.129,-0.0014929791
1426786588.144,-0.1302426
1426786588.16,-0.35562757
1426786588.176,-0.6591247
1426786588.191,-1.0095103
1426786588.207,-1.3709826
1426786588.223,-1.7197359
1426786588.238,-2.0551105
1426786588.254,-2.39945
1426786588.269,-2.7866635
1426786588.285,-3.2399073
1426786588.301,-3.796012
1426786588.316,-4.418684
1426786588.332,-5.0592937
1426786588.348,-5.6644096
1426786588.363,-6.2021537
1426786588.379,-6.6808796
1426786588.394,-7.149598
1426786588.41,-7.6782336
1426786588.426,-8.310739
1426786588.441,-9.143657
1426786588.457,-10.089731
1426786588.473,-11.041313
1426786588.488,-11.8842125
1426786588.504,-12.564316
1426786588.52,-13.13563
1426786588.535,-13.760044
1426786588.551,-14.65232
1426786588.566,-15.962056
1426786588.582,-17.914442
1426786588.598,-20.317299
1426786588.613,-22.903854
1426786588.629,-25.37947
1426786588.644,-27.578028
1426786588.66,-29.57246
1426786588.676,-31.675173
1426786588.691,-34.3178
1426786588.707,-37.813618
1426786588.723,-42.541233
1426786588.738,-48.1463
1426786588.754,-54.104755
1426786588.77,-59.83309
1426786588.785,-64.972374
1426786588.801,-69.58293
1426786588.816,-74.14353
1426786588.832,-79.344986
1426786588.848,-85.70726
1426786588.863,-93.76193
1426786588.879,-102.99779
1426786588.895,-112.61757
1426786588.91,-121.73034
1426786588.926,-129.76602
1426786588.941,-136.75102
1426786588.957,-143.30344
1426786588.973,-150.74623
1426786588.988,-157.77356
1426786589.004,-166.64323
1426786589.02,-177.94798
1426786589.035,-191.79102
1426786589.051,-206.96808
1426786589.066,-220.56592
1426786589.082,-228.24644
1426786589.098,-225.36154
1426786589.113,-208.53198
1426786589.129,-176.87024
1426786589.145,-132.76222
1426786589.16,-80.04997
1426786589.176,-23.069275
1426786589.191,34.94339
1426786589.207,92.43695
1426786589.223,149.15695
1426786589.238,205.22772
1426786589.254,260.36963
1426786589.27,313.74133
1426786589.285,363.87396
1426786589.301,409.83353
1426786589.316,450.90775
1426786589.332,486.50244
1426786589.348,515.73865
1426786589.363,537.2274
1426786589.379,549.22
1426786589.395,549.9613
1426786589.41,538.367
1426786589.426,514.2055
1426786589.441,478.674
1426786589.457,433.87952
1426786589.473,382.45126
1426786589.488,327.02106
1426786589.504,269.84186
1426786589.52,212.63379
1426786589.535,156.6594
1426786589.551,102.95233
1426786589.566,52.373596
1426786589.582,5.9046936
1426786589.598,-35.580414
1426786589.613,-71.42584
1426786589.629,-101.35184
1426786589.645,-125.50113
1426786589.66,-144.3797
1426786589.676,-158.69403
1426786589.691,-169.15071
1426786589.707,-176.3711
1426786589.723,-180.75139
1426786589.738,-182.57419
1426786589.754,-182.06863
1426786589.77,-179.5066
1426786589.785,-175.23325
1426786589.801,-169.65286
1426786589.816,-163.17691
1426786589.832,-156.14568
1426786589.848,-148.80681
1426786589.863,-141.29686
1426786589.879,-133.68983
1426786589.895,-126.01962
1426786589.91,-118.33268
1426786589.926,-110.68864
1426786589.941,-103.15572
1426786589.957,-95.80455
1426786589.973,-88.684166
1426786589.988,-81.82744
1426786590.004,-75.24594
1426786590.02,-68.9526
1426786590.035,-62.949085
1426786590.051,-57.247494
1426786590.066,-51.857185
1426786590.082,-46.78282
1426786590.098,-42.02776
1426786590.113,-37.58521
1426786590.129,-33.451748
1426786590.145,-29.613855
1426786590.16,-26.070963
1426786590.176,-22.808779
1426786590.191,-19.824995
1426786590.207,-17.113392
1426786590.223,-14.666497
1426786590.238,-12.47932
1426786590.254,-10.538469
1426786590.27,-8.833674
1426786590.285,-7.3478527
1426786590.301,-6.067689
1426786590.316,-4.9734235
1426786590.332,-4.046258
1426786590.348,-3.2673752
1426786590.363,-2.6211367
1426786590.379,-2.088365
1426786590.395,-1.6507506
1426786590.41,-1.2976913
1426786590.426,-1.0147024
1426786590.441,-0.79105926
1426786590.457,-0.6133206
1426786590.473,-0.47516227
1426786590.488,-0.3684653
1426786590.504,-0.28461677
1426786590.52,-0.22397345
1426786590.535,-0.17647654
1426786590.551,-0.14055526
1426786590.566,-0.11251485
1426786590.582,-0.0926249
1426786590.598,-0.07977182
1426786590.613,-0.06783539
1426786590.629,-0.05929327
1426786590.645,-0.052183747
1426786590.66,-0.046860814
1426786590.676,-0.044131815
1426786590.691,-0.040358156
1426786590.707,-0.039164305
1426786590.723,-0.034330726
1426786590.738,-0.03515649
1426786590.754,-0.03181714
1426786590.77,-0.030750751
1426786590.785,-0.02810505
1426786590.801,-0.029290557
1426786590.816,-0.027453512
1426786590.832,-0.026081413
1426786590.848,-0.023851603
1426786590.863,-0.022989094
1426786590.879,-0.022172749
1426786590.895,-0.022157341
1426786590.91,-0.020828396
1426786590.926,-0.020277172
1426786590.941,-0.01940465
1426786590.957,-0.018795371
1426786590.973,-0.019169807
1426786590.988,-0.017195046
1426786591.004,-0.016264498
1426786591.02,-0.01676847
1426786591.035,-0.016039208
1426786591.051,-0.016326457
1426786591.066,-0.012141407
1426786591.082,-0.014244527
1426786591.098,-0.013427645
1426786591.113,-0.014266133
1426786591.129,-0.009953335
1426786591.145,-0.0118481815
1426786591.16,-0.010818973
1426786591.176,-0.0115656555
1426786591.192,-0.0135113895
1426786591.207,-0.017824844
1426786591.223,-0.023471728
1426786591.238,-0.030169442
1426786591.254,-0.043420628
1426786591.27,-0.059192717
1426786591.285,-0.07679242
1426786591.301,-0.10402331
1426786591.316,-0.12773877
1426786591.332,-0.15801468
1426786591.348,-0.18917552
1426786591.363,-0.22499645
1426786591.379,-0.25994873
1426786591.395,-0.3033735
1426786591.41,-0.33805025
1426786591.426,-0.37878984
1426786591.442,-0.42118454
1426786591.457,-0.46358752
1426786591.473,-0.5080425
1426786591.488,-0.5549886
1426786591.504,-0.60978806
1426786591.52,-0.6585525
1426786591.535,-0.7223588
1426786591.551,-0.7829646
1426786591.567,-0.8551402
1426786591.582,-0.93014634
1426786591.598,-1.0079887
1426786591.613,-1.1022629
1426786591.629,-1.2209408
1426786591.645,-1.3571854
1426786591.66,-1.5165492
1426786591.676,-1.6797111
1426786591.692,-1.8286414
1426786591.707,-1.9462812
1426786591.723,-2.0451567
1426786591.738,-2.1374693
1426786591.754,-2.2550972
1426786591.77,-2.4378233
1426786591.785,-2.7021995
1426786591.801,-3.0360928
1426786591.817,-3.416355
1426786591.832,-3.8013709
1426786591.848,-4.1618347
1426786591.863,-4.496861
1426786591.879,-4.822956
1426786591.895,-5.1928606
1426786591.91,-5.657308
1426786591.926,-6.2280154
1426786591.942,-6.9037604
1426786591.957,-7.6234126
1426786591.973,-8.308658
1426786591.988,-8.904605
1426786592.004,-9.40576
1426786592.02,-9.873288
1426786592.035,-10.407279
1426786592.051,-11.139662
1426786592.067,-12.108463
1426786592.082,-13.261137
1426786592.098,-14.444084
1426786592.113,-15.444884
1426786592.129,-16.062628
1426786592.145,-16.222462
1426786592.16,-15.980438
1426786592.176,-15.517841
1426786592.192,-14.975494
1426786592.207,-14.413403
1426786592.223,-13.644001
1426786592.238,-12.29406
1426786592.254,-9.932564
1426786592.27,-6.3022633
1426786592.285,-1.4209385
1426786592.301,4.2690773
1426786592.317,10.082304
1426786592.332,15.286518
1426786592.348,19.456762
1426786592.363,22.583118
1426786592.379,25.1011
1426786592.395,27.667814
1426786592.41,30.754227
1426786592.426,34.45896
1426786592.442,38.347763
1426786592.457,41.648476
1426786592.473,43.68555
1426786592.488,44.131958
1426786592.504,43.273796
1426786592.52,41.846184
1426786592.535,40.736
1426786592.551,40.677143
1426786592.567,42.136803
1426786592.582,45.31607
1426786592.598,50.067
1426786592.613,55.49288
1426786592.629,59.84993
1426786592.645,60.67053
1426786592.66,55.583748
1426786592.676,43.516644
1426786592.692,25.5323
1426786592.707,4.8062153
1426786592.723,-14.500572
1426786592.738,-28.897789
1426786592.754,-36.907024
1426786592.77,-39.411594
1426786592.785,-38.735817
1426786592.801,-37.34098
1426786592.817,-36.585514
1426786592.832,-36.53155
1426786592.848,-36.459946
1426786592.863,-35.723095
1426786592.879,-34.319065
1426786592.895,-32.743134
1426786592.91,-31.543722
1426786592.926,-30.859064
1426786592.942,-30.242643
1426786592.957,-28.999214
1426786592.973,-26.459055
1426786592.988,-22.5027
1426786593.004,-17.57648
1426786593.02,-12.526869
1426786593.035,-8.240449
1426786593.051,-5.26033
1426786593.067,-3.5122747
1426786593.082,-2.4354963
1426786593.098,-1.2022014
1426786593.113,0.8883457
1426786593.129,4.112068
1426786593.145,8.232228
1426786593.16,12.598383
1426786593.176,16.438816
1426786593.192,19.239025
1426786593.207,20.962212
1426786593.223,22.092098
1426786593.238,23.35446
1426786593.254,25.468037
1426786593.27,28.744112
1426786593.285,33.101402
1426786593.301,38.026443
1426786593.317,42.902397
1426786593.332,47.299522
1426786593.348,51.235855
1426786593.363,55.205685
1426786593.379,60.051388
1426786593.395,66.560005
1426786593.41,75.11565
1426786593.426,85.35494
1426786593.442,96.10423
1426786593.457,105.506775
1426786593.473,111.40721
1426786593.488,111.76938
1426786593.504,105.182175
1426786593.52,91.199356
1426786593.535,70.53223
1426786593.551,44.90406
1426786593.567,16.786644
1426786593.582,-11.152702
1426786593.598,-36.499825
1426786593.613,-57.47628
1426786593.629,-73.151535
1426786593.645,-83.477135
1426786593.66,-89.03585
1426786593.676,-90.84342
1426786593.692,-89.97159
1426786593.707,-87.347374
1426786593.723,-83.58802
1426786593.738,-79.01691
1426786593.754,-73.819176
1426786593.77,-68.23425
1426786593.785,-62.74066
1426786593.801,-58.121674
1426786593.817,-55.211655
1426786593.832,-54.67073
1426786593.848,-56.58937
1426786593.863,-60.443893
1426786593.879,-65.19595
1426786593.895,-69.71629
1426786593.91,-73.12833
1426786593.926,-75.160706
1426786593.942,-76.127884
1426786593.957,-76.74724
1426786593.973,-77.72625
1426786593.988,-79.45888
1426786594.004,-81.73093
1426786594.02,-83.80318
1426786594.035,-84.6226
1426786594.051,-83.3973
1426786594.067,-80.30603
1426786594.082,-77.04874
1426786594.098,-76.95219
1426786594.114,-84.56123
1426786594.129,-104.587654
1426786594.145,-140.66995
1426786594.16,-193.96277
1426786594.176,-262.20154
1426786594.192,-339.42615
1426786594.207,-416.67865
1426786594.223,-483.58768
1426786594.239,-530.6113
1426786594.254,-551.1771
1426786594.27,-543.0783
1426786594.285,-508.6499
1426786594.301,-453.59692
1426786594.317,-385.11652
1426786594.332,-309.90314
1426786594.348,-232.92091
1426786594.364,-157.0897
1426786594.379,-83.6317
1426786594.395,-12.710175
1426786594.41,56.22621
1426786594.426,124.09186
1426786594.442,191.62709
1426786594.457,258.4809
1426786594.473,322.39258
1426786594.489,378.9089
1426786594.504,422.34274
1426786594.52,447.50986
1426786594.535,451.80853
1426786594.551,436.4051
1426786594.567,405.9317
1426786594.582,366.8114
1426786594.598,325.06583
1426786594.614,284.72223
1426786594.629,247.3829
1426786594.645,212.95706
1426786594.66,180.80267
1426786594.676,150.59882
1426786594.692,122.5275
1426786594.707,96.893555
1426786594.723,73.735596
1426786594.739,52.68457
1426786594.754,33.18219
1426786594.77,14.88446
1426786594.785,-2.0977783
1426786594.801,-17.14569
1426786594.817,-29.435425
1426786594.832,-38.27655
1426786594.848,-43.428955
1426786594.864,-45.367615
1426786594.879,-45.30658
1426786594.895,-45.059204
1426786594.91,-46.618042
1426786594.926,-51.631775
1426786594.942,-60.771362
1426786594.957,-73.37494
1426786594.973,-87.486694
1426786594.989,-100.41809
1426786595.004,-109.54663
1426786595.02,-113.24701
1426786595.035,-111.369446
1426786595.051,-105.25348
1426786595.067,-97.11957
1426786595.082,-89.18213
1426786595.098,-82.80536
1426786595.114,-77.84967
1426786595.129,-72.727905
1426786595.145,-64.85834
1426786595.16,-51.705505
1426786595.176,-31.95868
1426786595.192,-6.4172974
1426786595.207,21.715393
1426786595.223,47.61493
1426786595.239,66.52057
1426786595.254,75.54425
1426786595.27,74.96875
1426786595.285,68.09192
1426786595.301,59.866272
1426786595.317,54.90222
1426786595.332,55.942017
1426786595.348,63.57428
1426786595.364,76.9137
1426786595.379,94.621704
1426786595.395,115.41205
1426786595.41,137.85297
1426786595.426,160.0055
1426786595.442,179.46411
1426786595.457,194.08191
1426786595.473,202.89221
1426786595.489,206.4823
1426786595.504,206.5343
1426786595.52,204.64185
1426786595.535,201.49792
1426786595.551,196.92065
1426786595.567,190.69629
1426786595.582,183.33765
1426786595.598,175.88574
1426786595.614,168.68335
1426786595.629,159.88
1426786595.645,145.12622
1426786595.66,118.923706
1426786595.676,77.32764
1426786595.692,20.785034
1426786595.707,-44.687134
1426786595.723,-108.52942
1426786595.739,-158.44348
1426786595.754,-184.0149
1426786595.77,-179.74121
1426786595.785,-146.68225
1426786595.801,-92.33423
1426786595.817,-28.802124
1426786595.832,30.310669
1426786595.848,73.50366
1426786595.864,94.56738
1426786595.879,93.96008
1426786595.895,78.11426
1426786595.91,56.534058
1426786595.926,38.184326
1426786595.942,28.580566
1426786595.957,28.600098
1426786595.973,35.476196
1426786595.989,44.7666
1426786596.004,52.58911
1426786596.02,56.723633
1426786596.035,56.636963
1426786596.051,52.845825
1426786596.067,46.27356
1426786596.082,37.993286
1426786596.098,29.343628
1426786596.114,22.020996
1426786596.129,17.740967
1426786596.145,17.716919
1426786596.16,22.10205
1426786596.176,29.68518
1426786596.192,38.24292
1426786596.207,45.34485
1426786596.223,49.159546
1426786596.239,49.13336
1426786596.254,46.095154
1426786596.27,41.845154
1426786596.285,38.44342
1426786596.301,37.411133
1426786596.317,39.28015
1426786596.332,43.55725
1426786596.348,49.052307
1426786596.364,54.44287
1426786596.379,58.75885
1426786596.395,61.590393
1426786596.41,62.932556
1426786596.426,62.787354
1426786596.442,60.864197
1426786596.457,56.43048
1426786596.473,48.539124
1426786596.489,36.5354
1426786596.504,20.44049
1426786596.52,1.2351685
1426786596.535,-19.33551
1426786596.551,-39.212402
1426786596.567,-56.506104
1426786596.582,-69.99701
1426786596.598,-79.278625
1426786596.614,-84.718445
1426786596.629,-87.133606
1426786596.645,-87.55298
1426786596.66,-86.93091
1426786596.676,-86.08026
1426786596.692,-85.663086
1426786596.707,-86.16046
1426786596.723,-87.818054
1426786596.739,-90.62732
1426786596.754,-94.237854
1426786596.77,-98.050354
1426786596.786,-101.361755
1426786596.801,-103.640686
1426786596.817,-104.67731
1426786596.832,-104.554504
1426786596.848,-103.41028
1426786596.864,-101.22589
1426786596.879,-97.56561
1426786596.895,-91.651245
1426786596.911,-82.6203
1426786596.926,-69.93811
1426786596.942,-53.65509
1426786596.957,-34.463013
1426786596.973,-13.495117
1426786596.989,8.039429
1426786597.004,29.103271
1426786597.02,48.96649
1426786597.036,67.07922
1426786597.051,82.88513
1426786597.067,95.84216
1426786597.082,105.43671
1426786597.098,111.468994
1426786597.114,114.16437
1426786597.129,114.24927
1426786597.145,112.66644
1426786597.161,110.397156
1426786597.176,108.168884
1426786597.192,106.38672
1426786597.207,105.22699
1426786597.223,104.75702
1426786597.239,105.12799
1426786597.254,106.548645
1426786597.27,109.170105
1426786597.286,112.859924
1426786597.301,116.98279
1426786597.317,120.310486
1426786597.332,121.176636
1426786597.348,117.90546
1426786597.364,109.27942
1426786597.379,95.020874
1426786597.395,75.95026
1426786597.411,53.803772
1426786597.426,30.683655
1426786597.442,8.463257
1426786597.457,-11.614441
1426786597.473,-29.076477
1426786597.489,-43.995483
1426786597.504,-56.63556
1426786597.52,-67.20599
1426786597.536,-75.69946
1426786597.551,-81.99835
1426786597.567,-85.85779
1426786597.582,-86.940125
1426786597.598,-84.83002
1426786597.614,-79.17334
1426786597.629,-69.90805
1426786597.645,-57.673767
1426786597.661,-43.89749
1426786597.676,-30.607025
1426786597.692,-19.893982
1426786597.707,-13.1579895
1426786597.723,-10.641968
1426786597.739,-11.376678
1426786597.754,-13.6631775
1426786597.77,-15.836182
1426786597.786,-16.890137
1426786597.801,-16.686462
1426786597.817,-15.760223
1426786597.832,-14.698242
1426786597.848,-13.60199
1426786597.864,-12.109955
1426786597.879,-9.396301
1426786597.895,-4.7881775
1426786597.911,1.957489
1426786597.926,10.528381
1426786597.942,20.30194
1426786597.957,30.601685
1426786597.973,40.821198
1426786597.989,50.437103
1426786598.004,59.149048
1426786598.02,66.974
1426786598.036,74.31966
1426786598.051,81.904724
1426786598.067,90.35414
1426786598.082,99.68599
1426786598.098,109.02969
1426786598.114,116.79262
1426786598.129,121.47237
1426786598.145,122.40781
1426786598.161,120.28543
1426786598.176,116.795975
1426786598.192,113.764496
1426786598.207,112.07832
1426786598.223,111.149345
1426786598.239,109.18634
1426786598.254,104.191765
1426786598.27,95.04898
1426786598.286,82.13139
1426786598.301,67.13538
1426786598.317,52.20582
1426786598.332,39.064915
1426786598.348,28.251411
1426786598.364,18.975529
1426786598.379,9.722836
1426786598.395,-1.2057266
1426786598.411,-14.978172
1426786598.426,-32.05503
1426786598.442,-52.259735
1426786598.457,-75.11174
1426786598.473,-100.00852
1426786598.489,-126.255295
1426786598.504,-152.85713
1426786598.52,-178.25436
1426786598.536,-200.39627
1426786598.551,-217.0587
1426786598.567,-226.4639
1426786598.582,-227.8232
1426786598.598,-221.8355
1426786598.614,-210.63719
1426786598.629,-197.36218
1426786598.645,-185.38847
1426786598.661,-177.49815
1426786598.676,-175.22888
1426786598.692,-178.49672
1426786598.707,-185.63782
1426786598.723,-193.79025
1426786598.739,-199.58047
1426786598.754,-199.90387
1426786598.77,-192.853
1426786598.786,-178.28668
1426786598.801,-158.1677
1426786598.817,-136.34042
1426786598.832,-117.6236
1426786598.848,-106.57922
1426786598.864,-105.93756
1426786598.879,-115.47211
1426786598.895,-131.77698
1426786598.911,-149.21405
1426786598.926,-161.74106
1426786598.942,-164.92242
1426786598.957,-157.27466
1426786598.973,-140.39288
1426786598.989,-117.908844
1426786599.004,-93.948944
1426786599.02,-71.89047
1426786599.036,-53.812775
1426786599.051,-40.834015
1426786599.067,-33.754898
1426786599.082,-33.385483
1426786599.098,-40.50293
1426786599.114,-55.355453
1426786599.129,-77.14346
1426786599.145,-103.78987
1426786599.161,-132.13661
1426786599.176,-158.57675
1426786599.192,-179.8807
1426786599.207,-194.0628
1426786599.223,-200.74734
1426786599.239,-201.17393
1426786599.254,-197.4467
1426786599.27,-191.6723
1426786599.286,-185.12085
1426786599.301,-177.88942
1426786599.317,-168.99521
1426786599.332,-156.9859
1426786599.348,-140.48538
1426786599.364,-118.66107
1426786599.379,-91.61569
1426786599.395,-60.561523
1426786599.411,-28.183311
1426786599.426,1.3570099
1426786599.442,22.900055
1426786599.458,31.53415
1426786599.473,24.319443
1426786599.489,1.8921509
1426786599.504,-30.83316
1426786599.52,-65.78134
1426786599.536,-93.9267
1426786599.551,-108.07794
1426786599.567,-104.979065
1426786599.582,-85.909
1426786599.598,-55.699554
1426786599.614,-20.683807
1426786599.629,13.413574
1426786599.645,42.915863
1426786599.661,66.42825
1426786599.676,84.36328
1426786599.692,98.01819
1426786599.708,108.69507
1426786599.723,117.29834
1426786599.739,124.13977
1426786599.754,129.07202
1426786599.77,131.7196
1426786599.786,131.80219
1426786599.801,129.35535
1426786599.817,124.8772
1426786599.833,119.130066
1426786599.848,112.99133
1426786599.864,107.24695
1426786599.879,102.54761
1426786599.895,99.44501
1426786599.911,98.415955
1426786599.926,99.701294
1426786599.942,103.08679
1426786599.958,107.8327
1426786599.973,112.75476
1426786599.989,116.61304
1426786600.004,118.68225
1426786600.02,119.043884
1426786600.036,118.52338
1426786600.051,118.206116
1426786600.067,118.91394
1426786600.083,120.83948
1426786600.098,123.54993
1426786600.114,126.27722
1426786600.129,128.28857
1426786600.145,129.1134
1426786600.161,128.61255
1426786600.176,126.86426
1426786600.192,124.09155
1426786600.208,120.57361
1426786600.223,116.60718
1426786600.239,112.45264
1426786600.254,108.21997
1426786600.27,103.960815
1426786600.286,99.60742
1426786600.301,95.0968
1426786600.317,90.45288
1426786600.333,85.804565
1426786600.348,81.355225
1426786600.364,77.34558
1426786600.379,74.002686
1426786600.395,71.427
1426786600.411,69.60095
1426786600.426,68.32654
1426786600.442,67.267944
1426786600.458,66.0874
1426786600.473,64.59912
1426786600.489,62.972412
1426786600.504,61.683594
1426786600.52,61.36267
1426786600.536,62.361206
1426786600.551,64.49219
1426786600.567,66.84973
1426786600.583,68.08594
1426786600.598,66.82898
1426786600.614,62.251465
1426786600.629,54.428345
1426786600.645,44.232666
1426786600.661,33.047607
1426786600.676,22.207397
1426786600.692,12.661377
1426786600.708,4.7546387
1426786600.723,-1.5721436
1426786600.739,-6.5545654
1426786600.754,-10.316162
1426786600.77,-12.842773
1426786600.786,-13.998169
1426786600.801,-13.79834
1426786600.817,-12.515015
1426786600.833,-10.678345
1426786600.848,-8.919189
1426786600.864,-7.7019043
1426786600.879,-7.150635
1426786600.895,-7.020996
1426786600.911,-6.8270264
1426786600.926,-6.1553955
1426786600.942,-4.834961
1426786600.958,-3.0440674
1426786600.973,-1.1810303
1426786600.989,0.33044434
1426786601.004,1.2832031
1426786601.02,1.7797852
1426786601.036,2.1837158
1426786601.051,2.8937988
1426786601.067,4.232422
1426786601.083,6.2960205
1426786601.098,8.965332
1426786601.114,11.989868
1426786601.129,15.103149
1426786601.145,18.139526
1426786601.161,21.038452
1426786601.176,23.857788
1426786601.192,26.761719
1426786601.208,29.94458
1426786601.223,33.541016
1426786601.239,37.66516
1426786601.254,42.356445
1426786601.27,47.638184
1426786601.286,53.44873
1426786601.301,59.526
1426786601.317,65.24927
1426786601.333,69.680664
1426786601.348,71.66785
1426786601.364,70.230835
1426786601.379,64.89856
1426786601.395,55.979126
1426786601.411,44.4104
1426786601.426,31.540527
1426786601.442,18.581665
1426786601.458,6.4091797
1426786601.473,-4.581909
1426786601.489,-14.265137
1426786601.504,-22.571167
1426786601.52,-29.321655
1426786601.536,-34.26477
1426786601.551,-37.272827
1426786601.567,-38.438354
1426786601.583,-38.163208
1426786601.598,-36.934692
1426786601.614,-35.1864
1426786601.629,-33.167603
1426786601.645,-30.934692
1426786601.661,-28.545288
1426786601.676,-26.151733
1426786601.692,-24.109375
1426786601.708,-22.739258
1426786601.723,-22.233154
1426786601.739,-22.519165
1426786601.754,-23.194214
1426786601.77,-23.756958
1426786601.786,-23.752075
1426786601.801,-22.949585
1426786601.817,-21.365112
1426786601.833,-19.195313
1426786601.848,-16.714722
1426786601.864,-14.143677
1426786601.879,-11.625366
1426786601.895,-9.154297
1426786601.911,-6.66687
1426786601.926,-4.0406494
1426786601.942,-1.2652588
1426786601.958,1.5240479
1426786601.973,4.116577
1426786601.989,6.275635
1426786602.004,7.956299
1426786602.02,9.3688965
1426786602.036,10.97644
1426786602.051,13.346436
1426786602.067,17.0271
1426786602.083,22.349854
1426786602.098,29.3573
1426786602.114,37.783447
1426786602.13,47.03882
1426786602.145,56.254272
1426786602.161,64.35132
1426786602.176,70.159424
1426786602.192,72.56592
1426786602.208,70.878845
1426786602.223,64.9801
1426786602.239,55.415466
1426786602.254,43.359924
1426786602.27,30.226563
1426786602.286,17.36029
1426786602.301,5.7487183
1426786602.317,-4.100525
1426786602.333,-12.078064
1426786602.348,-18.266663
1426786602.364,-22.792603
1426786602.38,-25.756714
1426786602.395,-27.234924
1426786602.411,-27.394043
1426786602.426,-26.549683
1426786602.442,-25.135742
1426786602.458,-23.631348
1426786602.473,-22.336243
1426786602.489,-21.352234
1426786602.505,-20.585266
1426786602.52,-19.881897
1426786602.536,-19.190796
1426786602.551,-18.729187
1426786602.567,-18.835022
1426786602.583,-19.80072
1426786602.598,-21.680786
1426786602.614,-24.190613
1426786602.63,-26.76123
1426786602.645,-28.732178
1426786602.661,-29.6156
1426786602.676,-29.235474
1426786602.692,-27.78601
1426786602.708,-25.681091
1426786602.723,-23.339294
1426786602.739,-21.105286
1426786602.755,-19.079468
1426786602.77,-17.160889
1426786602.786,-15.126221
1426786602.801,-12.707947
1426786602.817,-9.657837
1426786602.833,-5.873047
1426786602.848,-1.3276978
1426786602.864,3.8536987
1426786602.88,9.496887
1426786602.895,15.357727
1426786602.911,21.275696
1426786602.926,27.22052
1426786602.942,33.318176
1426786602.958,39.8161
1426786602.973,46.99591
1426786602.989,55.02594
1426786603.005,63.78308
1426786603.02,72.74237
1426786603.036,80.98334
1426786603.051,87.31256
1426786603.067,90.44446
1426786603.083,89.342285
1426786603.098,83.46875
1426786603.114,72.92584
1426786603.13,58.523438
1426786603.145,41.601196
1426786603.161,23.716919
1426786603.176,6.3843384
1426786603.192,-9.200073
1426786603.208,-22.32129
1426786603.223,-32.655273
1426786603.239,-40.26764
1426786603.255,-45.43524
1426786603.27,-48.511536
1426786603.286,-49.84485
1426786603.301,-49.822876
1426786603.317,-48.797363
1426786603.333,-47.171387
1426786603.348,-45.374207
1426786603.364,-43.79419
1426786603.38,-42.717896
1426786603.395,-42.3183
1426786603.411,-42.594604
1426786603.426,-43.47052
1426786603.442,-44.84082
1426786603.458,-46.60736
1426786603.473,-48.622253
1426786603.489,-50.742615
1426786603.505,-52.61438
1426786603.52,-53.80664
1426786603.536,-53.87549
1426786603.551,-52.530945
1426786603.567,-49.756165
1426786603.583,-45.86798
1426786603.598,-41.33264
1426786603.614,-36.65747
1426786603.63,-32.15503
1426786603.645,-27.780823
1426786603.661,-23.234741
1426786603.676,-18.152222
1426786603.692,-12.274048
1426786603.708,-5.656433
1426786603.723,1.4059448
1426786603.739,8.455627
1426786603.755,15.163452
1426786603.77,21.367188
1426786603.786,27.20517
1426786603.801,33.01178
1426786603.817,39.13327
1426786603.833,45.898315
1426786603.848,53.409454
1426786603.864,61.507813
1426786603.88,69.70065
1426786603.895,77.12964
1426786603.911,82.671295
1426786603.926,85.09891
1426786603.942,83.401
1426786603.958,76.98038
1426786603.973,65.97592
1426786603.989,51.10971
1426786604.005,33.677032
1426786604.02,15.197662
1426786604.036,-2.7361145
1426786604.051,-18.779877
1426786604.067,-31.963104
1426786604.083,-41.88733
1426786604.098,-48.697723
1426786604.114,-52.908447
1426786604.13,-55.213013
1426786604.145,-56.154663
1426786604.161,-56.082275
1426786604.176,-55.167694
1426786604.192,-53.533813
1426786604.208,-51.45993
1426786604.223,-49.265106
1426786604.239,-47.353607
1426786604.255,-45.93466
1426786604.27,-45.04251
1426786604.286,-44.524963
1426786604.301,-44.276947
1426786604.317,-44.2359
1426786604.333,-44.44873
1426786604.348,-44.936127
1426786604.364,-45.57303
1426786604.38,-46.137207
1426786604.395,-46.28302
1426786604.411,-45.72284
1426786604.426,-44.312836
1426786604.442,-42.08264
1426786604.458,-39.188843
1426786604.473,-35.85565
1426786604.489,-32.327545
1426786604.505,-28.720184
1426786604.52,-25.059448
1426786604.536,-21.209808
1426786604.551,-16.978455
1426786604.567,-12.173889
1426786604.583,-6.7442017
1426786604.598,-0.8319702
1426786604.614,5.254242
1426786604.63,11.1839905
1426786604.645,16.78836
1426786604.661,22.099548
1426786604.676,27.358856
1426786604.692,32.876038
1426786604.708,38.890198
1426786604.723,45.53238
1426786604.739,52.766113
1426786604.755,60.469025
1426786604.77,68.314545
1426786604.786,75.74826
1426786604.801,81.89517
1426786604.817,85.62958
1426786604.833,85.826324
1426786604.848,81.691315
1426786604.864,73.013
1426786604.88,60.296112
1426786604.895,44.59955
1426786604.911,27.359192
1426786604.926,10.018066
1426786604.942,-6.207672
1426786604.958,-20.465942
1426786604.973,-32.16205
1426786604.989,-41.066193
1426786605.005,-47.21414
1426786605.02,-50.844055
1426786605.036,-52.368378
1426786605.052,-52.268158
1426786605.067,-51.009003
1426786605.083,-49.037476
1426786605.098,-46.762604
1426786605.114,-44.56186
1426786605.13,-42.712082
1426786605.145,-41.38112
1426786605.161,-40.56102
1426786605.177,-40.116333
1426786605.192,-39.89505
1426786605.208,-39.792175
1426786605.223,-39.858902
1426786605.239,-40.20117
1426786605.255,-40.814743
1426786605.27,-41.498947
1426786605.286,-41.838593
1426786605.302,-41.391922
1426786605.317,-39.914383
1426786605.333,-37.496613
1426786605.348,-34.513184
1426786605.364,-31.434738
1426786605.38,-28.549042
1426786605.395,-25.843765
1426786605.411,-23.030182
1426786605.427,-19.735718
1426786605.442,-15.69368
1426786605.458,-10.882294
1426786605.473,-5.4639587
1426786605.489,0.29794312
1426786605.505,6.216858
1426786605.52,12.202774
1426786605.536,18.257217
1426786605.552,24.459213
1426786605.567,30.87442
1426786605.583,37.512924
1426786605.598,44.466385
1426786605.614,51.865036
1426786605.63,59.774963
1426786605.645,68.12944
1426786605.661,76.56616
1426786605.677,84.30751
1426786605.692,90.20746
1426786605.708,92.938156
1426786605.723,91.401474
1426786605.739,85.00647
1426786605.755,74.00513
1426786605.77,59.369766
1426786605.786,42.61792
1426786605.802,25.378418
1426786605.817,9.044296
1426786605.833,-5.418457
1426786605.848,-17.519608
1426786605.864,-27.152023
1426786605.88,-34.401276
1426786605.895,-39.444107
1426786605.911,-42.439163
1426786605.927,-43.592957
1426786605.942,-43.14467
1426786605.958,-41.478455
1426786605.973,-39.043365
1426786605.989,-36.300964
1426786606.005,-33.68419
1426786606.02,-31.416443
1426786606.036,-29.6315
1426786606.052,-28.393616
1426786606.067,-27.689453
1426786606.083,-27.545746
1426786606.098,-27.96202
1426786606.114,-28.854797
1426786606.13,-30.042984
1426786606.145,-31.244156
1426786606.161,-32.13542
1426786606.177,-32.40587
1426786606.192,-31.882614
1426786606.208,-30.562195
1426786606.223,-28.552734
1426786606.239,-26.153427
1426786606.255,-23.620567
1426786606.27,-21.127968
1426786606.286,-18.713913
1426786606.302,-16.216469
1426786606.317,-13.426773
1426786606.333,-10.209076
1426786606.348,-6.5831833
1426786606.364,-2.6856995
1426786606.38,1.2728043
1426786606.395,5.153366
1426786606.411,8.899605
1426786606.427,12.513008
1426786606.442,15.990189
1426786606.458,19.289063
1426786606.473,22.388718
1426786606.489,25.38652
1426786606.505,28.574097
1426786606.52,32.36866
1426786606.536,37.251633
1426786606.552,43.478348
1426786606.567,50.99874
1426786606.583,59.32238
1426786606.598,67.62294
1426786606.614,74.82712
1426786606.63,79.84567
1426786606.645,81.76238
1426786606.661,80.02623
1426786606.677,74.55398
1426786606.692,65.68123
1426786606.708,54.00889
1426786606.723,40.338493
1426786606.739,25.42257
1426786606.755,10.021088
1426786606.77,-5.1508408
1426786606.786,-19.428978
1426786606.802,-32.22975
1426786606.817,-43.197998
1426786606.833,-52.342434
1426786606.848,-59.971386
1426786606.864,-66.49336
1426786606.88,-72.199005
1426786606.895,-77.07825
1426786606.911,-80.86217
1426786606.927,-83.28743
1426786606.942,-84.3589
1426786606.958,-84.41641
1426786606.973,-84.03825
1426786606.989,-83.74724
1426786607.005,-83.73419
1426786607.02,-83.761154
1426786607.036,-83.26196
1426786607.052,-81.66928
1426786607.067,-78.67371
1426786607.083,-74.362495
1426786607.098,-69.08879
1426786607.114,-63.301964
1426786607.13,-57.231106
1426786607.145,-50.87744
1426786607.161,-43.95174
1426786607.177,-36.14725
1426786607.192,-27.2617
1426786607.208,-17.33812
1426786607.223,-6.624157
1426786607.239,4.4671173
1426786607.255,15.520588
1426786607.27,26.146091
1426786607.286,36.037754
1426786607.302,44.960567
1426786607.317,52.756195
1426786607.333,59.36129
1426786607.348,64.88432
1426786607.364,69.5818
1426786607.38,73.887726
1426786607.395,78.26546
1426786607.411,83.175446
1426786607.427,88.789734
1426786607.442,94.93651
1426786607.458,100.96147
1426786607.473,105.79108
1426786607.489,108.19444
1426786607.505,107.05525
1426786607.52,101.78874
1426786607.536,92.550064
1426786607.552,80.123215
1426786607.567,65.72452
1426786607.583,50.57316
1426786607.598,35.63376
1426786607.614,21.518719
1426786607.63,8.601315
1426786607.645,-2.8623352
1426786607.661,-12.565834
1426786607.677,-20.23273
1426786607.692,-25.66877
1426786607.708,-28.898422
1426786607.724,-30.167168
1426786607.739,-29.962423
1426786607.755,-28.821402
1426786607.77,-27.239832
1426786607.786,-25.599289
1426786607.802,-24.158552
1426786607.817,-23.043451
1426786607.833,-22.350767
1426786607.849,-22.163845
1426786607.864,-22.545414
1426786607.88,-23.46923
1426786607.895,-24.812956
1426786607.911,-26.280293
1426786607.927,-27.565624
1426786607.942,-28.381516
1426786607.958,-28.628138
1426786607.974,-28.37532
1426786607.989,-27.820625
1426786608.005,-27.096497
1426786608.02,-26.212856
1426786608.036,-25.01104
1426786608.052,-23.200191
1426786608.067,-20.563993
1426786608.083,-16.986364
1426786608.099,-12.577658
1426786608.114,-7.564909
1426786608.13,-2.2158089
1426786608.145,3.3316345
1426786608.161,9.167927
1426786608.177,15.557991
1426786608.192,22.887955
1426786608.208,31.422226
1426786608.224,41.25624
1426786608.239,52.057426
1426786608.255,63.116077
1426786608.27,73.36685
1426786608.286,81.59511
1426786608.302,86.61758
1426786608.317,87.4921
1426786608.333,83.74495
1426786608.349,75.41611
1426786608.364,63.05043
1426786608.38,47.66205
1426786608.395,30.564316
1426786608.411,13.163681
1426786608.427,-3.199524
1426786608.442,-17.480148
1426786608.458,-29.063889
1426786608.474,-37.76174
1426786608.489,-43.739143
1426786608.505,-47.360542
1426786608.52,-49.060547
1426786608.536,-49.18428
1426786608.552,-48.054634
1426786608.567,-45.96998
1426786608.583,-43.30063
1426786608.599,-40.469986
1426786608.614,-37.94632
1426786608.63,-36.116028
1426786608.645,-35.218124
1426786608.661,-35.221375
1426786608.677,-35.935852
1426786608.692,-37.034805
1426786608.708,-38.221817
1426786608.724,-39.245636
1426786608.739,-39.91275
1426786608.755,-40.042328
1426786608.77,-39.400223
1426786608.786,-37.77014
1426786608.802,-34.970444
1426786608.817,-30.985458
1426786608.833,-25.992294
1426786608.849,-20.217117
1426786608.864,-13.95842
1426786608.88,-7.3821716
1426786608.895,-0.58232117
1426786608.911,6.4496765
1426786608.927,13.733215
1426786608.942,21.269943
1426786608.958,29.008957
1426786608.974,36.87332
1426786608.989,44.801086
1426786609.005,52.857742
1426786609.02,61.19548
1426786609.036,70.00835
1426786609.052,79.319016
1426786609.067,88.717224
1426786609.083,97.21933
1426786609.099,103.40538
1426786609.114,105.66104
1426786609.13,102.783295
1426786609.145,94.28105
1426786609.161,80.64064
1426786609.177,63.105408
1426786609.192,43.313217
1426786609.208,22.881027
1426786609.224,3.1547394
1426786609.239,-14.842148
1426786609.255,-30.332794
1426786609.27,-42.78235
1426786609.286,-51.875687
1426786609.302,-57.5719
1426786609.317,-60.08667
1426786609.333,-59.953278
1426786609.349,-57.88788
1426786609.364,-54.7464
1426786609.38,-51.334167
1426786609.395,-48.304626
1426786609.411,-46.037537
1426786609.427,-44.592377
1426786609.442,-43.842773
1426786609.458,-43.63855
1426786609.474,-43.88626
1426786609.489,-44.64966
1426786609.505,-45.972687
1426786609.52,-47.771088
1426786609.536,-49.714447
1426786609.552,-51.23999
1426786609.567,-51.7677
1426786609.583,-50.9122
1426786609.599,-48.568848
1426786609.614,-44.991486
1426786609.63,-40.518127
1426786609.645,-35.431
1426786609.661,-29.725739
1426786609.677,-23.23822
1426786609.692,-15.704803
1426786609.708,-7.031433
1426786609.724,2.5629883
1426786609.739,12.532593
1426786609.755,22.23114
1426786609.77,31.158173
1426786609.786,39.176483
1426786609.802,46.55774
1426786609.817,53.88333
1426786609.833,61.799103
1426786609.849,70.74243
1426786609.864,80.66257
1426786609.88,90.965
1426786609.895,100.510284
1426786609.911,107.76813
1426786609.927,111.14914
1426786609.942,109.36682
1426786609.958,101.69946
1426786609.974,88.2424
1426786609.989,69.81656
1426786610.005,47.900787
1426786610.02,24.334259
1426786610.036,1.0217896
1426786610.052,-20.295502
1426786610.067,-38.295288
1426786610.083,-52.22644
1426786610.099,-61.878662
1426786610.114,-67.61334
1426786610.13,-70.05249
1426786610.145,-69.90619
1426786610.161,-67.804565
1426786610.177,-64.27374
1426786610.192,-59.81613
1426786610.208,-55.02176
1426786610.224,-50.538757
1426786610.239,-46.96109
1426786610.255,-44.66684
1426786610.27,-43.76523
1426786610.286,-44.00168
1426786610.302,-44.967224
1426786610.317,-46.21521
1426786610.333,-47.420044
1426786610.349,-48.323578
1426786610.364,-48.79608
1426786610.38,-48.69339
1426786610.396,-47.810944
1426786610.411,-45.93518
1426786610.427,-42.856903
1426786610.442,-38.472076
1426786610.458,-32.814636
1426786610.474,-26.043274
1426786610.489,-18.444885
1426786610.505,-10.320892
1426786610.521,-1.9108887
1426786610.536,6.678528
1426786610.552,15.376251
1426786610.567,24.187714
1426786610.583,33.002228
1426786610.599,41.695282
1426786610.614,50.223267
1426786610.63,58.746185
1426786610.646,67.6416
1426786610.661,77.30594
1426786610.677,87.856384
1426786610.692,98.705505
1426786610.708,108.4859
1426786610.724,115.18921
1426786610.739,116.7041
1426786610.755,111.42908
1426786610.771,98.78052
1426786610.786,79.43225
1426786610.802,55.174805
1426786610.817,28.554382
1426786610.833,2.2356567
1426786610.849,-21.408325
1426786610.864,-40.860046
1426786610.88,-55.494873
1426786610.896,-65.48663
1426786610.911,-71.50726
1426786610.927,-74.32672
1426786610.942,-74.546875
1426786610.958,-72.58081
1426786610.974,-68.778076
1426786610.989,-63.607788
1426786611.005,-57.812805
1426786611.021,-52.29004
1426786611.036,-47.90985
1426786611.052,-45.286682
1426786611.067,-44.49182
1426786611.083,-45.18286
1426786611.099,-46.682922
1426786611.114,-48.300964
1426786611.13,-49.467896
1426786611.146,-49.849854
1426786611.161,-49.24878
1426786611.177,-47.555603
1426786611.192,-44.79016
1426786611.208,-41.36035
1426786611.224,-38.13556
1426786611.239,-36.125977
1426786611.255,-35.83545
1426786611.271,-36.621155
1426786611.286,-36.651733
1426786611.302,-33.574097
1426786611.317,-25.662354
1426786611.333,-12.875061
1426786611.349,3.0270386
1426786611.364,19.315857
1426786611.38,33.688843
1426786611.396,45.338806
1426786611.411,55.14984
1426786611.427,64.84253
1426786611.442,75.76599
1426786611.458,87.96863
1426786611.474,100.08649
1426786611.489,109.96478
1426786611.505,115.54993
1426786611.521,115.455505
1426786611.536,109.177185
1426786611.552,96.87463
1426786611.567,79.27008
1426786611.583,57.447144
1426786611.599,32.875916
1426786611.614,7.366272
1426786611.63,-17.016846
1426786611.646,-38.25116
1426786611.661,-54.717102
1426786611.677,-65.54315
1426786611.692,-70.80383
1426786611.708,-71.458496
1426786611.724,-68.887024
1426786611.739,-64.59314
1426786611.755,-59.706238
1426786611.771,-54.826843
1426786611.786,-50.085266
1426786611.802,-45.408142
1426786611.817,-40.64508
1426786611.833,-35.792786
1426786611.849,-31.093628
1426786611.864,-27.173584
1426786611.88,-24.937866
1426786611.896,-25.306519
1426786611.911,-28.750427
1426786611.927,-34.90265
1426786611.942,-42.503967
1426786611.958,-49.760315
1426786611.974,-54.96875
1426786611.989,-57.23761
1426786612.005,-56.641113
1426786612.021,-53.97516
1426786612.036,-50.079407
1426786612.052,-45.349243
1426786612.067,-39.54962
1426786612.083,-32.227905
1426786612.099,-23.229126
1426786612.114,-13.048767
1426786612.13,-2.67865
1426786612.146,6.9019775
1426786612.161,15.23053
1426786612.177,22.677795
1426786612.192,30.209412
1426786612.208,38.915833
1426786612.224,49.54486
1426786612.239,62.065735
1426786612.255,75.60004
1426786612.271,88.601135
1426786612.286,99.18854
1426786612.302,105.45447
1426786612.317,105.87891
1426786612.333,99.52905
1426786612.349,86.37964
1426786612.364,67.31537
1426786612.38,44.086792
1426786612.396,18.919067
1426786612.411,-5.8842773
1426786612.427,-28.40924
1426786612.442,-47.33612
1426786612.458,-62.03589
1426786612.474,-72.354126
1426786612.489,-78.444275
1426786612.505,-80.72363
1426786612.521,-79.79364
1426786612.536,-76.47485
1426786612.552,-71.69702
1426786612.567,-66.37146
1426786612.583,-61.263184
1426786612.599,-56.87097
1426786612.614,-53.505005
1426786612.63,-51.355408
1426786612.646,-50.48999
1426786612.661,-50.857727
1426786612.677,-52.22174
1426786612.692,-54.140503
1426786612.708,-56.077393
1426786612.724,-57.578857
1426786612.739,-58.396057
1426786612.755,-58.51825
1426786612.771,-58.05072
1426786612.786,-57.027405
1426786612.802,-55.366882
1426786612.817,-52.87195
1426786612.833,-49.39447
1426786612.849,-44.91333
1426786612.864,-39.597595
1426786612.88,-33.699158
1426786612.896,-27.474854
1426786612.911,-21.075623
1426786612.927,-14.547974
1426786612.942,-7.864563
1426786612.958,-1.0354614
1426786612.974,5.885681
1426786612.989,12.819824
1426786613.005,19.703735
1426786613.021,26.5531
1426786613.036,33.35614
1426786613.052,40.10663
1426786613.068,46.732544
1426786613.083,53.11438
1426786613.099,59.242126
1426786613.114,65.24524
1426786613.13,71.47095
1426786613.146,78.39911
1426786613.161,86.43854
1426786613.177,95.6275
1426786613.192,105.39862
1426786613.208,114.44855
1426786613.224,120.894104
1426786613.239,122.72577
1426786613.255,118.32208
1426786613.271,106.94653
1426786613.286,89.07416
1426786613.302,66.296936
1426786613.318,40.97754
1426786613.333,15.663513
1426786613.349,-7.4591064
1426786613.364,-26.935242
1426786613.38,-42.077972
1426786613.396,-52.832794
1426786613.411,-59.51523
1426786613.427,-62.68933
1426786613.443,-62.987274
1426786613.458,-61.183655
1426786613.474,-58.07202
1426786613.489,-54.48456
1426786613.505,-51.12744
1426786613.521,-48.474
1426786613.536,-46.765656
1426786613.552,-45.981018
1426786613.568,-46.038452
1426786613.583,-46.87555
1426786613.599,-48.48813
1426786613.614,-50.869293
1426786613.63,-53.923645
1426786613.646,-57.38391
1426786613.661,-60.767365
1426786613.677,-63.4581
1426786613.693,-64.841064
1426786613.708,-64.526825
1426786613.724,-62.424835
1426786613.739,-58.859375
1426786613.755,-54.381165
1426786613.771,-49.645477
1426786613.786,-45.09778
1426786613.802,-40.83264
1426786613.818,-36.6257
1426786613.833,-32.08725
1426786613.849,-26.877502
1426786613.864,-20.944977
1426786613.88,-14.503693
1426786613.896,-8.036102
1426786613.911,-1.9420471
1426786613.927,3.5160217
1426786613.943,8.428528
1426786613.958,13.046478
1426786613.974,17.692566
1426786613.989,22.589874
1426786614.005,27.74704
1426786614.021,33.002594
1426786614.036,38.11911
1426786614.052,42.923096
1426786614.068,47.35681
1426786614.083,51.539246
1426786614.099,55.68576
1426786614.114,60.08786
1426786614.13,65.09943
1426786614.146,70.97888
1426786614.161,77.86505
1426786614.177,85.61304
1426786614.193,93.66745
1426786614.208,100.9314
1426786614.224,105.901184
1426786614.239,106.95447
1426786614.255,102.77881
1426786614.271,92.822876
1426786614.286,77.5134
1426786614.302,58.208313
1426786614.318,36.86212
1426786614.333,15.543274
1426786614.349,-3.9936523
1426786614.364,-20.597168
1426786614.38,-33.66284
1426786614.396,-43.110474
1426786614.411,-49.08496
1426786614.427,-51.95517
1426786614.443,-52.152893
1426786614.458,-50.23822
1426786614.474,-46.901276
1426786614.489,-42.907166
1426786614.505,-38.996277
1426786614.521,-35.807007
1426786614.536,-33.776566
1426786614.552,-33.05162
1426786614.568,-33.528656
1426786614.583,-34.977203
1426786614.599,-37.086487
1426786614.614,-39.627304
1426786614.63,-42.391327
1426786614.646,-45.24556
1426786614.661,-47.99829
1426786614.677,-50.41432
1426786614.693,-52.17726
1426786614.708,-53.013138
1426786614.724,-52.76233
1426786614.739,-51.408157
1426786614.755,-49.046112
1426786614.771,-45.85411
1426786614.786,-42.041824
1426786614.802,-37.7955
1426786614.818,-33.313904
1426786614.833,-28.783295
1426786614.849,-24.318222
1426786614.864,-19.92096
1426786614.88,-15.448532
1426786614.896,-10.727432
1426786614.911,-5.5253296
1426786614.927,0.2468872
1426786614.943,6.5307007
1426786614.958,13.11731
1426786614.974,19.666168
1426786614.989,25.664566
1426786615.005,30.62268
1426786615.021,34.28061
1426786615.036,37.000336
1426786615.052,39.887085
1426786615.068,44.628365
1426786615.083,52.76648
1426786615.099,64.975266
1426786615.114,80.400795
1426786615.13,96.793816
1426786615.146,111.17783
1426786615.161,120.883545
1426786615.177,124.41203
1426786615.193,121.660095
1426786615.208,113.53548
1426786615.224,101.30074
1426786615.239,86.041664
1426786615.255,68.59163
1426786615.271,49.7582
1426786615.286,30.68734
1426786615.302,12.789223
1426786615.318,-2.391327
1426786615.333,-13.71241
1426786615.349,-20.746296
1426786615.364,-23.847206
1426786615.38,-23.815704
1426786615.396,-21.660488
1426786615.411,-18.289528
1426786615.427,-14.547749
1426786615.443,-11.388134
1426786615.458,-9.9033165
1426786615.474,-11.114323
1426786615.489,-15.588535
1426786615.505,-23.125923
1426786615.521,-32.697426
1426786615.536,-42.759457
1426786615.552,-51.78073
1426786615.568,-58.698322
1426786615.583,-63.169174
1426786615.599,-65.36695
1426786615.614,-65.77966
1426786615.63,-64.824356
1426786615.646,-62.88548
1426786615.661,-60.260735
1426786615.677,-57.240517
1426786615.693,-54.11043
1426786615.708,-51.099422
1426786615.724,-48.152298
1426786615.739,-44.884796
1426786615.755,-40.58055
1426786615.771,-34.600502
1426786615.786,-26.571339
1426786615.802,-16.963554
1426786615.818,-6.931156
1426786615.833,2.0181246
1426786615.849,8.682354
1426786615.864,12.584612
1426786615.88,14.215488
1426786615.896,14.853706
1426786615.911,16.125488
1426786615.927,19.44706
1426786615.943,25.678043
1426786615.958,34.91961
1426786615.974,46.511543
1426786615.99,59.30294
1426786616.005,72.03918
1426786616.021,83.73703
1426786616.036,94.0365
1426786616.052,103.14046
1426786616.068,111.425064
1426786616.083,118.9173
1426786616.099,124.8839
1426786616.115,127.839806
1426786616.13,126.27429
1426786616.146,119.188965
1426786616.161,106.665726
1426786616.177,89.82677
1426786616.193,70.409966
1426786616.208,50.16105
1426786616.224,30.44712
1426786616.24,12.121674
1426786616.255,-4.21579
1426786616.271,-18.113205
1426786616.286,-28.964348
1426786616.302,-36.29255
1426786616.318,-39.774483
1426786616.333,-39.64653
1426786616.349,-36.733444
1426786616.365,-32.27504
1426786616.38,-27.51667
1426786616.396,-23.64328
1426786616.411,-21.370003
1426786616.427,-21.124565
1426786616.443,-22.972221
1426786616.458,-26.726845
1426786616.474,-31.712105
1426786616.49,-37.049454
1426786616.505,-41.928207
1426786616.521,-45.99038
1426786616.536,-49.36766
1426786616.552,-52.477997
1426786616.568,-55.656273
1426786616.583,-58.84651
1426786616.599,-61.52623
1426786616.615,-62.96939
1426786616.63,-62.609108
1426786616.646,-60.319443
1426786616.661,-56.29464
1426786616.677,-50.913086
1426786616.693,-44.505516
1426786616.708,-37.32704
1426786616.724,-29.627518
1426786616.74,-21.773384
1426786616.755,-14.194466
1426786616.771,-7.3566513
1426786616.786,-1.4314957
1426786616.802,3.497673
1426786616.818,7.615494
1426786616.833,11.199303
1426786616.849,14.604721
1426786616.865,18.174652
1426786616.88,22.30651
1426786616.896,27.093056
1426786616.911,32.416656
1426786616.927,37.92758
1426786616.943,43.35343
1426786616.958,48.461052
1426786616.974,53.32969
1426786616.99,58.29486
1426786617.005,63.828445
1426786617.021,70.42664
1426786617.036,78.38006
1426786617.052,87.63759
1426786617.068,97.63777
1426786617.083,107.225006
1426786617.099,114.794876
1426786617.115,118.58682
1426786617.13,117.14737
1426786617.146,109.67111
1426786617.161,96.266556
1426786617.177,77.965256
1426786617.193,56.49958
1426786617.208,33.904472
1426786617.224,12.1790695
1426786617.24,-7.218231
1426786617.255,-23.251404
1426786617.271,-35.514
1426786617.286,-44.02571
1426786617.302,-49.045517
1426786617.318,-50.977608
1426786617.333,-50.378143
1426786617.349,-48.02955
1426786617.365,-45.011513
1426786617.38,-42.5308
1426786617.396,-41.545662
1426786617.411,-42.36476
1426786617.427,-44.57038
1426786617.443,-47.203644
1426786617.458,-49.317024
1426786617.474,-50.5123
1426786617.49,-51.08246
1426786617.505,-51.769035
1426786617.521,-53.284447
1426786617.536,-55.703087
1426786617.552,-58.461365
1426786617.568,-60.588722
1426786617.583,-61.207855
1426786617.599,-59.95571
1426786617.615,-57.088577
1426786617.63,-53.210594
1426786617.646,-48.91475
1426786617.661,-44.577713
1426786617.677,-40.207863
1426786617.693,-35.660263
1426786617.708,-30.845337
1426786617.724,-25.721336
1426786617.74,-20.589577
1426786617.755,-15.717636
1426786617.771,-11.375
1426786617.786,-7.590233
1426786617.802,-4.2025986
1426786617.818,-0.90006256
1426786617.833,2.5684433
1426786617.849,6.247574
1426786617.865,10.012878
1426786617.88,13.672424
1426786617.896,17.152306
1426786617.911,20.607399
1426786617.927,24.385635
1426786617.943,28.804916
1426786617.958,34.053215
1426786617.974,39.973778
1426786617.99,46.213844
1426786618.005,52.465073
1426786618.021,58.644203
1426786618.036,65.042755
1426786618.052,72.198616
1426786618.068,80.57954
1426786618.083,90.20602
1426786618.099,100.46458
1426786618.115,110.02229
1426786618.13,117.171265
1426786618.146,120.1611
1426786618.161,117.67745
1426786618.177,109.19998
1426786618.193,95.10796
1426786618.208,76.56578
1426786618.224,55.22267
1426786618.24,32.87726
1426786618.255,11.198372
1426786618.271,-8.480759
1426786618.286,-25.178047
1426786618.302,-38.219482
1426786618.318,-47.28032
1426786618.333,-52.382805
1426786618.349,-53.930862
1426786618.365,-52.703827
1426786618.38,-49.75831
1426786618.396,-46.259605
1426786618.411,-43.21621
1426786618.427,-41.302795
1426786618.443,-40.74013
1426786618.458,-41.50836
1426786618.474,-43.356163
1426786618.49,-46.049038
1426786618.505,-49.39266
1426786618.521,-53.176773
1426786618.536,-57.047867
1426786618.552,-60.571617
1426786618.568,-63.396755
1426786618.583,-65.438416
1426786618.599,-66.92467
1426786618.615,-68.15329
1426786618.63,-69.16998
1426786618.646,-69.62162
1426786618.662,-68.80576
1426786618.677,-66.10245
1426786618.693,-61.37176
1426786618.708,-55.16692
1426786618.724,-48.50056
1426786618.74,-42.365646
1426786618.755,-37.297268
1426786618.771,-33.17645
1426786618.787,-29.460976
1426786618.802,-25.533043
1426786618.818,-21.102638
1426786618.833,-16.278595
1426786618.849,-11.458008
1426786618.865,-7.011894
1426786618.88,-3.065422
1426786618.896,0.5467911
1426786618.912,4.143486
1426786618.927,8.082687
1426786618.943,12.668419
1426786618.958,17.873154
1426786618.974,23.571587
1426786618.99,29.499748
1426786619.005,35.435272
1426786619.021,41.212097
1426786619.037,46.792778
1426786619.052,52.211426
1426786619.068,57.531883
1426786619.083,62.874527
1426786619.099,68.44814
1426786619.115,74.61196
1426786619.13,81.72977
1426786619.146,89.971504
1426786619.162,99.06537
1426786619.177,108.042816
1426786619.193,115.39481
1426786619.208,119.22799
1426786619.224,117.825226
1426786619.24,110.12337
1426786619.255,96.05294
1426786619.271,76.602036
1426786619.287,53.606224
1426786619.302,29.308067
1426786619.318,5.9315414
1426786619.333,-14.728851
1426786619.349,-31.529335
1426786619.365,-44.050865
1426786619.38,-52.51046
1426786619.396,-57.472214
1426786619.412,-59.698547
1426786619.427,-59.876328
1426786619.443,-58.546707
1426786619.458,-56.12892
1426786619.474,-52.99678
1426786619.49,-49.561096
1426786619.505,-46.306076
1426786619.521,-43.72738
1426786619.537,-42.20008
1426786619.552,-41.902695
1426786619.568,-42.75789
1426786619.583,-44.553757
1426786619.599,-46.94906
1426786619.615,-49.617645
1426786619.63,-52.25885
1426786619.646,-54.644615
1426786619.662,-56.586365
1426786619.677,-57.898567
1426786619.693,-58.388138
1426786619.708,-57.918617
1426786619.724,-56.466125
1426786619.74,-54.16691
1426786619.755,-51.274673
1426786619.771,-48.080956
1426786619.787,-44.77887
1426786619.802,-41.390984
1426786619.818,-37.773552
1426786619.833,-33.692055
1426786619.849,-28.975708
1426786619.865,-23.680222
1426786619.88,-18.053093
1426786619.896,-12.477425
1426786619.912,-7.2693634
1426786619.927,-2.5815277
1426786619.943,1.7017288
1426786619.958,5.821266
1426786619.974,10.061729
1426786619.99,14.553398
1426786620.005,19.280113
1426786620.021,24.117859
1426786620.037,28.904305
1426786620.052,33.535416
1426786620.068,37.975266
1426786620.083,42.25444
1426786620.099,46.46805
1426786620.115,50.794716
1426786620.13,55.534042
1426786620.146,61.09024
1426786620.162,67.84259
1426786620.177,75.85962
1426786620.193,84.72032
1426786620.208,93.369644
1426786620.224,100.24176
1426786620.24,103.63661
1426786620.255,102.17583
1426786620.271,95.22002
1426786620.287,83.027725
1426786620.302,66.67659
1426786620.318,47.774536
1426786620.333,28.058365
1426786620.349,9.108505
1426786620.365,-7.845459
1426786620.38,-22.008072
1426786620.396,-32.97107
1426786620.412,-40.647552
1426786620.427,-45.261078
1426786620.443,-47.188614
1426786620.458,-46.953094
1426786620.474,-45.08168
1426786620.49,-42.107956
1426786620.505,-38.573776
1426786620.521,-35.049194
1426786620.537,-32.072586
1426786620.552,-30.090073
1426786620.568,-29.322449
1426786620.583,-29.75499
1426786620.599,-31.164642
1426786620.615,-33.25888
1426786620.63,-35.785706
1426786620.646,-38.56424
1426786620.662,-41.400467
1426786620.677,-44.00493
1426786620.693,-45.996643
1426786620.708,-46.972137
1426786620.724,-46.69812
1426786620.74,-45.233337
1426786620.755,-42.81604
1426786620.771,-39.780304
1426786620.787,-36.32097
1426786620.802,-32.45964
1426786620.818,-28.098343
1426786620.833,-23.169617
1426786620.849,-17.743652
1426786620.865,-12.02356
1426786620.88,-6.243393
1426786620.896,-0.50427246
1426786620.912,5.206421
1426786620.927,10.957443
1426786620.943,16.782135
1426786620.958,22.62117
1426786620.974,28.323792
1426786620.99,33.732925
1426786621.005,38.78029
1426786621.021,43.458847
1426786621.037,47.89171
1426786621.052,52.283386
1426786621.068,56.944504
1426786621.083,62.255432
1426786621.099,68.52316
1426786621.115,75.86093
1426786621.13,83.97522
1426786621.146,92.04175
1426786621.162,98.822586
1426786621.177,102.88397
1426786621.193,102.94824
1426786621.208,98.23657
1426786621.224,88.65291
1426786621.24,74.76335
1426786621.255,57.681885
1426786621.271,38.822617
1426786621.287,19.655685
1426786621.302,1.568985
1426786621.318,-14.288055
1426786621.334,-27.10823
1426786621.349,-36.49736
1426786621.365,-42.502655
1426786621.38,-45.56131
1426786621.396,-46.338272
1426786621.412,-45.57019
1426786621.427,-43.908447
1426786621.443,-41.822937
1426786621.459,-39.661682
1426786621.474,-37.665054
1426786621.49,-36.06035
1426786621.505,-35.029648
1426786621.521,-34.778305
1426786621.537,-35.443115
1426786621.552,-37.0114
1426786621.568,-39.31897
1426786621.584,-42.045288
1426786621.599,-44.75508
1426786621.615,-47.06984
1426786621.63,-48.662216
1426786621.646,-49.390503
1426786621.662,-49.24916
1426786621.677,-48.338867
1426786621.693,-46.72487
1426786621.709,-44.434998
1426786621.724,-41.42404
1426786621.74,-37.63408
1426786621.755,-33.06996
1426786621.771,-27.836838
1426786621.787,-22.115906
1426786621.802,-16.124924
1426786621.818,-10.03511
1426786621.834,-3.943512
1426786621.849,2.1192017
1426786621.865,8.146362
1426786621.88,14.18309
1426786621.896,20.235626
1426786621.912,26.29805
1426786621.927,32.338028
1426786621.943,38.327805
1426786621.959,44.22313
1426786621.974,49.968613
1426786621.99,55.507385
1426786622.005,60.874725
1426786622.021,66.188644
1426786622.037,71.74182
1426786622.052,77.9151
1426786622.068,85.08385
1426786622.084,93.295334
1426786622.099,102.09259
1426786622.115,110.35033
1426786622.13,116.425964
1426786622.146,118.47359
1426786622.162,115.00328
1426786622.177,105.32771
1426786622.193,89.84003
1426786622.209,69.89071
1426786622.224,47.470734
1426786622.24,24.639145
1426786622.255,3.1599197
1426786622.271,-15.737007
1426786622.287,-31.349113
1426786622.302,-43.386436
1426786622.318,-51.803665
1426786622.334,-56.749435
1426786622.349,-58.55661
1426786622.365,-57.797966
1426786622.38,-55.27401
1426786622.396,-51.87155
1426786622.412,-48.533066
1426786622.427,-45.96982
1426786622.443,-44.627754
1426786622.459,-44.610474
1426786622.474,-45.753723
1426786622.49,-47.75741
1426786622.505,-50.310173
1426786622.521,-53.23191
1426786622.537,-56.394997
1426786622.552,-59.700638
1426786622.568,-62.92148
1426786622.584,-65.707436
1426786622.599,-67.65675
1426786622.615,-68.43757
1426786622.63,-67.89831
1426786622.646,-66.14375
1426786622.662,-63.44211
1426786622.677,-60.12372
1426786622.693,-56.46698
1426786622.709,-52.606316
1426786622.724,-48.55381
1426786622.74,-44.304924
1426786622.755,-39.851723
1426786622.771,-35.262695
1426786622.787,-30.583282
1426786622.802,-25.84468
1426786622.818,-21.024307
1426786622.834,-16.040909
1426786622.849,-10.823494
1426786622.865,-5.384102
1426786622.88,0.19717407
1426786622.896,5.8190613
1426786622.912,11.401344
1426786622.927,16.955582
1426786622.943,22.596794
1426786622.959,28.455673
1426786622.974,34.58777
1426786622.99,40.871567
1426786623.005,47.092705
1426786623.021,52.96366
1426786623.037,58.33259
1426786623.052,63.27571
1426786623.068,68.19897
1426786623.084,73.72231
1426786623.099,80.528366
1426786623.115,89.02147
1426786623.13,99.01062
1426786623.146,109.56259
1426786623.162,119.06961
1426786623.177,125.61134
1426786623.193,127.39183
1426786623.209,123.24062
1426786623.224,112.87382
1426786623.24,96.90916
1426786623.255,76.709625
1426786623.271,54.021255
1426786623.287,30.75558
1426786623.302,8.659443
1426786623.318,-10.83466
1426786623.334,-26.754356
1426786623.349,-38.658085
1426786623.365,-46.63235
1426786623.38,-51.170094
1426786623.396,-52.994144
1426786623.412,-52.904846
1426786623.427,-51.667637
1426786623.443,-49.893764
1426786623.459,-48.085533
1426786623.474,-46.63051
1426786623.49,-45.845764
1426786623.505,-45.969032
1426786623.521,-47.20889
1426786623.537,-49.591217
1426786623.552,-53.01625
1426786623.568,-57.121765
1426786623.584,-61.412853
1426786623.599,-65.29193
1426786623.615,-68.25644
1426786623.63,-69.99489
1426786623.646,-70.43321
1426786623.662,-69.70184
1426786623.677,-68.035355
1426786623.693,-65.58684
1426786623.709,-62.459297
1426786623.724,-58.68853
1426786623.74,-54.334724
1426786623.755,-49.525482
1426786623.771,-44.48053
1426786623.787,-39.379715
1426786623.802,-34.385063
1426786623.818,-29.48829
1426786623.834,-24.57126
1426786623.849,-19.439852
1426786623.865,-13.983147
1426786623.88,-8.25425
1426786623.896,-2.4972134
1426786623.912,2.8964634
1426786623.927,7.55262
1426786623.943,11.294613
1426786623.959,14.251364
1426786623.974,16.830294
1426786623.99,19.568314
1426786624.006,22.916395
1426786624.021,27.067722
1426786624.037,31.898052
1426786624.052,37.045906
1426786624.068,42.153847
1426786624.084,47.007896
1426786624.099,51.691765
1426786624.115,56.576927
1426786624.13,62.15656
1426786624.146,68.88548
1426786624.162,77.01139
1426786624.177,86.37544
1426786624.193,96.375916
1426786624.209,105.90455
1426786624.224,113.50962
1426786624.24,117.58582
1426786624.256,116.7298
1426786624.271,110.06589
1426786624.287,97.538925
1426786624.302,79.95008
1426786624.318,58.86699
1426786624.334,36.309677
1426786624.349,14.349197
1426786624.365,-5.277816
1426786624.381,-21.464256
1426786624.396,-33.76142
1426786624.412,-42.32834
1426786624.427,-47.67171
1426786624.443,-50.39131
1426786624.459,-51.021175
1426786624.474,-50.029385
1426786624.49,-47.91137
1426786624.506,-45.2737
1426786624.521,-42.831608
1426786624.537,-41.30504
1426786624.552,-41.191864
1426786624.568,-42.664368
1426786624.584,-45.539936
1426786624.599,-49.368908
1426786624.615,-53.684063
1426786624.631,-58.109264
1426786624.646,-62.41381
1426786624.662,-66.42343
1426786624.677,-69.93493
1426786624.693,-72.57952
1426786624.709,-73.95487
1426786624.724,-73.67311
1426786624.74,-71.65154
1426786624.756,-68.11219
1426786624.771,-63.60401
1426786624.787,-58.724712
1426786624.802,-53.965622
1426786624.818,-49.514866
1426786624.834,-45.280384
1426786624.849,-41.02077
1426786624.865,-36.511826
1426786624.881,-31.686451
1426786624.896,-26.663507
1426786624.912,-21.639887
1426786624.927,-16.825989
1426786624.943,-12.348098
1426786624.959,-8.248237
1426786624.974,-4.4995975
1426786624.99,-1.0211005
1426786625.006,2.2655878
1426786625.021,5.4507046
1426786625.037,8.633532
1426786625.052,11.955374
1426786625.068,15.581804
1426786625.084,19.650389
1426786625.099,24.267921
1426786625.115,29.407963
1426786625.131,34.922962
1426786625.146,40.56717
1426786625.162,46.098198
1426786625.177,51.379066
1426786625.193,56.508472
1426786625.209,61.81388
1426786625.224,67.86844
1426786625.24,75.20199
1426786625.256,84.11957
1426786625.271,94.36226
1426786625.287,105.00991
1426786625.302,114.550934
1426786625.318,121.18845
1426786625.334,123.27321
1426786625.349,119.747604
1426786625.365,110.32158
1426786625.381,95.52491
1426786625.396,76.528
1426786625.412,54.92559
1426786625.427,32.500393
1426786625.443,11.065471
1426786625.459,-7.841218
1426786625.474,-23.0899
1426786625.49,-34.203514
1426786625.506,-41.340954
1426786625.521,-45.178577
1426786625.537,-46.665638
1426786625.552,-46.708374
1426786625.568,-45.95863
1426786625.584,-44.787075
1426786625.599,-43.383865
1426786625.615,-41.908302
1426786625.631,-40.657227
1426786625.646,-40.067493
1426786625.662,-40.598335
1426786625.677,-42.54581
1426786625.693,-45.918552
1426786625.709,-50.36998
1426786625.724,-55.261703
1426786625.74,-59.93313
1426786625.756,-63.81073
1426786625.771,-66.61102
1426786625.787,-68.26935
1426786625.802,-68.85006
1426786625.818,-68.399086
1426786625.834,-66.922325
1426786625.849,-64.368256
1426786625.865,-60.782814
1426786625.881,-56.372635
1426786625.896,-51.4627
1426786625.912,-46.418602
1426786625.927,-41.51546
1426786625.943,-36.839165
1426786625.959,-32.299988
1426786625.974,-27.732723
1426786625.99,-23.04181
1426786626.006,-18.230932
1426786626.021,-13.449763
1426786626.037,-8.898661
1426786626.052,-4.7559195
1426786626.068,-1.0905132
1426786626.084,2.1684937
1426786626.099,5.2138243
1426786626.115,8.333285
1426786626.131,11.834133
1426786626.146,15.950046
1426786626.162,20.756634
1426786626.177,26.174973
1426786626.193,31.98666
1426786626.209,37.940475
1426786626.224,43.83876
1426786626.24,49.57538
1426786626.256,55.210068
1426786626.271,60.907288
1426786626.287,66.944626
1426786626.302,73.65579
1426786626.318,81.30062
1426786626.334,89.89891
1426786626.349,99.07189
1426786626.365,107.91729
1426786626.381,115.00989
1426786626.396,118.629555
1426786626.412,117.23288
1426786626.427,109.861084
1426786626.443,96.48876
1426786626.459,78.11005
1426786626.474,56.51815
1426786626.49,33.791832
1426786626.506,11.877581
1426786626.521,-7.8118305
1426786626.537,-24.451946
1426786626.552,-37.700222
1426786626.568,-47.504837
1426786626.584,-53.940083
1426786626.599,-57.17329
1426786626.615,-57.541183
1426786626.631,-55.606712
1426786626.646,-52.202328
1426786626.662,-48.210606
1426786626.678,-44.505802
1426786626.693,-41.65775
1426786626.709,-40.039684
1426786626.724,-39.73799
1426786626.74,-40.714573
1426786626.756,-42.82053
1426786626.771,-45.87026
1426786626.787,-49.58402
1426786626.802,-53.65888
1426786626.818,-57.727802
1426786626.834,-61.39572
1426786626.849,-64.2878
1426786626.865,-66.1039
1426786626.881,-66.6236
1426786626.896,-65.84089
1426786626.912,-63.890728
1426786626.928,-61.047054
1426786626.943,-57.58845
1426786626.959,-53.777447
1426786626.974,-49.696945
1426786626.99,-45.37127
1426786627.006,-40.748287
1426786627.021,-35.870075
1426786627.037,-30.81831
1426786627.053,-25.75167
1426786627.068,-20.829458
1426786627.084,-16.206808
1426786627.099,-11.944662
1426786627.115,-8.0749
1426786627.131,-4.541521
1426786627.146,-1.2404003
1426786627.162,1.9515324
1426786627.178,5.1504745
1426786627.193,8.487741
1426786627.209,12.082397
1426786627.224,16.061203
1426786627.24,20.52489
1426786627.256,25.50951
1426786627.271,30.892826
1426786627.287,36.445713
1426786627.303,41.84795
1426786627.318,46.87004
1426786627.334,51.48167
1426786627.349,56.00057
1426786627.365,60.94669
1426786627.381,66.90294
1426786627.396,74.260925
1426786627.412,82.9381
1426786627.428,92.2507
1426786627.443,100.961044
1426786627.459,107.5051
1426786627.474,110.30138
1426786627.49,108.15451
1426786627.506,100.56671
1426786627.521,87.844635
1426786627.537,71.08388
1426786627.553,51.884663
1426786627.568,32.024677
1426786627.584,13.109463
1426786627.599,-3.5853157
1426786627.615,-17.268368
1426786627.631,-27.583652
1426786627.646,-34.57659
1426786627.662,-38.592846
1426786627.678,-40.17684
1426786627.693,-39.960697
1426786627.709,-38.560974
1426786627.724,-36.566124
1426786627.74,-34.44817
1426786627.756,-32.60467
1426786627.771,-31.442032
1426786627.787,-31.288925
1426786627.803,-32.38059
1426786627.818,-34.784542
1426786627.834,-38.364777
1426786627.849,-42.759182
1426786627.865,-47.457886
1426786627.881,-51.911736
1426786627.896,-55.648186
1426786627.912,-58.29945
1426786627.928,-59.697605
1426786627.943,-59.84105
1426786627.959,-58.812862
1426786627.974,-56.75835
1426786627.99,-53.82589
1426786628.006,-50.201984
1426786628.021,-46.10243
1426786628.037,-41.69715
1426786628.053,-37.123474
1426786628.068,-32.37243
1426786628.084,-27.369804
1426786628.099,-21.990845
1426786628.115,-16.20823
1426786628.131,-10.165848
1426786628.146,-4.167671
1426786628.162,1.3923035
1426786628.178,6.261307
1426786628.193,10.368507
1426786628.209,13.922455
1426786628.224,17.27842
1426786628.24,20.794235
1426786628.256,24.729813
1426786628.271,29.1512
1426786628.287,33.92881
1426786628.303,38.83629
1426786628.318,43.64525
1426786628.334,48.228264
1426786628.349,52.673317
1426786628.365,57.212204
1426786628.381,62.290863
1426786628.396,68.29252
1426786628.412,75.46519
1426786628.428,83.66308
1426786628.443,92.25772
1426786628.459,100.139046
1426786628.474,105.91783
1426786628.49,108.2191
1426786628.506,105.973595
1426786628.521,98.690735
1426786628.537,86.57416
1426786628.553,70.46634
1426786628.568,51.700813
1426786628.584,31.819298
1426786628.599,12.361664
1426786628.615,-5.363861
1426786628.631,-20.364044
1426786628.646,-32.112617
1426786628.662,-40.46312
1426786628.678,-45.66758
1426786628.693,-48.197937
1426786628.709,-48.67334
1426786628.724,-47.707733
1426786628.74,-45.87033
1426786628.756,-43.687263
1426786628.771,-41.666115
1426786628.787,-40.300552
1426786628.803,-40.008507
1426786628.818,-41.046494
1426786628.834,-43.41398
1426786628.849,-46.79802
1426786628.865,-50.715538
1426786628.881,-54.551758
1426786628.896,-57.81948
1426786628.912,-60.19912
1426786628.928,-61.565765
1426786628.943,-61.914063
1426786628.959,-61.3508
1426786628.974,-59.960503
1426786628.99,-57.83602
1426786629.006,-55.071716
1426786629.021,-51.714615
1426786629.037,-47.837563
1426786629.053,-43.529404
1426786629.068,-38.901955
1426786629.084,-34.10367
1426786629.099,-29.236267
1426786629.115,-24.359741
1426786629.131,-19.473831
1426786629.146,-14.619568
1426786629.162,-9.868019
1426786629.178,-5.4121323
1426786629.193,-1.4030457
1426786629.209,2.0928116
1426786629.224,5.192032
1426786629.24,8.131775
1426786629.256,11.2070465
1426786629.271,14.619492
1426786629.287,18.421227
1426786629.303,22.564598
1426786629.318,26.949348
1426786629.334,31.529701
1426786629.349,36.314827
1426786629.365,41.323357
1426786629.381,46.539803
1426786629.396,51.877045
1426786629.412,57.22577
1426786629.428,62.55282
1426786629.443,68.06268
1426786629.459,74.13703
1426786629.474,81.1961
1426786629.49,89.404465
1426786629.506,98.295204
1426786629.521,106.64511
1426786629.537,112.64899
1426786629.553,114.38487
1426786629.568,110.45574
1426786629.584,100.45701
1426786629.6,85.08992
1426786629.615,65.95737
1426786629.631,45.035812
1426786629.646,24.157738
1426786629.662,4.7423553
1426786629.678,-12.326218
1426786629.693,-26.52594
1426786629.709,-37.600143
1426786629.725,-45.45137
1426786629.74,-50.155388
1426786629.756,-52.045113
1426786629.771,-51.661964
1426786629.787,-49.73339
1426786629.803,-47.038963
1426786629.818,-44.269638
1426786629.834,-41.948242
1426786629.85,-40.36972
1426786629.865,-39.66639
1426786629.881,-39.844543
1426786629.896,-40.881424
1426786629.912,-42.723007
1426786629.928,-45.293655
1426786629.943,-48.40335
1426786629.959,-51.756485
1426786629.975,-54.877846
1426786629.99,-57.239456
1426786630.006,-58.417625
1426786630.021,-58.23265
1426786630.037,-56.8276
1426786630.053,-54.624756
1426786630.068,-52.126556
1426786630.084,-49.643677
1426786630.1,-47.26883
1426786630.115,-44.854317
1426786630.131,-42.140366
1426786630.146,-38.99257
1426786630.162,-35.44522
1426786630.178,-31.691002
1426786630.193,-27.929512
1426786630.209,-24.224693
1426786630.225,-20.490196
1426786630.24,-16.57399
1426786630.256,-12.3934555
1426786630.271,-8.096626
1426786630.287,-3.9283447
1426786630.303,-0.20663452
1426786630.318,2.9723663
1426786630.334,5.730118
1426786630.35,8.460472
1426786630.365,11.614227
1426786630.381,15.502922
1426786630.396,20.138512
1426786630.412,25.266762
1426786630.428,30.514
1426786630.443,35.5775
1426786630.459,40.342735
1426786630.475,44.968613
1426786630.49,49.799026
1426786630.506,55.344177
1426786630.521,62.116043
1426786630.537,70.491295
1426786630.553,80.47526
1426786630.568,91.483055
1426786630.584,102.25179
1426786630.6,111.034485
1426786630.615,115.9139
1426786630.631,115.38723
1426786630.646,108.773285
1426786630.662,96.41355
1426786630.678,79.547874
1426786630.693,59.94261
1426786630.709,39.43387
1426786630.725,19.678429
1426786630.74,1.9558945
1426786630.756,-12.845177
1426786630.771,-24.242378
1426786630.787,-32.133736
1426786630.803,-36.827873
1426786630.818,-38.923004
1426786630.834,-39.191154
1426786630.85,-38.402992
1426786630.865,-37.199905
1426786630.881,-36.009766
1426786630.896,-35.117577
1426786630.912,-34.726868
1426786630.928,-34.99202
1426786630.943,-36.03157
1426786630.959,-37.900383
1426786630.975,-40.5149
1426786630.99,-43.746414
1426786631.006,-47.378914
1426786631.021,-51.22737
1426786631.037,-55.105904
1426786631.053,-58.75975
1426786631.068,-61.808777
1426786631.084,-63.8554
1426786631.1,-64.514786
1426786631.115,-63.613907
1426786631.131,-61.245934
1426786631.146,-57.76557
1426786631.162,-53.62542
1426786631.178,-49.293068
1426786631.193,-45.01822
1426786631.209,-40.90207
1426786631.225,-36.914635
1426786631.24,-32.937286
1426786631.256,-28.848389
1426786631.271,-24.53582
1426786631.287,-19.883858
1426786631.303,-14.914375
1426786631.318,-9.799019
1426786631.334,-4.8114166
1426786631.35,-0.24217224
1426786631.365,3.8026352
1426786631.381,7.4916534
1426786631.396,11.216103
1426786631.412,15.400833
1426786631.428,20.276512
1426786631.443,25.707947
1426786631.459,31.275948
1426786631.475,36.499016
1426786631.49,41.019714
1426786631.506,44.89715
1426786631.521,48.475456
1426786631.537,52.27717
1426786631.553,56.77289
1426786631.568,62.25814
1426786631.584,68.69594
1426786631.6,75.722244
1426786631.615,82.6255
1426786631.631,88.36803
1426786631.646,91.70249
1426786631.662,91.465744
1426786631.678,86.85809
1426786631.693,77.71682
1426786631.709,64.62572
1426786631.725,48.773964
1426786631.74,31.680984
1426786631.756,14.8448715
1426786631.771,-0.5988617
1426786631.787,-13.889389
1426786631.803,-24.618614
1426786631.818,-32.652557
1426786631.834,-38.023674
1426786631.85,-40.894287
1426786631.865,-41.579468
1426786631.881,-40.519524
1426786631.896,-38.27188
1426786631.912,-35.412827
1426786631.928,-32.45981
1426786631.943,-29.873138
1426786631.959,-28.04145
1426786631.975,-27.259773
1426786631.99,-27.731316
1426786632.006,-29.458458
1426786632.021,-32.22718
1426786632.037,-35.63479
1426786632.053,-39.205215
1426786632.068,-42.453163
1426786632.084,-45.041504
1426786632.1,-46.751274
1426786632.115,-47.47309
1426786632.131,-47.184425
1426786632.146,-45.91783
1426786632.162,-43.80342
1426786632.178,-41.014015
1426786632.193,-37.72448
1426786632.209,-34.08545
1426786632.225,-30.126457
1426786632.24,-25.821426
1426786632.256,-21.117935
1426786632.272,-16.018051
1426786632.287,-10.615921
1426786632.303,-5.0897675
1426786632.318,0.39710236
1426786632.334,5.7176437
1426786632.35,10.866875
1426786632.365,15.864944
1426786632.381,20.813675
1426786632.397,25.748123
1426786632.412,30.643204
1426786632.428,35.413986
1426786632.443,40.006165
1426786632.459,44.420532
1426786632.475,48.860764
1426786632.49,53.6324
1426786632.506,59.085144
1426786632.522,65.45404
1426786632.537,72.72464
1426786632.553,80.5363
1426786632.568,88.17001
1426786632.584,94.60744
1426786632.6,98.704254
1426786632.615,99.37462
1426786632.631,95.80295
1426786632.647,87.67766
1426786632.662,75.30491
1426786632.678,59.539474
1426786632.693,41.657204
1426786632.709,23.017517
1426786632.725,4.910858
1426786632.74,-11.59523
1426786632.756,-25.672127
1426786632.772,-36.758286
1426786632.787,-44.58915
1426786632.803,-49.26364
1426786632.818,-51.15954
1426786632.834,-50.91887
1426786632.85,-49.20912
1426786632.865,-46.618546
1426786632.881,-43.630104
1426786632.897,-40.670204
1426786632.912,-38.19326
1426786632.928,-36.66751
1426786632.943,-36.48993
1426786632.959,-37.824654
1426786632.975,-40.517113
1426786632.99,-44.16143
1426786633.006,-48.19111
1426786633.022,-52.02903
1426786633.037,-55.194183
1426786633.053,-57.34012
1426786633.068,-58.250168
1426786633.084,-57.9504
1426786633.1,-56.594467
1426786633.115,-54.45925
1426786633.131,-51.75251
1426786633.147,-48.585884
1426786633.162,-44.896645
1426786633.178,-40.578598
1426786633.193,-35.55494
1426786633.209,-29.906784
1426786633.225,-23.855553
1426786633.24,-17.653816
1426786633.256,-11.535805
1426786633.272,-5.673485
1426786633.287,-0.15286255
1426786633.303,4.9788513
1426786633.318,9.739426
1426786633.334,14.228645
1426786633.35,18.689926
1426786633.365,23.370697
1426786633.381,28.500473
1426786633.397,34.102905
1426786633.412,40.011856
1426786633.428,45.900703
1426786633.443,51.54483
1426786633.459,56.85514
1426786633.475,62.075546
1426786633.49,67.681145
1426786633.506,74.21889
1426786633.522,82.08048
1426786633.537,91.22639
1426786633.553,101.02658
1426786633.568,110.262115
1426786633.584,117.3507
1426786633.6,120.63735
1426786633.615,118.845345
1426786633.631,111.38301
1426786633.647,98.45467
1426786633.662,81.05439
1426786633.678,60.65644
1426786633.693,38.974823
1426786633.709,17.680855
1426786633.725,-1.8053513
1426786633.74,-18.413109
1426786633.756,-31.470848
1426786633.772,-40.735397
1426786633.787,-46.434853
1426786633.803,-49.151176
1426786633.818,-49.725334
1426786633.834,-49.054893
1426786633.85,-47.901
1426786633.865,-46.747787
1426786633.881,-45.79882
1426786633.897,-45.130226
1426786633.912,-44.833305
1426786633.928,-45.1277
1426786633.943,-46.293648
1426786633.959,-48.559013
1426786633.975,-51.89051
1426786633.99,-55.913605
1426786634.006,-60.037064
1426786634.022,-63.64843
1426786634.037,-66.36747
1426786634.053,-68.10951
1426786634.068,-69.00294
1426786634.084,-69.18351
1426786634.1,-68.6085
1426786634.115,-67.10193
1426786634.131,-64.46738
1426786634.147,-60.645523
1426786634.162,-55.800507
1426786634.178,-50.304306
1426786634.193,-44.566578
1426786634.209,-38.905243
1426786634.225,-33.486214
1426786634.24,-28.318657
1426786634.256,-23.32853
1426786634.272,-18.461044
1426786634.287,-13.696602
1426786634.303,-9.04866
1426786634.318,-4.5529327
1426786634.334,-0.22819519
1426786634.35,3.9061584
1426786634.365,7.868202
1426786634.381,11.722748
1426786634.397,15.585884
1426786634.412,19.606476
1426786634.428,23.944893
1426786634.443,28.694603
1426786634.459,33.81315
1426786634.475,39.193893
1426786634.49,44.67414
1426786634.506,50.14808
1426786634.522,55.641922
1426786634.537,61.32879
1426786634.553,67.52255
1426786634.568,74.57847
1426786634.584,82.72938
1426786634.6,91.946976
1426786634.615,101.73894
1426786634.631,111.087585
1426786634.647,118.485695
1426786634.662,122.27254
1426786634.678,120.9485
1426786634.693,113.655014
1426786634.709,100.4843
1426786634.725,82.45343
1426786634.74,61.28064
1426786634.756,38.978348
1426786634.772,17.36982
1426786634.787,-2.1731262
1426786634.803,-18.827736
1426786634.818,-32.263054
1426786634.834,-42.476616
1426786634.85,-49.612545
1426786634.865,-53.86114
1426786634.881,-55.509438
1426786634.897,-54.972187
1426786634.912,-52.817024
1426786634.928,-49.795795
1426786634.944,-46.707455
1426786634.959,-44.260506
1426786634.975,-42.9324
1426786634.99,-42.874104
1426786635.006,-43.94866
1426786635.022,-45.871025
1426786635.037,-48.30171
1426786635.053,-51.021183
1426786635.068,-53.90083
1426786635.084,-56.840218
1426786635.1,-59.66427
1426786635.115,-62.080284
1426786635.131,-63.7093
1426786635.147,-64.26984
1426786635.162,-63.645576
1426786635.178,-61.93353
1426786635.194,-59.417706
1426786635.209,-56.405342
1426786635.225,-53.120747
1426786635.24,-49.677284
1426786635.256,-46.06359
1426786635.272,-42.221855
1426786635.287,-38.07082
1426786635.303,-33.56437
1426786635.319,-28.696407
1426786635.334,-23.582447
1426786635.35,-18.434536
1426786635.365,-13.463196
1426786635.381,-8.78661
1426786635.397,-4.3920517
1426786635.412,-0.10712814
1426786635.428,4.3061295
1426786635.444,9.014084
1426786635.459,14.055786
1426786635.475,19.342392
1426786635.49,24.72102
1426786635.506,30.108723
1426786635.522,35.463863
1426786635.537,40.747234
1426786635.553,45.888943
1426786635.569,50.838108
1426786635.584,55.597866
1426786635.6,60.40229
1426786635.615,65.69156
1426786635.631,71.96493
1426786635.647,79.59264
1426786635.662,88.41033
1426786635.678,97.64779
1426786635.694,105.97653
1426786635.709,111.699615
1426786635.725,113.21499
1426786635.74,109.40045
1426786635.756,99.94995
1426786635.772,85.42907
1426786635.787,67.17734
1426786635.803,46.93524
1426786635.819,26.520725
1426786635.834,7.44685
1426786635.85,-9.208889
1426786635.865,-22.886501
1426786635.881,-33.37234
1426786635.897,-40.707027
1426786635.912,-45.128593
1426786635.928,-47.04525
1426786635.944,-46.985584
1426786635.959,-45.584023
1426786635.975,-43.45347
1426786635.99,-41.15364
1426786636.006,-39.10835
1426786636.022,-37.598457
1426786636.037,-36.86477
1426786636.053,-37.10368
1426786636.069,-38.44438
1426786636.084,-40.942703
1426786636.1,-44.482414
1426786636.115,-48.731285
1426786636.131,-53.208603
1426786636.147,-57.319206
1426786636.162,-60.501377
1426786636.178,-62.411926
1426786636.194,-62.911148
1426786636.209,-62.120415
1426786636.225,-60.298225
1426786636.24,-57.77337
1426786636.256,-54.786186
1426786636.272,-51.481125
1426786636.287,-47.966682
1426786636.303,-44.3431
1426786636.319,-40.721565
1426786636.334,-37.20285
1426786636.35,-33.73426
1426786636.365,-30.138546
1426786636.381,-26.190575
1426786636.397,-21.676907
1426786636.412,-16.624863
1426786636.428,-11.228531
1426786636.444,-5.8259583
1426786636.459,-0.72328186
1426786636.475,3.9872398
1426786636.49,8.45789
1426786636.506,13.008938
1426786636.522,17.904186
1426786636.537,23.19637
1426786636.553,28.67263
1426786636.569,33.904922
1426786636.584,38.52376
1426786636.6,42.407974
1426786636.615,45.7629
1426786636.631,49.1401
1426786636.647,53.188053
1426786636.662,58.526077
1426786636.678,65.466324
1426786636.694,73.96231
1426786636.709,83.47214
1426786636.725,93.04074
1426786636.74,101.30205
1426786636.756,106.72544
1426786636.772,107.905624
1426786636.787,103.9487
1426786636.803,94.702934
1426786636.819,80.847916
1426786636.834,63.71022
1426786636.85,44.91545
1426786636.865,26.130543
1426786636.881,8.682472
1426786636.897,-6.5386124
1426786636.912,-19.036057
1426786636.928,-28.697544
1426786636.944,-35.61417
1426786636.959,-40.048077
1426786636.975,-42.354115
1426786636.99,-42.96266
1426786637.006,-42.33101
1426786637.022,-40.959126
1426786637.037,-39.33877
1426786637.053,-37.890533
1426786637.069,-36.996117
1426786637.084,-36.93703
1426786637.1,-37.89695
1426786637.115,-39.92592
1426786637.131,-42.88709
1426786637.147,-46.45838
1426786637.162,-50.17114
1426786637.178,-53.515297
1426786637.194,-56.026314
1426786637.209,-57.41867
1426786637.225,-57.58949
1426786637.24,-56.60822
1426786637.256,-54.62121
1426786637.272,-51.83689
1426786637.287,-48.455437
1426786637.303,-44.67588
1426786637.319,-40.60145
1426786637.334,-36.285862
1426786637.35,-31.682743
1426786637.365,-26.763794
1426786637.381,-21.502842
1426786637.397,-16.068344
1426786637.412,-10.695419
1426786637.428,-5.6641846
1426786637.444,-1.1332054
1426786637.459,2.9288177
1426786637.475,6.701256
1426786637.49,10.405113
1426786637.506,14.237446
1426786637.522,18.241581
1426786637.537,22.375679
1426786637.553,26.57264
1426786637.569,30.830856
1426786637.584,35.2116
1426786637.6,39.90679
1426786637.616,45.18721
1426786637.631,51.37539
1426786637.647,58.727924
1426786637.662,67.22258
1426786637.678,76.34473
1426786637.694,85.04361
1426786637.709,91.79437
1426786637.725,95.04435
1426786637.74,93.607254
1426786637.756,87.112015
1426786637.772,76.04962
1426786637.787,61.556377
1426786637.803,45.016315
1426786637.819,27.75301
1426786637.834,10.812794
1426786637.85,-4.9571304
1426786637.866,-18.819374
1426786637.881,-30.098816
1426786637.897,-38.316803
1426786637.912,-43.305305
1426786637.928,-45.30699
1426786637.944,-44.89135
1426786637.959,-42.823288
1426786637.975,-39.81362
1426786637.991,-36.47738
1426786638.006,-33.28359
1426786638.022,-30.633667
1426786638.037,-28.895859
1426786638.053,-28.346924
1426786638.069,-29.100632
1426786638.084,-31.042213
1426786638.1,-33.87269
1426786638.116,-37.177807
1426786638.131,-40.542522
1426786638.147,-43.603714
1426786638.162,-46.021606
1426786638.178,-47.55611
1426786638.194,-47.985622
1426786638.209,-47.237602
1426786638.225,-45.323956
1426786638.241,-42.4104
1426786638.256,-38.685
1426786638.272,-34.328926
1426786638.287,-29.424122
1426786638.303,-24.03328
1426786638.319,-18.221325
1426786638.334,-12.151836
1426786638.35,-6.046261
1426786638.366,-0.104263306
1426786638.381,5.6505623
1426786638.397,11.364994
1426786638.412,17.27002
1426786638.428,23.48288
1426786638.444,29.95652
1426786638.459,36.381233
1426786638.475,42.414112
1426786638.491,47.838593
1426786638.506,52.689358
1426786638.522,57.245834
1426786638.537,61.90515
1426786638.553,67.071465
1426786638.569,73.02185
1426786638.584,79.84335
1426786638.6,87.2908
1426786638.616,94.77377
1426786638.631,101.22806
1426786638.647,105.25885
1426786638.662,105.42691
1426786638.678,100.65486
1426786638.694,90.63194
1426786638.709,75.94224
1426786638.725,57.944714
1426786638.741,38.40148
1426786638.756,19.023659
1426786638.772,1.1413536
1426786638.787,-14.360985
1426786638.803,-26.996044
1426786638.819,-36.601727
1426786638.834,-43.202976
1426786638.85,-47.010582
1426786638.866,-48.403095
1426786638.881,-47.889297
1426786638.897,-46.053497
1426786638.912,-43.5019
1426786638.928,-40.81256
1426786638.944,-38.450485
1426786638.959,-36.79905
1426786638.975,-36.105217
1426786638.991,-36.478535
1426786639.006,-37.891968
1426786639.022,-40.21425
1426786639.037,-43.231117
1426786639.053,-46.704224
1426786639.069,-50.320683
1426786639.084,-53.73146
1426786639.1,-56.547997
1426786639.116,-58.389633
1426786639.131,-59.008896
1426786639.147,-58.348175
1426786639.162,-56.595154
1426786639.178,-54.04155
1426786639.194,-50.968334
1426786639.209,-47.515717
1426786639.225,-43.664223
1426786639.241,-39.235294
1426786639.256,-34.042896
1426786639.272,-28.049976
1426786639.287,-21.398882
1426786639.303,-14.441717
1426786639.319,-7.612655
1426786639.334,-1.2900109
1426786639.35,4.349733
1426786639.366,9.397604
1426786639.381,14.142492
1426786639.397,18.93077
1426786639.412,23.98752
1426786639.428,29.347118
1426786639.444,34.885746
1426786639.459,40.461933
1426786639.475,46.02172
1426786639.491,51.68116
1426786639.506,57.75661
1426786639.522,64.61843
1426786639.537,72.605804
1426786639.553,81.77289
1426786639.569,91.75649
1426786639.584,101.65415
1426786639.6,110.018776
1426786639.616,115.165474
1426786639.631,115.549706
1426786639.647,110.2131
1426786639.662,99.07685
1426786639.678,82.93739
1426786639.694,63.240257
1426786639.709,41.73481
1426786639.725,20.106312
1426786639.741,-0.17255783
1426786639.756,-17.914082
1426786639.772,-32.267204
1426786639.787,-42.760525
1426786639.803,-49.384613
1426786639.819,-52.57918
1426786639.834,-53.146263
1426786639.85,-52.01003
1426786639.866,-50.03333
1426786639.881,-47.787395
1426786639.897,-45.607323
1426786639.912,-43.66816
1426786639.928,-42.16038
1426786639.944,-41.352135
1426786639.959,-41.579357
1426786639.975,-43.066643
1426786639.991,-45.821198
1426786640.006,-49.560993
1426786640.022,-53.80131
1426786640.037,-57.972546
1426786640.053,-61.552277
1426786640.069,-64.15527
1426786640.084,-65.54772
1426786640.1,-65.6277
1426786640.116,-64.37367
1426786640.131,-61.870537
1426786640.147,-58.309387
1426786640.162,-53.939713
1426786640.178,-49.08955
1426786640.194,-44.029106
1426786640.209,-38.96033
1426786640.225,-33.95245
1426786640.241,-28.957722
1426786640.256,-23.847824
1426786640.272,-18.51107
1426786640.287,-12.924141
1426786640.303,-7.165268
1426786640.319,-1.3786583
1426786640.334,4.310005
1426786640.35,9.881657
1426786640.366,15.431461
1426786640.381,21.119732
1426786640.397,26.994827
1426786640.412,32.93786
1426786640.428,38.656406
1426786640.444,43.891445
1426786640.459,48.546738
1426786640.475,52.890804
1426786640.491,57.48366
1426786640.506,63.048027
1426786640.522,70.19652
1426786640.538,79.057365
1426786640.553,89.09889
1426786640.569,99.1109
1426786640.584,107.37721
1426786640.6,112.04651
1426786640.616,111.64435
1426786640.631,105.43425
1426786640.647,93.57857
1426786640.663,77.11008
1426786640.678,57.59349
1426786640.694,36.802097
1426786640.709,16.369411
1426786640.725,-2.403633
1426786640.741,-18.589355
1426786640.756,-31.55774
1426786640.772,-41.010757
1426786640.788,-46.972702
1426786640.803,-49.852158
1426786640.819,-50.348366
1426786640.834,-49.364746
1426786640.85,-47.786728
1426786640.866,-46.299767
1426786640.881,-45.284164
1426786640.897,-44.8685
1426786640.913,-45.07174
1426786640.928,-45.909805
1426786640.944,-47.427315
1426786640.959,-49.66513
1426786640.975,-52.53637
1426786640.991,-55.75872
1426786641.006,-58.92353
1426786641.022,-61.596344
1426786641.038,-63.44158
1426786641.053,-64.29874
1426786641.069,-64.120026
1426786641.084,-62.917282
1426786641.1,-60.75254
1426786641.116,-57.712357
1426786641.131,-53.901398
1426786641.147,-49.47016
1426786641.163,-44.587685
1426786641.178,-39.402473
1426786641.194,-34.052765
1426786641.209,-28.632454
1426786641.225,-23.276367
1426786641.241,-18.116493
1426786641.256,-13.255302
1426786641.272,-8.745033
1426786641.288,-4.5756226
1426786641.303,-0.7262192
1426786641.319,2.9060898
1426786641.334,6.444542
1426786641.35,10.093727
1426786641.366,14.100418
1426786641.381,18.6851
1426786641.397,23.915462
1426786641.413,29.68301
1426786641.428,35.657913
1426786641.444,41.48531
1426786641.459,46.978645
1426786641.475,52.257446
1426786641.491,57.8001
1426786641.506,64.248535
1426786641.522,72.11766
1426786641.538,81.45439
1426786641.553,91.588745
1426786641.569,101.20997
1426786641.584,108.57019
1426786641.6,111.92027
1426786641.616,109.98775
1426786641.631,102.26465
1426786641.647,89.155136
1426786641.663,71.81398
1426786641.678,51.838898
1426786641.694,30.955547
1426786641.709,10.713276
1426786641.725,-7.668083
1426786641.741,-23.322403
1426786641.756,-35.68824
1426786641.772,-44.518215
1426786641.788,-49.807003
1426786641.803,-51.889767
1426786641.819,-51.378845
1426786641.834,-49.13235
1426786641.85,-46.073326
1426786641.866,-43.042164
1426786641.881,-40.582016
1426786641.897,-38.989162
1426786641.913,-38.276615
1426786641.928,-38.3993
1426786641.944,-39.356987
1426786641.959,-41.22077
1426786641.975,-44.0224
1426786641.991,-47.631348
1426786642.006,-51.634613
1426786642.022,-55.377678
1426786642.038,-58.119972
1426786642.053,-59.302055
1426786642.069,-58.719086
1426786642.084,-56.595657
1426786642.1,-53.332382
1426786642.116,-49.385612
1426786642.131,-44.971134
1426786642.147,-40.10292
1426786642.163,-34.648212
1426786642.178,-28.574265
1426786642.194,-22.060925
1426786642.209,-15.509392
1426786642.225,-9.377144
1426786642.241,-4.0088654
1426786642.256,0.5177727
1426786642.272,4.386444
1426786642.288,7.9302483
1426786642.303,11.488594
1426786642.319,15.231323
1426786642.334,19.143429
1426786642.35,23.087875
1426786642.366,26.921082
1426786642.381,30.648125
1426786642.397,34.43097
1426786642.413,38.58259
1426786642.428,43.370953
1426786642.444,49.021015
1426786642.459,55.5825
1426786642.475,63.00803
1426786642.491,71.090744
1426786642.506,79.35666
1426786642.522,86.95343
1426786642.538,92.64517
1426786642.553,94.978836
1426786642.569,92.680046
1426786642.584,85.0643
1426786642.6,72.36459
1426786642.616,55.75339
1426786642.631,37.069885
1426786642.647,18.27956
1426786642.663,1.0073929
1426786642.678,-13.73761
1426786642.694,-25.598808
1426786642.709,-34.662052
1426786642.725,-41.136795
1426786642.741,-45.19846
1426786642.756,-46.932926
1426786642.772,-46.468746
1426786642.788,-44.136707
1426786642.803,-40.5512
1426786642.819,-36.564754
1426786642.834,-33.022076
1426786642.85,-30.590767
1426786642.866,-29.588028
1426786642.881,-29.992313
1426786642.897,-31.559887
1426786642.913,-33.954063
1426786642.928,-36.855186
1426786642.944,-39.991108
1426786642.959,-43.063618
1426786642.975,-45.773533
1426786642.991,-47.764862
1426786643.006,-48.675167
1426786643.022,-48.280975
1426786643.038,-46.450687
1426786643.053,-43.318596
1426786643.069,-39.201145
1426786643.084,-34.55005
1426786643.1,-29.772224
1426786643.116,-25.140484
1426786643.131,-20.666718
1426786643.147,-16.162407
1426786643.163,-11.434837
1426786643.178,-6.3508987
1426786643.194,-1.0002708
1426786643.21,4.409977
1426786643.225,9.660965
1426786643.241,14.676731
1426786643.256,19.594364
1426786643.272,24.62318
1426786643.288,29.975163
1426786643.303,35.692875
1426786643.319,41.68397
1426786643.335,47.81936
1426786643.35,54.104416
1426786643.366,60.752216
1426786643.381,68.05968
1426786643.397,76.19437
1426786643.413,84.898445
1426786643.428,93.366455
1426786643.444,100.26421
1426786643.46,104.06869
1426786643.475,103.47429
1426786643.491,97.76312
1426786643.506,87.06294
1426786643.522,72.26159
1426786643.538,54.78574
1426786643.553,36.22028
1426786643.569,18.039124
1426786643.585,1.3338394
1426786643.6,-13.133335
1426786643.616,-24.988548
1426786643.631,-34.09005
1426786643.647,-40.450375
1426786643.663,-44.192932
1426786643.678,-45.601284
1426786643.694,-45.078773
1426786643.71,-43.236538
1426786643.725,-40.83699
1426786643.741,-38.671215
1426786643.756,-37.35598
1426786643.772,-37.203037
1426786643.788,-38.1859
1426786643.803,-40.054306
1426786643.819,-42.485355
1426786643.835,-45.277725
1426786643.85,-48.318474
1426786643.866,-51.495003
1426786643.881,-54.60618
1426786643.897,-57.24411
1426786643.913,-58.94285
1426786643.928,-59.315495
1426786643.944,-58.272377
1426786643.96,-56.044994
1426786643.975,-53.02893
1426786643.991,-49.589897
1426786644.006,-45.87989
1426786644.022,-41.767597
1426786644.038,-37.017593
1426786644.053,-31.481594
1426786644.069,-25.246517
1426786644.085,-18.680115
1426786644.1,-12.23872
1426786644.116,-6.3003044
1426786644.131,-0.953331
1426786644.147,3.9471207
1426786644.163,8.765835
1426786644.178,13.800621
1426786644.194,19.213669
1426786644.21,24.909218
1426786644.225,30.706985
1426786644.241,36.423744
1426786644.256,42.0052
1426786644.272,47.523808
1426786644.288,53.19688
1426786644.303,59.289074
1426786644.319,66.05563
1426786644.335,73.72472
1426786644.35,82.43151
1426786644.366,92.0914
1426786644.381,102.25889
1426786644.397,111.94752
1426786644.413,119.67107
1426786644.428,123.65045
1426786644.444,122.25194
1426786644.46,114.486984
1426786644.475,100.39618
1426786644.491,81.12193
1426786644.506,58.661884
1426786644.522,35.352287
1426786644.538,13.330345
1426786644.553,-5.90493
1426786644.569,-21.598045
1426786644.585,-33.64788
1426786644.6,-42.33886
1426786644.616,-48.049408
1426786644.631,-51.1697
1426786644.647,-52.104973
1426786644.663,-51.34646
1426786644.678,-49.527733
1426786644.694,-47.34986
1426786644.71,-45.530685
1426786644.725,-44.580536
1426786644.741,-44.77723
1426786644.756,-46.1006
1426786644.772,-48.396393
1426786644.788,-51.378067
1426786644.803,-54.76738
1426786644.819,-58.29019
1426786644.835,-61.68682
1426786644.85,-64.69316
1426786644.866,-67.05088
1426786644.881,-68.515205
1426786644.897,-68.902405
1426786644.913,-68.13598
1426786644.928,-66.28842
1426786644.944,-63.53044
1426786644.96,-60.098984
1426786644.975,-56.23873
1426786644.991,-52.161842
1426786645.006,-47.932755
1426786645.022,-43.53585
1426786645.038,-38.894768
1426786645.053,-33.965218
1426786645.069,-28.79181
1426786645.085,-23.535774
1426786645.1,-18.428383
1426786645.116,-13.708542
1426786645.131,-9.460777
1426786645.147,-5.6092987
1426786645.163,-1.8728714
1426786645.178,2.0952835
1426786645.194,6.5997696
1426786645.21,11.799568
1426786645.225,17.68309
1426786645.241,24.161064
1426786645.256,31.04985
1426786645.272,38.121788
1426786645.288,45.178444
1426786645.303,51.982376
1426786645.319,58.400803
1426786645.335,64.47373
1426786645.35,70.49827
1426786645.366,76.96152
1426786645.381,84.38609
1426786645.397,93.0355
1426786645.413,102.63771
1426786645.428,112.16194
1426786645.444,119.95101
1426786645.46,124.08321
1426786645.475,122.9133
1426786645.491,115.54404
1426786645.506,102.121956
1426786645.522,83.7955
1426786645.538,62.402763
1426786645.553,39.92169
1426786645.569,18.12133
1426786645.585,-1.7144165
1426786645.6,-18.779327
1426786645.616,-32.63508
1426786645.631,-43.073982
1426786645.647,-50.12509
1426786645.663,-54.042152
1426786645.678,-55.40695
1426786645.694,-55.011086
1426786645.71,-53.746773
1426786645.725,-52.427757
1426786645.741,-51.578857
1426786645.756,-51.403656
1426786645.772,-51.84774
1426786645.788,-52.75393
1426786645.803,-54.023895
1426786645.819,-55.6799
1426786645.835,-57.838936
1426786645.85,-60.545723
1426786645.866,-63.64258
1426786645.882,-66.669846
1426786645.897,-69.03429
1426786645.913,-70.16602
1426786645.928,-69.76351
1426786645.944,-67.88566
1426786645.96,-64.898285
1426786645.975,-61.293083
1426786645.991,-57.489708
1426786646.006,-53.720016
1426786646.022,-50.06008
1426786646.038,-46.417328
1426786646.053,-42.691177
1426786646.069,-38.788506
1426786646.085,-34.660507
1426786646.1,-30.29728
1426786646.116,-25.73359
1426786646.132,-21.03318
1426786646.147,-16.307594
1426786646.163,-11.671181
1426786646.178,-7.2663956
1426786646.194,-3.1832047
1426786646.21,0.533905
1426786646.225,3.9549942
1426786646.241,7.2591324
1426786646.257,10.752815
1426786646.272,14.738541
1426786646.288,19.461891
1426786646.303,24.925224
1426786646.319,30.915771
1426786646.335,37.043587
1426786646.35,42.96055
1426786646.366,48.537537
1426786646.382,53.963547
1426786646.397,59.718987
1426786646.413,66.332886
1426786646.428,74.16734
1426786646.444,83.18927
1426786646.46,92.85578
1426786646.475,102.11497
1426786646.491,109.50328
1426786646.507,113.48871
1426786646.522,112.71367
1426786646.538,106.384674
1426786646.553,94.5036
1426786646.569,77.946754
1426786646.585,58.252075
1426786646.6,37.340786
1426786646.616,17.068428
1426786646.632,-1.0992355
1426786646.647,-16.235588
1426786646.663,-27.960194
1426786646.678,-36.3063
1426786646.694,-41.593243
1426786646.71,-44.318806
1426786646.725,-45.08877
1426786646.741,-44.592316
1426786646.757,-43.443863
1426786646.772,-42.20325
1426786646.788,-41.19435
1426786646.803,-40.612846
1426786646.819,-40.51229
1426786646.835,-40.940594
1426786646.85,-41.932163
1426786646.866,-43.55487
1426786646.882,-45.812984
1426786646.897,-48.595722
1426786646.913,-51.63767
1426786646.928,-54.554585
1426786646.944,-56.958168
1426786646.96,-58.514206
1426786646.975,-59.01917
1426786646.991,-58.38461
1426786647.007,-56.658688
1426786647.022,-53.941746
1426786647.038,-50.37296
1426786647.053,-46.140347
1426786647.069,-41.4245
1426786647.085,-36.356537
1426786647.1,-31.064663
1426786647.116,-25.66072
1426786647.132,-20.21899
1426786647.147,-14.849106
1426786647.163,-9.619873
1426786647.178,-4.589962
1426786647.194,0.23977661
1426786647.21,4.925041
1426786647.225,9.532488
1426786647.241,14.104662
1426786647.257,18.67026
1426786647.272,23.215347
1426786647.288,27.707378
1426786647.303,32.104332
1426786647.319,36.364502
1426786647.335,40.41533
1426786647.35,44.28151
1426786647.366,48.169575
1426786647.382,52.55879
1426786647.397,58.019753
1426786647.413,64.8785
1426786647.428,72.81565
1426786647.444,80.68657
1426786647.46,86.7121
1426786647.475,89.00938
1426786647.491,86.30098
1426786647.507,78.3111
1426786647.522,65.84953
1426786647.538,50.391888
1426786647.553,33.621445
1426786647.569,16.936253
1426786647.585,1.3428279
1426786647.6,-12.489721
1426786647.616,-24.0491
1426786647.632,-32.917156
1426786647.647,-38.834984
1426786647.663,-41.79743
1426786647.678,-42.16355
1426786647.694,-40.602825
1426786647.71,-37.97621
1426786647.725,-35.12609
1426786647.741,-32.703575
1426786647.757,-31.06016
1426786647.772,-30.246368
1426786647.788,-30.181568
1426786647.803,-30.76618
1426786647.819,-31.969524
1426786647.835,-33.815884
1426786647.85,-36.2538
1426786647.866,-39.090485
1426786647.882,-41.900845
1426786647.897,-44.201233
1426786647.913,-45.574783
1426786647.928,-45.811615
1426786647.944,-44.95996
1426786647.96,-43.222458
1426786647.975,-40.79972
1426786647.991,-37.816376
1426786648.007,-34.265045
1426786648.022,-30.083982
1426786648.038,-25.235172
1426786648.053,-19.752968
1426786648.069,-13.853172
1426786648.085,-7.81514
1426786648.1,-1.9626122
1426786648.116,3.471218
1426786648.132,8.476688
1426786648.147,13.285534
1426786648.163,18.234905
1426786648.178,23.594524
1426786648.194,29.391048
1426786648.21,35.35861
1426786648.225,41.039013
1426786648.241,46.09405
1426786648.257,50.441128
1426786648.272,54.385605
1426786648.288,58.54093
1426786648.303,63.516956
1426786648.319,69.73549
1426786648.335,77.1109
1426786648.35,85.11301
1426786648.366,92.734406
1426786648.382,98.70851
1426786648.397,101.75416
1426786648.413,100.78491
1426786648.428,95.19609
1426786648.444,84.96083
1426786648.46,70.63669
1426786648.475,53.262264
1426786648.491,34.235115
1426786648.507,15.1146965
1426786648.522,-2.5876274
1426786648.538,-17.6423
1426786648.554,-29.332714
1426786648.569,-37.514782
1426786648.585,-42.620735
1426786648.6,-45.370792
1426786648.616,-46.498745
1426786648.632,-46.540417
1426786648.647,-45.787308
1426786648.663,-44.37546
1426786648.678,-42.514965
1426786648.694,-40.6347
1426786648.71,-39.271214
1426786648.725,-38.976357
1426786648.741,-40.034107
1426786648.757,-42.382404
1426786648.772,-45.62908
1426786648.788,-49.190754
1426786648.804,-52.484207
1426786648.819,-55.033375
1426786648.835,-56.609795
1426786648.85,-57.099606
1426786648.866,-56.53549
1426786648.882,-54.918762
1426786648.897,-52.319508
1426786648.913,-48.822563
1426786648.929,-44.614933
1426786648.944,-39.936687
1426786648.96,-35.033913
1426786648.975,-30.138683
1426786648.991,-25.340378
1426786649.007,-20.622166
1426786649.022,-15.857449
1426786649.038,-10.834545
1426786649.054,-5.444412
1426786649.069,0.34778595
1426786649.085,6.4136887
1426786649.1,12.531845
1426786649.116,18.472313
1426786649.132,24.160828
1426786649.147,29.599594
1426786649.163,34.928566
1426786649.179,40.26007
1426786649.194,45.632195
1426786649.21,51.018227
1426786649.225,56.468918
1426786649.241,62.22515
1426786649.257,68.728905
1426786649.272,76.364265
1426786649.288,85.15682
1426786649.304,94.41095
1426786649.319,102.71781
1426786649.335,108.200584
1426786649.35,109.1376
1426786649.366,104.45688
1426786649.382,94.11941
1426786649.397,79.030945
1426786649.413,60.74064
1426786649.429,40.99295
1426786649.444,21.342361
1426786649.46,3.0634766
1426786649.475,-12.923126
1426786649.491,-25.978432
1426786649.507,-35.72959
1426786649.522,-42.15516
1426786649.538,-45.504005
1426786649.554,-46.299767
1426786649.569,-45.224792
1426786649.585,-43.037857
1426786649.6,-40.394463
1426786649.616,-37.886215
1426786649.632,-35.924965
1426786649.647,-34.797676
1426786649.663,-34.622505
1426786649.679,-35.385223
1426786649.694,-36.981796
1426786649.71,-39.30802
1426786649.725,-42.19864
1426786649.741,-45.46593
1426786649.757,-48.81947
1426786649.772,-51.92806
1426786649.788,-54.397453
1426786649.804,-55.881058
1426786649.819,-56.160942
1426786649.835,-55.18349
1426786649.85,-53.044113
1426786649.866,-49.92314
1426786649.882,-46.004723
1426786649.897,-41.404884
1426786649.913,-36.197685
1426786649.929,-30.477745
1426786649.944,-24.390778
1426786649.96,-18.215355
1426786649.975,-12.213905
1426786649.991,-6.6620026
1426786650.007,-1.5854645
1426786650.022,3.1463928
1426786650.038,7.817047
1426786650.054,12.695938
1426786650.069,17.879646
1426786650.085,23.205513
1426786650.1,28.33715
1426786650.116,32.958244
1426786650.132,36.961266
1426786650.147,40.51883
1426786650.163,44.11148
1426786650.179,48.38833
1426786650.194,53.997597
1426786650.21,61.29595
1426786650.225,70.1955
1426786650.241,79.984795
1426786650.257,89.38908
1426786650.272,96.749954
1426786650.288,100.41662
1426786650.304,99.11992
1426786650.319,92.34695
1426786650.335,80.42169
1426786650.35,64.4504
1426786650.366,45.98455
1426786650.382,26.713455
1426786650.397,8.20681
1426786650.413,-8.272995
1426786650.429,-21.851776
1426786650.444,-32.055252
1426786650.46,-38.831123
1426786650.475,-42.506348
1426786650.491,-43.690872
1426786650.507,-43.07042
1426786650.522,-41.32422
1426786650.538,-38.996864
1426786650.554,-36.50303
1426786650.569,-34.177254
1426786650.585,-32.345688
1426786650.6,-31.260574
1426786650.616,-31.136711
1426786650.632,-32.021454
1426786650.647,-33.822136
1426786650.663,-36.290848
1426786650.679,-39.12772
1426786650.694,-42.038906
1426786650.71,-44.791298
1426786650.725,-47.201614
1426786650.741,-49.108597
1426786650.757,-50.330498
1426786650.772,-50.646736
1426786650.788,-49.80548
1426786650.804,-47.66047
1426786650.819,-44.237495
1426786650.835,-39.81742
1426786650.85,-34.853546
1426786650.866,-29.867271
1426786650.882,-25.251244
1426786650.897,-21.127571
1426786650.913,-17.316467
1426786650.929,-13.501518
1426786650.944,-9.372604
1426786650.96,-4.7763214
1426786650.975,0.2915039
1426786650.991,5.6526337
1426786651.007,11.131775
1426786651.022,16.604042
1426786651.038,22.030746
1426786651.054,27.454048
1426786651.069,32.944145
1426786651.085,38.548103
1426786651.1,44.39599
1426786651.116,50.630447
1426786651.132,57.44773
1426786651.147,64.96495
1426786651.163,73.09972
1426786651.179,81.32918
1426786651.194,88.65811
1426786651.21,93.67724
1426786651.225,94.9127
1426786651.241,91.24386
1426786651.257,82.2861
1426786651.272,68.63747
1426786651.288,51.69285
1426786651.304,33.303497
1426786651.319,15.290535
1426786651.335,-0.99116516
1426786651.35,-14.771721
1426786651.366,-25.812134
1426786651.382,-34.156364
1426786651.397,-39.90526
1426786651.413,-43.146255
1426786651.429,-44.011673
1426786651.444,-42.837975
1426786651.46,-40.26716
1426786651.476,-37.086838
1426786651.491,-34.1045
1426786651.507,-31.842697
1426786651.522,-30.458687
1426786651.538,-29.833618
1426786651.554,-29.770836
1426786651.569,-30.182198
1426786651.585,-31.161507
1426786651.601,-32.82689
1426786651.616,-35.197136
1426786651.632,-38.0147
1426786651.647,-40.819412
1426786651.663,-42.985054
1426786651.679,-43.97944
1426786651.694,-43.49874
1426786651.71,-41.58555
1426786651.726,-38.5422
1426786651.741,-34.858665
1426786651.757,-30.979523
1426786651.772,-27.23484
1426786651.788,-23.687302
1426786651.804,-20.217102
1426786651.819,-16.518364
1426786651.835,-12.296577
1426786651.851,-7.3556366
1426786651.866,-1.6540146
1426786651.882,4.664345
1426786651.897,11.349754
1426786651.913,18.104347
1426786651.929,24.624107
1426786651.944,30.7183
1426786651.96,36.342392
1426786651.976,41.68741
1426786651.991,47.12262
1426786652.007,53.1315
1426786652.022,60.123535
1426786652.038,68.21821
1426786652.054,77.034645
1426786652.069,85.610146
1426786652.085,92.45936
1426786652.101,95.98554
1426786652.116,94.79206
1426786652.132,88.24404
1426786652.147,76.55228
1426786652.163,60.808273
1426786652.179,42.633392
1426786652.194,23.757202
1426786652.21,5.65036
1426786652.226,-10.693169
1426786652.241,-24.733597
1426786652.257,-36.20159
1426786652.272,-44.902954
1426786652.288,-50.694054
1426786652.304,-53.467224
1426786652.319,-53.39144
1426786652.335,-50.97425
1426786652.351,-47.06829
1426786652.366,-42.730515
1426786652.382,-38.913925
1426786652.397,-36.25631
1426786652.413,-34.923416
1426786652.429,-34.758415
1426786652.444,-35.426407
1426786652.46,-36.621635
1426786652.476,-38.179382
1426786652.491,-39.97265
1426786652.507,-41.842995
1426786652.522,-43.46692
1426786652.538,-44.450394
1426786652.554,-44.407425
1426786652.569,-43.142677
1426786652.585,-40.810303
1426786652.601,-37.757317
1426786652.616,-34.422775
1426786652.632,-31.052658
1426786652.647,-27.689415
1426786652.663,-24.12886
1426786652.679,-20.065247
1426786652.694,-15.25444
1426786652.71,-9.655144
1426786652.726,-3.4166794
1426786652.741,3.2055664
1426786652.757,9.954063
1426786652.772,16.728935
1426786652.788,23.515533
1426786652.804,30.371834
1426786652.819,37.27826
1426786652.835,44.115158
1426786652.851,50.75376
1426786652.866,57.104866
1426786652.882,63.354774
1426786652.897,69.914635
1426786652.913,77.313034
1426786652.929,85.83422
1426786652.944,95.22894
1426786652.96,104.55879
1426786652.976,112.23825
1426786652.991,116.46663
1426786653.007,115.73999
1426786653.022,109.271515
1426786653.038,97.23732
1426786653.054,80.65995
1426786653.069,61.120186
1426786653.085,40.362843
1426786653.101,19.950771
1426786653.116,1.1069336
1426786653.132,-15.315445
1426786653.147,-28.786926
1426786653.163,-39.06438
1426786653.179,-46.165756
1426786653.194,-50.319557
1426786653.21,-52.026768
1426786653.226,-51.892593
1426786653.241,-50.598564
1426786653.257,-48.75796
1426786653.272,-46.84741
1426786653.288,-45.195805
1426786653.304,-44.03131
1426786653.319,-43.584274
1426786653.335,-44.044346
1426786653.351,-45.543407
1426786653.366,-48.068085
1426786653.382,-51.376892
1426786653.397,-55.020782
1426786653.413,-58.403694
1426786653.429,-60.992523
1426786653.444,-62.430122
1426786653.46,-62.58571
1426786653.476,-61.514267
1426786653.491,-59.375946
1426786653.507,-56.29619
1426786653.522,-52.3294
1426786653.538,-47.5224
1426786653.554,-41.968582
1426786653.569,-35.809177
1426786653.585,-29.240334
1426786653.601,-22.467365
1426786653.616,-15.655631
1426786653.632,-8.844705
1426786653.647,-2.0019197
1426786653.663,4.949218
1426786653.679,12.0082035
1426786653.694,19.112549
1426786653.71,26.05029
1426786653.726,32.548027
1426786653.741,38.375
1426786653.757,43.444977
1426786653.772,47.88529
1426786653.788,52.14917
1426786653.804,56.8895
1426786653.819,62.821114
1426786653.835,70.46645
1426786653.851,79.897484
1426786653.866,90.556244
1426786653.882,101.272194
1426786653.897,110.40889
1426786653.913,116.20008
1426786653.929,117.06712
1426786653.944,112.03941
1426786653.96,100.93297
1426786653.976,84.47252
1426786653.991,64.10607
1426786654.007,41.698658
1426786654.022,19.224312
1426786654.038,-1.5683584
1426786654.054,-19.412968
1426786654.069,-33.623695
1426786654.085,-44.105885
1426786654.101,-51.15306
1426786654.116,-55.323032
1426786654.132,-57.21035
1426786654.148,-57.35382
1426786654.163,-56.22612
1426786654.179,-54.31967
1426786654.194,-52.12571
1426786654.21,-50.17237
1426786654.226,-48.87899
1426786654.241,-48.547764
1426786654.257,-49.209785
1426786654.273,-50.74
1426786654.288,-52.88497
1426786654.304,-55.383926
1426786654.319,-57.98556
1426786654.335,-60.447998
1426786654.351,-62.490353
1426786654.366,-63.800053
1426786654.382,-64.08306
1426786654.398,-63.179886
1426786654.413,-61.051548
1426786654.429,-57.81696
1426786654.444,-53.63246
1426786654.46,-48.69101
1426786654.476,-43.176838
1426786654.491,-37.266884
1426786654.507,-31.133022
1426786654.523,-24.94622
1426786654.538,-18.846905
1426786654.554,-12.935913
1426786654.569,-7.2966347
1426786654.585,-2.0025978
1426786654.601,2.8745918
1426786654.616,7.3600883
1426786654.632,11.563229
1426786654.648,15.704945
1426786654.663,20.063938
1426786654.679,24.837166
1426786654.694,30.055695
1426786654.71,35.557796
1426786654.726,41.15819
1426786654.741,46.805355
1426786654.757,52.75535
1426786654.773,59.554016
1426786654.788,67.826004
1426786654.804,77.86294
1426786654.819,89.31197
1426786654.835,101.017044
1426786654.851,111.11212
1426786654.866,117.50125
1426786654.882,118.38158
1426786654.898,112.77005
1426786654.913,100.734924
1426786654.929,83.27648
1426786654.944,62.1208
1426786654.96,39.202724
1426786654.976,16.413906
1426786654.991,-4.6771126
1426786655.007,-22.888977
1426786655.023,-37.472084
1426786655.038,-48.140373
1426786655.054,-55.05179
1426786655.069,-58.71833
1426786655.085,-59.841957
1426786655.101,-59.158768
1426786655.116,-57.35302
1426786655.132,-54.988945
1426786655.148,-52.528404
1426786655.163,-50.32528
1426786655.179,-48.66665
1426786655.194,-47.676186
1426786655.21,-47.391624
1426786655.226,-47.78756
1426786655.241,-48.8209
1426786655.257,-50.425842
1426786655.273,-52.482216
1426786655.288,-54.701736
1426786655.304,-56.669556
1426786655.319,-57.89792
1426786655.335,-58.01767
1426786655.351,-56.953888
1426786655.366,-54.873573
1426786655.382,-52.132423
1426786655.398,-49.02301
1426786655.413,-45.58956
1426786655.429,-41.721855
1426786655.444,-37.18582
1426786655.46,-31.897171
1426786655.476,-25.929893
1426786655.491,-19.583153
1426786655.507,-13.121582
1426786655.523,-6.749466
1426786655.538,-0.48578644
1426786655.554,5.754326
1426786655.569,12.035648
1426786655.585,18.281235
1426786655.601,24.307281
1426786655.616,29.868862
1426786655.632,34.750164
1426786655.648,38.934937
1426786655.663,42.61133
1426786655.679,46.151997
1426786655.694,50.08769
1426786655.71,54.942436
1426786655.726,61.126392
1426786655.741,68.71237
1426786655.757,77.36041
1426786655.773,86.144585
1426786655.788,93.73714
1426786655.804,98.591095
1426786655.819,99.289955
1426786655.835,94.91643
1426786655.851,85.27188
1426786655.866,70.917465
1426786655.882,53.08555
1426786655.898,33.413208
1426786655.913,13.6477165
1426786655.929,-4.617756
1426786655.944,-20.146034
1426786655.96,-32.216377
1426786655.976,-40.558746
1426786655.991,-45.38905
1426786656.007,-47.189465
1426786656.023,-46.692783
1426786656.038,-44.624393
1426786656.054,-41.732395
1426786656.069,-38.63376
1426786656.085,-35.879604
1426786656.101,-33.89562
1426786656.116,-32.975628
1426786656.132,-33.261967
1426786656.148,-34.69842
1426786656.163,-37.020695
1426786656.179,-39.880936
1426786656.194,-42.91348
1426786656.21,-45.794308
1426786656.226,-48.308918
1426786656.241,-50.297504
1426786656.257,-51.51724
1426786656.273,-51.694958
1426786656.288,-50.55335
1426786656.304,-47.937077
1426786656.319,-43.91055
1426786656.335,-38.81589
1426786656.351,-33.081062
1426786656.366,-27.127098
1426786656.382,-21.206066
1426786656.398,-15.349552
1426786656.413,-9.392017
1426786656.429,-3.1315727
1426786656.444,3.5882797
1426786656.46,10.755936
1426786656.476,18.155499
1426786656.491,25.468056
1426786656.507,32.364845
1426786656.523,38.61562
1426786656.538,44.220287
1426786656.554,49.38958
1426786656.569,54.5144
1426786656.585,60.080505
1426786656.601,66.53311
1426786656.616,74.0525
1426786656.632,82.506836
1426786656.648,91.25871
1426786656.663,99.23401
1426786656.679,105.07478
1426786656.694,107.3469
1426786656.71,104.92195
1426786656.726,97.27083
1426786656.741,84.5629
1426786656.757,67.712296
1426786656.773,48.13167
1426786656.788,27.510628
1426786656.804,7.525387
1426786656.82,-10.411442
1426786656.835,-25.359573
1426786656.851,-36.883766
1426786656.866,-44.992195
1426786656.882,-50.033707
1426786656.898,-52.515465
1426786656.913,-52.93116
1426786656.929,-51.76136
1426786656.945,-49.462273
1426786656.96,-46.55715
1426786656.976,-43.62329
1426786656.991,-41.282852
1426786657.007,-40.05014
1426786657.023,-40.212425
1426786657.038,-41.777336
1426786657.054,-44.42959
1426786657.07,-47.70971
1426786657.085,-51.15104
1426786657.101,-54.33982
1426786657.116,-57.03012
1426786657.132,-59.01821
1426786657.148,-60.176888
1426786657.163,-60.323837
1426786657.179,-59.30047
1426786657.195,-57.006363
1426786657.21,-53.475426
1426786657.226,-48.91562
1426786657.241,-43.6308
1426786657.257,-37.927193
1426786657.273,-31.996407
1426786657.288,-25.87822
1426786657.304,-19.545502
1426786657.32,-12.914421
1426786657.335,-5.9730606
1426786657.351,1.165268
1426786657.366,8.322182
1426786657.382,15.307869
1426786657.398,21.894249
1426786657.413,27.976372
1426786657.429,33.53563
1426786657.445,38.67839
1426786657.46,43.557884
1426786657.476,48.443306
1426786657.491,53.636696
1426786657.507,59.473244
1426786657.523,66.36358
1426786657.538,74.60975
1426786657.554,84.25187
1426786657.57,94.89578
1426786657.585,105.4435
1426786657.601,114.25012
1426786657.616,119.350235
1426786657.632,119.05177
1426786657.648,112.425354
1426786657.663,99.65451
1426786657.679,81.89351
1426786657.695,60.95793
1426786657.71,38.81427
1426786657.726,17.17566
1426786657.741,-2.687027
1426786657.757,-19.924881
1426786657.773,-34.00338
1426786657.788,-44.62587
1426786657.804,-51.695015
1426786657.82,-55.389755
1426786657.835,-56.189438
1426786657.851,-54.84339
1426786657.866,-52.2713
1426786657.882,-49.37651
1426786657.898,-46.91909
1426786657.913,-45.42772
1426786657.929,-45.150124
1426786657.945,-46.06218
1426786657.96,-48.032364
1426786657.976,-50.859825
1426786657.991,-54.28575
1426786658.007,-58.039177
1426786658.023,-61.684883
1426786658.038,-64.70829
1426786658.054,-66.57851
1426786658.07,-66.892815
1426786658.085,-65.6256
1426786658.101,-63.07731
1426786658.116,-59.80509
1426786658.132,-56.341354
1426786658.148,-53.025307
1426786658.163,-49.73593
1426786658.179,-46.128746
1426786658.195,-41.748367
1426786658.21,-36.39099
1426786658.226,-30.163345
1426786658.241,-23.501297
1426786658.257,-16.950111
1426786658.273,-10.887077
1426786658.288,-5.3721924
1426786658.304,-0.12573242
1426786658.32,5.295265
1426786658.335,11.244804
1426786658.351,17.771355
1426786658.366,24.632408
1426786658.382,31.406479
1426786658.398,37.766724
1426786658.413,43.66899
1426786658.429,49.319603
1426786658.445,55.181946
1426786658.46,61.69844
1426786658.476,69.176346
1426786658.491,77.68344
1426786658.507,87.00264
1426786658.523,96.59591
1426786658.538,105.567116
1426786658.554,112.72096
1426786658.57,116.63317
1426786658.585,115.94422
1426786658.601,109.70412
1426786658.616,97.66638
1426786658.632,80.4842
1426786658.648,59.58377
1426786658.663,36.9411
1426786658.679,14.5698395
1426786658.695,-5.7926865
1426786658.71,-23.060387
1426786658.726,-36.737656
1426786658.741,-46.845848
1426786658.757,-53.664284
1426786658.773,-57.530914
1426786658.788,-58.800003
1426786658.804,-57.86386
1426786658.82,-55.262154
1426786658.835,-51.754906
1426786658.851,-48.204758
1426786658.866,-45.408173
1426786658.882,-43.83754
1426786658.898,-43.595543
1426786658.913,-44.438217
1426786658.929,-46.0101
1426786658.945,-48.018776
1426786658.96,-50.33687
1426786658.976,-52.924667
1426786658.991,-55.696266
1426786659.007,-58.40226
1426786659.023,-60.643852
1426786659.038,-61.963287
1426786659.054,-61.992935
1426786659.07,-60.594963
1426786659.085,-57.952934
1426786659.101,-54.394745
1426786659.116,-50.3284
1426786659.132,-46.061546
1426786659.148,-41.689995
1426786659.163,-37.08989
1426786659.179,-32.056282
1426786659.195,-26.40757
1426786659.21,-20.183159
1426786659.226,-13.625137
1426786659.241,-7.1525497
1426786659.257,-1.1449585
1426786659.273,4.2384033
1426786659.288,9.114441
1426786659.304,13.821449
1426786659.32,18.701141
1426786659.335,23.951935
1426786659.351,29.58696
1426786659.366,35.4588
1426786659.382,41.458366
1426786659.398,47.702873
1426786659.413,54.509895
1426786659.429,62.280518
1426786659.445,71.23208
1426786659.46,81.10415
1426786659.476,91.042206
1426786659.492,99.690155
1426786659.507,105.51161
1426786659.523,107.15471
1426786659.538,103.81503
1426786659.554,95.3821
1426786659.57,82.42053
1426786659.585,66.00569
1426786659.601,47.478653
1426786659.616,28.229267
1426786659.632,9.6468315
1426786659.648,-7.105541
1426786659.663,-21.064526
1426786659.679,-31.618706
1426786659.695,-38.523617
1426786659.71,-41.936203
1426786659.726,-42.342598
1426786659.742,-40.485485
1426786659.757,-37.2687
1426786659.773,-33.622444
1426786659.788,-30.38361
1426786659.804,-28.185078
1426786659.82,-27.293133
1426786659.835,-27.721638
1426786659.851,-29.227665
1426786659.867,-31.496506
1426786659.882,-34.241035
1426786659.898,-37.20657
1426786659.913,-40.118156
1426786659.929,-42.707527
1426786659.945,-44.6677
1426786659.96,-45.73184
1426786659.976,-45.75805
1426786659.992,-44.784397
1426786660.007,-42.936287
1426786660.023,-40.37934
1426786660.038,-37.230045
1426786660.054,-33.501163
1426786660.07,-29.17044
1426786660.085,-24.16896
1426786660.101,-18.43472
1426786660.117,-12.008564
1426786660.132,-4.996048
1426786660.148,2.3832092
1426786660.163,9.88221
1426786660.179,17.245758
1426786660.195,24.282661
1426786660.21,30.868034
1426786660.226,37.024693
1426786660.242,42.910843
1426786660.257,48.787937
1426786660.273,55.043213
1426786660.288,62.136448
1426786660.304,70.3771
1426786660.32,79.748856
1426786660.335,89.71478
1426786660.351,99.14188
1426786660.367,106.45534
1426786660.382,110.00479
1426786660.398,108.411255
1426786660.413,101.007484
1426786660.429,88.0054
1426786660.445,70.450745
1426786660.46,50.00504
1426786660.476,28.63005
1426786660.492,8.083302
1426786660.507,-10.278797
1426786660.523,-25.687351
1426786660.538,-37.881794
1426786660.554,-46.944706
1426786660.57,-53.069637
1426786660.585,-56.460648
1426786660.601,-57.354965
1426786660.617,-56.082237
1426786660.632,-53.206123
1426786660.648,-49.521255
1426786660.663,-45.888763
1426786660.679,-42.9713
1426786660.695,-41.200546
1426786660.71,-40.62867
1426786660.726,-41.12063
1426786660.742,-42.470924
1426786660.757,-44.525352
1426786660.773,-47.18226
1426786660.788,-50.22844
1426786660.804,-53.30941
1426786660.82,-55.896713
1426786660.835,-57.368828
1426786660.851,-57.210785
1426786660.867,-55.289368
1426786660.882,-51.813606
1426786660.898,-47.302444
1426786660.913,-42.283737
1426786660.929,-37.122177
1426786660.945,-31.871315
1426786660.96,-26.397026
1426786660.976,-20.545021
1426786660.992,-14.324188
1426786661.007,-7.9009476
1426786661.023,-1.4893265
1426786661.038,4.813347
1426786661.054,11.048172
1426786661.07,17.411446
1426786661.085,24.018044
1426786661.101,30.802383
1426786661.117,37.46337
1426786661.132,43.654846
1426786661.148,49.165
1426786661.163,54.148735
1426786661.179,59.150497
1426786661.195,64.93622
1426786661.21,72.20368
1426786661.226,81.26274
1426786661.242,91.718994
1426786661.257,102.42492
1426786661.273,111.61803
1426786661.288,117.31282
1426786661.304,117.786835
1426786661.32,112.00799
1426786661.335,99.89081
1426786661.351,82.312874
1426786661.367,60.880646
1426786661.382,37.57409
1426786661.398,14.363144
1426786661.413,-7.065033
1426786661.429,-25.487762
1426786661.445,-40.14283
1426786661.46,-50.724983
1426786661.476,-57.33586
1426786661.492,-60.425232
1426786661.507,-60.700012
1426786661.523,-59.048187
1426786661.538,-56.331543
1426786661.554,-53.29592
1426786661.57,-50.452934
1426786661.585,-48.12993
1426786661.601,-46.540146
1426786661.617,-45.879585
1426786661.632,-46.343307
1426786661.648,-48.053497
1426786661.663,-50.948204
1426786661.679,-54.673164
1426786661.695,-58.637146
1426786661.71,-62.206657
1426786661.726,-64.86964
1426786661.742,-66.37489
1426786661.757,-66.69345
1426786661.773,-65.884735
1426786661.788,-63.960495
1426786661.804,-60.868942
1426786661.82,-56.583633
1426786661.835,-51.223213
1426786661.851,-45.106567
1426786661.867,-38.69449
1426786661.882,-32.404808
1426786661.898,-26.475258
1426786661.913,-20.898636
1426786661.929,-15.45845
1426786661.945,-9.871613
1426786661.96,-3.8863907
1426786661.976,2.6325073
1426786661.992,9.59053
1426786662.007,16.747253
1426786662.023,23.775536
1426786662.038,30.373169
1426786662.054,36.40033
1426786662.07,41.948204
1426786662.085,47.326042
1426786662.101,52.98491
1426786662.117,59.384148
1426786662.132,66.91451
1426786662.148,75.84291
1426786662.163,86.10241
1426786662.179,97.159035
1426786662.195,107.844086
1426786662.21,116.39373
1426786662.226,120.77179
1426786662.242,119.2328
1426786662.257,110.91867
1426786662.273,96.13155
1426786662.288,76.331665
1426786662.304,53.685806
1426786662.32,30.500748
1426786662.335,8.756454
1426786662.351,-10.159767
1426786662.367,-25.47763
1426786662.382,-36.946297
1426786662.398,-44.671898
1426786662.414,-49.021843
1426786662.429,-50.510048
1426786662.445,-49.77291
1426786662.46,-47.551186
1426786662.476,-44.61373
1426786662.492,-41.761543
1426786662.507,-39.656456
