1425407235.786,0.0
1425407235.802,0.0
1425407235.817,0.0
1425407235.833,0.0
1425407235.849,0.0
1425407235.864,0.0
1425407235.88,0.0
1425407235.896,0.0
1425407235.911,0.0
1425407235.927,0.0017096713
1425407235.942,-0.005543159
1425407235.958,-0.012568669
1425407235.974,-0.012158242
1425407235.989,0.0021451493
1425407236.005,0.02929456
1425407236.021,0.055347443
1425407236.036,0.053971365
1425407236.052,-0.005438463
1425407236.067,-0.14340205
1425407236.083,-0.37392122
1425407236.099,-0.67007715
1425407236.114,-0.99378145
1425407236.13,-1.3083138
1425407236.146,-1.5970981
1425407236.161,-1.873108
1425407236.177,-2.173186
1425407236.192,-2.5397666
1425407236.208,-2.9953325
1425407236.224,-3.5635095
1425407236.239,-4.1912847
1425407236.255,-4.8159914
1425407236.271,-5.3802266
1425407236.286,-5.861128
1425407236.302,-6.2858353
1425407236.317,-6.723297
1425407236.333,-7.254043
1425407236.349,-7.919705
1425407236.364,-8.791407
1425407236.38,-9.751617
1425407236.396,-10.666425
1425407236.411,-11.4147415
1425407236.427,-11.963007
1425407236.442,-12.408318
1425407236.458,-12.959694
1425407236.474,-13.857435
1425407236.489,-15.242973
1425407236.505,-17.27739
1425407236.521,-19.690088
1425407236.536,-22.147905
1425407236.552,-24.340832
1425407236.567,-26.157402
1425407236.583,-27.781002
1425407236.599,-29.643053
1425407236.614,-32.241196
1425407236.63,-35.869373
1425407236.646,-40.768154
1425407236.661,-46.409622
1425407236.677,-52.126026
1425407236.692,-57.30037
1425407236.708,-61.684162
1425407236.724,-65.55713
1425407236.739,-69.63063
1425407236.755,-74.72524
1425407236.771,-81.326126
1425407236.786,-89.72819
1425407236.802,-99.117935
1425407236.817,-108.45162
1425407236.833,-116.77862
1425407236.849,-123.703674
1425407236.864,-129.5977
1425407236.88,-135.4394
1425407236.896,-142.65912
1425407236.911,-149.99808
1425407236.927,-159.41989
1425407236.942,-171.19365
1425407236.958,-185.14905
1425407236.974,-199.90273
1425407236.989,-212.44614
1425407237.005,-218.46548
1425407237.021,-213.59111
1425407237.036,-195.11755
1425407237.052,-163.2149
1425407237.067,-121.35292
1425407237.083,-73.99963
1425407237.099,-25.178925
1425407237.114,23.189087
1425407237.13,71.439606
1425407237.146,121.02405
1425407237.161,172.92227
1425407237.177,226.64267
1425407237.192,280.37946
1425407237.208,331.61
1425407237.224,378.76794
1425407237.239,421.0992
1425407237.255,458.30734
1425407237.271,489.74722
1425407237.286,513.95215
1425407237.302,528.8279
1425407237.317,532.2672
1425407237.333,523.06604
1425407237.349,501.17496
1425407237.364,468.1053
1425407237.38,426.2233
1425407237.396,378.18887
1425407237.411,326.37018
1425407237.427,272.59888
1425407237.442,218.19492
1425407237.458,164.19846
1425407237.474,111.668304
1425407237.489,61.709595
1425407237.505,15.628998
1425407237.521,-25.42868
1425407237.536,-60.711212
1425407237.552,-90.02017
1425407237.567,-113.69354
1425407237.583,-132.42831
1425407237.599,-147.0254
1425407237.614,-158.14215
1425407237.63,-166.23665
1425407237.646,-171.50592
1425407237.661,-174.0714
1425407237.677,-174.11084
1425407237.692,-171.93834
1425407237.708,-168.01001
1425407237.724,-162.83669
1425407237.739,-156.88747
1425407237.755,-150.48978
1425407237.771,-143.82664
1425407237.786,-136.95468
1425407237.802,-129.87964
1425407237.817,-122.62771
1425407237.833,-115.2611
1425407237.849,-107.88912
1425407237.864,-100.62474
1425407237.88,-93.56114
1425407237.896,-86.75074
1425407237.911,-80.20615
1425407237.927,-73.92151
1425407237.942,-67.89044
1425407237.958,-62.116234
1425407237.974,-56.608593
1425407237.989,-51.387657
1425407238.005,-46.463734
1425407238.021,-41.84274
1425407238.036,-37.520363
1425407238.052,-33.488026
1425407238.067,-29.73706
1425407238.083,-26.2612
1425407238.099,-23.057411
1425407238.114,-20.117512
1425407238.13,-17.441206
1425407238.146,-15.019329
1425407238.161,-12.847113
1425407238.177,-10.9160795
1425407238.192,-9.213343
1425407238.208,-7.725917
1425407238.224,-6.4387875
1425407238.239,-5.3348994
1425407238.255,-4.392879
1425407238.271,-3.601358
1425407238.286,-2.9376893
1425407238.302,-2.3878825
1425407238.318,-1.9336369
1425407238.333,-1.5635972
1425407238.349,-1.2621284
1425407238.364,-1.0226681
1425407238.38,-0.8297658
1425407238.396,-0.6788713
1425407238.411,-0.557125
1425407238.427,-0.46276116
1425407238.443,-0.3885194
1425407238.458,-0.32962203
1425407238.474,-0.28417075
1425407238.489,-0.24834228
1425407238.505,-0.21895647
1425407238.521,-0.19626379
1425407238.536,-0.1794703
1425407238.552,-0.16386938
1425407238.568,-0.15183866
1425407238.583,-0.14201343
1425407238.599,-0.13277674
1425407238.614,-0.12406516
1425407238.63,-0.11753118
1425407238.646,-0.11177087
1425407238.661,-0.10689306
1425407238.677,-0.102583766
1425407238.693,-0.09528804
1425407238.708,-0.092811346
1425407238.724,-0.087272525
1425407238.739,-0.08540827
1425407238.755,-0.080106735
1425407238.771,-0.07634455
1425407238.786,-0.073764265
1425407238.802,-0.06955415
1425407238.818,-0.068204224
1425407238.833,-0.0679602
1425407238.849,-0.06791669
1425407238.864,-0.07065499
1425407238.88,-0.076949835
1425407238.896,-0.084938884
1425407238.911,-0.09716445
1425407238.927,-0.11501026
1425407238.943,-0.13294744
1425407238.958,-0.15666175
1425407238.974,-0.18444133
1425407238.989,-0.21626568
1425407239.005,-0.24974203
1425407239.021,-0.2866469
1425407239.036,-0.32284534
1425407239.052,-0.36087203
1425407239.068,-0.40220344
1425407239.083,-0.44173455
1425407239.099,-0.48601794
1425407239.114,-0.5267569
1425407239.13,-0.5734538
1425407239.146,-0.6198231
1425407239.161,-0.6747829
1425407239.177,-0.72891164
1425407239.193,-0.7923119
1425407239.208,-0.8589728
1425407239.224,-0.9332005
1425407239.239,-1.0159142
1425407239.255,-1.1073134
1425407239.271,-1.2136358
1425407239.286,-1.3263078
1425407239.302,-1.4606786
1425407239.318,-1.6064024
1425407239.333,-1.7684312
1425407239.349,-1.9494598
1425407239.364,-2.1545546
1425407239.38,-2.3736143
1425407239.396,-2.6174924
1425407239.411,-2.8831623
1425407239.427,-3.172528
1425407239.443,-3.497674
1425407239.458,-3.8588676
1425407239.474,-4.2570186
1425407239.489,-4.6906614
1425407239.505,-5.144868
1425407239.521,-5.5959444
1425407239.536,-6.0516453
1425407239.552,-6.497367
1425407239.568,-6.9740863
1425407239.583,-7.484695
1425407239.599,-8.070337
1425407239.614,-8.736661
1425407239.63,-9.488223
1425407239.646,-10.29171
1425407239.661,-11.109786
1425407239.677,-11.947335
1425407239.693,-12.780205
1425407239.708,-13.635047
1425407239.724,-14.549509
1425407239.739,-15.545914
1425407239.755,-16.624754
1425407239.771,-17.732027
1425407239.786,-18.77497
1425407239.802,-19.618849
1425407239.818,-20.109058
1425407239.833,-20.146955
1425407239.849,-19.671621
1425407239.864,-18.672447
1425407239.88,-17.162024
1425407239.896,-15.163031
1425407239.911,-12.652782
1425407239.927,-9.5779705
1425407239.943,-5.8613586
1425407239.958,-1.5760727
1425407239.974,3.1215515
1425407239.989,7.9115524
1425407240.005,12.396473
1425407240.021,16.205585
1425407240.036,19.10936
1425407240.052,21.125206
1425407240.068,22.481846
1425407240.083,23.532074
1425407240.099,24.57619
1425407240.114,25.745132
1425407240.13,26.915405
1425407240.146,27.763062
1425407240.161,27.99955
1425407240.177,27.47451
1425407240.193,26.367516
1425407240.208,25.14149
1425407240.224,24.396019
1425407240.239,24.550808
1425407240.255,25.70409
1425407240.271,27.54486
1425407240.286,29.436718
1425407240.302,30.79021
1425407240.318,31.210495
1425407240.333,30.756657
1425407240.349,29.826859
1425407240.364,28.993069
1425407240.38,28.842724
1425407240.396,29.93639
1425407240.411,32.621487
1425407240.427,36.838413
1425407240.443,41.76021
1425407240.458,45.60997
1425407240.474,46.044212
1425407240.489,40.906086
1425407240.505,29.36763
1425407240.521,12.571838
1425407240.536,-6.48526
1425407240.552,-24.053284
1425407240.568,-36.966885
1425407240.583,-43.774216
1425407240.599,-44.93603
1425407240.614,-42.209633
1425407240.63,-37.755913
1425407240.646,-33.237167
1425407240.661,-29.578304
1425407240.677,-27.000751
1425407240.693,-25.429241
1425407240.708,-24.68002
1425407240.724,-24.501886
1425407240.739,-24.535099
1425407240.755,-24.385511
1425407240.771,-23.72651
1425407240.786,-22.397158
1425407240.802,-20.406506
1425407240.818,-17.804182
1425407240.833,-14.751297
1425407240.849,-11.417875
1425407240.864,-7.9823017
1425407240.88,-4.6435146
1425407240.896,-1.5089111
1425407240.911,1.4445782
1425407240.927,4.425729
1425407240.943,7.270343
1425407240.958,10.034514
1425407240.974,12.852354
1425407240.99,15.855123
1425407241.005,19.17538
1425407241.021,22.99197
1425407241.036,27.516598
1425407241.052,32.80549
1425407241.068,38.589043
1425407241.083,44.00071
1425407241.099,47.689167
1425407241.115,48.017014
1425407241.13,43.666267
1425407241.146,34.27112
1425407241.161,20.7618
1425407241.177,5.1918325
1425407241.193,-9.902159
1425407241.208,-22.368263
1425407241.224,-31.035126
1425407241.24,-35.865578
1425407241.255,-37.69244
1425407241.271,-37.66477
1425407241.286,-36.764973
1425407241.302,-35.55295
1425407241.318,-34.243294
1425407241.333,-32.915928
1425407241.349,-31.619318
1425407241.365,-30.450247
1425407241.38,-29.43337
1425407241.396,-28.521454
1425407241.411,-27.477722
1425407241.427,-26.072601
1425407241.443,-24.145828
1425407241.458,-21.837078
1425407241.474,-19.547045
1425407241.49,-17.827372
1425407241.505,-17.083475
1425407241.521,-17.335556
1425407241.536,-18.099974
1425407241.552,-18.537447
1425407241.568,-17.777836
1425407241.583,-15.279133
1425407241.599,-11.0321665
1425407241.615,-5.6038027
1425407241.63,0.1410327
1425407241.646,5.351305
1425407241.661,9.544712
1425407241.677,12.722925
1425407241.693,15.406199
1425407241.708,18.345085
1425407241.724,22.292892
1425407241.74,27.699425
1425407241.755,34.552658
1425407241.771,42.228615
1425407241.786,49.521027
1425407241.802,54.922215
1425407241.818,56.897514
1425407241.833,54.33176
1425407241.849,46.902283
1425407241.865,35.271328
1425407241.88,21.009953
1425407241.896,6.19866
1425407241.911,-7.1402893
1425407241.927,-17.58448
1425407241.943,-24.557816
1425407241.958,-28.386217
1425407241.974,-29.924488
1425407241.99,-30.148087
1425407242.005,-29.755123
1425407242.021,-29.079885
1425407242.036,-28.134024
1425407242.052,-26.850924
1425407242.068,-25.292786
1425407242.083,-23.689869
1425407242.099,-22.37318
1425407242.115,-21.558792
1425407242.13,-21.21791
1425407242.146,-21.113018
1425407242.161,-20.909836
1425407242.177,-20.4306
1425407242.193,-19.689447
1425407242.208,-18.869534
1425407242.224,-18.135433
1425407242.24,-17.420029
1425407242.255,-16.323706
1425407242.271,-14.269801
1425407242.286,-10.740339
1425407242.302,-5.5732784
1425407242.318,0.895648
1425407242.333,7.9066153
1425407242.349,14.526986
1425407242.365,20.060797
1425407242.38,24.28075
1425407242.396,27.527267
1425407242.411,30.596355
1425407242.427,34.43155
1425407242.443,39.834087
1425407242.458,47.14108
1425407242.474,56.09039
1425407242.49,65.69962
1425407242.505,74.3341
1425407242.521,80.02274
1425407242.536,80.89539
1425407242.552,75.826584
1425407242.568,64.87784
1425407242.583,49.45027
1425407242.599,31.904472
1425407242.615,14.849306
1425407242.63,0.4470272
1425407242.646,-10.215972
1425407242.661,-17.09166
1425407242.677,-21.01393
1425407242.693,-23.140308
1425407242.708,-24.542032
1425407242.724,-25.901707
1425407242.74,-27.459822
1425407242.755,-29.122927
1425407242.771,-30.657188
1425407242.786,-31.841393
1425407242.802,-32.599815
1425407242.818,-32.998714
1425407242.833,-33.135048
1425407242.849,-33.09343
1425407242.865,-32.83921
1425407242.88,-32.247993
1425407242.896,-31.2777
1425407242.911,-30.001385
1425407242.927,-28.65982
1425407242.943,-27.49186
1425407242.958,-26.57294
1425407242.974,-25.628937
1425407242.99,-24.099228
1425407243.005,-21.371372
1425407243.021,-17.024616
1425407243.036,-11.074598
1425407243.052,-4.0014668
1425407243.068,3.418459
1425407243.083,10.409399
1425407243.099,16.525723
1425407243.115,21.76455
1425407243.13,26.622318
1425407243.146,31.845818
1425407243.161,38.189667
1425407243.177,46.097378
1425407243.193,55.48315
1425407243.208,65.53681
1425407243.224,74.781525
1425407243.24,81.24898
1425407243.255,83.03462
1425407243.271,78.82059
1425407243.286,68.44224
1425407243.302,53.07576
1425407243.318,34.94719
1425407243.333,16.685741
1425407243.349,0.5849037
1425407243.365,-12.010296
1425407243.38,-20.857174
1425407243.396,-26.606728
1425407243.411,-30.2872
1425407243.427,-32.81737
1425407243.443,-34.74055
1425407243.458,-36.22752
1425407243.474,-37.240353
1425407243.49,-37.7423
1425407243.505,-37.798557
1425407243.521,-37.596626
1425407243.536,-37.308716
1425407243.552,-36.98551
1425407243.568,-36.49749
1425407243.583,-35.59417
1425407243.599,-34.073116
1425407243.615,-31.946465
1425407243.63,-29.50425
1425407243.646,-27.21767
1425407243.662,-25.461693
1425407243.677,-24.35701
1425407243.693,-23.541138
1425407243.708,-22.328949
1425407243.724,-19.953648
1425407243.74,-15.896725
1425407243.755,-10.145729
1425407243.771,-3.212532
1425407243.787,4.034157
1425407243.802,10.646973
1425407243.818,16.004128
1425407243.833,19.996315
1425407243.849,23.143196
1425407243.865,26.393929
1425407243.88,30.819542
1425407243.896,37.17212
1425407243.912,45.556564
1425407243.927,55.234283
1425407243.943,64.72004
1425407243.958,72.07478
1425407243.974,75.36008
1425407243.99,73.17966
1425407244.005,65.11279
1425407244.021,51.87332
1425407244.037,35.206093
1425407244.052,17.45234
1425407244.068,0.923172
1425407244.083,-12.648209
1425407244.099,-22.449974
1425407244.115,-28.63536
1425407244.13,-31.978638
1425407244.146,-33.527504
1425407244.162,-34.156013
1425407244.177,-34.42182
1425407244.193,-34.54924
1425407244.208,-34.548866
1425407244.224,-34.413902
1425407244.24,-34.1252
1425407244.255,-33.697533
1425407244.271,-33.122757
1425407244.287,-32.342392
1425407244.302,-31.323677
1425407244.318,-30.109566
1425407244.333,-28.891754
1425407244.349,-27.962296
1425407244.365,-27.565231
1425407244.38,-27.721832
1425407244.396,-28.098244
1425407244.412,-28.013008
1425407244.427,-26.712357
1425407244.443,-23.620834
1425407244.458,-18.658478
1425407244.474,-12.28215
1425407244.49,-5.3766785
1425407244.505,1.0980453
1425407244.521,6.4510956
1425407244.537,10.498756
1425407244.552,13.611076
1425407244.568,16.629562
1425407244.583,20.609177
1425407244.599,26.44329
1425407244.615,34.503677
1425407244.63,44.410355
1425407244.646,54.8089
1425407244.662,63.62224
1425407244.677,68.517624
1425407244.693,67.65051
1425407244.708,60.33586
1425407244.724,47.389603
1425407244.74,30.91101
1425407244.755,13.578995
1425407244.771,-2.212387
1425407244.787,-14.983749
1425407244.802,-24.42746
1425407244.818,-31.007797
1425407244.833,-35.527756
1425407244.849,-38.57625
1425407244.865,-40.402634
1425407244.88,-40.99977
1425407244.896,-40.4382
1425407244.912,-38.98419
1425407244.927,-37.15242
1425407244.943,-35.519684
1425407244.958,-34.444473
1425407244.974,-33.91736
1425407244.99,-33.6158
1425407245.005,-33.08171
1425407245.021,-31.9915
1425407245.037,-30.340942
1425407245.052,-28.452545
1425407245.068,-26.69719
1425407245.083,-25.275772
1425407245.099,-23.95462
1425407245.115,-22.167831
1425407245.13,-19.218826
1425407245.146,-14.654999
1425407245.162,-8.473572
1425407245.177,-1.2203064
1425407245.193,6.2540283
1425407245.208,13.12619
1425407245.224,18.894348
1425407245.24,23.578583
1425407245.255,27.660355
1425407245.271,31.934372
1425407245.287,37.23401
1425407245.302,44.196213
1425407245.318,52.9731
1425407245.333,63.02542
1425407245.349,73.06886
1425407245.365,81.1196
1425407245.38,85.015625
1425407245.396,82.99312
1425407245.412,74.44289
1425407245.427,60.184326
1425407245.443,42.364395
1425407245.458,23.822723
1425407245.474,7.1594543
1425407245.49,-6.015747
1425407245.505,-15.375549
1425407245.521,-21.663513
1425407245.537,-26.08606
1425407245.552,-29.713211
1425407245.568,-33.06952
1425407245.583,-36.141327
1425407245.599,-38.624268
1425407245.615,-40.28569
1425407245.63,-41.1118
1425407245.646,-41.345917
1425407245.662,-41.269928
1425407245.677,-41.02478
1425407245.693,-40.488525
1425407245.708,-39.41266
1425407245.724,-37.648743
1425407245.74,-35.34227
1425407245.755,-32.950653
1425407245.771,-31.033493
1425407245.787,-29.91072
1425407245.802,-29.368958
1425407245.818,-28.660599
1425407245.833,-26.795975
1425407245.849,-22.920914
1425407245.865,-16.751877
1425407245.88,-8.701157
1425407245.896,0.26010132
1425407245.912,9.022186
1425407245.927,16.733215
1425407245.943,23.123764
1425407245.958,28.522644
1425407245.974,33.700912
1425407245.99,39.505463
1425407246.005,46.529312
1425407246.021,54.78882
1425407246.037,63.540176
1425407246.052,71.268616
1425407246.068,75.92821
1425407246.083,75.506134
1425407246.099,68.72249
1425407246.115,55.55217
1425407246.13,37.479645
1425407246.146,17.108612
1425407246.162,-2.620697
1425407246.177,-19.322891
1425407246.193,-31.834763
1425407246.208,-40.28296
1425407246.224,-45.7305
1425407246.24,-49.50145
1425407246.255,-52.581223
1425407246.271,-55.406998
1425407246.287,-57.86853
1425407246.302,-59.63098
1425407246.318,-60.388504
1425407246.334,-60.038406
1425407246.349,-58.674377
1425407246.365,-56.463562
1425407246.38,-53.57428
1425407246.396,-50.15001
1425407246.412,-46.32454
1425407246.427,-42.322662
1425407246.443,-38.439865
1425407246.458,-35.018692
1425407246.474,-32.256912
1425407246.49,-30.053802
1425407246.505,-27.95578
1425407246.521,-25.216385
1425407246.537,-21.07457
1425407246.552,-15.096313
1425407246.568,-7.3968506
1425407246.584,1.2673798
1425407246.599,9.78421
1425407246.615,17.043839
1425407246.63,22.369873
1425407246.646,25.718475
1425407246.662,27.730621
1425407246.677,29.477356
1425407246.693,32.141617
1425407246.709,36.60411
1425407246.724,43.159836
1425407246.74,51.279663
1425407246.755,59.59404
1425407246.771,66.14987
1425407246.787,68.89635
1425407246.802,66.332184
1425407246.818,58.087082
1425407246.834,45.123993
1425407246.849,29.442932
1425407246.865,13.4717865
1425407246.88,-0.7151947
1425407246.896,-11.970825
1425407246.912,-20.112946
1425407246.927,-25.68547
1425407246.943,-29.422104
1425407246.959,-31.907867
1425407246.974,-33.410324
1425407246.99,-33.98265
1425407247.005,-33.66095
1425407247.021,-32.622498
1425407247.037,-31.185318
1425407247.052,-29.698532
1425407247.068,-28.34111
1425407247.084,-27.11789
1425407247.099,-25.904282
1425407247.115,-24.568878
1425407247.13,-23.117691
1425407247.146,-21.725967
1425407247.162,-20.617691
1425407247.177,-19.939453
1425407247.193,-19.578415
1425407247.209,-19.166718
1425407247.224,-18.132828
1425407247.24,-15.955261
1425407247.255,-12.372131
1425407247.271,-7.5178375
1425407247.287,-1.8383179
1425407247.302,4.00589
1425407247.318,9.483337
1425407247.334,14.346649
1425407247.349,18.807632
1425407247.365,23.404846
1425407247.38,28.824005
1425407247.396,35.672867
1425407247.412,44.14058
1425407247.427,53.752228
1425407247.443,63.309296
1425407247.459,71.03117
1425407247.474,74.979385
1425407247.49,73.602615
1425407247.505,66.324905
1425407247.521,53.859848
1425407247.537,38.04715
1425407247.552,21.292679
1425407247.568,5.823532
1425407247.584,-6.929123
1425407247.599,-16.554718
1425407247.615,-23.479279
1425407247.63,-28.501068
1425407247.646,-32.35749
1425407247.662,-35.459824
1425407247.677,-37.879807
1425407247.693,-39.53521
1425407247.709,-40.345146
1425407247.724,-40.309753
1425407247.74,-39.57354
1425407247.755,-38.3218
1425407247.771,-36.744644
1425407247.787,-34.96591
1425407247.802,-33.054535
1425407247.818,-31.022179
1425407247.834,-28.925476
1425407247.849,-26.824562
1425407247.865,-24.872444
1425407247.88,-23.192421
1425407247.896,-21.74514
1425407247.912,-20.2687
1425407247.927,-18.294685
1425407247.943,-15.282242
1425407247.959,-10.931213
1425407247.974,-5.3607254
1425407247.99,0.8485489
1425407248.005,6.831093
1425407248.021,11.797638
1425407248.037,15.418762
1425407248.052,17.979698
1425407248.068,20.278961
1425407248.084,23.326874
1425407248.099,27.999817
1425407248.115,34.7116
1425407248.13,43.266144
1425407248.146,52.768967
1425407248.162,61.698143
1425407248.177,68.1479
1425407248.193,70.22859
1425407248.209,66.63812
1425407248.224,57.193382
1425407248.24,43.044647
1425407248.255,26.415459
1425407248.271,9.9392395
1425407248.287,-4.137413
1425407248.302,-14.619896
1425407248.318,-21.515152
1425407248.334,-25.755363
1425407248.349,-28.561966
1425407248.365,-30.927277
1425407248.38,-33.265366
1425407248.396,-35.44583
1425407248.412,-37.134727
1425407248.427,-38.044235
1425407248.443,-38.13347
1425407248.459,-37.59813
1425407248.474,-36.680626
1425407248.49,-35.52887
1425407248.505,-34.09577
1425407248.521,-32.29325
1425407248.537,-30.118782
1425407248.552,-27.806206
1425407248.568,-25.727325
1425407248.584,-24.202988
1425407248.599,-23.199959
1425407248.615,-22.254189
1425407248.63,-20.602028
1425407248.646,-17.539543
1425407248.662,-12.760582
1425407248.677,-6.5519753
1425407248.693,0.33963776
1425407248.709,7.0061874
1425407248.724,12.767426
1425407248.74,17.407578
1425407248.755,21.198093
1425407248.771,24.703289
1425407248.787,28.605751
1425407248.802,33.479923
1425407248.818,39.721703
1425407248.834,47.44238
1425407248.849,56.28945
1425407248.865,65.3188
1425407248.88,72.949326
1425407248.896,77.31198
1425407248.912,76.74685
1425407248.927,70.484665
1425407248.943,59.047607
1425407248.959,44.186638
1425407248.974,28.339626
1425407248.99,13.744583
1425407249.006,1.8093414
1425407249.021,-7.26614
1425407249.037,-14.1297455
1425407249.052,-19.763752
1425407249.068,-24.867016
1425407249.084,-29.629162
1425407249.099,-33.782845
1425407249.115,-36.925705
1425407249.13,-38.811993
1425407249.146,-39.499184
1425407249.162,-39.29657
1425407249.177,-38.594597
1425407249.193,-37.683483
1425407249.209,-36.67746
1425407249.224,-35.51864
1425407249.24,-34.15368
1425407249.256,-32.612034
1425407249.271,-31.153896
1425407249.287,-30.085903
1425407249.302,-29.638367
1425407249.318,-29.664352
1425407249.334,-29.63147
1425407249.349,-28.633743
1425407249.365,-25.836653
1425407249.381,-20.82461
1425407249.396,-13.838257
1425407249.412,-5.763706
1425407249.427,2.2576714
1425407249.443,9.281757
1425407249.459,14.919863
1425407249.474,19.419859
1425407249.49,23.439198
1425407249.506,27.833868
1425407249.521,33.318092
1425407249.537,40.271244
1425407249.552,48.526787
1425407249.568,57.29068
1425407249.584,65.0775
1425407249.599,70.01964
1425407249.615,70.36462
1425407249.631,65.15213
1425407249.646,54.624226
1425407249.662,40.31389
1425407249.677,24.509333
1425407249.693,9.537361
1425407249.709,-2.9841843
1425407249.724,-12.411495
1425407249.74,-18.957924
1425407249.756,-23.215778
1425407249.771,-25.833664
1425407249.787,-27.247475
1425407249.802,-27.795376
1425407249.818,-27.791134
1425407249.834,-27.623322
1425407249.849,-27.661997
1425407249.865,-28.138931
1425407249.881,-29.053951
1425407249.896,-30.149113
1425407249.912,-31.035847
1425407249.927,-31.396809
1425407249.943,-31.074982
1425407249.959,-30.225569
1425407249.974,-29.174519
1425407249.99,-28.302006
1425407250.006,-27.8203
1425407250.021,-27.634912
1425407250.037,-27.30388
1425407250.052,-26.219929
1425407250.068,-23.797548
1425407250.084,-19.745361
1425407250.099,-14.176741
1425407250.115,-7.6219554
1425407250.131,-0.77936554
1425407250.146,5.692888
1425407250.162,11.411148
1425407250.177,16.391813
1425407250.193,21.001026
1425407250.209,25.797194
1425407250.224,31.370895
1425407250.24,37.9928
1425407250.256,45.41374
1425407250.271,52.670662
1425407250.287,58.220455
1425407250.302,60.302612
1425407250.318,57.552986
1425407250.334,49.55441
1425407250.349,37.15785
1425407250.365,22.27021
1425407250.381,7.2684917
1425407250.396,-5.7739773
1425407250.412,-15.654917
1425407250.427,-22.222227
1425407250.443,-26.075096
1425407250.459,-28.090492
1425407250.474,-28.966497
1425407250.49,-29.06934
1425407250.506,-28.52087
1425407250.521,-27.381058
1425407250.537,-25.823341
1425407250.552,-24.137775
1425407250.568,-22.606457
1425407250.584,-21.368816
1425407250.599,-20.360981
1425407250.615,-19.380493
1425407250.631,-18.248692
1425407250.646,-16.950153
1425407250.662,-15.665028
1425407250.677,-14.668812
1425407250.693,-14.1297455
1425407250.709,-13.975357
1425407250.724,-13.73365
1425407250.74,-12.740128
1425407250.756,-10.368011
1425407250.771,-6.3452225
1425407250.787,-0.9443054
1425407250.802,5.1273766
1425407250.818,11.042297
1425407250.834,16.21925
1425407250.849,20.571854
1425407250.865,24.50172
1425407250.881,28.696857
1425407250.896,33.85399
1425407250.912,40.405895
1425407250.927,48.336678
1425407250.943,57.103092
1425407250.959,65.572525
1425407250.974,72.152695
1425407250.99,75.07071
1425407251.006,72.911156
1425407251.021,65.08397
1425407251.037,52.231834
1425407251.052,36.153572
1425407251.068,19.286854
1425407251.084,3.980114
1425407251.099,-8.193665
1425407251.115,-16.72688
1425407251.131,-22.054787
1425407251.146,-25.081871
1425407251.162,-26.712906
1425407251.177,-27.558533
1425407251.193,-27.909256
1425407251.209,-27.888245
1425407251.224,-27.606293
1425407251.24,-27.21088
1425407251.256,-26.799694
1425407251.271,-26.352913
1425407251.287,-25.687294
1425407251.302,-24.56623
1425407251.318,-22.868134
1425407251.334,-20.726784
1425407251.349,-18.528305
1425407251.365,-16.771347
1425407251.381,-15.782867
1425407251.396,-15.517517
1425407251.412,-15.467308
1425407251.427,-14.917496
1425407251.443,-13.156441
1425407251.459,-9.843681
1425407251.474,-5.162407
1425407251.49,0.29773712
1425407251.506,5.7593765
1425407251.521,10.5763855
1425407251.537,14.45298
1425407251.552,17.590343
1425407251.568,20.576645
1425407251.584,24.219429
1425407251.599,29.272827
1425407251.615,36.14276
1425407251.631,44.606934
1425407251.646,53.678123
1425407251.662,61.654305
1425407251.677,66.48944
1425407251.693,66.39532
1425407251.709,60.460037
1425407251.724,49.07618
1425407251.74,33.910343
1425407251.756,17.444458
1425407251.771,2.180729
1425407251.787,-10.07597
1425407251.802,-18.653309
1425407251.818,-23.951485
1425407251.834,-26.995602
1425407251.849,-28.885284
1425407251.865,-30.339634
1425407251.881,-31.584183
1425407251.896,-32.50624
1425407251.912,-32.92639
1425407251.928,-32.802067
1425407251.943,-32.233025
1425407251.959,-31.361916
1425407251.974,-30.226547
1425407251.99,-28.749874
1425407252.006,-26.803127
1425407252.021,-24.375023
1425407252.037,-21.70663
1425407252.053,-19.219368
1425407252.068,-17.350548
1425407252.084,-16.336594
1425407252.099,-16.00101
1425407252.115,-15.849628
1425407252.131,-15.202156
1425407252.146,-13.455494
1425407252.162,-10.300835
1425407252.178,-5.8465996
1425407252.193,-0.5439415
1425407252.209,4.953781
1425407252.224,10.074833
1425407252.24,14.470837
1425407252.256,18.195225
1425407252.271,21.670002
1425407252.287,25.545815
1425407252.303,30.510353
1425407252.318,36.931137
1425407252.334,44.664967
1425407252.349,52.821976
1425407252.365,59.883976
1425407252.381,64.03758
1425407252.396,63.711906
1425407252.412,58.155613
1425407252.428,47.79177
1425407252.443,34.159054
1425407252.459,19.43581
1425407252.474,5.785866
1425407252.49,-5.29776
1425407252.506,-13.294647
1425407252.521,-18.516571
1425407252.537,-21.758408
1425407252.553,-23.807152
1425407252.568,-25.1632
1425407252.584,-25.966675
1425407252.599,-26.1433
1425407252.615,-25.629593
1425407252.631,-24.524769
1425407252.646,-23.1138
1425407252.662,-21.694725
1425407252.678,-20.518002
1425407252.693,-19.625202
1425407252.709,-18.92471
1425407252.724,-18.299797
1425407252.74,-17.80303
1425407252.756,-17.620731
1425407252.771,-17.994621
1425407252.787,-18.979704
1425407252.803,-20.310452
1425407252.818,-21.399912
1425407252.834,-21.556118
1425407252.849,-20.252836
1425407252.865,-17.380268
1425407252.881,-13.266956
1425407252.896,-8.597179
1425407252.912,-4.0625725
1425407252.928,-0.15133476
1425407252.943,3.050066
1425407252.959,5.8885
1425407252.974,9.045788
1425407252.99,13.263384
1425407253.006,19.075314
1425407253.021,26.475023
1425407253.037,34.74079
1425407253.053,42.434853
1425407253.068,47.68193
1425407253.084,48.740387
1425407253.099,44.596317
1425407253.115,35.385082
1425407253.131,22.416302
1425407253.146,7.808632
1425407253.162,-6.110283
1425407253.178,-17.52352
1425407253.193,-25.531595
1425407253.209,-30.218515
1425407253.224,-32.362305
1425407253.24,-33.00421
1425407253.256,-32.96384
1425407253.271,-32.63759
1425407253.287,-32.05046
1425407253.303,-31.034452
1425407253.318,-29.449415
1425407253.334,-27.37121
1425407253.349,-25.052347
1425407253.365,-22.857052
1425407253.381,-21.097332
1425407253.396,-19.939892
1425407253.412,-19.355139
1425407253.428,-19.16611
1425407253.443,-19.116194
1425407253.459,-18.958406
1425407253.474,-18.457275
1425407253.49,-17.401272
1425407253.506,-15.600496
1425407253.521,-12.955395
1425407253.537,-9.413504
1425407253.553,-5.081705
1425407253.568,-0.1953888
1425407253.584,4.907219
1425407253.599,9.954041
1425407253.615,14.81476
1425407253.631,19.687382
1425407253.646,25.02539
1425407253.662,31.364214
1425407253.678,38.988407
1425407253.693,47.594273
1425407253.709,56.119102
1425407253.724,62.88948
1425407253.74,66.0265
1425407253.756,64.08542
1425407253.771,56.628487
1425407253.787,44.439903
1425407253.803,29.3987
1425407253.818,13.905628
1425407253.834,0.14823532
1425407253.849,-10.44796
1425407253.865,-17.48704
1425407253.881,-21.395136
1425407253.896,-23.131834
1425407253.912,-23.611357
1425407253.928,-23.5036
1425407253.943,-23.112196
1425407253.959,-22.473581
1425407253.974,-21.525307
1425407253.99,-20.147663
1425407254.006,-18.274895
1425407254.021,-15.94804
1425407254.037,-13.339811
1425407254.053,-10.797163
1425407254.068,-8.765383
1425407254.084,-7.5942154
1425407254.099,-7.3708725
1425407254.115,-7.8139305
1425407254.131,-8.343288
1425407254.146,-8.316664
1425407254.162,-7.2612324
1425407254.178,-5.0318356
1425407254.193,-1.7903919
1425407254.209,2.0810165
1425407254.224,6.2302094
1425407254.24,10.413025
1425407254.256,14.553141
1425407254.271,18.766903
1425407254.287,23.278616
1425407254.303,28.449558
1425407254.318,34.662613
1425407254.334,42.101418
1425407254.349,50.424625
1425407254.365,58.489647
1425407254.381,64.550514
1425407254.396,66.6046
1425407254.412,63.178364
1425407254.428,53.95764
1425407254.443,40.04328
1425407254.459,23.664616
1425407254.474,7.4560404
1425407254.49,-6.4120975
1425407254.506,-16.827078
1425407254.521,-23.819647
1425407254.537,-28.261162
1425407254.553,-31.234665
1425407254.568,-33.541756
1425407254.584,-35.50567
1425407254.6,-36.996605
1425407254.615,-37.697075
1425407254.631,-37.371902
1425407254.646,-36.03322
1425407254.662,-33.957504
1425407254.678,-31.587372
1425407254.693,-29.339245
1425407254.709,-27.502455
1425407254.725,-26.187119
1425407254.74,-25.315094
1425407254.756,-24.72644
1425407254.771,-24.161444
1425407254.787,-23.36183
1425407254.803,-22.056171
1425407254.818,-20.003939
1425407254.834,-17.060291
1425407254.85,-13.187574
1425407254.865,-8.493694
1425407254.881,-3.1656227
1425407254.896,2.5970058
1425407254.912,8.667706
1425407254.928,15.119093
1425407254.943,22.214985
1425407254.959,30.267841
1425407254.975,39.410446
1425407254.99,49.248474
1425407255.006,58.66439
1425407255.021,65.89288
1425407255.037,68.98239
1425407255.053,66.430725
1425407255.068,57.867775
1425407255.084,44.310825
1425407255.1,27.945492
1425407255.115,11.445927
1425407255.131,-2.8437614
1425407255.146,-13.544785
1425407255.162,-20.443153
1425407255.178,-24.206078
1425407255.193,-25.929085
1425407255.209,-26.595707
1425407255.225,-26.83561
1425407255.24,-26.884102
1425407255.256,-26.736935
1425407255.271,-26.304424
1425407255.287,-25.520573
1425407255.303,-24.408157
1425407255.318,-23.034515
1425407255.334,-21.520329
1425407255.35,-20.017105
1425407255.365,-18.68114
1425407255.381,-17.614864
1425407255.396,-16.809269
1425407255.412,-16.085445
1425407255.428,-15.162697
1425407255.443,-13.699238
1425407255.459,-11.451767
1425407255.475,-8.365578
1425407255.49,-4.5570984
1425407255.506,-0.24055481
1425407255.521,4.419464
1425407255.537,9.440071
1425407255.553,15.033447
1425407255.568,21.567665
1425407255.584,29.325455
1425407255.6,38.34372
1425407255.615,48.129097
1425407255.631,57.550385
1425407255.646,64.95512
1425407255.662,68.51739
1425407255.678,66.79189
1425407255.693,59.252357
1425407255.709,46.57183
1425407255.725,30.491432
1425407255.74,13.341927
1425407255.756,-2.625496
1425407255.771,-15.839104
1425407255.787,-25.676079
1425407255.803,-32.372795
1425407255.818,-36.699554
1425407255.834,-39.572624
1425407255.85,-41.65677
1425407255.865,-43.311546
1425407255.881,-44.558273
1425407255.896,-45.251617
1425407255.912,-45.181168
1425407255.928,-44.234062
1425407255.943,-42.43479
1425407255.959,-39.95321
1425407255.975,-37.09172
1425407255.99,-34.166122
1425407256.006,-31.438065
1425407256.021,-29.036812
1425407256.037,-26.88192
1425407256.053,-24.703163
1425407256.068,-22.057755
1425407256.084,-18.50785
1425407256.1,-13.782547
1425407256.115,-7.953102
1425407256.131,-1.3772125
1425407256.146,5.4083557
1425407256.162,11.942833
1425407256.178,18.02443
1425407256.193,23.774117
1425407256.209,29.573769
1425407256.225,35.948593
1425407256.24,43.34562
1425407256.256,51.864197
1425407256.271,61.08159
1425407256.287,69.82655
1425407256.303,76.31085
1425407256.318,78.58423
1425407256.334,75.11557
1425407256.35,65.5215
1425407256.365,50.833344
1425407256.381,33.297577
1425407256.396,15.653534
1425407256.412,0.2376709
1425407256.428,-11.651672
1425407256.443,-19.896805
1425407256.459,-25.265152
1425407256.475,-28.880203
1425407256.49,-31.7229
1425407256.506,-34.40558
1425407256.521,-37.150482
1425407256.537,-39.94159
1425407256.553,-42.674393
1425407256.568,-45.167725
1425407256.584,-47.210617
1425407256.6,-48.52623
1425407256.615,-48.81543
1425407256.631,-47.863632
1425407256.646,-45.71846
1425407256.662,-42.73134
1425407256.678,-39.571136
1425407256.693,-36.945602
1425407256.709,-35.29004
1425407256.725,-34.535324
1425407256.74,-34.01935
1425407256.756,-32.744354
1425407256.771,-29.807816
1425407256.787,-24.799728
1425407256.803,-17.998611
1425407256.818,-10.141357
1425407256.834,-2.0951385
1425407256.85,5.508972
1425407256.865,12.430054
1425407256.881,18.756516
1425407256.896,24.80983
1425407256.912,31.034882
1425407256.928,37.868835
1425407256.943,45.60428
1425407256.959,54.098648
1425407256.975,62.452637
1425407256.99,68.91788
1425407257.006,71.260376
1425407257.021,67.552414
1425407257.037,57.08609
1425407257.053,40.893234
1425407257.068,21.58812
1425407257.084,2.4389496
1425407257.1,-13.741364
1425407257.115,-25.540268
1425407257.131,-33.072174
1425407257.146,-37.507126
1425407257.162,-40.23291
1425407257.178,-42.186493
1425407257.193,-43.633118
1425407257.209,-44.282578
1425407257.225,-43.805832
1425407257.24,-42.204422
1425407257.256,-39.85138
1425407257.272,-37.397797
1425407257.287,-35.368668
1425407257.303,-33.977417
1425407257.318,-33.031586
1425407257.334,-32.155334
1425407257.35,-31.081253
1425407257.365,-29.870667
1425407257.381,-28.85736
1425407257.396,-28.405869
1425407257.412,-28.540756
1425407257.428,-28.759735
1425407257.443,-28.136978
1425407257.459,-25.772446
1425407257.475,-21.1447
1425407257.49,-14.498077
1425407257.506,-6.722641
1425407257.522,1.0026855
1425407257.537,7.6296387
1425407257.553,12.645523
1425407257.568,16.222992
1425407257.584,19.133255
1425407257.6,22.51323
1425407257.615,27.447968
1425407257.631,34.53296
1425407257.647,43.52011
1425407257.662,53.21469
1425407257.678,61.60472
1425407257.693,66.4198
1425407257.709,65.80757
1425407257.725,59.017685
1425407257.74,46.663788
1425407257.756,30.613693
1425407257.772,13.433945
1425407257.787,-2.3368073
1425407257.803,-14.926224
1425407257.818,-23.704666
1425407257.834,-29.115173
1425407257.85,-32.261017
1425407257.865,-34.30014
1425407257.881,-35.94873
1425407257.897,-37.29677
1425407257.912,-37.993927
1425407257.928,-37.648026
1425407257.943,-36.186874
1425407257.959,-34.012512
1425407257.975,-31.743713
1425407257.99,-29.963966
1425407258.006,-28.885773
1425407258.022,-28.309166
1425407258.037,-27.798485
1425407258.053,-26.927284
1425407258.068,-25.488045
1425407258.084,-23.55555
1425407258.1,-21.40841
1425407258.115,-19.311996
1425407258.131,-17.386131
1425407258.147,-15.489853
1425407258.162,-13.209213
1425407258.178,-10.030037
1425407258.193,-5.5494614
1425407258.209,0.2339096
1425407258.225,6.879448
1425407258.24,13.576973
1425407258.256,19.49424
1425407258.272,24.065987
1425407258.287,27.274094
1425407258.303,29.600105
1425407258.318,31.862839
1425407258.334,34.89965
1425407258.35,39.364914
1425407258.365,45.54915
1425407258.381,53.24781
1425407258.397,61.656708
1425407258.412,69.4024
1425407258.428,74.6784
1425407258.443,75.71627
1425407258.459,71.32574
1425407258.475,61.423256
1425407258.49,47.13803
1425407258.506,30.591324
1425407258.522,14.219826
1425407258.537,0.08337402
1425407258.553,-10.696335
1425407258.568,-18.032448
1425407258.584,-22.659912
1425407258.6,-25.621826
1425407258.615,-27.83152
1425407258.631,-29.739998
1425407258.647,-31.354683
1425407258.662,-32.422096
1425407258.678,-32.712006
1425407258.693,-32.24759
1425407258.709,-31.306648
1425407258.725,-30.267479
1425407258.74,-29.469536
1425407258.756,-28.99514
1425407258.772,-28.750465
1425407258.787,-28.528076
1425407258.803,-28.191078
1425407258.818,-27.697472
1425407258.834,-27.091393
1425407258.85,-26.388222
1425407258.865,-25.541145
1425407258.881,-24.39283
1425407258.897,-22.725906
1425407258.912,-20.273666
1425407258.928,-16.786766
1425407258.943,-12.111286
1425407258.959,-6.3052216
1425407258.975,0.31536484
1425407258.99,7.1784363
1425407259.006,13.617714
1425407259.022,19.105614
1425407259.037,23.458122
1425407259.053,26.873108
1425407259.068,29.874336
1425407259.084,33.10984
1425407259.1,37.250496
1425407259.115,42.730644
1425407259.131,49.655354
1425407259.147,57.588337
1425407259.162,65.445244
1425407259.178,71.56181
1425407259.193,74.07744
1425407259.209,71.4558
1425407259.225,63.167286
1425407259.24,49.95725
1425407259.256,33.740986
1425407259.272,16.989372
1425407259.287,1.9595566
1425407259.303,-9.960651
1425407259.318,-18.463005
1425407259.334,-24.156475
1425407259.35,-28.034264
1425407259.365,-31.035282
1425407259.381,-33.739376
1425407259.397,-36.292835
1425407259.412,-38.613235
1425407259.428,-40.547863
1425407259.443,-42.01755
1425407259.459,-43.009834
1425407259.475,-43.486984
1425407259.49,-43.35412
1425407259.506,-42.53938
1425407259.522,-41.115044
1425407259.537,-39.31824
1425407259.553,-37.55078
1425407259.568,-36.176598
1425407259.584,-35.305737
1425407259.6,-34.771915
1425407259.615,-34.183685
1425407259.631,-33.150185
1425407259.647,-31.428207
1425407259.662,-28.909134
1425407259.678,-25.563168
1425407259.693,-21.366158
1425407259.709,-16.3522
1425407259.725,-10.663887
1425407259.74,-4.6948986
1425407259.756,0.9999542
1425407259.772,5.879545
1425407259.787,9.669695
1425407259.803,12.487255
1425407259.818,14.818642
1425407259.834,17.304537
1425407259.85,20.608006
1425407259.865,25.181124
1425407259.881,31.200434
1425407259.897,38.471146
1425407259.912,46.374474
1425407259.928,53.787712
1425407259.944,59.196465
1425407259.959,60.992767
1425407259.975,57.953888
1425407259.99,49.73902
1425407260.006,37.197838
1425407260.022,22.211931
1425407260.037,7.266385
1425407260.053,-5.410042
1425407260.068,-14.473006
1425407260.084,-19.833048
1425407260.1,-22.39533
1425407260.115,-23.50102
1425407260.131,-24.240208
1425407260.147,-25.046959
1425407260.162,-25.746012
1425407260.178,-25.883713
1425407260.194,-25.181465
1425407260.209,-23.773075
1425407260.225,-22.045757
1425407260.24,-20.443298
1425407260.256,-19.198404
1425407260.272,-18.27455
1425407260.287,-17.46866
1425407260.303,-16.67275
1425407260.319,-15.889629
1425407260.334,-15.284573
1425407260.35,-14.997055
1425407260.365,-15.00543
1425407260.381,-15.050358
1425407260.397,-14.68186
1425407260.412,-13.337099
1425407260.428,-10.563305
1425407260.444,-6.179882
1425407260.459,-0.41200256
1425407260.475,6.1420784
1425407260.49,12.656185
1425407260.506,18.366405
1425407260.522,22.84269
1425407260.537,26.14812
1425407260.553,28.819511
1425407260.569,31.657265
1425407260.584,35.420788
1425407260.6,40.62929
1425407260.615,47.310486
1425407260.631,54.87967
1425407260.647,62.083122
1425407260.662,67.2325
1425407260.678,68.57822
1425407260.694,64.904686
1425407260.709,56.01174
1425407260.725,42.881836
1425407260.74,27.412746
1425407260.756,11.800926
1425407260.772,-2.0852203
1425407260.787,-13.120392
1425407260.803,-21.029121
1425407260.819,-26.140305
1425407260.834,-29.045403
1425407260.85,-30.343037
1425407260.865,-30.512459
1425407260.881,-29.95478
1425407260.897,-29.00747
1425407260.912,-28.062473
1425407260.928,-27.456978
1425407260.944,-27.439949
1425407260.959,-28.05856
1425407260.975,-29.086514
1425407260.99,-30.080505
1425407261.006,-30.54309
1425407261.022,-30.157078
1425407261.037,-28.947308
1425407261.053,-27.325726
1425407261.069,-25.820621
1425407261.084,-24.853638
1425407261.1,-24.366745
1425407261.115,-23.817509
1425407261.131,-22.233124
1425407261.147,-18.659904
1425407261.162,-12.374519
1425407261.178,-3.2622147
1425407261.194,8.130295
1425407261.209,20.764229
1425407261.225,33.39706
1425407261.24,44.975708
1425407261.256,54.90898
1425407261.272,63.245247
1425407261.287,70.504196
1425407261.303,77.408844
1425407261.319,84.46448
1425407261.334,91.617935
1425407261.35,98.09325
1425407261.365,102.46795
1425407261.381,103.0284
1425407261.397,98.26658
1425407261.412,87.5302
1425407261.428,71.280304
1425407261.444,51.188652
1425407261.459,29.654732
1425407261.475,9.166595
1425407261.49,-8.358662
1425407261.506,-21.95131
1425407261.522,-31.58599
1425407261.537,-37.864677
1425407261.553,-41.667747
1425407261.569,-43.859436
1425407261.584,-45.193394
1425407261.6,-46.21892
1425407261.615,-47.33185
1425407261.631,-48.686245
1425407261.647,-50.231323
1425407261.662,-51.75567
1425407261.678,-53.010414
1425407261.694,-53.78986
1425407261.709,-53.997967
1425407261.725,-53.593506
1425407261.74,-52.603523
1425407261.756,-51.144333
1425407261.772,-49.455284
1425407261.787,-47.78128
1425407261.803,-46.242607
1425407261.819,-44.634987
1425407261.834,-42.414875
1425407261.85,-38.87641
1425407261.865,-33.52853
1425407261.881,-26.352856
1425407261.897,-17.902164
1425407261.912,-9.039719
1425407261.928,-0.60549927
1425407261.944,6.9180565
1425407261.959,13.444595
1425407261.975,19.303104
1425407261.99,25.008396
1425407262.006,31.134293
1425407262.022,38.14331
1425407262.037,46.162254
1425407262.053,54.765873
1425407262.069,62.76992
1425407262.084,68.440216
1425407262.1,70.00466
1425407262.115,66.29536
1425407262.131,57.273678
1425407262.147,44.14884
1425407262.162,28.972008
1425407262.178,13.899067
1425407262.194,0.59599686
1425407262.209,-10.119816
1425407262.225,-18.237095
1425407262.24,-24.222454
1425407262.256,-28.69123
1425407262.272,-32.147102
1425407262.287,-34.833935
1425407262.303,-36.781643
1425407262.319,-37.87781
1425407262.334,-38.015877
1425407262.35,-37.216454
1425407262.365,-35.689342
1425407262.381,-33.748806
1425407262.397,-31.686058
1425407262.412,-29.6656
1425407262.428,-27.712673
1425407262.444,-25.768295
1425407262.459,-23.917477
1425407262.475,-22.301662
1425407262.49,-21.163853
1425407262.506,-20.606762
1425407262.522,-20.458931
1425407262.537,-20.24963
1425407262.553,-19.300907
1425407262.569,-16.963955
1425407262.584,-12.876102
1425407262.6,-7.1384697
1425407262.615,-0.23007965
1425407262.631,7.1185074
1425407262.647,14.228542
1425407262.662,20.746529
1425407262.678,26.716862
1425407262.694,32.59369
1425407262.709,38.97012
1425407262.725,46.356613
1425407262.74,54.855602
1425407262.756,63.964443
1425407262.772,72.52908
1425407262.787,78.89386
1425407262.803,81.29199
1425407262.819,78.4294
1425407262.834,70.00197
1425407262.85,56.976616
1425407262.866,41.362534
1425407262.881,25.591309
1425407262.897,11.733044
1425407262.912,0.9405365
1425407262.928,-6.687214
1425407262.944,-11.766861
1425407262.959,-15.166172
1425407262.975,-17.525528
1425407262.991,-19.187943
1425407263.006,-20.229595
1425407263.022,-20.749714
1425407263.037,-20.860012
1425407263.053,-20.769196
1425407263.069,-20.609314
1425407263.084,-20.42796
1425407263.1,-20.171886
1425407263.116,-19.799091
1425407263.131,-19.358803
1425407263.147,-18.967388
1425407263.162,-18.744804
1425407263.178,-18.731544
1425407263.194,-18.77135
1425407263.209,-18.54599
1425407263.225,-17.595741
1425407263.241,-15.507744
1425407263.256,-12.067814
1425407263.272,-7.403717
1425407263.287,-1.9357758
1425407263.303,3.6980495
1425407263.319,8.961157
1425407263.334,13.585455
1425407263.35,17.689137
1425407263.366,21.770458
1425407263.381,26.546219
1425407263.397,32.628746
1425407263.412,40.274685
1425407263.428,49.09235
1425407263.444,57.96623
1425407263.459,65.14925
1425407263.475,68.71895
1425407263.491,67.099884
1425407263.506,59.688972
1425407263.522,47.12933
1425407263.537,31.189034
1425407263.553,14.265747
1425407263.569,-1.3478678
1425407263.584,-14.0223055
1425407263.6,-23.048824
1425407263.616,-28.605263
1425407263.631,-31.403532
1425407263.647,-32.4018
1425407263.662,-32.449833
1425407263.678,-32.177277
1425407263.694,-31.877125
1425407263.709,-31.61839
1425407263.725,-31.288988
1425407263.741,-30.755196
1425407263.756,-29.900623
1425407263.772,-28.671898
1425407263.787,-27.013424
1425407263.803,-24.935736
1425407263.819,-22.564852
1425407263.834,-20.16747
1425407263.85,-18.097963
1425407263.866,-16.683764
1425407263.881,-15.913111
1425407263.897,-15.376066
1425407263.912,-14.333733
1425407263.928,-12.041412
1425407263.944,-8.084438
1425407263.959,-2.6495209
1425407263.975,3.6372795
1425407263.991,9.983173
1425407264.006,15.803272
1425407264.022,20.93443
1425407264.037,25.697254
1425407264.053,30.699577
1425407264.069,36.610157
1425407264.084,43.865948
1425407264.1,52.35133
1425407264.116,61.161842
1425407264.131,68.66234
1425407264.147,72.76971
1425407264.162,71.71558
1425407264.178,64.64433
1425407264.194,52.061493
1425407264.209,35.69834
1425407264.225,18.020546
1425407264.241,1.3759079
1425407264.256,-12.538673
1425407264.272,-22.957718
1425407264.287,-29.97667
1425407264.303,-34.19352
1425407264.319,-36.378166
1425407264.334,-37.25284
1425407264.35,-37.377678
1425407264.366,-37.16825
1425407264.381,-36.914932
1425407264.397,-36.82734
1425407264.412,-37.0494
1425407264.428,-37.697014
1425407264.444,-38.782562
1425407264.459,-40.203445
1425407264.475,-41.75943
1425407264.491,-43.22193
1425407264.506,-44.433853
1425407264.522,-45.396004
1425407264.537,-46.119843
1425407264.553,-46.54853
1425407264.569,-46.389954
1425407264.584,-45.09735
1425407264.6,-42.042114
1425407264.616,-36.805214
1425407264.631,-29.44152
1425407264.647,-20.57962
1425407264.662,-11.251144
1425407264.678,-2.5135345
1425407264.694,4.93042
1425407264.709,11.029541
1425407264.725,16.42173
1425407264.741,22.157303
1425407264.756,29.258698
1425407264.772,38.248795
1425407264.787,48.81099
1425407264.803,59.63246
1425407264.819,68.68518
1425407264.834,73.72919
1425407264.85,73.03609
1425407264.866,65.98626
1425407264.881,53.375885
1425407264.897,37.223206
1425407264.912,20.191635
1425407264.928,4.7321625
1425407264.944,-7.581894
1425407264.959,-16.354279
1425407264.975,-22.156998
1425407264.991,-26.051758
1425407265.006,-29.017517
1425407265.022,-31.623047
1425407265.037,-34.02681
1425407265.053,-36.162918
1425407265.069,-37.944504
1425407265.084,-39.3683
1425407265.1,-40.40474
1425407265.116,-40.973602
1425407265.131,-40.82997
1425407265.147,-39.767227
1425407265.162,-37.71245
1425407265.178,-34.889008
1425407265.194,-31.802109
1425407265.209,-29.049362
1425407265.225,-27.071625
1425407265.241,-25.892105
1425407265.256,-25.060287
1425407265.272,-23.80838
1425407265.287,-21.279404
1425407265.303,-16.974243
1425407265.319,-10.951965
1425407265.334,-3.8684235
1425407265.35,3.2672882
1425407265.366,9.507904
1425407265.381,14.354279
1425407265.397,17.944763
1425407265.412,20.98285
1425407265.428,24.442657
1425407265.444,29.23944
1425407265.459,35.890335
1425407265.475,44.330658
1425407265.491,53.76158
1425407265.506,62.64418
1425407265.522,68.91881
1425407265.538,70.510056
1425407265.553,65.99739
1425407265.569,55.23224
1425407265.584,39.57199
1425407265.6,21.520752
1425407265.616,3.9085388
1425407265.631,-11.00322
1425407265.647,-22.140396
1425407265.663,-29.627914
1425407265.678,-34.337128
1425407265.694,-37.318848
1425407265.709,-39.39476
1425407265.725,-40.93474
1425407265.741,-42.02736
1425407265.756,-42.612045
1425407265.772,-42.60605
1425407265.788,-41.961044
1425407265.803,-40.68573
1425407265.819,-38.878662
1425407265.834,-36.666428
1425407265.85,-34.173935
1425407265.866,-31.495941
1425407265.881,-28.73613
1425407265.897,-26.076385
1425407265.913,-23.744446
1425407265.928,-21.977554
1425407265.944,-20.762451
1425407265.959,-19.725754
1425407265.975,-18.163742
1425407265.991,-15.293701
1425407266.006,-10.6527405
1425407266.022,-4.354431
1425407266.038,2.9271088
1425407266.053,10.249847
1425407266.069,16.81781
1425407266.084,22.274796
1425407266.1,26.867493
1425407266.116,31.258804
1425407266.131,36.313873
1425407266.147,42.78203
1425407266.163,50.825592
1425407266.178,59.836075
1425407266.194,68.28914
1425407266.209,74.07425
1425407266.225,75.14992
1425407266.241,70.28247
1425407266.256,59.61644
1425407266.272,44.652435
1425407266.288,27.767456
1425407266.303,11.403564
1425407266.319,-2.6319122
1425407266.334,-13.469772
1425407266.35,-21.107437
1425407266.366,-26.017685
1425407266.381,-28.79187
1425407266.397,-29.934662
1425407266.413,-29.757355
1425407266.428,-28.504013
1425407266.444,-26.470398
1425407266.459,-24.056839
1425407266.475,-21.768097
1425407266.491,-20.138947
1425407266.506,-19.538712
1425407266.522,-20.018707
1425407266.538,-21.307892
1425407266.553,-22.860611
1425407266.569,-24.141022
1425407266.584,-24.836624
1425407266.6,-24.861511
1425407266.616,-24.26799
1425407266.631,-23.086807
1425407266.647,-21.145721
1425407266.663,-18.124985
1425407266.678,-13.78656
1425407266.694,-8.147263
1425407266.709,-1.5963287
1425407266.725,5.1884766
1425407266.741,11.54248
1425407266.756,17.104172
1425407266.772,22.023163
1425407266.788,26.983017
1425407266.803,32.95352
1425407266.819,40.75113
1425407266.834,50.67479
1425407266.85,62.1456
1425407266.866,73.66794
1425407266.881,83.0482
1425407266.897,87.98866
1425407266.913,86.72217
1425407266.928,78.63373
1425407266.944,64.59047
1425407266.959,46.73105
1425407266.975,27.903946
1425407266.991,10.851929
1425407267.006,-2.5970612
1425407267.022,-11.879303
1425407267.038,-17.590927
1425407267.053,-20.981384
1425407267.069,-23.307266
1425407267.084,-25.34935
1425407267.1,-27.358719
1425407267.116,-29.194656
1425407267.131,-30.649368
1425407267.147,-31.649673
1425407267.163,-32.29593
1425407267.178,-32.72307
1425407267.194,-33.029343
1425407267.209,-33.211823
1425407267.225,-33.23375
1425407267.241,-33.11017
1425407267.256,-32.920013
1425407267.272,-32.74994
1425407267.288,-32.567078
1425407267.303,-32.11618
1425407267.319,-30.953125
1425407267.334,-28.539444
1425407267.35,-24.471588
1425407267.366,-18.660309
1425407267.381,-11.527557
1425407267.397,-3.9074402
1425407267.413,3.160263
1425407267.428,8.807205
1425407267.444,12.668808
1425407267.459,15.04837
1425407267.475,16.790161
1425407267.491,19.004059
1425407267.506,22.632767
1425407267.522,28.112885
1425407267.538,35.177185
1425407267.553,42.767883
1425407267.569,49.17079
1425407267.584,52.349167
1425407267.6,50.58168
1425407267.616,43.016083
1425407267.631,30.150192
1425407267.647,13.841904
1425407267.663,-3.2850494
1425407267.678,-18.643555
1425407267.694,-30.501755
1425407267.709,-38.315903
1425407267.725,-42.574768
1425407267.741,-44.259766
1425407267.756,-44.398315
1425407267.772,-43.76294
1425407267.788,-42.884506
1425407267.803,-42.16899
1425407267.819,-41.946884
1425407267.834,-42.354965
1425407267.85,-43.305283
1425407267.866,-44.444458
1425407267.881,-45.2742
1425407267.897,-45.31337
1425407267.913,-44.23172
1425407267.928,-41.991257
1425407267.944,-38.87213
1425407267.959,-35.4673
1425407267.975,-32.429764
1425407267.991,-30.245895
1425407268.006,-28.9505
1425407268.022,-27.967056
1425407268.038,-26.391144
1425407268.053,-23.292313
1425407268.069,-18.220245
1425407268.084,-11.3806305
1425407268.1,-3.4423065
1425407268.116,4.755371
1425407268.131,12.574112
1425407268.147,19.771683
1425407268.163,26.472107
1425407268.178,33.02562
1425407268.194,39.9037
1425407268.21,47.531876
1425407268.225,56.06125
1425407268.241,65.124405
1425407268.256,73.57471
1425407268.272,79.60835
1425407268.288,81.29416
1425407268.303,77.24997
1425407268.319,67.27055
1425407268.335,52.529007
1425407268.35,35.182495
1425407268.366,17.725754
1425407268.381,2.2012634
1425407268.397,-10.205505
1425407268.413,-19.280487
1425407268.428,-25.46286
1425407268.444,-29.506592
1425407268.46,-32.14183
1425407268.475,-33.822006
1425407268.491,-34.77112
1425407268.506,-35.063217
1425407268.522,-34.770523
1425407268.538,-34.121277
1425407268.553,-33.46637
1425407268.569,-33.14673
1425407268.585,-33.270264
1425407268.6,-33.635284
1425407268.616,-33.75383
1425407268.631,-33.1696
1425407268.647,-31.731522
1425407268.663,-29.718414
1425407268.678,-27.714386
1425407268.694,-26.307892
1425407268.71,-25.733597
1425407268.725,-25.681808
1425407268.741,-25.385529
1425407268.756,-23.966629
1425407268.772,-20.810318
1425407268.788,-15.901794
1425407268.803,-9.779495
1425407268.819,-3.316269
1425407268.835,2.7225037
1425407268.85,8.019104
1425407268.866,12.824295
1425407268.881,17.795227
1425407268.897,23.69609
1425407268.913,31.045837
1425407268.928,39.917267
1425407268.944,49.760178
1425407268.96,59.482285
1425407268.975,67.46011
1425407268.991,71.8772
1425407269.006,71.08354
1425407269.022,64.18231
1425407269.038,51.416412
1425407269.053,34.27423
1425407269.069,15.123077
1425407269.085,-3.501831
1425407269.1,-19.576187
1425407269.116,-32.110016
1425407269.131,-41.084457
1425407269.147,-47.1221
1425407269.163,-51.053528
1425407269.178,-53.512024
1425407269.194,-54.847656
1425407269.21,-55.16594
1425407269.225,-54.455444
1425407269.241,-52.745895
1425407269.256,-50.212646
1425407269.272,-47.126907
1425407269.288,-43.849594
1425407269.303,-40.621475
1425407269.319,-37.5466
1425407269.335,-34.523666
1425407269.35,-31.390831
1425407269.366,-28.077408
1425407269.381,-24.688385
1425407269.397,-21.451607
1425407269.413,-18.451637
1425407269.428,-15.493904
1425407269.444,-12.094635
1425407269.46,-7.714302
1425407269.475,-2.0904388
1425407269.491,4.5591125
1425407269.506,11.529747
1425407269.522,17.956924
1425407269.538,23.156631
1425407269.553,26.927704
1425407269.569,29.6055
1425407269.585,31.944313
1425407269.6,34.958878
1425407269.616,39.546715
1425407269.631,46.205612
1425407269.647,54.7508
1425407269.663,64.08723
1425407269.678,72.34516
1425407269.694,77.285164
1425407269.71,77.03612
1425407269.725,70.72792
1425407269.741,58.922928
1425407269.756,43.44512
1425407269.772,26.838211
1425407269.788,11.537895
1425407269.803,-0.7676773
1425407269.819,-9.483124
1425407269.835,-14.952744
1425407269.85,-18.054428
1425407269.866,-19.722
1425407269.881,-20.581005
1425407269.897,-20.910824
1425407269.913,-20.795933
1425407269.928,-20.337326
1425407269.944,-19.778492
1425407269.96,-19.491268
1425407269.975,-19.755085
1425407269.991,-20.557095
1425407270.006,-21.62267
1425407270.022,-22.518265
1425407270.038,-22.91534
1425407270.053,-22.817398
1425407270.069,-22.514835
1425407270.085,-22.392479
1425407270.1,-22.6447
1425407270.116,-23.066021
1425407270.131,-23.060146
1425407270.147,-21.85543
1425407270.163,-18.742825
1425407270.178,-13.373489
1425407270.194,-6.0498123
1425407270.21,2.311306
1425407270.225,10.474113
1425407270.241,17.295986
1425407270.256,22.191353
1425407270.272,25.441599
1425407270.288,28.043482
1425407270.303,31.328442
1425407270.319,36.357082
1425407270.335,43.515163
1425407270.35,52.297623
1425407270.366,61.364975
1425407270.381,68.80592
1425407270.397,72.5724
1425407270.413,71.04134
1425407270.428,63.513153
1425407270.444,50.59292
1425407270.46,34.128403
1425407270.475,16.66142
1425407270.491,0.68699646
1425407270.506,-12.116817
1425407270.522,-21.212421
1425407270.538,-26.938139
1425407270.553,-30.111181
1425407270.569,-31.555746
1425407270.585,-31.905003
1425407270.6,-31.663551
1425407270.616,-31.318668
1425407270.631,-31.29551
1425407270.647,-31.829315
1425407270.663,-32.893127
1425407270.678,-34.124496
1425407270.694,-35.03688
1425407270.71,-35.27904
1425407270.725,-34.688774
1425407270.741,-33.378326
1425407270.756,-31.656368
1425407270.772,-29.900522
1425407270.788,-28.410389
1425407270.803,-27.29161
1425407270.819,-26.375786
1425407270.835,-25.186743
1425407270.85,-23.116379
1425407270.866,-19.66248
1425407270.882,-14.642593
1425407270.897,-8.359863
1425407270.913,-1.4130495
1425407270.928,5.4909782
1425407270.944,11.7929125
1425407270.96,17.31782
1425407270.975,22.280237
1425407270.991,27.213799
1425407271.006,32.798733
1425407271.022,39.640068
1425407271.038,47.912285
1425407271.053,57.094383
1425407271.069,65.8376
1425407271.085,72.21257
1425407271.1,74.2722
1425407271.116,70.74839
1425407271.132,61.567585
1425407271.147,47.980103
1425407271.163,32.105278
1425407271.178,16.263926
1425407271.194,2.2883434
1425407271.21,-8.883076
1425407271.225,-17.187563
1425407271.241,-23.150612
1425407271.257,-27.449749
1425407271.272,-30.629768
1425407271.288,-32.950928
1425407271.303,-34.457962
1425407271.319,-35.18277
1425407271.335,-35.26909
1425407271.35,-34.98875
1425407271.366,-34.68309
1425407271.382,-34.557884
1425407271.397,-34.55456
1425407271.413,-34.430016
1425407271.428,-33.88084
1425407271.444,-32.81832
1425407271.46,-31.421196
1425407271.475,-30.024136
1425407271.491,-28.89473
1425407271.507,-28.022686
1425407271.522,-27.070782
1425407271.538,-25.469841
1425407271.553,-22.687675
1425407271.569,-18.464596
1425407271.585,-12.874756
1425407271.6,-6.3681335
1425407271.616,0.4074974
1425407271.632,6.7692833
1425407271.647,12.240826
1425407271.663,16.72313
1425407271.678,20.564487
1425407271.694,24.431595
1425407271.71,29.138397
1425407271.725,35.309593
1425407271.741,43.062305
1425407271.757,51.804695
1425407271.772,60.205006
1425407271.788,66.425674
1425407271.803,68.5909
1425407271.819,65.37912
1425407271.835,56.57589
1425407271.85,43.326538
1425407271.866,27.83395
1425407271.882,12.650845
1425407271.897,-0.14290237
1425407271.913,-9.5478325
1425407271.928,-15.722149
1425407271.944,-19.582603
1425407271.96,-22.164955
1425407271.975,-24.20491
1425407271.991,-25.890434
1425407272.007,-27.104362
1425407272.022,-27.6428
1425407272.038,-27.434517
1425407272.053,-26.614296
1425407272.069,-25.474686
1425407272.085,-24.337906
1425407272.1,-23.391335
1425407272.116,-22.67765
1425407272.132,-22.070763
1425407272.147,-21.399956
1425407272.163,-20.622482
1425407272.178,-19.873741
1425407272.194,-19.39431
1425407272.21,-19.279945
1425407272.225,-19.181595
1425407272.241,-18.31968
1425407272.257,-15.802269
1425407272.272,-11.117401
1425407272.288,-4.5244217
1425407272.303,2.9067993
1425407272.319,9.75341
1425407272.335,14.936279
1425407272.35,18.144737
1425407272.366,19.986946
1425407272.382,21.634361
1425407272.397,24.344658
1425407272.413,29.033936
1425407272.428,36.040573
1425407272.444,44.993057
1425407272.46,54.79014
1425407272.475,63.69668
1425407272.491,69.58605
1425407272.507,70.50003
1425407272.522,65.29183
1425407272.538,54.08454
1425407272.553,38.385216
1425407272.569,20.641235
1425407272.585,3.5479279
1425407272.6,-10.6321945
1425407272.616,-20.619583
1425407272.632,-26.262398
1425407272.647,-28.34317
1425407272.663,-28.154556
1425407272.678,-27.073036
1425407272.694,-26.123833
1425407272.71,-25.7882
1425407272.725,-26.066536
1425407272.741,-26.654266
1425407272.757,-27.276352
1425407272.772,-27.845703
1425407272.788,-28.42257
1425407272.803,-29.086853
1425407272.819,-29.76838
1425407272.835,-30.226074
1425407272.85,-30.17212
1425407272.866,-29.472893
1425407272.882,-28.25663
1425407272.897,-26.833176
1425407272.913,-25.501656
1425407272.928,-24.266869
1425407272.944,-22.794853
1425407272.96,-20.48919
1425407272.975,-16.694847
1425407272.991,-11.126968
1425407273.007,-4.080757
1425407273.022,3.6116867
1425407273.038,10.838425
1425407273.053,16.708801
1425407273.069,20.892693
1425407273.085,23.798569
1425407273.1,26.340477
1425407273.116,29.556007
1425407273.132,34.18512
1425407273.147,40.419754
1425407273.163,47.787468
1425407273.178,55.226395
1425407273.194,61.231125
1425407273.21,64.15041
1425407273.225,62.653107
1425407273.241,56.144936
1425407273.257,45.110687
1425407273.272,31.096336
1425407273.288,16.203491
1425407273.303,2.4321136
1425407273.319,-8.938972
1425407273.335,-17.525696
1425407273.35,-23.615364
1425407273.366,-27.728394
1425407273.382,-30.30896
1425407273.397,-31.597641
1425407273.413,-31.79181
1425407273.428,-31.18518
1425407273.444,-30.201294
1425407273.46,-29.232681
1425407273.475,-28.47351
1425407273.491,-27.821869
1425407273.507,-27.015594
1425407273.522,-25.794907
1425407273.538,-24.04602
1425407273.553,-21.866302
1425407273.569,-19.54216
1425407273.585,-17.402954
1425407273.6,-15.684082
1425407273.616,-14.409103
1425407273.632,-13.340866
1425407273.647,-12.009689
1425407273.663,-9.909515
1425407273.678,-6.712967
1425407273.694,-2.4260406
1425407273.71,2.5855103
1425407273.725,7.7373505
1425407273.741,12.523132
1425407273.757,16.675201
1425407273.772,20.226166
1425407273.788,23.568497
1425407273.804,27.233963
1425407273.819,31.774689
1425407273.835,37.592484
1425407273.85,44.663788
1425407273.866,52.386154
1425407273.882,59.51581
1425407273.897,64.41356
1425407273.913,65.57396
1425407273.929,62.141342
1425407273.944,54.26625
1425407273.96,43.04451
1425407273.975,30.14238
1425407273.991,17.255508
1425407274.007,5.6943207
1425407274.022,-3.8292542
1425407274.038,-11.115387
1425407274.054,-16.393661
1425407274.069,-20.035828
1425407274.085,-22.418793
1425407274.1,-23.790985
1425407274.116,-24.23346
1425407274.132,-23.811432
1425407274.147,-22.686966
1425407274.163,-21.218384
1425407274.179,-19.935059
1425407274.194,-19.309692
1425407274.21,-19.511887
1425407274.225,-20.326126
1425407274.241,-21.287628
1425407274.257,-21.961365
1425407274.272,-22.188293
1425407274.288,-22.015533
1425407274.304,-21.583801
1425407274.319,-20.896645
1425407274.335,-19.750175
1425407274.35,-17.819061
1425407274.366,-14.901558
1425407274.382,-11.077255
1425407274.397,-6.6791763
1425407274.413,-2.20533
1425407274.429,1.9081421
1425407274.444,5.4524536
1425407274.46,8.521782
1425407274.475,11.619522
1425407274.491,15.483955
1425407274.507,20.843216
1425407274.522,28.096207
1425407274.538,37.105103
1425407274.554,46.97693
1425407274.569,56.21203
1425407274.585,63.051376
1425407274.6,65.78775
1425407274.616,63.300407
1425407274.632,55.337242
1425407274.647,42.72284
1425407274.663,27.3116
1425407274.679,11.489418
1425407274.694,-2.5258484
1425407274.71,-13.358261
1425407274.725,-20.832924
1425407274.741,-25.798782
1425407274.757,-29.535454
1425407274.772,-33.071846
1425407274.788,-36.809517
1425407274.804,-40.510643
1425407274.819,-43.690628
1425407274.835,-46.0515
1425407274.85,-47.57669
1425407274.866,-48.496414
1425407274.882,-49.11158
1425407274.897,-49.57762
1425407274.913,-49.920303
1425407274.929,-50.111847
1425407274.944,-50.136055
1425407274.96,-50.0101
1425407274.975,-49.75643
1425407274.991,-49.273956
1425407275.007,-48.342705
1425407275.022,-46.675156
1425407275.038,-43.875687
1425407275.054,-39.64898
1425407275.069,-33.887726
1425407275.085,-26.767464
1425407275.1,-18.750992
1425407275.116,-10.505226
1425407275.132,-2.6815796
1425407275.147,4.323784
1425407275.163,10.486832
1425407275.179,16.19635
1425407275.194,22.07975
1425407275.21,28.795311
1425407275.225,36.780792
1425407275.241,45.958794
1425407275.257,55.579147
1425407275.272,64.20773
1425407275.288,70.000145
1425407275.304,71.18799
1425407275.319,66.75191
1425407275.335,56.864975
1425407275.35,42.94922
1425407275.366,27.312134
1425407275.382,12.406021
1425407275.397,0.1381073
1425407275.413,-8.547562
1425407275.429,-13.688812
1425407275.444,-16.013367
1425407275.46,-16.483337
1425407275.475,-15.963654
1425407275.491,-15.032928
1425407275.507,-14.01207
1425407275.522,-13.020737
1425407275.538,-12.127823
1425407275.554,-11.348785
1425407275.569,-10.725784
1425407275.585,-10.26358
1425407275.6,-9.87294
1425407275.616,-9.36026
1425407275.632,-8.548004
1425407275.647,-7.340973
1425407275.663,-5.802536
1425407275.679,-4.1306915
1425407275.694,-2.5149384
1425407275.71,-0.9516754
1425407275.725,0.7548523
1425407275.741,2.9588928
1425407275.757,5.9434814
1425407275.772,9.80426
1425407275.788,14.393997
1425407275.804,19.45813
1425407275.819,24.719345
1425407275.835,30.020584
1425407275.85,35.41043
1425407275.866,41.08162
1425407275.882,47.28943
1425407275.897,54.210068
1425407275.913,61.601273
1425407275.929,68.66838
1425407275.944,74.017944
1425407275.96,76.02446
1425407275.975,73.389145
1425407275.991,65.72975
1425407276.007,53.68672
1425407276.022,38.768616
1425407276.038,22.794846
1425407276.054,7.372223
1425407276.069,-6.4118195
1425407276.085,-17.924026
1425407276.1,-26.868912
1425407276.116,-33.151215
1425407276.132,-36.806686
1425407276.147,-38.074387
1425407276.163,-37.344162
1425407276.179,-35.11026
1425407276.194,-31.896889
1425407276.21,-28.253082
1425407276.225,-24.697708
1425407276.241,-21.752518
1425407276.257,-19.826157
1425407276.272,-19.117508
1425407276.288,-19.590141
1425407276.304,-20.96479
1425407276.319,-22.845016
1425407276.335,-24.794205
1425407276.35,-26.275154
1425407276.366,-26.70781
1425407276.382,-25.581879
1425407276.397,-22.635445
1425407276.413,-18.029564
1425407276.429,-12.385223
1425407276.444,-6.585266
1425407276.46,-1.4234619
1425407276.476,2.628662
1425407276.491,5.6065216
1425407276.507,7.961693
1425407276.522,10.44281
1425407276.538,13.9605255
1425407276.554,19.354065
1425407276.569,27.000076
1425407276.585,36.50157
1425407276.601,46.471153
1425407276.616,54.65786
1425407276.632,58.620262
1425407276.647,56.56157
1425407276.663,48.056274
1425407276.679,34.27559
1425407276.694,17.610245
1425407276.71,0.8336487
1425407276.726,-13.681938
1425407276.741,-24.569641
1425407276.757,-31.636787
1425407276.772,-35.600945
1425407276.788,-37.63555
1425407276.804,-38.863876
1425407276.819,-40.05371
1425407276.835,-41.455185
1425407276.851,-42.924934
1425407276.866,-44.088593
1425407276.882,-44.622017
1425407276.897,-44.373543
1425407276.913,-43.303703
1425407276.929,-41.485962
1425407276.944,-39.022247
1425407276.96,-36.068634
1425407276.976,-32.87153
1425407276.991,-29.794273
1425407277.007,-27.215172
1425407277.022,-25.323914
1425407277.038,-24.018501
1425407277.054,-22.788933
1425407277.069,-20.944489
1425407277.085,-17.844513
1425407277.101,-13.1291275
1425407277.116,-6.8864746
1425407277.132,0.36686325
1425407277.147,7.8951073
1425407277.163,15.032234
1425407277.179,21.408634
1425407277.194,27.167595
1425407277.21,32.89691
1425407277.226,39.37625
1425407277.241,47.192917
1425407277.257,56.37791
1425407277.272,66.163956
1425407277.288,75.059204
1425407277.304,81.20206
1425407277.319,82.805786
1425407277.335,78.80197
1425407277.351,69.19501
1425407277.366,55.16697
1425407277.382,38.78066
1425407277.397,22.433552
1425407277.413,8.157005
1425407277.429,-2.8484612
1425407277.444,-10.365269
1425407277.46,-14.978634
1425407277.476,-17.596355
1425407277.491,-19.066158
1425407277.507,-19.985985
1425407277.522,-20.727985
1425407277.538,-21.597942
1425407277.554,-22.950802
1425407277.569,-25.120007
1425407277.585,-28.269669
1425407277.601,-32.28173
1425407277.616,-36.699078
1425407277.632,-40.944206
1425407277.647,-44.52678
1425407277.663,-47.22095
1425407277.679,-49.09496
1425407277.694,-50.38109
1425407277.71,-51.24268
1425407277.726,-51.536175
1425407277.741,-50.80001
1425407277.757,-48.371178
1425407277.772,-43.72494
1425407277.788,-36.78622
1425407277.804,-28.092587
1425407277.819,-18.680088
1425407277.835,-9.723236
1425407277.851,-2.0379028
1425407277.866,4.207367
1425407277.882,9.508682
1425407277.897,14.731808
1425407277.913,20.769115
1425407277.929,28.117722
1425407277.944,36.650925
1425407277.96,45.57516
1425407277.976,53.450962
1425407277.991,58.537388
1425407278.007,59.188217
1425407278.022,54.444126
1425407278.038,44.492012
1425407278.054,30.751957
1425407278.069,15.482269
1425407278.085,0.97559357
1425407278.101,-11.106693
1425407278.116,-20.241787
1425407278.132,-26.843407
1425407278.147,-31.729294
1425407278.163,-35.623432
1425407278.179,-38.82234
1425407278.194,-41.277885
1425407278.21,-42.841022
1425407278.226,-43.495422
1425407278.241,-43.351383
1425407278.257,-42.64095
1425407278.272,-41.58278
1425407278.288,-40.33273
1425407278.304,-39.051907
1425407278.319,-37.92424
1425407278.335,-37.183327
1425407278.351,-37.086235
1425407278.366,-37.841713
1425407278.382,-39.42945
1425407278.397,-41.477867
1425407278.413,-43.178535
1425407278.429,-43.449562
1425407278.444,-41.295288
1425407278.46,-36.257362
1425407278.476,-28.6399
1425407278.491,-19.485947
1425407278.507,-10.14344
1425407278.522,-1.7216034
1425407278.538,5.216339
1425407278.554,10.810356
1425407278.569,15.727493
1425407278.585,20.845947
1425407278.601,27.071503
1425407278.616,35.000458
1425407278.632,44.512627
1425407278.647,54.496437
1425407278.663,62.95678
1425407278.679,67.49255
1425407278.694,66.33034
1425407278.71,59.24588
1425407278.726,47.877922
1425407278.741,35.253845
1425407278.757,24.58207
1425407278.772,18.017479
1425407278.788,16.05088
1425407278.804,17.58123
1425407278.819,20.664154
1425407278.835,23.444183
1425407278.851,24.724304
1425407278.866,24.082504
1425407278.882,21.631775
1425407278.897,17.74376
1425407278.913,12.819168
1425407278.929,7.2373657
1425407278.944,1.4421082
1425407278.96,-4.074463
1425407278.976,-8.7339325
1425407278.991,-12.0961
1425407279.007,-14.037857
1425407279.022,-14.866394
1425407279.038,-15.232086
1425407279.054,-15.888718
1425407279.069,-17.272766
1425407279.085,-19.225616
1425407279.101,-21.052032
1425407279.116,-21.698318
1425407279.132,-20.331253
1425407279.148,-16.678802
1425407279.163,-11.133316
1425407279.179,-4.591507
1425407279.194,1.9187622
1425407279.21,7.6495667
1425407279.226,12.376068
1425407279.241,16.39595
1425407279.257,20.42575
1425407279.273,25.324097
1425407279.288,31.735123
1425407279.304,39.799454
1425407279.319,48.865326
1425407279.335,57.475693
1425407279.351,63.69728
1425407279.366,65.65193
1425407279.382,62.14795
1425407279.398,53.13922
1425407279.413,39.772766
1425407279.429,24.07277
1425407279.444,8.303146
1425407279.46,-5.63591
1425407279.476,-16.656448
1425407279.491,-24.549774
1425407279.507,-29.738312
1425407279.523,-32.922394
1425407279.538,-34.709457
1425407279.554,-35.4879
1425407279.569,-35.470627
1425407279.585,-34.872635
1425407279.601,-34.02664
1425407279.616,-33.362213
1425407279.632,-33.24434
1425407279.648,-33.748535
1425407279.663,-34.63562
1425407279.679,-35.42639
1425407279.694,-35.707108
1425407279.71,-35.34668
1425407279.726,-34.52957
1425407279.741,-33.612793
1425407279.757,-32.86302
1425407279.773,-32.24643
1425407279.788,-31.373611
1425407279.804,-29.648926
1425407279.819,-26.544083
1425407279.835,-21.83168
1425407279.851,-15.700775
1425407279.866,-8.721024
1425407279.882,-1.6269226
1425407279.898,4.975342
1425407279.913,10.861755
1425407279.929,16.270004
1425407279.944,21.769302
1425407279.96,27.999329
1425407279.976,35.41165
1425407279.991,43.919144
1425407280.007,52.81685
1425407280.023,60.805023
1425407280.038,66.18935
1425407280.054,67.34787
1425407280.069,63.23462
1425407280.085,53.896088
1425407280.101,40.67546
1425407280.116,25.84909
1425407280.132,11.894592
1425407280.148,0.68466187
1425407280.163,-7.0768127
1425407280.179,-11.832001
1425407280.194,-14.651703
1425407280.21,-16.480469
1425407280.226,-17.817154
1425407280.241,-18.557098
1425407280.257,-18.396011
1425407280.273,-17.194366
1425407280.288,-15.155334
1425407280.304,-12.732162
1425407280.319,-10.413528
1425407280.335,-8.4709015
1425407280.351,-6.848297
1425407280.366,-5.2462616
1425407280.382,-3.294876
1425407280.398,-0.76097107
1425407280.413,2.3275146
1425407280.429,5.7465515
1425407280.444,9.202469
1425407280.46,12.528168
1425407280.476,15.898346
1425407280.491,19.729034
1425407280.507,24.402481
1425407280.523,29.981247
1425407280.538,36.02133
1425407280.554,41.650467
1425407280.569,45.98976
1425407280.585,48.526703
1425407280.601,49.428757
1425407280.616,49.466873
1425407280.632,49.685608
1425407280.648,51.092896
1425407280.663,54.40927
1425407280.679,59.88777
1425407280.694,67.130035
1425407280.71,75.0598
1425407280.726,81.89537
1425407280.741,85.46385
1425407280.757,83.793976
1425407280.773,75.81758
1425407280.788,61.833786
1425407280.804,43.597733
1425407280.819,23.771774
1425407280.835,5.1474915
1425407280.851,-10.1633
1425407280.866,-21.18367
1425407280.882,-28.121986
1425407280.898,-31.990402
1425407280.913,-34.081955
1425407280.929,-35.545044
1425407280.944,-37.070206
1425407280.96,-38.78756
1425407280.976,-40.48835
1425407280.991,-41.810722
1425407281.007,-42.547363
1425407281.023,-42.759773
1425407281.038,-42.646225
1425407281.054,-42.461777
1425407281.069,-42.331863
1425407281.085,-42.25715
1425407281.101,-42.227837
1425407281.116,-42.28556
1425407281.132,-42.47577
1425407281.148,-42.71969
1425407281.163,-42.715942
1425407281.179,-41.920685
1425407281.194,-39.774475
1425407281.21,-35.972477
1425407281.226,-30.60447
1425407281.241,-24.167114
1425407281.257,-17.402218
1425407281.273,-11.015945
1425407281.288,-5.443924
1425407281.304,-0.7193985
1425407281.319,3.5374413
1425407281.335,8.028233
1425407281.351,13.466385
1425407281.366,20.266508
1425407281.382,28.195007
1425407281.398,36.138817
1425407281.413,42.345478
1425407281.429,44.883617
1425407281.444,42.281944
1425407281.46,34.167137
1425407281.476,21.47325
1425407281.491,6.201375
1425407281.507,-9.151027
1425407281.523,-22.364876
1425407281.538,-32.07727
1425407281.554,-37.97512
1425407281.569,-40.62311
1425407281.585,-40.987633
1425407281.601,-39.98317
1425407281.616,-38.215954
1425407281.632,-35.983322
1425407281.648,-33.419064
1425407281.663,-30.658209
1425407281.679,-27.911549
1425407281.694,-25.397408
1425407281.71,-23.25238
1425407281.726,-21.550089
1425407281.741,-20.24921
1425407281.757,-19.292568
1425407281.773,-18.594372
1425407281.788,-17.96537
1425407281.804,-17.167763
1425407281.82,-15.918945
1425407281.835,-13.999647
1425407281.851,-11.266156
1425407281.866,-7.7202425
1425407281.882,-3.390852
1425407281.898,1.6609144
1425407281.913,7.3096943
1425407281.929,13.348785
1425407281.944,19.45052
1425407281.96,25.274237
1425407281.976,30.74272
1425407281.991,36.15503
1425407282.007,42.154533
1425407282.023,49.39394
1425407282.038,58.0084
1425407282.054,67.19627
1425407282.07,75.22229
1425407282.085,79.84479
1425407282.101,79.0793
1425407282.116,71.9769
1425407282.132,59.012814
1425407282.148,42.01729
1425407282.163,23.670952
1425407282.179,6.6428223
1425407282.195,-7.112747
1425407282.21,-16.793552
1425407282.226,-22.710915
1425407282.241,-25.862774
1425407282.257,-27.426556
1425407282.273,-28.26841
1425407282.288,-28.823746
1425407282.304,-29.117607
1425407282.32,-29.062344
1425407282.335,-28.634388
1425407282.351,-27.869934
1425407282.366,-26.888092
1425407282.382,-25.778435
1425407282.398,-24.583832
1425407282.413,-23.356731
1425407282.429,-22.22438
1425407282.445,-21.382889
1425407282.46,-20.997368
1425407282.476,-21.09861
1425407282.491,-21.42643
1425407282.507,-21.532227
1425407282.523,-20.878227
1425407282.538,-19.029305
1425407282.554,-15.819252
1425407282.57,-11.446854
1425407282.585,-6.3811874
1425407282.601,-1.1502686
1425407282.616,3.847557
1425407282.632,8.579369
1425407282.648,13.413765
1425407282.663,18.93737
1425407282.679,25.737198
1425407282.695,34.048225
1425407282.71,43.497208
1425407282.726,52.996353
1425407282.741,60.88279
1425407282.757,65.2438
1425407282.773,64.46293
1425407282.788,57.763374
1425407282.804,45.598183
1425407282.82,29.648018
1425407282.835,12.402557
1425407282.851,-3.601822
1425407282.866,-16.509865
1425407282.882,-25.52227
1425407282.898,-30.917625
1425407282.913,-33.590576
1425407282.929,-34.55143
1425407282.945,-34.571274
1425407282.96,-34.08342
1425407282.976,-33.33725
1425407282.991,-32.50049
1425407283.007,-31.753143
1425407283.023,-31.180435
1425407283.038,-30.768555
1425407283.054,-30.333618
1425407283.07,-29.716827
1425407283.085,-28.837067
1425407283.101,-27.763687
1425407283.116,-26.70256
1425407283.132,-25.823013
1425407283.148,-25.116837
1425407283.163,-24.360992
1425407283.179,-23.133606
1425407283.195,-20.993576
1425407283.21,-17.646317
1425407283.226,-13.115234
1425407283.241,-7.705185
1425407283.257,-1.9398499
1425407283.273,3.7274628
1425407283.288,9.105331
1425407283.304,14.354218
1425407283.32,19.905151
1425407283.335,26.288223
1425407283.351,33.91034
1425407283.366,42.772766
1425407283.382,52.323853
1425407283.398,61.341858
1425407283.413,68.05681
1425407283.429,70.547455
1425407283.445,67.35867
1425407283.46,58.10219
1425407283.476,43.785294
1425407283.491,26.646591
1425407283.507,9.403
1425407283.523,-5.579529
1425407283.538,-16.990372
1425407283.554,-24.73088
1425407283.57,-29.589539
1425407283.585,-32.620453
1425407283.601,-34.646667
1425407283.616,-36.07408
1425407283.632,-36.98625
1425407283.648,-37.38771
1425407283.663,-37.309555
1425407283.679,-36.853714
1425407283.695,-36.138718
1425407283.71,-35.242126
1425407283.726,-34.223236
1425407283.741,-33.13864
1425407283.757,-32.122375
1425407283.773,-31.30458
1425407283.788,-30.8564
1425407283.804,-30.802826
1425407283.82,-31.016678
1425407283.835,-31.168839
1425407283.851,-30.710846
1425407283.866,-29.090149
1425407283.882,-25.928528
1425407283.898,-21.186966
1425407283.913,-15.230576
1425407283.929,-8.745041
1425407283.945,-2.4110718
1425407283.96,3.313568
1425407283.976,8.367096
1425407283.991,13.137039
1425407284.007,18.283401
1425407284.023,24.534668
1425407284.038,32.382874
1425407284.054,41.782883
1425407284.07,51.903336
1425407284.085,61.07567
1425407284.101,67.10651
1425407284.116,67.89186
1425407284.132,62.23062
1425407284.148,50.354706
1425407284.163,33.992218
1425407284.179,15.872894
1425407284.195,-1.1853485
1425407284.21,-15.102509
1425407284.226,-24.94867
1425407284.241,-30.911514
1425407284.257,-33.909256
1425407284.273,-35.05371
1425407284.288,-35.280014
1425407284.304,-35.2238
1425407284.32,-35.201416
1425407284.335,-35.280136
1425407284.351,-35.41681
1425407284.366,-35.493225
1425407284.382,-35.423706
1425407284.398,-35.137314
1425407284.413,-34.55513
1425407284.429,-33.594788
1425407284.445,-32.20305
1425407284.46,-30.4393
1425407284.476,-28.460663
1425407284.491,-26.52626
1425407284.507,-24.838394
1425407284.523,-23.36316
1425407284.538,-21.82846
1425407284.554,-19.819382
1425407284.57,-16.950165
1425407284.585,-13.0177
1425407284.601,-8.023651
1425407284.616,-2.1172638
1425407284.632,4.4564514
1425407284.648,11.5012665
1425407284.663,18.906372
1425407284.679,26.65828
1425407284.695,34.7639
1425407284.71,43.11432
1425407284.726,51.141052
1425407284.742,57.75177
1425407284.757,61.37938
1425407284.773,60.479446
1425407284.788,54.22943
1425407284.804,42.98877
1425407284.82,28.33786
1425407284.835,12.634857
1425407284.851,-1.8249664
1425407284.867,-13.49176
1425407284.882,-21.85463
1425407284.898,-27.245285
1425407284.913,-30.454987
1425407284.929,-32.29532
1425407284.945,-33.330887
1425407284.96,-33.8562
1425407284.976,-33.85013
1425407284.992,-33.18184
1425407285.007,-31.764145
1425407285.023,-29.714325
1425407285.038,-27.394608
1425407285.054,-25.356415
1425407285.07,-24.088348
1425407285.085,-23.78598
1425407285.101,-24.24562
1425407285.117,-24.949997
1425407285.132,-25.29895
1425407285.148,-24.83928
1425407285.163,-23.29367
1425407285.179,-20.599197
1425407285.195,-16.802444
1425407285.21,-12.008926
1425407285.226,-6.4424133
1425407285.242,-0.4300232
1425407285.257,5.620468
1425407285.273,11.344955
1425407285.288,16.587708
1425407285.304,21.47873
1425407285.32,26.457
1425407285.335,32.16153
1425407285.351,39.194412
1425407285.367,47.757324
1425407285.382,57.247726
1425407285.398,66.18359
1425407285.413,72.39908
1425407285.429,73.72029
1425407285.445,68.77425
1425407285.46,57.63005
1425407285.476,41.864365
1425407285.492,24.089966
1425407285.507,7.045212
1425407285.523,-7.2006683
1425407285.538,-17.68489
1425407285.554,-24.505661
1425407285.57,-28.451675
1425407285.585,-30.517715
1425407285.601,-31.563889
1425407285.617,-32.164307
1425407285.632,-32.632492
1425407285.648,-33.056747
1425407285.663,-33.421997
1425407285.679,-33.57791
1425407285.695,-33.429916
1425407285.71,-32.870758
1425407285.726,-31.8582
1425407285.742,-30.42427
1425407285.757,-28.708588
1425407285.773,-26.914291
1425407285.788,-25.264664
1425407285.804,-23.915344
1425407285.82,-22.791763
1425407285.835,-21.602142
1425407285.851,-19.896667
1425407285.867,-17.265411
1425407285.882,-13.556549
1425407285.898,-8.947876
1425407285.913,-3.8594666
1425407285.929,1.250473
1425407285.945,6.019882
1425407285.96,10.374512
1425407285.976,14.504974
1425407285.992,18.868668
1425407286.007,24.031952
1425407286.023,30.495178
1425407286.038,38.39145
1425407286.054,47.206985
1425407286.07,55.648697
1425407286.085,61.815826
1425407286.101,63.78691
1425407286.117,60.23622
1425407286.132,51.062347
1425407286.148,37.49144
1425407286.163,21.714264
1425407286.179,6.1886597
1425407286.195,-7.15567
1425407286.21,-17.307297
1425407286.226,-24.317825
1425407286.242,-28.89598
1425407286.257,-31.971954
1425407286.273,-34.25972
1425407286.288,-36.069366
1425407286.304,-37.376465
1425407286.32,-38.055115
1425407286.335,-38.12686
1425407286.351,-37.771103
1425407286.367,-37.292084
1425407286.382,-36.878098
1425407286.398,-36.48459
1425407286.413,-35.90155
1425407286.429,-34.885406
1425407286.445,-33.426437
1425407286.46,-31.758545
1425407286.476,-30.25177
1425407286.492,-29.121552
1425407286.507,-28.285065
1425407286.523,-27.27472
1425407286.538,-25.469727
1425407286.554,-22.394272
1425407286.57,-17.941498
1425407286.585,-12.439468
1425407286.601,-6.5169525
1425407286.617,-0.8789673
1425407286.632,3.9460754
1425407286.648,7.7843018
1425407286.663,10.956116
1425407286.679,14.152512
1425407286.695,18.265854
1425407286.71,24.088745
1425407286.726,32.005066
1425407286.742,41.727654
1425407286.757,52.243454
1425407286.773,61.928604
1425407286.788,68.91274
1425407286.804,71.563965
1425407286.82,69.026024
1425407286.835,61.535973
1425407286.851,50.441643
1425407286.867,37.76554
1425407286.882,25.48909
1425407286.898,14.986259
1425407286.913,6.6686172
1425407286.929,0.17491913
1425407286.945,-5.1283417
1425407286.96,-9.668457
1425407286.976,-13.4763565
1425407286.992,-16.304932
1425407287.007,-18.023788
1425407287.023,-18.828796
1425407287.038,-19.192787
1425407287.054,-19.629845
1425407287.07,-20.419647
1425407287.085,-21.552513
1425407287.101,-22.79831
1425407287.117,-23.953918
1425407287.132,-24.968071
1425407287.148,-25.925552
1425407287.163,-26.95449
1425407287.179,-28.083237
1425407287.195,-29.225418
1425407287.21,-30.108185
1425407287.226,-30.29457
1425407287.242,-29.242035
1425407287.257,-26.45234
1425407287.273,-21.692284
1425407287.288,-15.182564
1425407287.304,-7.600151
1425407287.32,0.10231781
1425407287.335,7.0476
1425407287.351,12.76265
1425407287.367,17.365059
1425407287.382,21.464119
1425407287.398,25.890335
1425407287.414,31.385048
1425407287.429,38.209892
1425407287.445,45.958656
1425407287.46,53.483315
1425407287.476,59.13217
1425407287.492,61.144478
1425407287.507,58.30055
1425407287.523,50.36811
1425407287.539,38.257473
1425407287.554,23.776829
1425407287.57,9.001781
1425407287.585,-4.282009
1425407287.601,-14.971573
1425407287.617,-22.708218
1425407287.632,-27.673279
1425407287.648,-30.312847
1425407287.664,-31.13145
1425407287.679,-30.604218
1425407287.695,-29.193787
1425407287.71,-27.338081
1425407287.726,-25.48859
1425407287.742,-23.964832
1425407287.757,-22.955086
1425407287.773,-22.411274
1425407287.789,-22.044197
1425407287.804,-21.443157
1425407287.82,-20.237843
1425407287.835,-18.298874
1425407287.851,-15.817978
1425407287.867,-13.217854
1425407287.882,-10.926605
1425407287.898,-9.1179695
1425407287.914,-7.61586
1425407287.929,-5.9313564
1425407287.945,-3.568102
1425407287.96,-0.23287964
1425407287.976,4.0223675
1425407287.992,8.834518
1425407288.007,13.68441
1425407288.023,18.094854
1425407288.039,21.788595
1425407288.054,24.785587
1425407288.07,27.440193
1425407288.085,30.348064
1425407288.101,34.170418
1425407288.117,39.412994
1425407288.132,46.046696
1425407288.148,53.311806
1425407288.164,59.717606
1425407288.179,63.459305
1425407288.195,62.911568
1425407288.21,57.266567
1425407288.226,46.896004
1425407288.242,33.296913
1425407288.257,18.581142
1425407288.273,4.8604584
1425407288.289,-6.421671
1425407288.304,-14.75214
1425407288.32,-20.435127
1425407288.335,-24.181393
1425407288.351,-26.616434
1425407288.367,-28.06525
1425407288.382,-28.601135
1425407288.398,-28.289474
1425407288.414,-27.39632
1425407288.429,-26.420475
1425407288.445,-25.931145
1425407288.46,-26.191168
1425407288.476,-27.133137
1425407288.492,-28.294891
1425407288.507,-29.153145
1425407288.523,-29.398933
1425407288.539,-29.025326
1425407288.554,-28.294758
1425407288.57,-27.511501
1425407288.585,-26.746037
1425407288.601,-25.738123
1425407288.617,-23.989212
1425407288.632,-21.01242
1425407288.648,-16.596096
1425407288.664,-11.005963
1425407288.679,-4.8688173
1425407288.695,1.0385771
1425407288.71,6.168198
1425407288.726,10.485843
1425407288.742,14.492889
1425407288.757,18.941809
1425407288.773,24.540985
1425407288.789,31.609749
1425407288.804,39.936764
1425407288.82,48.804214
1425407288.835,57.110775
1425407288.851,63.51015
1425407288.867,66.632744
1425407288.882,65.38706
1425407288.898,59.318127
1425407288.914,48.91691
1425407288.929,35.631264
1425407288.945,21.455542
1425407288.96,8.417646
1425407288.976,-2.11406
1425407288.992,-9.703281
1425407289.007,-14.764584
1425407289.023,-18.135702
1425407289.039,-20.646866
1425407289.054,-22.767025
1425407289.07,-24.585167
1425407289.085,-25.976604
1425407289.101,-26.742989
1425407289.117,-26.783749
1425407289.132,-26.144627
1425407289.148,-24.990114
1425407289.164,-23.553383
1425407289.179,-22.055853
1425407289.195,-20.647264
1425407289.21,-19.411655
1425407289.226,-18.317244
1425407289.242,-17.27175
1425407289.257,-16.127151
1425407289.273,-14.6493435
1425407289.289,-12.51785
1425407289.304,-9.4019985
1425407289.32,-5.1650224
1425407289.335,-0.002364993
1425407289.351,5.4933677
1425407289.367,10.44261
1425407289.382,13.948885
1425407289.398,15.477757
1425407289.414,15.078007
1425407289.429,13.50526
1425407289.445,12.061501
1425407289.46,12.276283
1425407289.476,15.543987
1425407289.492,22.671886
1425407289.507,33.47678
1425407289.523,46.646866
1425407289.539,59.867683
1425407289.554,70.4001
1425407289.57,75.84572
1425407289.585,74.95343
1425407289.601,67.970245
1425407289.617,56.49048
1425407289.632,42.8539
1425407289.648,29.308813
1425407289.664,17.393917
1425407289.679,7.6949415
1425407289.695,-0.04698181
1425407289.71,-6.4932375
1425407289.726,-12.3312
1425407289.742,-17.980247
1425407289.757,-23.572094
1425407289.773,-28.985626
1425407289.789,-34.072388
1425407289.804,-38.72051
1425407289.82,-42.905045
1425407289.835,-46.645596
1425407289.851,-49.88008
1425407289.867,-52.457108
1425407289.882,-54.206123
1425407289.898,-55.052223
1425407289.914,-55.052986
1425407289.929,-54.440304
1425407289.945,-53.43819
1425407289.96,-52.09867
1425407289.976,-50.257442
1425407289.992,-47.545204
1425407290.007,-43.58309
1425407290.023,-38.144485
1425407290.039,-31.256224
1425407290.054,-23.261007
1425407290.07,-14.751415
1425407290.086,-6.446762
1425407290.101,0.9985676
1425407290.117,7.180208
1425407290.132,12.084892
1425407290.148,16.161514
1425407290.164,20.169973
1425407290.179,24.981586
1425407290.195,31.169767
1425407290.211,38.76461
1425407290.226,47.041187
1425407290.242,54.620575
1425407290.257,59.739883
1425407290.273,60.778664
1425407290.289,56.830242
1425407290.304,48.029373
1425407290.32,35.66358
1425407290.336,21.76024
1425407290.351,8.447786
1425407290.367,-2.6667652
1425407290.382,-10.851591
1425407290.398,-16.198433
1425407290.414,-19.202572
1425407290.429,-20.39591
1425407290.445,-20.210701
1425407290.461,-18.956913
1425407290.476,-17.065918
1425407290.492,-15.102518
1425407290.507,-13.662037
1425407290.523,-13.148005
1425407290.539,-13.610069
1425407290.554,-14.762964
1425407290.57,-16.137218
1425407290.586,-17.317154
1425407290.601,-18.041037
1425407290.617,-18.241768
1425407290.632,-17.986927
1425407290.648,-17.41758
1425407290.664,-16.624153
1425407290.679,-15.616799
1425407290.695,-14.288326
1425407290.711,-12.416717
1425407290.726,-9.843047
1425407290.742,-6.4845963
1425407290.757,-2.5234594
1425407290.773,1.7398806
1425407290.789,6.04222
1425407290.804,10.332425
1425407290.82,14.800923
1425407290.836,19.805151
1425407290.851,25.728437
1425407290.867,32.732563
1425407290.882,40.60538
1425407290.898,48.652084
1425407290.914,55.67771
1425407290.929,60.164913
1425407290.945,60.6219
1425407290.961,56.127796
1425407290.976,46.79676
1425407290.992,33.90521
1425407291.007,19.48211
1425407291.023,5.7037277
1425407291.039,-5.8563538
1425407291.054,-14.575724
1425407291.07,-20.683344
1425407291.086,-24.800085
1425407291.101,-27.54039
1425407291.117,-29.263058
1425407291.132,-30.113165
1425407291.148,-30.212437
1425407291.164,-29.655998
1425407291.179,-28.567154
1425407291.195,-27.052227
1425407291.211,-25.201794
1425407291.226,-23.18882
1425407291.242,-21.290905
1425407291.257,-19.85303
1425407291.273,-19.153067
1425407291.289,-19.248144
1425407291.304,-19.901772
1425407291.32,-20.683086
1425407291.336,-21.049166
1425407291.351,-20.48097
1425407291.367,-18.596806
1425407291.382,-15.233538
1425407291.398,-10.47971
1425407291.414,-4.6948586
1425407291.429,1.582243
1425407291.445,7.759556
1425407291.461,13.384369
1425407291.476,18.262928
1425407291.492,22.57375
1425407291.507,26.78802
1425407291.523,31.57699
1425407291.539,37.606018
1425407291.554,45.16212
1425407291.57,53.877327
1425407291.586,62.491997
1425407291.601,69.06827
1425407291.617,71.48393
1425407291.632,68.218155
1425407291.648,58.95598
1425407291.664,44.842106
1425407291.679,28.1313
1425407291.695,11.444803
1425407291.711,-3.0090027
1425407291.726,-13.90007
1425407291.742,-20.941303
1425407291.757,-24.665157
1425407291.773,-26.074896
1425407291.789,-26.275497
1425407291.804,-26.2006
1425407291.82,-26.434208
1425407291.836,-27.179478
1425407291.851,-28.322231
1425407291.867,-29.542435
1425407291.882,-30.53009
1425407291.898,-31.06493
1425407291.914,-31.034992
1425407291.929,-30.439842
1425407291.945,-29.35638
1425407291.961,-27.945446
1425407291.976,-26.491398
1425407291.992,-25.292969
1425407292.007,-24.570717
1425407292.023,-24.23447
1425407292.039,-23.911873
1425407292.054,-22.990185
1425407292.07,-20.890705
1425407292.086,-17.296791
1425407292.101,-12.222111
1425407292.117,-6.034584
1425407292.132,0.686821
1425407292.148,7.3177643
1425407292.164,13.361919
1425407292.179,18.613174
1425407292.195,23.293938
1425407292.211,28.053272
1425407292.226,33.734306
1425407292.242,40.991253
1425407292.257,49.732185
1425407292.273,58.839905
1425407292.289,66.31688
1425407292.304,69.87627
1425407292.32,67.80076
1425407292.336,59.64738
1425407292.351,46.520016
1425407292.367,30.674896
1425407292.382,14.76738
1425407292.398,0.93395996
1425407292.414,-9.731159
1425407292.429,-17.294712
1425407292.445,-22.575146
1425407292.461,-26.557636
1425407292.476,-29.89378
1425407292.492,-32.729897
1425407292.507,-34.91991
1425407292.523,-36.356216
1425407292.539,-37.225258
1425407292.554,-38.045513
1425407292.57,-39.38666
1425407292.586,-41.533157
1425407292.601,-44.282825
1425407292.617,-47.01384
1425407292.632,-49.01674
1425407292.648,-49.85238
1425407292.664,-49.506393
1425407292.679,-48.364437
1425407292.695,-47.002693
1425407292.711,-45.918816
1425407292.726,-45.34679
1425407292.742,-45.169197
1425407292.758,-45.0184
1425407292.773,-44.359688
1425407292.789,-42.71453
1425407292.804,-39.84113
1425407292.82,-35.85697
1425407292.836,-31.266254
1425407292.851,-26.72688
1425407292.867,-22.855
1425407292.882,-20.003029
1425407292.898,-18.187614
1425407292.914,-17.033596
1425407292.929,-15.924496
1425407292.945,-14.064777
1425407292.961,-10.625118
1425407292.976,-5.04113
1425407292.992,2.6944695
1425407293.008,11.740654
1425407293.023,20.460997
1425407293.039,26.91437
1425407293.054,29.516838
1425407293.07,27.692091
1425407293.086,22.086332
1425407293.101,14.281505
1425407293.117,6.1145306
1425407293.133,-0.9783666
1425407293.148,-6.323262
1425407293.164,-9.930355
1425407293.179,-12.181122
1425407293.195,-13.401126
1425407293.211,-13.69676
1425407293.226,-12.902662
1425407293.242,-10.825752
1425407293.258,-7.5115623
1425407293.273,-3.379816
1425407293.289,0.8287182
1425407293.304,4.303871
1425407293.32,6.4655037
1425407293.336,7.18565
1425407293.351,6.784729
1425407293.367,5.8581314
1425407293.383,4.914768
1425407293.398,4.182686
1425407293.414,3.6024323
1425407293.429,2.9437408
1425407293.445,2.0431633
1425407293.461,0.96980286
1425407293.476,0.019508362
1425407293.492,-0.42790222
1425407293.508,-0.0663147
1425407293.523,1.2125778
1425407293.539,3.2173767
1425407293.554,5.6048737
1425407293.57,7.9717255
1425407293.586,9.960045
1425407293.601,11.485794
1425407293.617,12.719643
1425407293.633,13.9663315
1425407293.648,15.514061
1425407293.664,17.603111
1425407293.679,20.30832
1425407293.695,23.676071
1425407293.711,27.731071
1425407293.726,32.32666
1425407293.742,37.00157
1425407293.758,40.767876
1425407293.773,42.26326
1425407293.789,40.161728
1425407293.804,33.75287
1425407293.82,23.292648
1425407293.836,10.083832
1425407293.851,-3.9851837
1425407293.867,-17.048843
1425407293.883,-27.85669
1425407293.898,-35.94951
1425407293.914,-41.525192
1425407293.929,-44.967484
1425407293.945,-46.484177
1425407293.961,-46.011673
1425407293.976,-43.335022
1425407293.992,-38.458527
1425407294.008,-31.863937
1425407294.023,-24.486725
1425407294.039,-17.475098
1425407294.054,-11.752701
1425407294.07,-7.716217
1425407294.086,-5.0813904
1425407294.101,-3.1627502
1425407294.117,-1.2229156
1425407294.133,1.1760101
1425407294.148,4.0378113
1425407294.164,7.124588
1425407294.179,10.160812
1425407294.195,13.006439
1425407294.211,15.679535
1425407294.226,18.329025
1425407294.242,21.084122
1425407294.258,24.04686
1425407294.273,27.226715
1425407294.289,30.540329
1425407294.304,33.821457
1425407294.32,36.81424
1425407294.336,39.295563
1425407294.351,41.21678
1425407294.367,42.826416
1425407294.383,44.591675
1425407294.398,47.099716
1425407294.414,50.84619
1425407294.429,56.006546
1425407294.445,62.309845
1425407294.461,68.969955
1425407294.476,74.69156
1425407294.492,77.87401
1425407294.508,77.00339
1425407294.523,71.168945
1425407294.539,60.568604
1425407294.554,46.59828
1425407294.57,31.430313
1425407294.586,17.26445
1425407294.601,5.6338806
1425407294.617,-2.9929657
1425407294.633,-9.055328
1425407294.648,-13.303879
1425407294.664,-16.433105
1425407294.679,-18.736328
1425407294.695,-20.243393
1425407294.711,-20.933334
1425407294.726,-20.854279
1425407294.742,-20.21489
1425407294.758,-19.311264
1425407294.773,-18.4236
1425407294.789,-17.75293
1425407294.804,-17.36679
1425407294.82,-17.183014
1425407294.836,-16.98114
1425407294.851,-16.558533
1425407294.867,-15.804672
1425407294.883,-14.806839
1425407294.898,-13.7816925
1425407294.914,-12.812119
1425407294.929,-11.704834
1425407294.945,-10.036438
1425407294.961,-7.3046875
1425407294.976,-3.285904
1425407294.992,1.7582397
1425407295.008,7.1375275
1425407295.023,12.037476
1425407295.039,15.8528595
1425407295.054,18.498947
1425407295.07,20.439056
1425407295.086,22.487885
1425407295.101,25.650177
1425407295.117,30.723694
1425407295.133,37.946564
1425407295.148,46.736084
1425407295.164,55.621094
1425407295.179,62.50093
1425407295.195,65.20505
1425407295.211,62.243683
1425407295.226,53.32129
1425407295.242,39.531387
1425407295.258,22.968765
1425407295.273,6.123825
1425407295.289,-8.802017
1425407295.304,-20.425522
1425407295.32,-28.32483
1425407295.336,-32.89572
1425407295.351,-35.014084
1425407295.367,-35.692596
1425407295.383,-35.761856
1425407295.398,-35.75029
1425407295.414,-35.85826
1425407295.43,-36.047302
1425407295.445,-36.226395
1425407295.461,-36.332336
1425407295.476,-36.305374
1425407295.492,-36.1071
1425407295.508,-35.643173
1425407295.523,-34.787155
1425407295.539,-33.498642
1425407295.554,-31.890701
1425407295.57,-30.253433
1425407295.586,-28.956497
1425407295.601,-28.288177
1425407295.617,-28.23236
1425407295.633,-28.396362
1425407295.648,-28.066193
1425407295.664,-26.401459
1425407295.68,-22.75705
1425407295.695,-17.023926
1425407295.711,-9.71907
1425407295.726,-1.8506012
1425407295.742,5.42865
1425407295.758,11.293076
1425407295.773,15.596695
1425407295.789,18.850388
1425407295.805,22.03038
1425407295.82,26.182388
1425407295.836,32.07721
1425407295.851,39.973465
1425407295.867,49.43013
1425407295.883,59.21054
1425407295.898,67.45126
1425407295.914,72.00569
1425407295.93,71.07713
1425407295.945,63.893097
1425407295.961,51.15715
1425407295.976,34.87906
1425407295.992,17.817207
1425407296.008,2.478363
1425407296.023,-9.522896
1425407296.039,-17.755226
1425407296.055,-22.727295
1425407296.07,-25.37004
1425407296.086,-26.587944
1425407296.101,-27.010307
1425407296.117,-27.028084
1425407296.133,-26.843895
1425407296.148,-26.583542
1425407296.164,-26.393517
1425407296.18,-26.36499
1425407296.195,-26.567581
1425407296.211,-27.022911
1425407296.226,-27.595673
1425407296.242,-28.081566
1425407296.258,-28.328331
1425407296.273,-28.322456
1425407296.289,-28.281807
1425407296.305,-28.568237
1425407296.32,-29.481194
1425407296.336,-31.001633
1425407296.351,-32.698112
1425407296.367,-33.755295
1425407296.383,-33.296165
1425407296.398,-30.706734
1425407296.414,-25.798698
1425407296.43,-18.939407
1425407296.445,-10.916885
1425407296.461,-2.7051926
1425407296.476,4.8491745
1425407296.492,11.263702
1425407296.508,16.571007
1425407296.523,21.345581
1425407296.539,26.403862
1425407296.555,32.49607
1425407296.57,39.947975
1425407296.586,48.410522
1425407296.601,56.884422
1425407296.617,63.860992
1425407296.633,67.62787
1425407296.648,66.75598
1425407296.664,60.474434
1425407296.68,48.995956
1425407296.695,33.628235
1425407296.711,16.496735
1425407296.726,-0.081474304
1425407296.742,-14.192406
1425407296.758,-24.825287
1425407296.773,-31.95623
1425407296.789,-36.20009
1425407296.805,-38.4177
1425407296.82,-39.34835
1425407296.836,-39.47972
1425407296.851,-39.160194
1425407296.867,-38.720078
1425407296.883,-38.47979
1425407296.898,-38.678116
1425407296.914,-39.358406
1425407296.93,-40.301407
1425407296.945,-41.152695
1425407296.961,-41.575996
1425407296.976,-41.36934
1425407296.992,-40.531647
1425407297.008,-39.308586
1425407297.023,-38.013794
1425407297.039,-36.877213
1425407297.055,-35.912285
1425407297.07,-34.787743
1425407297.086,-32.89827
1425407297.101,-29.633018
1425407297.117,-24.596474
1425407297.133,-17.881332
1425407297.148,-10.012444
1425407297.164,-1.7207794
1425407297.18,6.2997055
1425407297.195,13.622864
1425407297.211,20.154938
1425407297.226,26.076424
1425407297.242,31.728508
1425407297.258,37.541466
1425407297.273,43.878777
1425407297.289,50.786446
1425407297.305,57.744522
1425407297.32,63.535202
1425407297.336,66.49505
1425407297.351,65.10453
1425407297.367,58.651794
1425407297.383,47.62818
1425407297.398,33.646927
1425407297.414,18.922852
1425407297.43,5.4971924
1425407297.445,-5.295395
1425407297.461,-13.00444
1425407297.476,-17.897049
1425407297.492,-20.506348
1425407297.508,-21.378906
1425407297.523,-20.911995
1425407297.539,-19.345505
1425407297.555,-16.908852
1425407297.57,-13.882843
1425407297.586,-10.635956
1425407297.601,-7.5284576
1425407297.617,-4.8780518
1425407297.633,-2.8345566
1425407297.648,-1.3768005
1425407297.664,-0.37678528
1425407297.68,0.36104584
1425407297.695,0.98548126
1425407297.711,1.5975342
1425407297.726,2.3431244
1425407297.742,3.4373856
1425407297.758,5.1286545
1425407297.773,7.632164
1425407297.789,11.013412
1425407297.805,15.115883
1425407297.82,19.631432
1425407297.836,24.185303
1425407297.851,28.382614
1425407297.867,31.976494
1425407297.883,34.84694
1425407297.898,37.095634
1425407297.914,39.13916
1425407297.93,41.645676
1425407297.945,45.31208
1425407297.961,50.538788
1425407297.976,57.094093
1425407297.992,63.93257
1425407298.008,69.392944
1425407298.023,71.673584
1425407298.039,69.36316
1425407298.055,61.968185
1425407298.07,50.05481
1425407298.086,35.130104
1425407298.101,19.263306
1425407298.117,4.5409164
1425407298.133,-7.491867
1425407298.148,-16.13063
1425407298.164,-21.579376
1425407298.18,-24.672134
1425407298.195,-26.382965
1425407298.211,-27.413467
1425407298.226,-28.040123
1425407298.242,-28.180553
1425407298.258,-27.692936
1425407298.273,-26.605122
1425407298.289,-25.145351
1425407298.305,-23.65522
1425407298.32,-22.436508
1425407298.336,-21.65401
1425407298.352,-21.36597
1425407298.367,-21.548756
1425407298.383,-22.16177
1425407298.398,-23.056358
1425407298.414,-24.017298
1425407298.43,-24.636993
1425407298.445,-24.415016
1425407298.461,-22.884102
1425407298.477,-19.717272
1425407298.492,-14.881132
1425407298.508,-8.738856
1425407298.523,-1.9548073
1425407298.539,4.6463766
1425407298.555,10.385453
1425407298.57,14.998763
1425407298.586,18.815
1425407298.602,22.649076
1425407298.617,27.476645
1425407298.633,33.97416
1425407298.648,42.16289
1425407298.664,51.219475
1425407298.68,59.568325
1425407298.695,65.236984
1425407298.711,66.40581
1425407298.727,61.987495
1425407298.742,52.027985
1425407298.758,37.7634
1425407298.773,21.350853
1425407298.789,5.189579
1425407298.805,-8.712406
1425407298.82,-19.252815
1425407298.836,-26.305122
1425407298.852,-30.470482
1425407298.867,-32.65251
1425407298.883,-33.71875
1425407298.898,-34.25259
1425407298.914,-34.598713
1425407298.93,-34.925682
1425407298.945,-35.250397
1425407298.961,-35.50969
1425407298.977,-35.598854
1425407298.992,-35.40863
1425407299.008,-34.88392
1425407299.023,-34.081375
1425407299.039,-33.11109
1425407299.055,-32.098343
1425407299.07,-31.153664
1425407299.086,-30.285957
1425407299.102,-29.350365
1425407299.117,-28.073692
1425407299.133,-26.103378
1425407299.148,-23.12368
1425407299.164,-19.02987
1425407299.18,-13.994896
1425407299.195,-8.42086
1425407299.211,-2.7953873
1425407299.227,2.643608
1425407299.242,7.9724655
1425407299.258,13.592552
1425407299.273,20.032333
1425407299.289,27.698433
1425407299.305,36.628967
1425407299.32,46.305054
1425407299.336,55.67038
1425407299.352,63.171677
1425407299.367,67.079834
1425407299.383,65.89946
1425407299.398,58.921494
1425407299.414,46.66913
1425407299.43,30.826965
1425407299.445,13.813812
1425407299.461,-2.0026245
1425407299.477,-15.042282
1425407299.492,-24.874527
1425407299.508,-32.067307
1425407299.523,-37.612717
1425407299.539,-42.382538
1425407299.555,-46.733597
1425407299.57,-50.5569
1425407299.586,-53.509094
1425407299.602,-55.285767
1425407299.617,-55.847183
1425407299.633,-55.48575
1425407299.648,-54.68651
1425407299.664,-53.957565
1425407299.68,-53.639954
1425407299.695,-53.784134
1425407299.711,-54.143265
1425407299.727,-54.31082
1425407299.742,-53.86586
1425407299.758,-52.586945
1425407299.773,-50.46031
1425407299.789,-47.534576
1425407299.805,-43.80484
1425407299.82,-39.195847
1425407299.836,-33.586884
1425407299.852,-26.970734
1425407299.867,-19.61116
1425407299.883,-11.999268
1425407299.898,-4.737381
1425407299.914,1.6879272
1425407299.93,7.0960083
1425407299.945,11.653046
1425407299.961,15.729385
1425407299.977,19.635529
1425407299.992,23.423065
1425407300.008,26.73674
1425407300.023,28.950317
1425407300.039,29.232986
1425407300.055,26.765167
1425407300.07,20.786774
1425407300.086,10.756805
1425407300.102,-3.4527283
1425407300.117,-21.274109
1425407300.133,-41.296036
1425407300.148,-61.242203
1425407300.164,-78.284164
1425407300.18,-89.74631
1425407300.195,-93.86194
1425407300.211,-90.392746
1425407300.227,-80.67497
1425407300.242,-67.177124
1425407300.258,-52.683167
1425407300.273,-39.481873
1425407300.289,-28.904343
1425407300.305,-21.176971
1425407300.32,-15.702339
1425407300.336,-11.404816
1425407300.352,-7.1799927
1425407300.367,-2.2879486
1425407300.383,3.5137634
1425407300.398,9.943016
1425407300.414,16.450706
1425407300.43,22.508461
1425407300.445,27.835014
1425407300.461,32.490097
1425407300.477,36.665977
1425407300.492,40.55316
1425407300.508,44.14473
1425407300.523,47.373306
1425407300.539,50.286987
1425407300.555,53.29596
1425407300.57,57.12027
1425407300.586,62.521942
1425407300.602,69.978485
1425407300.617,79.43028
1425407300.633,90.20763
1425407300.648,101.304306
1425407300.664,111.59537
1425407300.68,120.08397
1425407300.695,125.88891
1425407300.711,128.25272
1425407300.727,126.58195
1425407300.742,120.57788
1425407300.758,110.290764
1425407300.773,96.20682
1425407300.789,79.14133
1425407300.805,59.975273
1425407300.82,39.341713
1425407300.836,17.482773
1425407300.852,-5.777008
1425407300.867,-30.651329
1425407300.883,-56.873756
1425407300.898,-83.25263
1425407300.914,-107.56136
1425407300.93,-127.0435
1425407300.945,-139.29889
1425407300.961,-143.21117
1425407300.977,-139.39752
1425407300.992,-129.93747
1425407301.008,-117.54145
1425407301.024,-104.56604
1425407301.039,-92.41906
1425407301.055,-81.528786
1425407301.07,-71.790306
1425407301.086,-63.129234
1425407301.102,-55.667435
1425407301.117,-49.54682
1425407301.133,-44.609528
1425407301.149,-40.232964
1425407301.164,-35.421738
1425407301.18,-29.222862
1425407301.195,-21.197327
1425407301.211,-11.593651
1425407301.227,-1.2995071
1425407301.242,8.542564
1425407301.258,16.932175
1425407301.274,23.332733
1425407301.289,27.867088
1425407301.305,31.171005
1425407301.32,34.18466
1425407301.336,37.84089
1425407301.352,42.769234
1425407301.367,49.03648
1425407301.383,56.090473
1425407301.399,62.747288
1425407301.414,67.39401
1425407301.43,68.314514
1425407301.445,64.19357
1425407301.461,54.557816
1425407301.477,40.04979
1425407301.492,22.365223
1425407301.508,3.8125153
1425407301.524,-13.2681465
1425407301.539,-27.122364
1425407301.555,-36.840843
1425407301.57,-42.370773
1425407301.586,-44.261433
1425407301.602,-43.37859
1425407301.617,-40.58007
1425407301.633,-36.622375
1425407301.649,-32.06295
1425407301.664,-27.25323
1425407301.68,-22.376638
1425407301.695,-17.528004
1425407301.711,-12.809725
1425407301.727,-8.347868
1425407301.742,-4.3047085
1425407301.758,-0.80918026
1425407301.774,2.0634384
1425407301.789,4.33739
1425407301.805,6.1020584
1425407301.82,7.5109043
1425407301.836,8.84934
1425407301.852,10.539927
1425407301.867,13.092743
1425407301.883,16.912207
1425407301.899,22.07723
1425407301.914,28.250843
1425407301.93,34.725605
1425407301.945,40.740948
1425407301.961,45.791412
1425407301.977,49.822853
1425407301.992,53.251617
1425407302.008,56.795734
1425407302.024,61.18318
1425407302.039,66.80629
1425407302.055,73.431915
1425407302.07,80.03216
1425407302.086,84.9171
1425407302.102,86.12699
1425407302.117,82.14378
1425407302.133,72.486534
1425407302.149,58.055794
1425407302.164,40.9194
1425407302.18,23.652424
1425407302.195,8.502819
1425407302.211,-3.2465143
1425407302.227,-11.412251
1425407302.242,-16.661812
1425407302.258,-20.003193
1425407302.274,-22.329914
1425407302.289,-24.200207
1425407302.305,-25.791725
1425407302.32,-27.056314
1425407302.336,-27.853218
1425407302.352,-28.062475
1425407302.367,-27.694122
1425407302.383,-26.832453
1425407302.399,-25.64625
1425407302.414,-24.27455
1425407302.43,-22.836296
1425407302.445,-21.499865
1425407302.461,-20.458216
1425407302.477,-19.948185
1425407302.492,-20.065739
1425407302.508,-20.628208
1425407302.524,-21.088669
1425407302.539,-20.687775
1425407302.555,-18.735046
1425407302.57,-14.953609
1425407302.586,-9.628262
1425407302.602,-3.491024
1425407302.617,2.6111488
1425407302.633,8.026569
1425407302.649,12.532993
1425407302.664,16.395088
1425407302.68,20.209957
1425407302.695,24.71204
1425407302.711,30.545872
1425407302.727,37.92069
1425407302.742,46.45096
1425407302.758,54.922745
1425407302.774,61.535576
1425407302.789,64.36558
1425407302.805,62.03315
1425407302.82,54.2545
1425407302.836,42.01693
1425407302.852,27.312187
1425407302.867,12.455994
1425407302.883,-0.6352997
1425407302.899,-10.873268
1425407302.914,-18.149582
1425407302.93,-23.037186
1425407302.945,-26.37062
1425407302.961,-28.87912
1425407302.977,-30.951149
1425407302.992,-32.672073
1425407303.008,-34.006393
1425407303.024,-34.95752
1425407303.039,-35.708878
1425407303.055,-36.511368
1425407303.07,-37.55587
1425407303.086,-38.81317
1425407303.102,-39.9767
1425407303.117,-40.590202
1425407303.133,-40.253654
1425407303.149,-38.854813
1425407303.164,-36.60514
1425407303.18,-33.931755
1425407303.195,-31.286942
1425407303.211,-28.928352
1425407303.227,-26.78785
1425407303.242,-24.49408
1425407303.258,-21.540474
1425407303.274,-17.532402
1425407303.289,-12.384193
1425407303.305,-6.3895874
1425407303.32,-0.16484833
1425407303.336,5.5920486
1425407303.352,10.421532
1425407303.367,14.322929
1425407303.383,17.730865
1425407303.399,21.361153
1425407303.414,25.930733
1425407303.43,31.82611
1425407303.445,38.964188
1425407303.461,46.67633
1425407303.477,53.79895
1425407303.492,58.846634
1425407303.508,60.390656
1425407303.524,57.469147
1425407303.539,50.001144
1425407303.555,38.895874
1425407303.57,25.8452
1425407303.586,12.833282
1425407303.602,1.5099792
1425407303.617,-7.2198486
1425407303.633,-13.332596
1425407303.649,-17.405548
1425407303.664,-20.295227
1425407303.68,-22.705307
1425407303.696,-25.060333
1425407303.711,-27.465897
1425407303.727,-29.816132
1425407303.742,-31.919037
1425407303.758,-33.57625
1425407303.774,-34.681015
1425407303.789,-35.196762
1425407303.805,-35.212555
1425407303.82,-34.892685
1425407303.836,-34.447495
1425407303.852,-34.090607
1425407303.867,-33.983734
1425407303.883,-34.16382
1425407303.899,-34.551224
1425407303.914,-34.838806
1425407303.93,-34.57628
1425407303.946,-33.260864
1425407303.961,-30.506058
1425407303.977,-26.208633
1425407303.992,-20.624939
1425407304.008,-14.333542
1425407304.024,-8.053925
1425407304.039,-2.397232
1425407304.055,2.3252869
1425407304.071,6.193451
1425407304.086,9.680847
1425407304.102,13.523804
1425407304.117,18.48851
1425407304.133,25.018036
1425407304.149,33.026016
1425407304.164,41.64052
1425407304.18,49.268173
1425407304.196,54.009018
1425407304.211,54.21869
1425407304.227,49.102463
1425407304.242,39.110687
1425407304.258,25.809433
1425407304.274,11.406235
1425407304.289,-1.8672638
1425407304.305,-12.447418
1425407304.321,-19.67833
1425407304.336,-23.82402
1425407304.352,-25.636978
1425407304.367,-25.961227
1425407304.383,-25.41446
1425407304.399,-24.339615
1425407304.414,-22.937805
1425407304.43,-21.422623
1425407304.446,-20.10373
1425407304.461,-19.288086
1425407304.477,-19.13414
1425407304.492,-19.521255
1425407304.508,-20.137573
1425407304.524,-20.66925
1425407304.539,-21.000244
1425407304.555,-21.298798
1425407304.571,-21.891113
1425407304.586,-22.980377
1425407304.602,-24.402817
1425407304.617,-25.545166
1425407304.633,-25.584213
1425407304.649,-23.815125
1425407304.664,-19.938583
1425407304.68,-14.235779
1425407304.696,-7.47023
1425407304.711,-0.5920563
1425407304.727,5.6358643
1425407304.742,10.927048
1425407304.758,15.486511
1425407304.774,19.910858
1425407304.789,24.873962
1425407304.805,30.862305
1425407304.821,38.012527
1425407304.836,45.996735
1425407304.852,53.998627
1425407304.867,60.804367
1425407304.883,64.90845
1425407304.899,64.92799
1425407304.914,60.04692
1425407304.93,50.423553
1425407304.946,37.322952
1425407304.961,22.81868
1425407304.977,9.152481
1425407304.992,-2.0029602
1425407305.008,-9.976593
1425407305.024,-15.137436
1425407305.039,-18.417252
1425407305.055,-20.800293
1425407305.071,-22.90535
1425407305.086,-24.911179
1425407305.102,-26.702148
1425407305.117,-28.133957
1425407305.133,-29.166946
1425407305.149,-29.850525
1425407305.164,-30.30606
1425407305.18,-30.580612
1425407305.196,-30.651978
1425407305.211,-30.450027
1425407305.227,-29.903687
1425407305.242,-29.014603
1425407305.258,-27.890915
1425407305.274,-26.715195
1425407305.289,-25.646133
1425407305.305,-24.678894
1425407305.321,-23.5802
1425407305.336,-21.914246
1425407305.352,-19.258377
1425407305.367,-15.388412
1425407305.383,-10.515106
1425407305.399,-5.2130737
1425407305.414,-0.16725159
1425407305.43,4.1188507
1425407305.446,7.550598
1425407305.461,10.457169
1425407305.477,13.459213
1425407305.492,17.208054
1425407305.508,22.193893
1425407305.524,28.54869
1425407305.539,35.903152
1425407305.555,43.334274
1425407305.571,49.40593
1425407305.586,52.49379
1425407305.602,51.35463
1425407305.617,45.59651
1425407305.633,35.95845
1425407305.649,24.10382
1425407305.664,12.036484
1425407305.68,1.4391785
1425407305.696,-6.80484
1425407305.711,-12.614815
1425407305.727,-16.481163
1425407305.742,-19.02008
1425407305.758,-20.693626
1425407305.774,-21.75039
1425407305.789,-22.26226
1425407305.805,-22.312004
1425407305.821,-22.052261
1425407305.836,-21.704407
1425407305.852,-21.42881
1425407305.867,-21.27436
1425407305.883,-21.162842
1425407305.899,-20.907242
1425407305.914,-20.396301
1425407305.93,-19.621002
1425407305.946,-18.793945
1425407305.961,-18.187675
1425407305.977,-17.963959
1425407305.992,-18.032127
1425407306.008,-18.04834
1425407306.024,-17.534676
1425407306.039,-16.117523
1425407306.055,-13.6981735
1425407306.071,-10.489578
1425407306.086,-6.896866
1425407306.102,-3.3871307
1425407306.117,-0.27650452
1425407306.133,2.3617249
1425407306.149,4.725548
1425407306.164,7.2542496
1425407306.18,10.539902
1425407306.196,15.044853
1425407306.211,20.889412
1425407306.227,27.567734
1425407306.242,33.92366
1425407306.258,38.320778
1425407306.274,39.194893
1425407306.289,35.577637
1425407306.305,27.518929
1425407306.321,16.144485
1425407306.336,3.3240204
1425407306.352,-8.867607
1425407306.368,-18.78859
1425407306.383,-25.63478
1425407306.399,-29.530235
1425407306.414,-31.25476
1425407306.43,-31.78386
1425407306.446,-31.877075
1425407306.461,-31.863289
1425407306.477,-31.697235
1425407306.492,-31.17614
1425407306.508,-30.216461
1425407306.524,-28.943554
1425407306.539,-27.572674
1425407306.555,-26.273224
1425407306.571,-25.06765
1425407306.586,-23.79612
1425407306.602,-22.296326
1425407306.618,-20.524815
1425407306.633,-18.607903
1425407306.649,-16.749718
1425407306.664,-15.076977
1425407306.68,-13.4907
1425407306.696,-11.633644
1425407306.711,-9.030884
1425407306.727,-5.242958
1425407306.743,-0.10139084
1425407306.758,6.104349
1425407306.774,12.738918
1425407306.789,18.960098
1425407306.805,24.075811
1425407306.821,27.815456
1425407306.836,30.42051
1425407306.852,32.572144
1425407306.868,35.0663
1425407306.883,38.510735
1425407306.899,43.074966
1425407306.914,48.418327
1425407306.93,53.730305
1425407306.946,57.893726
1425407306.961,59.685776
1425407306.977,58.07306
1425407306.993,52.523914
1425407307.008,43.27272
1425407307.024,31.418259
1425407307.039,18.635962
1425407307.055,6.758844
1425407307.071,-2.8117855
1425407307.086,-9.422461
1425407307.102,-13.227951
1425407307.118,-14.895166
1425407307.133,-15.261739
1425407307.149,-15.007413
1425407307.164,-14.523663
1425407307.18,-13.980969
1425407307.196,-13.456371
1425407307.211,-13.004158
1425407307.227,-12.719053
1425407307.243,-12.638168
1425407307.258,-12.726819
1425407307.274,-12.85088
1425407307.289,-12.765156
1425407307.305,-12.268982
1425407307.321,-11.266481
1425407307.336,-9.844431
1425407307.352,-8.220715
1425407307.368,-6.652466
1425407307.383,-5.2517853
1425407307.399,-3.8921814
1425407307.414,-2.2722797
1425407307.43,-0.07998085
1425407307.446,2.8066578
1425407307.461,6.260435
1425407307.477,9.943344
1425407307.493,13.521263
1425407307.508,16.796053
1425407307.524,19.821657
1425407307.539,22.880234
1425407307.555,26.375322
1425407307.571,30.644457
1425407307.586,35.741295
1425407307.602,41.262535
1425407307.618,46.29338
1425407307.633,49.58004
1425407307.649,49.881683
1425407307.664,46.48768
1425407307.68,39.545563
1425407307.696,30.066586
1425407307.711,19.583057
1425407307.727,9.607241
1425407307.743,1.1751804
1425407307.758,-5.3551426
1425407307.774,-10.138403
1425407307.789,-13.541307
1425407307.805,-15.854111
1425407307.821,-17.252111
1425407307.836,-17.825186
1425407307.852,-17.662886
1425407307.868,-16.901573
1425407307.883,-15.748459
1425407307.899,-14.418165
1425407307.914,-13.135141
1425407307.93,-12.116261
1425407307.946,-11.560724
1425407307.961,-11.569923
1425407307.977,-12.172688
1425407307.993,-13.233686
1425407308.008,-14.565056
1425407308.024,-15.894041
1425407308.039,-16.883371
1425407308.055,-17.191277
1425407308.071,-16.53393
1425407308.086,-14.788832
1425407308.102,-12.0534725
1425407308.118,-8.699806
1425407308.133,-5.206764
1425407308.149,-1.9947729
1425407308.164,0.7231722
1425407308.18,3.0699873
1425407308.196,5.417712
1425407308.211,8.301867
1425407308.227,12.24272
1425407308.243,17.601656
1425407308.258,24.340887
1425407308.274,31.858961
1425407308.289,38.968475
1425407308.305,44.054295
1425407308.321,45.540604
1425407308.336,42.46191
1425407308.352,34.832764
1425407308.368,23.773098
1425407308.383,11.150137
1425407308.399,-0.9995241
1425407308.414,-11.046511
1425407308.43,-18.12756
1425407308.446,-22.28703
1425407308.461,-24.171297
1425407308.477,-24.685804
1425407308.493,-24.644888
1425407308.508,-24.532389
1425407308.524,-24.471506
1425407308.539,-24.354275
1425407308.555,-24.049416
1425407308.571,-23.487852
1425407308.586,-22.728697
1425407308.602,-21.789955
1425407308.618,-20.631218
1425407308.633,-19.143543
1425407308.649,-17.297186
1425407308.664,-15.289839
1425407308.68,-13.472191
1425407308.696,-12.231281
1425407308.711,-11.667891
1425407308.727,-11.528656
1425407308.743,-11.198597
1425407308.758,-10.085809
1425407308.774,-7.842689
1425407308.789,-4.5049267
1425407308.805,-0.46357536
1425407308.821,3.745453
1425407308.836,7.6552896
1425407308.852,11.053556
1425407308.868,14.0230465
1425407308.883,16.952637
1425407308.899,20.394503
1425407308.914,24.897717
1425407308.93,30.72726
1425407308.946,37.636135
1425407308.961,44.739723
1425407308.977,50.700233
1425407308.993,54.020477
1425407309.008,53.489708
1425407309.024,48.648293
1425407309.039,39.97142
1425407309.055,28.787115
1425407309.071,16.895805
1425407309.086,6.0644894
1425407309.102,-2.5151596
1425407309.118,-8.452721
1425407309.133,-12.112362
1425407309.149,-14.267876
1425407309.164,-15.667644
1425407309.18,-16.74464
1425407309.196,-17.616032
1425407309.211,-18.252708
1425407309.227,-18.712439
1425407309.243,-19.135946
1425407309.258,-19.747328
1425407309.274,-20.619324
1425407309.29,-21.623787
1425407309.305,-22.440338
1425407309.321,-22.773046
1425407309.336,-22.497976
1425407309.352,-21.718367
1425407309.368,-20.70261
1425407309.383,-19.780643
1425407309.399,-19.162155
1425407309.415,-18.819893
1425407309.43,-18.490276
1425407309.446,-17.749435
1425407309.461,-16.162804
1425407309.477,-13.507962
1425407309.493,-9.88213
1425407309.508,-5.7126236
1425407309.524,-1.5796318
1425407309.54,2.0881987
1425407309.555,5.183383
1425407309.571,7.9727783
1425407309.586,10.934332
1425407309.602,14.537237
1425407309.618,19.033096
1425407309.633,24.37923
1425407309.649,30.275284
1425407309.665,36.10833
1425407309.68,40.98091
1425407309.696,43.79078
1425407309.711,43.467976
1425407309.727,39.394608
1425407309.743,31.783356
1425407309.758,21.74867
1425407309.774,11.009996
1425407309.79,1.2737465
1425407309.805,-6.3465595
1425407309.821,-11.608265
1425407309.836,-14.985035
1425407309.852,-17.222847
1425407309.868,-18.905006
1425407309.883,-20.26067
1425407309.899,-21.224636
1425407309.915,-21.635757
1425407309.93,-21.459229
1425407309.946,-20.84701
1425407309.961,-20.072147
1425407309.977,-19.400469
1425407309.993,-18.98003
1425407310.008,-18.820759
1425407310.024,-18.820074
1425407310.04,-18.900026
1425407310.055,-19.070545
1425407310.071,-19.449188
1425407310.086,-20.127037
1425407310.102,-21.006657
1425407310.118,-21.72118
1425407310.133,-21.73746
1425407310.149,-20.580437
1425407310.165,-18.07457
1425407310.18,-14.521488
1425407310.196,-10.54653
1425407310.211,-6.822012
