1425408679.375,0.0
1425408679.39,0.0
1425408679.406,0.0
1425408679.421,0.0
1425408679.437,0.0
1425408679.453,0.0
1425408679.468,0.0
1425408679.484,0.0
1425408679.5,0.0
1425408679.515,0.0022315353
1425408679.531,-0.0045169927
1425408679.546,-0.011265522
1425408679.562,-0.011383951
1425408679.578,0.0011864507
1425408679.593,0.025910312
1425408679.609,0.050634187
1425408679.625,0.051362894
1425408679.64,-0.0014929791
1425408679.656,-0.1302426
1425408679.672,-0.35562757
1425408679.687,-0.6591247
1425408679.703,-1.0095103
1425408679.718,-1.3709826
1425408679.734,-1.7197359
1425408679.75,-2.0551105
1425408679.765,-2.39945
1425408679.781,-2.7866635
1425408679.797,-3.2399073
1425408679.812,-3.796012
1425408679.828,-4.418684
1425408679.843,-5.0592937
1425408679.859,-5.6644096
1425408679.875,-6.2021537
1425408679.89,-6.6808796
1425408679.906,-7.149598
1425408679.922,-7.6782336
1425408679.937,-8.310739
1425408679.953,-9.143657
1425408679.968,-10.089731
1425408679.984,-11.041313
1425408680,-11.8842125
1425408680.015,-12.564316
1425408680.031,-13.13563
1425408680.047,-13.760044
1425408680.062,-14.65232
1425408680.078,-15.962056
1425408680.093,-17.914442
1425408680.109,-20.317299
1425408680.125,-22.903854
1425408680.14,-25.37947
1425408680.156,-27.578028
1425408680.172,-29.57246
1425408680.187,-31.675173
1425408680.203,-34.3178
1425408680.218,-37.813618
1425408680.234,-42.541233
1425408680.25,-48.1463
1425408680.265,-54.104755
1425408680.281,-59.83309
1425408680.297,-64.972374
1425408680.312,-69.58293
1425408680.328,-74.14353
1425408680.343,-79.344986
1425408680.359,-85.70726
1425408680.375,-93.76193
1425408680.39,-102.99779
1425408680.406,-112.61757
1425408680.422,-121.73034
1425408680.437,-129.76602
1425408680.453,-136.75102
1425408680.468,-143.30344
1425408680.484,-150.74623
1425408680.5,-157.77356
1425408680.515,-166.64323
1425408680.531,-177.94798
1425408680.547,-191.79102
1425408680.562,-206.96808
1425408680.578,-220.56592
1425408680.593,-228.24644
1425408680.609,-225.36154
1425408680.625,-208.53198
1425408680.64,-176.87024
1425408680.656,-132.76222
1425408680.672,-80.04997
1425408680.687,-23.069275
1425408680.703,34.94339
1425408680.718,92.43695
1425408680.734,149.15695
1425408680.75,205.22772
1425408680.765,260.36963
1425408680.781,313.74133
1425408680.797,363.87396
1425408680.812,409.83353
1425408680.828,450.90775
1425408680.843,486.50244
1425408680.859,515.73865
1425408680.875,537.2274
1425408680.89,549.22
1425408680.906,549.9613
1425408680.922,538.367
1425408680.937,514.2055
1425408680.953,478.674
1425408680.968,433.87952
1425408680.984,382.45126
1425408681,327.02106
1425408681.015,269.84186
1425408681.031,212.63379
1425408681.047,156.6594
1425408681.062,102.95233
1425408681.078,52.373596
1425408681.093,5.9046936
1425408681.109,-35.580414
1425408681.125,-71.42584
1425408681.14,-101.35184
1425408681.156,-125.50113
1425408681.172,-144.3797
1425408681.187,-158.69403
1425408681.203,-169.15071
1425408681.218,-176.3711
1425408681.234,-180.75139
1425408681.25,-182.57419
1425408681.265,-182.06863
1425408681.281,-179.5066
1425408681.297,-175.23325
1425408681.312,-169.65286
1425408681.328,-163.17691
1425408681.343,-156.14568
1425408681.359,-148.80681
1425408681.375,-141.29686
1425408681.39,-133.68983
1425408681.406,-126.01962
1425408681.422,-118.33268
1425408681.437,-110.68864
1425408681.453,-103.15572
1425408681.468,-95.80455
1425408681.484,-88.684166
1425408681.5,-81.82744
1425408681.515,-75.24594
1425408681.531,-68.9526
1425408681.547,-62.949085
1425408681.562,-57.247494
1425408681.578,-51.857185
1425408681.593,-46.78282
1425408681.609,-42.02776
1425408681.625,-37.58521
1425408681.64,-33.451748
1425408681.656,-29.613855
1425408681.672,-26.070963
1425408681.687,-22.808779
1425408681.703,-19.824995
1425408681.718,-17.113392
1425408681.734,-14.666497
1425408681.75,-12.47932
1425408681.765,-10.538469
1425408681.781,-8.833674
1425408681.797,-7.3478527
1425408681.812,-6.067689
1425408681.828,-4.9734235
1425408681.843,-4.046258
1425408681.859,-3.2673752
1425408681.875,-2.6211367
1425408681.89,-2.088365
1425408681.906,-1.6507506
1425408681.922,-1.2976913
1425408681.937,-1.0147024
1425408681.953,-0.79105926
1425408681.968,-0.6133206
1425408681.984,-0.47516227
1425408682,-0.3684653
1425408682.015,-0.28461677
1425408682.031,-0.22397345
1425408682.047,-0.17647654
1425408682.062,-0.14055526
1425408682.078,-0.11251485
1425408682.093,-0.0926249
1425408682.109,-0.07977182
1425408682.125,-0.06783539
1425408682.14,-0.05929327
1425408682.156,-0.052183747
1425408682.172,-0.046860814
1425408682.187,-0.044131815
1425408682.203,-0.040358156
1425408682.218,-0.039164305
1425408682.234,-0.03426367
1425408682.25,-0.034934968
1425408682.265,-0.031356484
1425408682.281,-0.029968321
1425408682.297,-0.026971698
1425408682.312,-0.027901828
1425408682.328,-0.026127785
1425408682.344,-0.02546224
1425408682.359,-0.025052011
1425408682.375,-0.02760914
1425408682.39,-0.032426327
1425408682.406,-0.040786654
1425408682.422,-0.0511021
1425408682.437,-0.06576657
1425408682.453,-0.08394545
1425408682.468,-0.10618043
1425408682.484,-0.13300106
1425408682.5,-0.16102359
1425408682.515,-0.19304124
1425408682.531,-0.22886428
1425408682.547,-0.26534447
1425408682.562,-0.3042379
1425408682.578,-0.33975852
1425408682.594,-0.38252544
1425408682.609,-0.42337477
1425408682.625,-0.4671209
1425408682.64,-0.5077223
1425408682.656,-0.5567643
1425408682.672,-0.60558295
1425408682.687,-0.65926397
1425408682.703,-0.7175017
1425408682.719,-0.7816554
1425408682.734,-0.8509897
1425408682.75,-0.92552435
1425408682.765,-1.0113262
1425408682.781,-1.1062263
1425408682.797,-1.2102025
1425408682.812,-1.3327976
1425408682.828,-1.4625654
1425408682.844,-1.6113862
1425408682.859,-1.7753525
1425408682.875,-1.9601719
1425408682.89,-2.1618423
1425408682.906,-2.3912294
1425408682.922,-2.6350088
1425408682.937,-2.9085968
1425408682.953,-3.2093158
1425408682.969,-3.5365958
1425408682.984,-3.893405
1425408683,-4.2807107
1425408683.015,-4.7040462
1425408683.031,-5.1490455
1425408683.047,-5.636634
1425408683.062,-6.153455
1425408683.078,-6.7143483
1425408683.094,-7.3109183
1425408683.109,-7.9406176
1425408683.125,-8.611514
1425408683.14,-9.325715
1425408683.156,-10.073564
1425408683.172,-10.864304
1425408683.187,-11.69049
1425408683.203,-12.568346
1425408683.219,-13.494547
1425408683.234,-14.480071
1425408683.25,-15.519762
1425408683.265,-16.607843
1425408683.281,-17.733538
1425408683.297,-18.849699
1425408683.312,-19.875467
1425408683.328,-20.70599
1425408683.344,-21.22144
1425408683.359,-21.29307
1425408683.375,-20.837873
1425408683.39,-19.778584
1425408683.406,-18.113274
1425408683.422,-15.855501
1425408683.437,-13.047564
1425408683.453,-9.777336
1425408683.469,-6.0887184
1425408683.484,-2.1151695
1425408683.5,1.9579353
1425408683.515,5.942234
1425408683.531,9.619171
1425408683.547,12.823799
1425408683.562,15.380028
1425408683.578,17.256172
1425408683.594,18.489178
1425408683.609,19.190239
1425408683.625,19.516647
1425408683.64,19.609798
1425408683.656,19.52319
1425408683.672,19.261917
1425408683.687,18.765285
1425408683.703,17.995758
1425408683.719,16.95554
1425408683.734,15.775051
1425408683.75,14.674316
1425408683.765,13.872662
1425408683.781,13.491169
1425408683.797,13.506622
1425408683.812,13.681065
1425408683.828,13.735603
1425408683.844,13.37228
1425408683.859,12.576996
1425408683.875,11.554306
1425408683.89,10.73735
1425408683.906,10.58297
1425408683.922,11.315037
1425408683.937,12.83474
1425408683.953,14.70491
1425408683.969,16.299717
1425408683.984,17.09364
1425408684,16.942822
1425408684.015,16.233707
1425408684.031,15.693726
1425408684.047,16.151901
1425408684.062,18.023499
1425408684.078,21.208183
1425408684.094,25.060402
1425408684.109,28.67846
1425408684.125,31.277164
1425408684.14,32.543167
1425408684.156,32.794346
1425408684.172,32.7525
1425408684.187,33.350967
1425408684.203,35.33284
1425408684.219,39.42025
1425408684.234,45.98577
1425408684.25,54.621685
1425408684.265,63.710396
1425408684.281,70.3348
1425408684.297,70.98033
1425408684.312,62.913853
1425408684.328,45.525517
1425408684.344,20.848812
1425408684.359,-6.592209
1425408684.375,-31.584877
1425408684.39,-50.16733
1425408684.406,-60.918617
1425408684.422,-64.89002
1425408684.437,-64.60117
1425408684.453,-62.63179
1425408684.469,-59.531075
1425408684.484,-55.823273
1425408684.5,-51.692142
1425408684.515,-47.382088
1425408684.531,-43.452328
1425408684.547,-40.583366
1425408684.562,-39.105125
1425408684.578,-38.841293
1425408684.594,-39.043358
1425408684.609,-38.80125
1425408684.625,-37.572723
1425408684.64,-35.24831
1425408684.656,-32.070274
1425408684.672,-28.553078
1425408684.687,-25.274393
1425408684.703,-22.625198
1425408684.719,-20.696833
1425408684.734,-19.2229
1425408684.75,-17.71379
1425408684.765,-15.770041
1425408684.781,-12.9975395
1425408684.797,-9.242916
1425408684.812,-4.554243
1425408684.828,0.8357372
1425408684.844,6.6591487
1425408684.859,12.634719
1425408684.875,18.527254
1425408684.89,24.110985
1425408684.906,29.119843
1425408684.922,33.461014
1425408684.937,37.333557
1425408684.953,41.21476
1425408684.969,45.71388
1425408684.984,51.32491
1425408685,58.090546
1425408685.015,65.341156
1425408685.031,71.7352
1425408685.047,75.47759
1425408685.062,75.01218
1425408685.078,69.3406
1425408685.094,58.557976
1425408685.109,43.772423
1425408685.125,26.876213
1425408685.14,9.865389
1425408685.156,-5.641264
1425408685.172,-18.720993
1425408685.187,-29.10804
1425408685.203,-36.93448
1425408685.219,-42.379803
1425408685.234,-45.631226
1425408685.25,-46.822533
1425408685.266,-46.245777
1425408685.281,-44.315033
1425408685.297,-41.54191
1425408685.312,-38.537735
1425408685.328,-36.091496
1425408685.344,-35.126762
1425408685.359,-36.469757
1425408685.375,-40.33377
1425408685.391,-45.948196
1425408685.406,-51.54629
1425408685.422,-54.979378
1425408685.437,-54.661316
1425408685.453,-50.321846
1425408685.469,-43.139473
1425408685.484,-35.097298
1425408685.5,-27.941921
1425408685.516,-22.447279
1425408685.531,-18.236843
1425408685.547,-14.445196
1425408685.562,-10.372124
1425408685.578,-6.0238075
1425408685.594,-1.8610744
1425408685.609,1.6484165
1425408685.625,4.510193
1425408685.641,7.32028
1425408685.656,10.865082
1425408685.672,15.6674595
1425408685.687,21.697886
1425408685.703,28.366339
1425408685.719,34.90107
1425408685.734,40.75564
1425408685.75,46.030075
1425408685.766,51.240196
1425408685.781,57.153343
1425408685.797,64.01585
1425408685.812,71.27745
1425408685.828,77.3488
1425408685.844,80.23999
1425408685.859,78.15642
1425408685.875,70.26462
1425408685.891,56.961113
1425408685.906,39.752945
1425408685.922,20.725746
1425408685.937,1.891119
1425408685.953,-15.155243
1425408685.969,-29.391174
1425408685.984,-40.1985
1425408686,-47.263363
1425408686.016,-50.54724
1425408686.031,-50.322235
1425408686.047,-47.30535
1425408686.062,-42.618954
1425408686.078,-37.591988
1425408686.094,-33.39497
1425408686.109,-30.802391
1425408686.125,-29.960953
1425408686.141,-30.479412
1425408686.156,-31.629852
1425408686.172,-32.661503
1425408686.187,-33.03613
1425408686.203,-32.548077
1425408686.219,-31.27676
1425408686.234,-29.435978
1425408686.25,-27.136894
1425408686.266,-24.39154
1425408686.281,-20.986637
1425408686.297,-16.731522
1425408686.312,-11.41951
1425408686.328,-5.1732254
1425408686.344,1.6799316
1425408686.359,8.653423
1425408686.375,15.293343
1425408686.391,21.300938
1425408686.406,26.640182
1425408686.422,31.473827
1425408686.437,36.094444
1425408686.453,40.8351
1425408686.469,46.027252
1425408686.484,51.99183
1425408686.5,58.881207
1425408686.516,66.42232
1425408686.531,73.72772
1425408686.547,79.32111
1425408686.562,81.42294
1425408686.578,78.530685
1425408686.594,70.07799
1425408686.609,56.716434
1425408686.625,40.222576
1425408686.641,22.967354
1425408686.656,7.186058
1425408686.672,-5.6459885
1425408686.687,-14.980396
1425408686.703,-21.101788
1425408686.719,-24.750046
1425408686.734,-26.772453
1425408686.75,-27.814346
1425408686.766,-28.381996
1425408686.781,-28.735977
1425408686.797,-29.045708
1425408686.812,-29.334679
1425408686.828,-29.539108
1425408686.844,-29.376968
1425408686.859,-28.454247
1425408686.875,-26.48513
1425408686.891,-23.66893
1425408686.906,-20.887878
1425408686.922,-19.620804
1425408686.937,-21.315567
1425408686.953,-26.507874
1425408686.969,-34.064117
1425408686.984,-41.308968
1425408687,-44.808792
1425408687.016,-41.95507
1425408687.031,-32.11168
1425408687.047,-17.036415
1425408687.062,0.05872345
1425408687.078,15.890717
1425408687.094,28.426125
1425408687.109,37.204285
1425408687.125,42.879036
1425408687.141,46.47177
1425408687.156,49.025284
1425408687.172,51.61149
1425408687.187,55.36199
1425408687.203,61.191307
1425408687.219,68.98314
1425408687.234,76.952896
1425408687.25,82.020905
1425408687.266,80.86098
1425408687.281,71.82416
1425408687.297,55.982513
1425408687.312,36.92665
1425408687.328,19.103577
1425408687.344,5.941513
1425408687.359,-1.499466
1425408687.375,-4.506241
1425408687.391,-5.6247406
1425408687.406,-7.2488403
1425408687.422,-10.760452
1425408687.437,-16.355438
1425408687.453,-23.520111
1425408687.469,-31.45108
1425408687.484,-39.40892
1425408687.5,-46.729034
1425408687.516,-52.84749
1425408687.531,-57.200638
1425408687.547,-59.418015
1425408687.562,-59.337753
1425408687.578,-57.275375
1425408687.594,-53.97986
1425408687.609,-50.455322
1425408687.625,-47.6884
1425408687.641,-46.221207
1425408687.656,-45.818344
1425408687.672,-45.487152
1425408687.687,-43.855057
1425408687.703,-39.834732
1425408687.719,-33.105682
1425408687.734,-24.345886
1425408687.75,-14.771774
1425408687.766,-5.729126
1425408687.781,1.9319763
1425408687.797,8.029373
1425408687.812,13.033356
1425408687.828,17.868774
1425408687.844,23.7901
1425408687.859,32.067886
1425408687.875,43.411636
1425408687.891,57.306137
1425408687.906,71.556366
1425408687.922,82.59187
1425408687.938,86.568665
1425408687.953,80.98656
1425408687.969,65.92497
1425408687.984,44.19983
1425408688,20.313004
1425408688.016,-1.3265991
1425408688.031,-17.947296
1425408688.047,-29.054047
1425408688.063,-35.852036
1425408688.078,-40.144287
1425408688.094,-43.312424
1425408688.109,-45.85974
1425408688.125,-47.712814
1425408688.141,-48.708084
1425408688.156,-48.91234
1425408688.172,-48.568497
1425408688.188,-47.84381
1425408688.203,-46.69719
1425408688.219,-44.8329
1425408688.234,-42.001022
1425408688.25,-38.195374
1425408688.266,-33.86479
1425408688.281,-29.695099
1425408688.297,-26.341888
1425408688.313,-24.014404
1425408688.328,-22.42212
1425408688.344,-20.854614
1425408688.359,-18.532867
1425408688.375,-14.989655
1425408688.391,-10.14032
1425408688.406,-4.266449
1425408688.422,2.2838745
1425408688.438,9.280151
1425408688.453,16.68991
1425408688.469,24.71048
1425408688.484,33.58258
1425408688.5,43.50995
1425408688.516,54.389496
1425408688.531,65.668915
1425408688.547,76.176544
1425408688.563,84.260925
1425408688.578,88.08023
1425408688.594,86.24896
1425408688.609,78.360535
1425408688.625,65.298065
1425408688.641,49.045074
1425408688.656,32.082794
1425408688.672,16.590027
1425408688.688,3.8976135
1425408688.703,-5.6841125
1425408688.719,-12.572418
1425408688.734,-17.525604
1425408688.75,-21.183746
1425408688.766,-24.049866
1425408688.781,-26.38974
1425408688.797,-28.43628
1425408688.813,-30.350647
1425408688.828,-32.257446
1425408688.844,-34.12564
1425408688.859,-35.759094
1425408688.875,-36.897034
1425408688.891,-37.35501
1425408688.906,-37.151398
1425408688.922,-36.540985
1425408688.938,-35.833282
1425408688.953,-35.245087
1425408688.969,-34.695526
1425408688.984,-33.839355
1425408689,-32.147736
1425408689.016,-29.19339
1425408689.031,-24.850922
1425408689.047,-19.357483
1425408689.063,-13.237457
1425408689.078,-7.1037292
1425408689.094,-1.3702087
1425408689.109,3.8304749
1425408689.125,8.735962
1425408689.141,13.791199
1425408689.156,19.549042
1425408689.172,26.475159
1425408689.188,34.716583
1425408689.203,43.84137
1425408689.219,52.677216
1425408689.234,59.40674
1425408689.25,62.02762
1425408689.266,59.00009
1425408689.281,49.96109
1425408689.297,35.982025
1425408689.313,19.351044
1425408689.328,2.7948303
1425408689.344,-11.447266
1425408689.359,-22.249481
1425408689.375,-29.70935
1425408689.391,-34.746643
1425408689.406,-38.381927
1425408689.422,-41.242645
1425408689.438,-43.411957
1425408689.453,-44.629364
1425408689.469,-44.689697
1425408689.484,-43.74771
1425408689.5,-42.26065
1425408689.516,-40.852295
1425408689.531,-39.900574
1425408689.547,-39.38263
1425408689.563,-38.890472
1425408689.578,-37.88571
1425408689.594,-36.041412
1425408689.609,-33.450226
1425408689.625,-30.564362
1425408689.641,-27.951477
1425408689.656,-25.942047
1425408689.672,-24.401611
1425408689.688,-22.687256
1425408689.703,-19.963745
1425408689.719,-15.560669
1425408689.734,-9.34668
1425408689.75,-1.7811584
1425408689.766,6.1616516
1425408689.781,13.453278
1425408689.797,19.334534
1425408689.813,23.605865
1425408689.828,26.663116
1425408689.844,29.350647
1425408689.859,32.66635
1425408689.875,37.492065
1425408689.891,44.26715
1425408689.906,52.808807
1425408689.922,62.233032
1425408689.938,71.02942
1425408689.953,77.34827
1425408689.969,79.46951
1425408689.984,76.27765
1425408690,67.70288
1425408690.016,54.757324
1425408690.031,39.31009
1425408690.047,23.476685
1425408690.063,9.069885
1425408690.078,-2.8605957
1425408690.094,-12.114563
1425408690.109,-19.119598
1425408690.125,-24.546143
1425408690.141,-28.961273
1425408690.156,-32.660675
1425408690.172,-35.733673
1425408690.188,-38.196564
1425408690.203,-40.092163
1425408690.219,-41.53235
1425408690.234,-42.591553
1425408690.25,-43.2128
1425408690.266,-43.213074
1425408690.281,-42.37509
1425408690.297,-40.623596
1425408690.313,-38.06143
1425408690.328,-35.015686
1425408690.344,-31.854492
1425408690.359,-28.825836
1425408690.375,-25.950653
1425408690.391,-23.025238
1425408690.406,-19.722168
1425408690.422,-15.834991
1425408690.438,-11.325806
1425408690.453,-6.427002
1425408690.469,-1.5218811
1425408690.484,2.9751892
1425408690.5,6.809601
1425408690.516,10.018616
1425408690.531,13.043488
1425408690.547,16.630249
1425408690.563,21.689423
1425408690.578,28.936798
1425408690.594,38.542603
1425408690.61,49.842712
1425408690.625,61.268707
1425408690.641,70.641815
1425408690.656,75.75574
1425408690.672,75.0484
1425408690.688,68.16556
1425408690.703,56.11325
1425408690.719,40.958252
1425408690.735,25.169739
1425408690.75,10.918518
1425408690.766,-0.52767944
1425408690.781,-8.9198
1425408690.797,-14.794861
1425408690.813,-19.0094
1425408690.828,-22.303802
1425408690.844,-25.029327
1425408690.86,-27.184204
1425408690.875,-28.609009
1425408690.891,-29.258179
1425408690.906,-29.269287
1425408690.922,-29.004456
1425408690.938,-28.845306
1425408690.953,-29.04538
1425408690.969,-29.628967
1425408690.985,-30.391205
1425408691,-30.972168
1425408691.016,-31.0867
1425408691.031,-30.584595
1425408691.047,-29.51535
1425408691.063,-28.023987
1425408691.078,-26.24826
1425408691.094,-24.107819
1425408691.11,-21.343292
1425408691.125,-17.542175
1425408691.141,-12.402161
1425408691.156,-5.8907166
1425408691.172,1.5819702
1425408691.188,9.318909
1425408691.203,16.545135
1425408691.219,22.747253
1425408691.235,27.844116
1425408691.25,32.266357
1425408691.266,36.77127
1425408691.281,42.23639
1425408691.297,49.344147
1425408691.313,58.434875
1425408691.328,69.1817
1425408691.344,80.52945
1425408691.36,90.67282
1425408691.375,97.36554
1425408691.391,98.51279
1425408691.406,92.870575
1425408691.422,80.57208
1425408691.438,63.246857
1425408691.453,43.530823
1425408691.469,24.231934
1425408691.485,7.4411316
1425408691.5,-5.9398804
1425408691.516,-16.241821
1425408691.531,-24.544556
1425408691.547,-32.049072
1425408691.563,-39.541077
1425408691.578,-47.175903
1425408691.594,-54.505585
1425408691.61,-60.889496
1425408691.625,-65.72598
1425408691.641,-68.82788
1425408691.656,-70.359955
1425408691.672,-70.75134
1425408691.688,-70.419556
1425408691.703,-69.66327
1425408691.719,-68.557434
1425408691.735,-67.08328
1425408691.75,-65.186646
1425408691.766,-62.901978
1425408691.781,-60.2883
1425408691.797,-57.381042
1425408691.813,-54.108032
1425408691.828,-50.334503
1425408691.844,-45.936493
1425408691.86,-40.89337
1425408691.875,-35.27118
1425408691.891,-29.244537
1425408691.906,-22.980865
1425408691.922,-16.627014
1425408691.938,-10.309998
1425408691.953,-4.1781006
1425408691.969,1.6624146
1425408691.985,7.1385803
1425408692,12.243469
1425408692.016,17.103424
1425408692.031,21.910095
1425408692.047,26.922974
1425408692.063,32.484253
1425408692.078,38.987488
1425408692.094,46.77646
1425408692.11,55.946808
1425408692.125,66.06354
1425408692.141,75.90045
1425408692.156,83.58066
1425408692.172,86.98987
1425408692.188,84.51224
1425408692.203,75.682526
1425408692.219,61.509644
1425408692.235,44.15262
1425408692.25,26.25119
1425408692.266,10.060272
1425408692.281,-3.144989
1425408692.297,-13.211517
1425408692.313,-20.78653
1425408692.328,-26.82843
1425408692.344,-32.15103
1425408692.36,-37.173767
1425408692.375,-41.93988
1425408692.391,-46.29544
1425408692.406,-49.998108
1425408692.422,-52.934143
1425408692.438,-55.018402
1425408692.453,-56.246155
1425408692.469,-56.61972
1425408692.485,-56.147034
1425408692.5,-54.887085
1425408692.516,-53.03952
1425408692.531,-50.887695
1425408692.547,-48.78116
1425408692.563,-46.970306
1425408692.578,-45.52545
1425408692.594,-44.25641
1425408692.61,-42.79669
1425408692.625,-40.70691
1425408692.641,-37.71344
1425408692.656,-33.764496
1425408692.672,-29.099915
1425408692.688,-24.14151
1425408692.703,-19.337769
1425408692.719,-14.952911
1425408692.735,-10.979248
1425408692.75,-7.1139526
1425408692.766,-2.9227295
1425408692.781,1.9362488
1425408692.797,7.5261536
1425408692.813,13.574951
1425408692.828,19.535248
1425408692.844,24.907623
1425408692.86,29.417328
1425408692.875,33.24695
1425408692.891,36.930725
1425408692.906,41.315094
1425408692.922,47.220123
1425408692.938,55.13452
1425408692.953,64.90231
1425408692.969,75.46805
1425408692.985,84.943665
1425408693,90.97754
1425408693.016,91.41022
1425408693.031,85.05945
1425408693.047,72.23303
1425408693.063,54.761993
1425408693.078,35.41913
1425408693.094,17.03949
1425408693.11,1.6313171
1425408693.125,-10.022949
1425408693.141,-18.355225
1425408693.156,-24.418854
1425408693.172,-29.302887
1425408693.188,-33.643738
1425408693.203,-37.632782
1425408693.219,-41.15561
1425408693.235,-44.041412
1425408693.25,-46.255737
1425408693.266,-47.851563
1425408693.282,-48.917633
1425408693.297,-49.41992
1425408693.313,-49.253113
1425408693.328,-48.38922
1425408693.344,-46.89389
1425408693.36,-45.0531
1425408693.375,-43.21756
1425408693.391,-41.67636
1425408693.406,-40.46237
1425408693.422,-39.34305
1425408693.438,-37.87979
1425408693.453,-35.657837
1425408693.469,-32.43683
1425408693.485,-28.285522
1425408693.5,-23.517761
1425408693.516,-18.564484
1425408693.532,-13.73822
1425408693.547,-9.156464
1425408693.563,-4.7026367
1425408693.578,-0.15261841
1425408693.594,4.671173
1425408693.61,9.760681
1425408693.625,14.987396
1425408693.641,20.088837
1425408693.657,24.875214
1425408693.672,29.276886
1425408693.688,33.4747
1425408693.703,37.871704
1425408693.719,42.989044
1425408693.735,49.315582
1425408693.75,56.980835
1425408693.766,65.513916
1425408693.782,73.65137
1425408693.797,79.556366
1425408693.813,81.29904
1425408693.828,77.48999
1425408693.844,67.87103
1425408693.86,53.497955
1425408693.875,36.44095
1425408693.891,19.121582
1425408693.907,3.6071777
1425408693.922,-8.901459
1425408693.938,-18.194153
1425408693.953,-24.80954
1425408693.969,-29.596985
1425408693.985,-33.337433
1425408694,-36.495117
1425408694.016,-39.200012
1425408694.032,-41.39511
1425408694.047,-42.960815
1425408694.063,-43.858948
1425408694.078,-44.185852
1425408694.094,-44.07196
1425408694.11,-43.71402
1425408694.125,-43.207733
1425408694.141,-42.61252
1425408694.157,-41.922394
1425408694.172,-41.125214
1425408694.188,-40.19287
1425408694.203,-39.072845
1425408694.219,-37.660645
1425408694.235,-35.80078
1425408694.25,-33.29779
1425408694.266,-30.02774
1425408694.282,-25.977478
1425408694.297,-21.313995
1425408694.313,-16.303955
1425408694.328,-11.293152
1425408694.344,-6.521698
1425408694.36,-2.1194763
1425408694.375,2.0020447
1425408694.391,6.011902
1425408694.407,10.1032715
1425408694.422,14.315887
1425408694.438,18.520508
1425408694.453,22.525574
1425408694.469,26.184357
1425408694.485,29.559143
1425408694.5,32.996155
1425408694.516,37.036285
1425408694.532,42.253357
1425408694.547,48.93277
1425408694.563,56.900238
1425408694.578,65.34625
1425408694.594,72.908264
1425408694.61,77.89618
1425408694.625,78.74191
1425408694.641,74.470795
1425408694.657,65.091034
1425408694.672,51.67935
1425408694.688,36.0997
1425408694.703,20.487732
1425408694.719,6.6187744
1425408694.735,-4.5196533
1425408694.75,-12.790527
1425408694.766,-18.740997
1425408694.782,-23.151001
1425408694.797,-26.713058
1425408694.813,-29.798645
1425408694.828,-32.529984
1425408694.844,-34.808304
1425408694.86,-36.53932
1425408694.875,-37.679764
1425408694.891,-38.30629
1425408694.907,-38.50836
1425408694.922,-38.395187
1425408694.938,-38.024216
1425408694.953,-37.40268
1425408694.969,-36.50833
1425408694.985,-35.346176
1425408695,-33.92552
1425408695.016,-32.26216
1425408695.032,-30.307251
1425408695.047,-27.938766
1425408695.063,-24.992722
1425408695.078,-21.423172
1425408695.094,-17.316696
1425408695.11,-12.994995
1425408695.125,-8.845886
1425408695.141,-5.172241
1425408695.157,-1.9759674
1425408695.172,1.0272369
1425408695.188,4.2759857
1425408695.203,8.114365
1425408695.219,12.5576935
1425408695.235,17.271866
1425408695.25,21.75206
1425408695.266,25.56717
1425408695.282,28.622833
1425408695.297,31.18663
1425408695.313,33.819077
1425408695.328,37.11882
1425408695.344,41.635803
1425408695.36,47.58493
1425408695.375,54.707413
1425408695.391,62.1369
1425408695.407,68.432556
1425408695.422,71.85826
1425408695.438,70.88193
1425408695.453,64.753265
1425408695.469,53.86194
1425408695.485,39.72972
1425408695.5,24.501572
1425408695.516,10.248184
1425408695.532,-1.6265259
1425408695.547,-10.681442
1425408695.563,-17.219208
1425408695.578,-21.947098
1425408695.594,-25.480988
1425408695.61,-28.258286
1425408695.625,-30.4859
1425408695.641,-32.347687
1425408695.657,-34.05661
1425408695.672,-35.80002
1425408695.688,-37.643738
1425408695.703,-39.44438
1425408695.719,-40.85591
1425408695.735,-41.524216
1425408695.75,-41.232697
1425408695.766,-40.09294
1425408695.782,-38.44066
1425408695.797,-36.750015
1425408695.813,-35.35846
1425408695.828,-34.368378
1425408695.844,-33.58322
1425408695.86,-32.59926
1425408695.875,-30.998245
1425408695.891,-28.525269
1425408695.907,-25.188507
1425408695.922,-21.261978
1425408695.938,-17.17241
1425408695.953,-13.321732
1425408695.969,-9.877686
1425408695.985,-6.7614746
1425408696,-3.6493683
1425408696.016,-0.17092133
1425408696.032,3.9257813
1425408696.047,8.580017
1425408696.063,13.495865
1425408696.078,18.192543
1425408696.094,22.290909
1425408696.11,25.657333
1425408696.125,28.529076
1425408696.141,31.41925
1425408696.157,34.974983
1425408696.172,39.771248
1425408696.188,46.009834
1425408696.204,53.288788
1425408696.219,60.557007
1425408696.235,66.15817
1425408696.25,68.33842
1425408696.266,65.77446
1425408696.282,58.168045
1425408696.297,46.381462
1425408696.313,32.292946
1425408696.329,18.09539
1425408696.344,5.6521225
1425408696.36,-4.036743
1425408696.375,-10.895935
1425408696.391,-15.503395
1425408696.407,-18.616455
1425408696.422,-20.807434
1425408696.438,-22.368073
1425408696.454,-23.413078
1425408696.469,-24.01619
1425408696.485,-24.322334
1425408696.5,-24.489182
1425408696.516,-24.611732
1425408696.532,-24.671875
1425408696.547,-24.546814
1425408696.563,-24.121262
1425408696.579,-23.392143
1425408696.594,-22.464806
1425408696.61,-21.5443
1425408696.625,-20.812931
1425408696.641,-20.337364
1425408696.657,-20.010788
1425408696.672,-19.584808
1425408696.688,-18.74538
1425408696.704,-17.259933
1425408696.719,-15.05397
1425408696.735,-12.251621
1425408696.75,-9.085693
1425408696.766,-5.8407745
1425408696.782,-2.7106361
1425408696.797,0.21770859
1425408696.813,2.9832344
1425408696.829,5.6089973
1425408696.844,8.121273
1425408696.86,10.4657135
1425408696.875,12.584682
1425408696.891,14.502232
1425408696.907,16.351833
1425408696.922,18.406616
1425408696.938,21.023184
1425408696.954,24.542515
1425408696.969,29.199654
1425408696.985,34.942535
1425408697,41.388664
1425408697.016,47.71338
1425408697.032,52.785896
1425408697.047,55.306694
1425408697.063,54.228836
1425408697.079,49.078827
1425408697.094,40.232002
1425408697.11,28.879139
1425408697.125,16.73187
1425408697.141,5.5104523
1425408697.157,-3.5712957
1425408697.172,-10.047512
1425408697.188,-14.170804
1425408697.204,-16.62314
1425408697.219,-18.124176
1425408697.235,-19.148449
1425408697.25,-19.868021
1425408697.266,-20.291676
1425408697.282,-20.372152
1425408697.297,-20.212006
1425408697.313,-19.975637
1425408697.329,-19.838467
1425408697.344,-19.873089
1425408697.36,-20.046926
1425408697.375,-20.23197
1425408697.391,-20.26895
1425408697.407,-19.99207
1425408697.422,-19.263693
1425408697.438,-18.023815
1425408697.454,-16.31308
1425408697.469,-14.2872715
1425408697.485,-12.163161
1425408697.5,-10.135069
1425408697.516,-8.252343
1425408697.532,-6.396225
1425408697.547,-4.3486223
1425408697.563,-1.9074421
1425408697.579,0.95031834
1425408697.594,4.050318
1425408697.61,7.0852737
1425408697.625,9.797108
1425408697.641,12.100863
1425408697.657,14.115887
1425408697.672,16.109768
1425408697.688,18.36178
1425408697.704,21.055342
1425408697.719,24.310232
1425408697.735,28.142344
1425408697.75,32.486244
1425408697.766,37.138786
1425408697.782,41.68726
1425408697.797,45.43815
1425408697.813,47.473904
1425408697.829,46.89532
1425408697.844,43.12596
1425408697.86,36.174862
1425408697.875,26.759254
1425408697.891,16.124437
1425408697.907,5.698511
1425408697.922,-3.3182201
1425408697.938,-10.2786255
1425408697.954,-15.120941
1425408697.969,-18.231451
1425408697.985,-20.14338
1425408698,-21.270542
1425408698.016,-21.81927
1425408698.032,-21.821636
1425408698.047,-21.305754
1425408698.063,-20.396551
1425408698.079,-19.333487
1425408698.094,-18.399036
1425408698.11,-17.802013
1425408698.125,-17.531343
1425408698.141,-17.453365
1425408698.157,-17.359398
1425408698.172,-17.120823
1425408698.188,-16.759102
1425408698.204,-16.42072
1425408698.219,-16.177082
1425408698.235,-15.972214
1425408698.25,-15.563755
1425408698.266,-14.6181755
1425408698.282,-12.848423
1425408698.297,-10.150196
1425408698.313,-6.6395226
1425408698.329,-2.611702
1425408698.344,1.5631905
1425408698.36,5.5425873
1425408698.375,9.062447
1425408698.391,11.981247
1425408698.407,14.327087
1425408698.422,16.302822
1425408698.438,18.310925
1425408698.454,20.855633
1425408698.469,24.38755
1425408698.485,28.97963
1425408698.5,34.23439
1425408698.516,39.185467
1425408698.532,42.55892
1425408698.547,43.165314
1425408698.563,40.30784
1425408698.579,34.075645
1425408698.594,25.34275
1425408698.61,15.525082
1425408698.625,6.132538
1425408698.641,-1.6745148
1425408698.657,-7.3782425
1425408698.672,-11.08614
1425408698.688,-13.355335
1425408698.704,-14.829117
1425408698.719,-15.941921
1425408698.735,-16.835342
1425408698.75,-17.414047
1425408698.766,-17.598282
1425408698.782,-17.435158
1425408698.797,-17.145512
1425408698.813,-16.967175
1425408698.829,-17.006996
1425408698.844,-17.10096
1425408698.86,-16.94249
1425408698.876,-16.227257
1425408698.891,-14.835079
1425408698.907,-12.923584
1425408698.922,-10.827759
1425408698.938,-8.876186
1425408698.954,-7.2529907
1425408698.969,-5.919075
1425408698.985,-4.6809044
1425408699.001,-3.2326965
1425408699.016,-1.331173
1425408699.032,1.133976
1425408699.047,4.117115
1425408699.063,7.406349
1425408699.079,10.693359
1425408699.094,13.649532
1425408699.11,16.059814
1425408699.126,17.92643
1425408699.141,19.511185
1425408699.157,21.288017
1425408699.172,23.8041
1425408699.188,27.50417
1425408699.204,32.47469
1425408699.219,38.326622
1425408699.235,44.169388
1425408699.251,48.79961
1425408699.266,50.968056
1425408699.282,49.823997
1425408699.297,45.13755
1425408699.313,37.416294
1425408699.329,27.77702
1425408699.344,17.585567
1425408699.36,8.110334
1425408699.376,0.17446327
1425408699.391,-5.954607
1425408699.407,-10.487341
1425408699.422,-13.899668
1425408699.438,-16.643648
1425408699.454,-18.97425
1425408699.469,-20.877928
1425408699.485,-22.216223
1425408699.501,-22.87738
1425408699.516,-22.9167
1425408699.532,-22.577427
1425408699.547,-22.17894
1425408699.563,-21.998323
1425408699.579,-22.092566
1425408699.594,-22.31277
1425408699.61,-22.378881
1425408699.626,-22.03592
1425408699.641,-21.182686
1425408699.657,-19.899956
1425408699.672,-18.396511
1425408699.688,-16.85532
1425408699.704,-15.345579
1425408699.719,-13.765347
1425408699.735,-11.920738
1425408699.751,-9.576108
1425408699.766,-6.6004066
1425408699.782,-3.0107412
1425408699.797,0.98404264
1425408699.813,5.0645056
1425408699.829,8.939886
1425408699.844,12.414487
1425408699.86,15.467613
1425408699.876,18.256289
1425408699.891,21.046083
1425408699.907,24.096537
1425408699.922,27.643787
1425408699.938,31.842806
1425408699.954,36.6938
1425408699.969,41.970703
1425408699.985,47.11834
1425408700.001,51.2546
1425408700.016,53.302906
1425408700.032,52.307083
1425408700.047,47.79664
1425408700.063,40.07737
1425408700.079,30.152918
1425408700.094,19.469326
1425408700.11,9.407145
1425408700.126,0.83444023
1425408700.141,-6.066473
1425408700.157,-11.652195
1425408700.172,-16.456682
1425408700.188,-20.838312
1425408700.204,-24.827034
1425408700.219,-28.158768
1425408700.235,-30.528763
1425408700.251,-31.81943
1425408700.266,-32.162315
1425408700.282,-31.877937
1425408700.297,-31.332699
1425408700.313,-30.795322
1425408700.329,-30.386951
1425408700.344,-30.091934
1425408700.36,-29.868763
1425408700.376,-29.682335
1425408700.391,-29.540627
1425408700.407,-29.45174
1425408700.422,-29.43335
1425408700.438,-29.381165
1425408700.454,-29.097847
1425408700.469,-28.31195
1425408700.485,-26.798386
1425408700.501,-24.464142
1425408700.516,-21.441044
1425408700.532,-18.06628
1425408700.547,-14.712292
1425408700.563,-11.682732
1425408700.579,-9.069969
1425408700.594,-6.771244
1425408700.61,-4.537071
1425408700.626,-2.164997
1425408700.641,0.4209671
1425408700.657,3.2079468
1425408700.672,6.0907593
1425408700.688,9.042114
1425408700.704,12.071613
1425408700.719,15.252876
1425408700.735,18.713417
1425408700.751,22.63375
1425408700.766,27.21447
1425408700.782,32.592167
1425408700.797,38.651604
1425408700.813,44.897556
1425408700.829,50.362965
1425408700.844,53.797615
1425408700.86,54.059868
1425408700.876,50.539246
1425408700.891,43.455044
1425408700.907,33.85356
1425408700.922,23.254242
1425408700.938,13.126907
1425408700.954,4.43795
1425408700.969,-2.5146332
1425408700.985,-8.009552
1425408701.001,-12.567276
1425408701.016,-16.671227
1425408701.032,-20.571213
1425408701.047,-24.24984
1425408701.063,-27.538864
1425408701.079,-30.255737
1425408701.094,-32.335037
1425408701.11,-33.82834
1425408701.126,-34.883522
1425408701.141,-35.6267
1425408701.157,-36.11377
1425408701.172,-36.303177
1425408701.188,-36.12883
1425408701.204,-35.5895
1425408701.219,-34.780304
1425408701.235,-33.901733
1425408701.251,-33.126663
1425408701.266,-32.49865
1425408701.282,-31.85817
1425408701.297,-30.939201
1425408701.313,-29.451881
1425408701.329,-27.262154
1425408701.344,-24.459145
1425408701.36,-21.317421
1425408701.376,-18.18274
1425408701.391,-15.386192
1425408701.407,-13.073936
1425408701.422,-11.215851
1425408701.438,-9.562149
1425408701.454,-7.792923
1425408701.469,-5.5766754
1425408701.485,-2.754593
1425408701.501,0.61383057
1425408701.516,4.246086
1425408701.532,7.7947617
1425408701.548,10.984039
1425408701.563,13.744499
1425408701.579,16.258904
1425408701.594,18.83397
1425408701.61,21.814804
1425408701.626,25.438469
1425408701.641,29.801952
1425408701.657,34.812588
1425408701.673,40.123257
1425408701.688,45.123062
1425408701.704,48.937332
1425408701.719,50.61813
1425408701.735,49.408215
1425408701.751,45.032047
1425408701.766,37.843636
1425408701.782,28.757751
1425408701.798,18.962933
1425408701.813,9.568981
1425408701.829,1.3382187
1425408701.844,-5.3677483
1425408701.86,-10.560654
1425408701.876,-14.445782
1425408701.891,-17.30508
1425408701.907,-19.34896
1425408701.923,-20.705292
1425408701.938,-21.406319
1425408701.954,-21.51588
1425408701.969,-21.153633
1425408701.985,-20.542862
1425408702.001,-19.959084
1425408702.016,-19.646904
1425408702.032,-19.690777
1425408702.048,-20.003994
1425408702.063,-20.418083
1425408702.079,-20.822624
1425408702.094,-21.24881
1425408702.11,-21.806149
1425408702.126,-22.586178
1425408702.141,-23.514446
1425408702.157,-24.260284
1425408702.173,-24.39909
1425408702.188,-23.584179
1425408702.204,-21.766384
1425408702.219,-19.188522
1425408702.235,-16.331398
1425408702.251,-13.643417
1425408702.266,-11.386467
1425408702.282,-9.497757
1425408702.298,-7.623371
1425408702.313,-5.3241653
1425408702.329,-2.307724
1425408702.344,1.4158173
1425408702.36,5.486992
1425408702.376,9.400459
1425408702.391,12.721607
1425408702.407,15.346584
1425408702.423,17.527924
1425408702.438,19.822952
1425408702.454,22.825375
1425408702.469,26.952785
1425408702.485,32.221874
1425408702.501,38.24966
1425408702.516,44.199764
1425408702.532,48.99339
1425408702.548,51.51293
1425408702.563,50.92073
1425408702.579,46.90058
1425408702.594,39.85053
1425408702.61,30.775246
1425408702.626,21.050879
1425408702.641,11.986116
1425408702.657,4.4958534
1425408702.673,-1.0925617
1425408702.688,-4.9890785
1425408702.704,-7.7513504
1425408702.719,-9.974518
1425408702.735,-12.123703
1425408702.751,-14.395479
1425408702.766,-16.78215
1425408702.782,-19.128748
1425408702.798,-21.285042
1425408702.813,-23.160234
1425408702.829,-24.740784
1425408702.844,-26.06362
1425408702.86,-27.141125
1425408702.876,-27.924587
1425408702.891,-28.379448
1425408702.907,-28.481527
1425408702.923,-28.236246
1425408702.938,-27.702707
1425408702.954,-26.885479
1425408702.969,-25.719305
1425408702.985,-24.099388
1425408703.001,-21.93073
1425408703.016,-19.22776
1425408703.032,-16.118752
1425408703.048,-12.827932
1425408703.063,-9.541831
1425408703.079,-6.445998
1425408703.094,-3.6020613
1425408703.11,-1.002964
1425408703.126,1.3951273
1425408703.141,3.6661215
1425408703.157,5.8888865
1425408703.173,8.131127
1425408703.188,10.448044
1425408703.204,12.856469
1425408703.219,15.35823
1425408703.235,17.984913
1425408703.251,20.80761
1425408703.266,23.95674
1425408703.282,27.574305
1425408703.298,31.76873
1425408703.313,36.436787
1425408703.329,41.143864
1425408703.344,45.118595
1425408703.36,47.324924
1425408703.376,46.83786
1425408703.391,43.15763
1425408703.407,36.51389
1425408703.423,27.906912
1425408703.438,18.780972
1425408703.454,10.555503
1425408703.469,4.1059885
1425408703.485,-0.4412797
1425408703.501,-3.629499
1425408703.516,-6.273276
1425408703.532,-9.034901
1425408703.548,-12.199672
1425408703.563,-15.626207
1425408703.579,-18.950108
1425408703.594,-21.779709
1425408703.61,-23.872965
1425408703.626,-25.129051
1425408703.641,-25.621239
1425408703.657,-25.54934
1425408703.673,-25.163065
1425408703.688,-24.728035
1425408703.704,-24.476397
1425408703.719,-24.525017
1425408703.735,-24.895084
1425408703.751,-25.509209
1425408703.766,-26.236742
1425408703.782,-26.860844
1425408703.798,-27.080843
1425408703.813,-26.55143
1425408703.829,-24.994516
1425408703.844,-22.384766
1425408703.86,-19.021006
1425408703.876,-15.488847
1425408703.891,-12.427758
1425408703.907,-10.201177
1425408703.923,-8.759544
1425408703.938,-7.63673
1425408703.954,-6.2431164
1425408703.969,-4.1057205
1425408703.985,-1.0497303
1425408704.001,2.7991638
1425408704.016,7.104862
1425408704.032,11.470411
1425408704.048,15.492874
1425408704.063,18.848665
1425408704.079,21.386965
1425408704.094,23.215176
1425408704.11,24.720745
1425408704.126,26.510872
1425408704.141,29.148315
1425408704.157,32.846436
1425408704.173,37.263668
1425408704.188,41.508904
1425408704.204,44.34464
1425408704.22,44.642426
1425408704.235,41.800735
1425408704.251,36.0069
1425408704.266,28.143215
1425408704.282,19.553463
1425408704.298,11.510052
1425408704.313,4.885975
1425408704.329,-0.044391632
1425408704.344,-3.522087
1425408704.36,-6.0115547
1425408704.376,-7.9761047
1425408704.391,-9.730114
1425408704.407,-11.450733
1425408704.423,-13.202415
1425408704.438,-14.997429
1425408704.454,-16.79094
1425408704.47,-18.42352
1425408704.485,-19.692276
1425408704.501,-20.385216
1425408704.516,-20.410664
1425408704.532,-19.85469
1425408704.548,-18.93959
1425408704.563,-17.94371
1425408704.579,-17.093475
1425408704.595,-16.492546
1425408704.61,-16.10659
1425408704.626,-15.787399
1425408704.641,-15.334686
1425408704.657,-14.541943
1425408704.673,-13.297401
1425408704.688,-11.580708
1425408704.704,-9.517353
1425408704.72,-7.299122
1425408704.735,-5.086834
1425408704.751,-2.9529533
1425408704.766,-0.9048767
1425408704.782,1.0988503
1425408704.798,3.0438004
1425408704.813,4.8688545
1425408704.829,6.460041
1425408704.845,7.798805
1425408704.86,8.9716835
1425408704.876,10.216381
1425408704.891,11.799084
1425408704.907,14.0014
1425408704.923,16.98191
1425408704.938,20.771088
1425408704.954,25.207905
1425408704.97,29.853897
1425408704.985,33.962772
1425408705.001,36.57034
1425408705.016,36.701218
1425408705.032,33.762993
1425408705.048,27.828247
1425408705.063,19.70185
1425408705.079,10.72261
1425408705.095,2.2908058
1425408705.11,-4.581341
1425408705.126,-9.501923
1425408705.141,-12.671539
1425408705.157,-14.633129
1425408705.173,-15.925217
1425408705.188,-16.877186
1425408705.204,-17.575874
1425408705.22,-17.937004
1425408705.235,-17.872238
1425408705.251,-17.3569
1425408705.266,-16.500854
1425408705.282,-15.521427
1425408705.298,-14.63921
1425408705.313,-14.011665
1425408705.329,-13.6777725
1425408705.345,-13.568504
1425408705.36,-13.514275
1425408705.376,-13.369858
1425408705.391,-13.087379
1425408705.407,-12.685608
1425408705.423,-12.242516
1425408705.438,-11.753387
1425408705.454,-11.100502
1425408705.47,-10.006813
1425408705.485,-8.14032
1425408705.501,-5.250038
1425408705.516,-1.3405609
1425408705.532,3.263008
1425408705.548,8.00367
1425408705.563,12.238152
1425408705.579,15.477348
1425408705.595,17.565643
1425408705.61,18.680885
1425408705.626,19.28437
1425408705.641,19.95366
1425408705.657,21.25888
1425408705.673,23.587044
1425408705.688,27.072166
1425408705.704,31.432304
1425408705.72,35.93177
1425408705.735,39.500023
1425408705.751,40.981026
1425408705.766,39.524773
1425408705.782,34.890907
1425408705.798,27.58976
1425408705.813,18.744339
1425408705.829,9.707138
1425408705.845,1.6732635
1425408705.86,-4.5749664
1425408705.876,-8.793556
1425408705.891,-11.254089
1425408705.907,-12.564011
1425408705.923,-13.439491
1425408705.938,-14.4485855
1425408705.954,-15.838402
1425408705.97,-17.485985
1425408705.985,-19.021523
1425408706.001,-20.049034
1425408706.016,-20.384392
1425408706.032,-20.136452
1425408706.048,-19.571022
1425408706.063,-18.919563
1425408706.079,-18.294548
1425408706.095,-17.581535
1425408706.11,-16.631264
1425408706.126,-15.369469
1425408706.141,-13.920586
1425408706.157,-12.474747
1425408706.173,-11.215446
1425408706.188,-10.102257
1425408706.204,-8.932228
1425408706.22,-7.3897934
1425408706.235,-5.1913757
1425408706.251,-2.2638702
1425408706.266,1.2345352
1425408706.282,4.9404526
1425408706.298,8.430756
1425408706.313,11.409019
1425408706.329,13.758598
1425408706.345,15.579094
1425408706.36,17.089264
1425408706.376,18.55558
1425408706.391,20.207214
1425408706.407,22.257645
1425408706.423,24.907616
1425408706.438,28.332405
1425408706.454,32.48935
1425408706.47,37.0213
1425408706.485,41.11114
1425408706.501,43.670414
1425408706.516,43.634346
1425408706.532,40.409782
1425408706.548,34.128452
1425408706.563,25.726051
1425408706.579,16.586498
1425408706.595,8.080338
1425408706.61,1.147007
1425408706.626,-3.9336357
1425408706.641,-7.446186
1425408706.657,-9.990906
1425408706.673,-12.164581
1425408706.688,-14.326969
1425408706.704,-16.578522
1425408706.72,-18.797573
1425408706.735,-20.817928
1425408706.751,-22.486355
1425408706.766,-23.735165
1425408706.782,-24.54802
1425408706.798,-24.945461
1425408706.813,-24.923004
1425408706.829,-24.498272
1425408706.845,-23.746426
1425408706.86,-22.771267
1425408706.876,-21.713203
1425408706.892,-20.686092
1425408706.907,-19.707397
1425408706.923,-18.741573
1425408706.938,-17.65311
1425408706.954,-16.306034
1425408706.97,-14.566891
1425408706.985,-12.368477
1425408707.001,-9.678574
1425408707.016,-6.5507317
1425408707.032,-3.0918045
1425408707.048,0.5263977
1425408707.063,4.1110306
1425408707.079,7.44627
1425408707.095,10.395668
1425408707.11,12.861328
1425408707.126,14.887878
1425408707.142,16.642742
1425408707.157,18.409943
1425408707.173,20.5914
1425408707.188,23.63158
1425408707.204,27.858109
1425408707.22,33.299908
1425408707.235,39.503574
1425408707.251,45.529655
1425408707.267,50.07946
1425408707.282,51.88256
1425408707.298,50.096
1425408707.313,44.645493
1425408707.329,36.28236
1425408707.345,26.366667
1425408707.36,16.412418
1425408707.376,7.670559
1425408707.392,0.80691147
1425408707.407,-4.144457
1425408707.423,-7.620306
1425408707.438,-10.283684
1425408707.454,-12.724252
1425408707.47,-15.306235
1425408707.485,-18.141644
1425408707.501,-21.122559
1425408707.517,-23.985336
1425408707.532,-26.383522
1425408707.548,-27.991976
1425408707.563,-28.609896
1425408707.579,-28.251127
1425408707.595,-27.230034
1425408707.61,-26.056581
1425408707.626,-25.261904
1425408707.642,-25.215359
1425408707.657,-25.886936
1425408707.673,-26.925976
1425408707.688,-27.772623
1425408707.704,-27.926151
1425408707.72,-27.094007
1425408707.735,-25.286442
1425408707.751,-22.640854
1425408707.767,-19.411446
1425408707.782,-15.81216
1425408707.798,-12.022423
1425408707.813,-8.260567
1425408707.829,-4.7213917
1425408707.845,-1.5260773
1425408707.86,1.2841387
1425408707.876,3.7934303
1425408707.892,6.1541843
1425408707.907,8.543525
1425408707.923,11.152127
1425408707.938,14.159419
1425408707.954,17.69524
1425408707.97,21.860477
1425408707.985,26.678875
1425408708.001,32.068756
1425408708.017,37.732056
1425408708.032,43.17838
1425408708.048,47.634724
1425408708.063,50.10842
1425408708.079,49.66948
1425408708.095,45.69738
1425408708.11,38.311348
1425408708.126,28.44615
1425408708.142,17.619444
1425408708.157,7.5034485
1425408708.173,-0.66420364
1425408708.188,-6.422907
1425408708.204,-10.103579
1425408708.22,-12.464485
1425408708.235,-14.350466
1425408708.251,-16.278141
1425408708.267,-18.39611
1425408708.282,-20.566097
1425408708.298,-22.484882
1425408708.313,-23.88934
1425408708.329,-24.646538
1425408708.345,-24.78846
1425408708.36,-24.491009
1425408708.376,-24.037243
1425408708.392,-23.679283
1425408708.407,-23.532059
1425408708.423,-23.58112
1425408708.438,-23.653702
1425408708.454,-23.57275
1425408708.47,-23.201084
1425408708.485,-22.48384
1425408708.501,-21.389305
1425408708.517,-19.920025
1425408708.532,-18.050453
1425408708.548,-15.778904
1425408708.563,-13.129555
1425408708.579,-10.159889
1425408708.595,-6.9397316
1425408708.61,-3.543148
1425408708.626,-0.017684937
1425408708.642,3.564457
1425408708.657,7.101555
1425408708.673,10.497768
1425408708.688,13.709503
1425408708.704,16.800308
1425408708.72,19.977367
1425408708.735,23.57568
1425408708.751,27.940346
1425408708.767,33.274063
1425408708.782,39.479576
1425408708.798,45.994553
1425408708.813,51.862106
1425408708.829,55.85588
1425408708.845,56.83924
1425408708.86,54.149506
1425408708.876,47.839645
1425408708.892,38.710747
1425408708.907,28.082092
1425408708.923,17.378754
1425408708.938,7.7694626
1425408708.954,-0.08493805
1425408708.97,-6.045311
1425408708.985,-10.430519
1425408709.001,-13.759506
1425408709.017,-16.607216
1425408709.032,-19.410492
1425408709.048,-22.37696
1425408709.063,-25.456146
1425408709.079,-28.395927
1425408709.095,-30.849014
1425408709.11,-32.57627
1425408709.126,-33.468925
1425408709.142,-33.64366
1425408709.157,-33.3469
1425408709.173,-32.82621
1425408709.188,-32.26422
1425408709.204,-31.703362
1425408709.22,-31.111824
1425408709.235,-30.372719
1425408709.251,-29.34977
1425408709.267,-27.940247
1425408709.282,-26.058723
1425408709.298,-23.689224
1425408709.313,-20.884003
1425408709.329,-17.758377
1425408709.345,-14.439926
1425408709.36,-11.067139
1425408709.376,-7.7017746
1425408709.392,-4.350937
1425408709.407,-0.90595245
1425408709.423,2.7397003
1425408709.438,6.657852
1425408709.454,10.80735
1425408709.47,15.030724
1425408709.485,19.129631
1425408709.501,22.989647
1425408709.517,26.675446
1425408709.532,30.480309
1425408709.548,34.78904
1425408709.563,39.911774
1425408709.579,45.82704
1425408709.595,52.052307
1425408709.61,57.60662
1425408709.626,61.24192
1425408709.642,61.779755
1425408709.657,58.483673
1425408709.673,51.43763
1425408709.688,41.53949
1425408709.704,30.28421
1425408709.72,19.300552
1425408709.735,9.748535
1425408709.751,2.088623
1425408709.767,-3.9339142
1425408709.782,-8.926514
1425408709.798,-13.429382
1425408709.814,-17.632355
1425408709.829,-21.479218
1425408709.845,-24.843521
1425408709.86,-27.768997
1425408709.876,-30.480133
1425408709.892,-33.21402
1425408709.907,-35.970444
1425408709.923,-38.475754
1425408709.939,-40.29698
1425408709.954,-41.13237
1425408709.97,-40.95813
1425408709.985,-40.05188
1425408710.001,-38.782715
1425408710.017,-37.437668
1425408710.032,-36.05696
1425408710.048,-34.483215
1425408710.064,-32.53026
1425408710.079,-30.10373
1425408710.095,-27.271744
1425408710.11,-24.243668
1425408710.126,-21.28363
1425408710.142,-18.583221
1425408710.157,-16.172531
1425408710.173,-13.815674
1425408710.189,-11.130783
1425408710.204,-7.7575684
1425408710.22,-3.559433
1425408710.235,1.2391052
1425408710.251,6.1670837
1425408710.267,10.678085
1425408710.282,14.465164
1425408710.298,17.571487
1425408710.314,20.39003
1425408710.329,23.48552
1425408710.345,27.380447
1425408710.36,32.42183
1425408710.376,38.605026
1425408710.392,45.510254
1425408710.407,52.283646
1425408710.423,57.67961
1425408710.439,60.38031
1425408710.454,59.349686
1425408710.47,54.277466
1425408710.485,45.70056
1425408710.501,34.920715
1425408710.517,23.594986
1425408710.532,13.203003
1425408710.548,4.700485
1425408710.564,-1.6499176
1425408710.579,-6.200653
1425408710.595,-9.663193
1425408710.61,-12.785919
1425408710.626,-16.133743
1425408710.642,-19.903793
1425408710.657,-23.938782
1425408710.673,-27.808334
1425408710.689,-31.01239
1425408710.704,-33.17923
1425408710.72,-34.21025
1425408710.735,-34.33873
1425408710.751,-33.976547
1425408710.767,-33.569168
1425408710.782,-33.418823
1425408710.798,-33.5916
1425408710.814,-33.94899
1425408710.829,-34.21826
1425408710.845,-34.106857
1425408710.86,-33.43474
1425408710.876,-32.13823
1425408710.892,-30.290985
1425408710.907,-28.0253
1425408710.923,-25.458359
1425408710.939,-22.600906
1425408710.954,-19.426727
1425408710.97,-15.871719
1425408710.985,-11.949112
1425408711.001,-7.7764587
1425408711.017,-3.5341644
1425408711.032,0.57650757
1425408711.048,4.375824
1425408711.064,7.8129272
1425408711.079,10.9170685
1425408711.095,13.828278
1425408711.11,16.775604
1425408711.126,20.072998
1425408711.142,24.069275
1425408711.157,29.04802
1425408711.173,35.10376
1425408711.189,41.89955
1425408711.204,48.58229
1425408711.22,53.823166
1425408711.235,56.117966
1425408711.251,54.30043
1425408711.267,47.99237
1425408711.282,37.8788
1425408711.298,25.602325
1425408711.314,13.203888
1425408711.329,2.417923
1425408711.345,-5.813736
1425408711.36,-11.563751
1425408711.376,-15.60614
1425408711.392,-18.882904
1425408711.407,-22.03276
1425408711.423,-25.1548
1425408711.439,-27.933975
1425408711.454,-29.983597
1425408711.47,-31.125366
1425408711.485,-31.491333
1425408711.501,-31.410477
1425408711.517,-31.178207
1425408711.532,-30.93364
1425408711.548,-30.645111
1425408711.564,-30.182068
1425408711.579,-29.470703
1425408711.595,-28.543442
1425408711.61,-27.479858
1425408711.626,-26.338318
1425408711.642,-25.120132
1425408711.657,-23.76947
1425408711.673,-22.178558
1425408711.689,-20.29831
1425408711.704,-18.131989
1425408711.72,-15.676117
1425408711.735,-12.915314
1425408711.751,-9.788086
1425408711.767,-6.2840424
1425408711.782,-2.4628448
1425408711.798,1.5152893
1425408711.814,5.4125977
1425408711.829,9.041916
1425408711.845,12.352951
1425408711.86,15.498276
1425408711.876,18.795822
1425408711.892,22.60994
1425408711.907,27.223434
1425408711.923,32.72377
1425408711.939,38.95955
1425408711.954,45.489532
1425408711.97,51.567
1425408711.985,56.173676
1425408712.001,58.16664
1425408712.017,56.586655
1425408712.032,50.99391
1425408712.048,41.74919
1425408712.064,30.054398
1425408712.079,17.64029
1425408712.095,6.207718
1425408712.11,-3.0610504
1425408712.126,-9.859055
1425408712.142,-14.65329
1425408712.157,-18.330994
1425408712.173,-21.695068
1425408712.189,-25.118164
1425408712.204,-28.50151
1425408712.22,-31.41069
1425408712.235,-33.42737
1425408712.251,-34.34459
1425408712.267,-34.334595
1425408712.282,-33.809082
1425408712.298,-33.24121
1425408712.314,-32.957214
1425408712.329,-33.050705
1425408712.345,-33.434387
1425408712.36,-33.9317
1425408712.376,-34.401413
1425408712.392,-34.736664
1425408712.407,-34.835724
1425408712.423,-34.50949
1425408712.439,-33.47638
1425408712.454,-31.487854
1425408712.47,-28.428192
1425408712.486,-24.432495
1425408712.501,-19.837097
1425408712.517,-15.082855
1425408712.532,-10.492737
1425408712.548,-6.174423
1425408712.564,-2.0332794
1425408712.579,2.1176453
1425408712.595,6.420807
1425408712.611,10.907288
1425408712.626,15.427628
1425408712.642,19.737595
1425408712.657,23.605713
1425408712.673,26.937225
1425408712.689,29.851425
1425408712.704,32.734818
1425408712.72,36.154083
1425408712.736,40.63936
1425408712.751,46.380356
1425408712.767,52.973694
1425408712.782,59.368652
1425408712.798,64.00073
1425408712.814,65.2782
1425408712.829,62.10385
1425408712.845,54.353287
1425408712.861,42.94905
1425408712.876,29.655136
1425408712.892,16.494003
1425408712.907,5.1640778
1425408712.923,-3.4841156
1425408712.939,-9.505112
1425408712.954,-13.660568
1425408712.97,-16.970932
1425408712.986,-20.213547
1425408713.001,-23.690338
1425408713.017,-27.21344
1425408713.032,-30.377808
1425408713.048,-32.79016
1425408713.064,-34.28337
1425408713.079,-34.97084
1425408713.095,-35.088623
1425408713.111,-34.88069
1425408713.126,-34.488937
1425408713.142,-34.019516
1425408713.157,-33.514145
1425408713.173,-33.01616
1425408713.189,-32.541275
1425408713.204,-32.044113
1425408713.22,-31.386703
1425408713.236,-30.345306
1425408713.251,-28.70166
1425408713.267,-26.334854
1425408713.282,-23.264343
1425408713.298,-19.660309
1425408713.314,-15.761871
1425408713.329,-11.797333
1425408713.345,-7.9020844
1425408713.361,-4.0566406
1425408713.376,-0.1586914
1425408713.392,3.903656
1425408713.407,8.129456
1425408713.423,12.386551
1425408713.439,16.398376
1425408713.454,19.929916
1425408713.47,22.920853
1425408713.486,25.59436
1425408713.501,28.406494
1425408713.517,31.941605
1425408713.532,36.686584
1425408713.548,42.725418
1425408713.564,49.604034
1425408713.579,56.209152
1425408713.595,60.942566
1425408713.611,62.210464
1425408713.626,58.98027
1425408713.642,51.214752
1425408713.657,40.00766
1425408713.673,27.199524
1425408713.689,14.782684
1425408713.704,4.215515
1425408713.72,-3.868988
1425408713.736,-9.650284
1425408713.751,-13.720383
1425408713.767,-16.753036
1425408713.782,-19.251923
1425408713.798,-21.513885
1425408713.814,-23.708221
1425408713.829,-25.894775
1425408713.845,-28.007355
1425408713.861,-29.893372
1425408713.876,-31.328308
1425408713.892,-32.14836
1425408713.907,-32.32022
1425408713.923,-31.906311
1425408713.939,-31.01773
1425408713.954,-29.732193
1425408713.97,-28.120132
1425408713.986,-26.280304
1425408714.001,-24.397964
1425408714.017,-22.667633
1425408714.032,-21.175491
1425408714.048,-19.819672
1425408714.064,-18.304504
1425408714.079,-16.263947
1425408714.095,-13.426193
1425408714.111,-9.718643
1425408714.126,-5.271347
1425408714.142,-0.4067688
1425408714.157,4.49382
1425408714.173,9.068756
1425408714.189,13.041443
1425408714.204,16.324783
1425408714.22,19.009262
1425408714.236,21.389557
1425408714.251,23.870163
1425408714.267,26.871933
1425408714.282,30.716217
1425408714.298,35.555557
1425408714.314,41.190445
1425408714.329,46.975388
1425408714.345,51.85486
1425408714.361,54.487427
1425408714.376,53.68454
1425408714.392,48.831345
1425408714.407,40.246597
1425408714.423,29.159424
1425408714.439,17.31047
1425408714.454,6.3943176
1425408714.47,-2.4839172
1425408714.486,-9.011002
1425408714.501,-13.51709
1425408714.517,-16.603699
1425408714.532,-18.816994
1425408714.548,-20.451218
1425408714.564,-21.60115
1425408714.579,-22.328362
1425408714.595,-22.76548
1425408714.611,-23.166077
1425408714.626,-23.755905
1425408714.642,-24.656464
1425408714.657,-25.750587
1425408714.673,-26.709457
1425408714.689,-27.144737
1425408714.704,-26.810883
1425408714.72,-25.731422
1425408714.736,-24.205032
1425408714.751,-22.654953
1425408714.767,-21.401703
1425408714.782,-20.464966
1425408714.798,-19.578674
1425408714.814,-18.244621
1425408714.829,-16.016563
1425408714.845,-12.642746
1425408714.861,-8.197311
1425408714.876,-3.0477295
1425408714.892,2.3005753
1425408714.907,7.345703
1425408714.923,11.735336
1425408714.939,15.40506
1425408714.954,18.537552
1425408714.97,21.532692
1425408714.986,24.900406
1425408715.001,29.106247
1425408715.017,34.43599
1425408715.032,40.844063
1425408715.048,47.82038
1425408715.064,54.393127
1425408715.079,59.232063
1425408715.095,60.97043
1425408715.111,58.66429
1425408715.126,52.13495
1425408715.142,42.09404
1425408715.158,30.04168
1425408715.173,17.705345
1425408715.189,6.5780334
1425408715.204,-2.4898224
1425408715.22,-9.362129
1425408715.236,-14.423248
1425408715.251,-18.274925
1425408715.267,-21.43431
1425408715.282,-24.195946
1425408715.298,-26.639923
1425408715.314,-28.70028
1425408715.329,-30.283981
1425408715.345,-31.334328
1425408715.361,-31.854156
1425408715.376,-31.92923
1425408715.392,-31.648346
1425408715.408,-31.059006
1425408715.423,-30.161972
1425408715.439,-28.896812
1425408715.454,-27.233032
1425408715.47,-25.263664
1425408715.486,-23.182968
1425408715.501,-21.245575
1425408715.517,-19.605247
1425408715.533,-18.195045
1425408715.548,-16.717712
1425408715.564,-14.7286
1425408715.579,-11.847343
1425408715.595,-7.9733353
1425408715.611,-3.3021774
1425408715.626,1.6608582
1425408715.642,6.338661
1425408715.658,10.32003
1425408715.673,13.539406
1425408715.689,16.299515
1425408715.704,19.154556
1425408715.72,22.73407
1425408715.736,27.483467
1425408715.751,33.61712
1425408715.767,40.963577
1425408715.783,48.91047
1425408715.798,56.399773
1425408715.814,62.052177
1425408715.829,64.42672
1425408715.845,62.447144
1425408715.861,55.87652
1425408715.876,45.467285
1425408715.892,32.839516
1425408715.908,19.970604
1425408715.923,8.5084915
1425408715.939,-0.64553833
1425408715.954,-7.4961243
1425408715.97,-12.691666
1425408715.986,-17.012314
1425408716.001,-20.981247
1425408716.017,-24.702621
1425408716.033,-28.009377
1425408716.048,-30.651985
1425408716.064,-32.557983
1425408716.079,-33.870117
1425408716.095,-34.8441
1425408716.111,-35.720078
1425408716.126,-36.582474
1425408716.142,-37.38105
1425408716.158,-37.90706
1425408716.173,-37.892967
1425408716.189,-37.072906
1425408716.204,-35.31192
1425408716.22,-32.679047
1425408716.236,-29.473495
1425408716.251,-26.168488
1425408716.267,-23.179703
1425408716.283,-20.627686
1425408716.298,-18.327774
1425408716.314,-15.79023
1425408716.329,-12.504257
1425408716.345,-8.182114
1425408716.361,-2.9207916
1425408716.376,2.8526154
1425408716.392,8.5460205
1425408716.408,13.65213
1425408716.423,17.905487
1425408716.439,21.368317
1425408716.454,24.392303
1425408716.47,27.511658
1425408716.486,31.252884
1425408716.501,35.96576
1425408716.517,41.625687
1425408716.533,47.7563
1425408716.548,53.410965
1425408716.564,57.386475
1425408716.579,58.49611
1425408716.595,55.942795
1425408716.611,49.577423
1425408716.626,40.025482
1425408716.642,28.525482
1425408716.658,16.607239
1425408716.673,5.6514587
1425408716.689,-3.4050293
1425408716.704,-10.299469
1425408716.72,-15.332611
1425408716.736,-19.074524
1425408716.751,-22.108658
1425408716.767,-24.827026
1425408716.783,-27.302567
1425408716.798,-29.459808
1425408716.814,-31.180511
1425408716.829,-32.472015
1425408716.845,-33.455368
1425408716.861,-34.360794
1425408716.876,-35.337418
1425408716.892,-36.41623
1425408716.908,-37.39006
1425408716.923,-37.90718
1425408716.939,-37.617264
1425408716.954,-36.353714
1425408716.97,-34.203735
1425408716.986,-31.502213
1425408717.001,-28.600449
1425408717.017,-25.689545
1425408717.033,-22.628693
1425408717.048,-19.070618
1425408717.064,-14.639755
1425408717.079,-9.219009
1425408717.095,-3.0756226
1425408717.111,3.1565247
1425408717.126,8.744339
1425408717.142,13.1488495
1425408717.158,16.269989
1425408717.173,18.496017
1425408717.189,20.500572
1425408717.204,23.003471
1425408717.22,26.536575
1425408717.236,31.255127
1425408717.251,36.974136
1425408717.267,43.12451
1425408717.283,48.897247
1425408717.298,53.282654
1425408717.314,55.269875
1425408717.329,54.02922
1425408717.345,49.170677
1425408717.361,40.95038
1425408717.376,30.3051
1425408717.392,18.618584
1425408717.408,7.404335
1425408717.423,-2.1665802
1425408717.439,-9.482895
1425408717.454,-14.584068
1425408717.47,-17.952034
1425408717.486,-20.231316
1425408717.501,-21.925232
1425408717.517,-23.308723
1425408717.533,-24.374
1425408717.548,-25.049484
1425408717.564,-25.291695
1425408717.579,-25.224632
1425408717.595,-25.075699
1425408717.611,-25.04338
1425408717.626,-25.202766
1425408717.642,-25.434753
1425408717.658,-25.533318
1425408717.673,-25.2518
1425408717.689,-24.485176
1425408717.704,-23.327492
1425408717.72,-21.944153
1425408717.736,-20.507935
1425408717.751,-19.041588
1425408717.767,-17.412941
1425408717.783,-15.313271
1425408717.798,-12.477264
1425408717.814,-8.702812
1425408717.83,-4.029625
1425408717.845,1.2791977
1425408717.861,6.8009567
1425408717.876,12.096199
1425408717.892,16.862556
1425408717.908,21.06549
1425408717.923,24.993073
1425408717.939,29.153435
1425408717.954,34.1454
1425408717.97,40.39174
1425408717.986,47.928146
1425408718.001,56.27321
1425408718.017,64.43416
1425408718.033,71.10621
1425408718.048,74.91056
1425408718.064,74.80385
1425408718.08,70.265015
1425408718.095,61.450844
1425408718.111,49.196762
1425408718.126,34.817627
1425408718.142,19.818756
1425408718.158,5.62352
1425408718.173,-6.759796
1425408718.189,-16.857193
1425408718.205,-24.701752
1425408718.22,-30.58168
1425408718.236,-34.844757
1425408718.251,-37.69197
1425408718.267,-39.226395
1425408718.283,-39.607773
1425408718.298,-39.155655
1425408718.314,-38.404236
1425408718.33,-37.913498
1425408718.345,-38.052887
1425408718.361,-38.86612
1425408718.376,-40.072586
1425408718.392,-41.267868
1425408718.408,-42.05063
1425408718.423,-42.10881
1425408718.439,-41.220734
1425408718.455,-39.27455
1425408718.47,-36.324524
1425408718.486,-32.6158
1425408718.501,-28.56047
1425408718.517,-24.590317
1425408718.533,-20.94197
1425408718.548,-17.575241
1425408718.564,-14.193512
1425408718.58,-10.469437
1425408718.595,-6.263214
1425408718.611,-1.671936
1425408718.626,3.0333557
1425408718.642,7.579361
1425408718.658,11.838638
1425408718.673,15.849686
1425408718.689,19.78833
1425408718.705,23.897812
1425408718.72,28.447418
1425408718.736,33.707626
1425408718.751,39.87007
1425408718.767,46.83098
1425408718.783,54.004425
1425408718.798,60.335693
1425408718.814,64.407
1425408718.83,64.86769
1425408718.845,60.88948
1425408718.861,52.51889
1425408718.876,40.760483
1425408718.892,27.321762
1425408718.908,14.139465
1425408718.923,2.7876892
1425408718.939,-5.897934
1425408718.955,-11.972031
1425408718.97,-16.113297
1425408718.986,-19.270676
1425408719.001,-22.202972
1425408719.017,-25.253632
1425408719.033,-28.327713
1425408719.048,-31.09761
1425408719.064,-33.248764
1425408719.08,-34.63893
1425408719.095,-35.34166
1425408719.111,-35.5484
1425408719.126,-35.465805
1425408719.142,-35.212738
1425408719.158,-34.84442
1425408719.173,-34.36949
1425408719.189,-33.80281
1425408719.205,-33.14897
1425408719.22,-32.390778
1425408719.236,-31.48407
1425408719.251,-30.303085
1425408719.267,-28.707733
1425408719.283,-26.581436
1425408719.298,-23.896912
1425408719.314,-20.71106
1425408719.33,-17.193237
1425408719.345,-13.536819
1425408719.361,-9.868744
1425408719.376,-6.2019653
1425408719.392,-2.4565277
1425408719.408,1.4571228
1425408719.423,5.5569916
1425408719.439,9.710434
1425408719.455,13.678513
1425408719.47,17.28366
1425408719.486,20.458267
1425408719.501,23.433243
1425408719.517,26.637024
1425408719.533,30.67456
1425408719.548,36.084152
1425408719.564,43.050323
1425408719.58,51.11534
1425408719.595,59.060425
1425408719.611,65.08592
1425408719.626,67.36389
1425408719.642,64.66397
1425408719.658,56.891296
1425408719.673,45.15149
1425408719.689,31.414879
1425408719.705,17.80922
1425408719.72,5.9300385
1425408719.736,-3.5019531
1425408719.751,-10.593407
1425408719.767,-15.963501
1425408719.783,-20.268501
1425408719.798,-23.977043
1425408719.814,-27.285072
1425408719.83,-30.225853
1425408719.845,-32.776505
1425408719.861,-34.929367
1425408719.876,-36.649757
1425408719.892,-37.878937
1425408719.908,-38.526833
1425408719.923,-38.480186
1425408719.939,-37.7155
1425408719.955,-36.369133
1425408719.97,-34.742287
1425408719.986,-33.23723
1425408720.001,-32.173943
1425408720.017,-31.654327
1425408720.033,-31.452438
1425408720.048,-31.1315
1425408720.064,-30.214745
1425408720.08,-28.36686
1425408720.095,-25.527954
1425408720.111,-21.885422
1425408720.126,-17.779823
1425408720.142,-13.544273
1425408720.158,-9.425278
1425408720.173,-5.4644775
1425408720.189,-1.5697479
1425408720.205,2.4202652
1425408720.22,6.6554565
1425408720.236,11.090546
1425408720.251,15.527412
1425408720.267,19.635666
1425408720.283,23.162567
1425408720.298,26.133774
1425408720.314,28.892189
1425408720.33,31.993134
1425408720.345,35.939384
1425408720.361,40.94877
1425408720.376,46.78064
1425408720.392,52.76365
1425408720.408,57.965897
1425408720.423,61.31169
1425408720.439,61.829964
1425408720.455,58.842934
1425408720.47,52.194702
1425408720.486,42.436035
1425408720.501,30.78968
1425408720.517,18.837463
1425408720.533,8.108688
1425408720.548,-0.43540955
1425408720.564,-6.6097565
1425408720.58,-10.922173
1425408720.595,-14.220551
1425408720.611,-17.253448
1425408720.626,-20.396622
1425408720.642,-23.627686
1425408720.658,-26.673553
1425408720.673,-29.194344
1425408720.689,-30.980408
1425408720.705,-32.009964
1425408720.72,-32.40792
1425408720.736,-32.39895
1425408720.752,-32.192703
1425408720.767,-31.90873
1425408720.783,-31.528183
1425408720.798,-30.97908
1425408720.814,-30.16166
1425408720.83,-29.055977
1425408720.845,-27.710808
1425408720.861,-26.136032
1425408720.877,-24.31221
1425408720.892,-22.15667
1425408720.908,-19.591309
1425408720.923,-16.62445
1425408720.939,-13.354866
1425408720.955,-9.921532
1425408720.97,-6.41185
1425408720.986,-2.8493729
1425408721.002,0.78925323
1425408721.017,4.464287
1425408721.033,8.080917
1425408721.048,11.5121
1425408721.064,14.704964
1425408721.08,17.79042
1425408721.095,21.040077
1425408721.111,24.80828
1425408721.127,29.358177
1425408721.142,34.75065
1425408721.158,40.742973
1425408721.173,46.729103
1425408721.189,51.7782
1425408721.205,54.743668
1425408721.22,54.59474
1425408721.236,50.76996
1425408721.252,43.40061
1425408721.267,33.37931
1425408721.283,22.182228
1425408721.298,11.3328705
1425408721.314,2.0361252
1425408721.33,-5.154503
1425408721.345,-10.318504
1425408721.361,-13.949142
1425408721.377,-16.623161
1425408721.392,-18.740746
1425408721.408,-20.475178
1425408721.423,-21.822094
1425408721.439,-22.763493
1425408721.455,-23.401947
1425408721.47,-23.908077
1425408721.486,-24.497288
1425408721.502,-25.210838
1425408721.517,-25.928135
1425408721.533,-26.337776
1425408721.548,-26.163773
1425408721.564,-25.286686
1425408721.58,-23.878075
1425408721.595,-22.297062
1425408721.611,-20.894062
1425408721.627,-19.77792
1425408721.642,-18.74656
1425408721.658,-17.355885
1425408721.673,-15.139812
1425408721.689,-11.828426
1425408721.705,-7.496155
1425408721.72,-2.5375748
1425408721.736,2.48637
1425408721.752,7.0282936
1425408721.767,10.727604
1425408721.783,13.574184
1425408721.798,15.826324
1425408721.814,17.984615
1425408721.83,20.580444
1425408721.845,24.111275
1425408721.861,28.813221
1425408721.877,34.57229
1425408721.892,40.78233
1425408721.908,46.383232
1425408721.923,50.0296
1425408721.939,50.472656
1425408721.955,46.97606
1425408721.97,39.629158
1425408721.986,29.41912
1425408722.002,17.938648
1425408722.017,6.8735275
1425408722.033,-2.5157928
1425408722.048,-9.676086
1425408722.064,-14.778469
1425408722.08,-18.413425
1425408722.095,-21.241165
1425408722.111,-23.756386
1425408722.127,-26.163372
1425408722.142,-28.426003
1425408722.158,-30.358711
1425408722.173,-31.748726
1425408722.189,-32.432827
1425408722.205,-32.38769
1425408722.22,-31.771626
1425408722.236,-30.826717
1425408722.252,-29.845211
1425408722.267,-28.994686
1425408722.283,-28.254597
1425408722.298,-27.473167
1425408722.314,-26.467155
1425408722.33,-25.174847
1425408722.345,-23.606773
1425408722.361,-21.793839
1425408722.377,-19.65939
1425408722.392,-17.041826
1425408722.408,-13.772221
1425408722.423,-9.813648
1425408722.439,-5.38011
1425408722.455,-0.8438015
1425408722.47,3.4192295
1425408722.486,7.1753597
1425408722.502,10.404602
1425408722.517,13.254175
1425408722.533,15.953604
1425408722.548,18.757795
1425408722.564,21.896202
1425408722.58,25.578072
1425408722.595,29.999699
1425408722.611,35.2562
1425408722.627,41.29075
1425408722.642,47.70302
1425408722.658,53.72611
1425408722.673,58.25698
1425408722.689,60.11657
1425408722.705,58.373352
1425408722.72,52.698833
1425408722.736,43.61703
1425408722.752,32.388195
1425408722.767,20.622791
1425408722.783,9.785255
1425408722.798,0.8388901
1425408722.814,-5.991026
1425408722.83,-11.039355
1425408722.845,-14.902036
1425408722.861,-18.186966
1425408722.877,-21.282179
1425408722.892,-24.315525
1425408722.908,-27.171928
1425408722.923,-29.530754
1425408722.939,-31.004875
1425408722.955,-31.381859
1425408722.97,-30.724247
1425408722.986,-29.487017
1425408723.002,-28.279465
1425408723.017,-27.652985
1425408723.033,-27.77519
1425408723.048,-28.414776
1425408723.064,-29.053007
1425408723.08,-29.202744
1425408723.095,-28.628443
1425408723.111,-27.399721
1425408723.127,-25.734894
1425408723.142,-23.811901
1425408723.158,-21.60932
1425408723.173,-18.94624
1425408723.189,-15.616902
1425408723.205,-11.561872
1425408723.22,-6.9011908
1425408723.236,-1.9356787
1425408723.252,2.9846196
1425408723.267,7.5304904
1425408723.283,11.4641695
1425408723.298,14.74173
1425408723.314,17.459646
1425408723.33,19.793045
1425408723.345,21.996246
1425408723.361,24.28997
1425408723.377,26.886097
1425408723.392,30.004356
1425408723.408,33.83188
1425408723.424,38.400547
1425408723.439,43.46465
1425408723.455,48.276604
1425408723.47,51.673332
1425408723.486,52.337524
1425408723.502,49.309
1425408723.517,42.38699
1425408723.533,32.35464
1425408723.549,20.728432
1425408723.564,9.314589
1425408723.58,-0.45091438
1425408723.595,-7.845709
1425408723.611,-12.960956
1425408723.627,-16.43789
1425408723.642,-19.081783
1425408723.658,-21.487755
1425408723.674,-23.871363
1425408723.689,-26.109222
1425408723.705,-27.935747
1425408723.72,-29.123278
1425408723.736,-29.618614
1425408723.752,-29.506382
1425408723.767,-28.995943
1425408723.783,-28.268135
1425408723.799,-27.482637
1425408723.814,-26.715496
1425408723.83,-25.99125
1425408723.845,-25.269945
1425408723.861,-24.480438
1425408723.877,-23.509209
1425408723.892,-22.264273
1425408723.908,-20.67009
1425408723.924,-18.703606
1425408723.939,-16.416674
1425408723.955,-13.87685
1425408723.97,-11.131121
1425408723.986,-8.217297
1425408724.002,-5.1858673
1425408724.017,-2.0712929
1425408724.033,1.1226616
1425408724.049,4.4539833
1425408724.064,8.022903
1425408724.08,11.870522
1425408724.095,15.849426
1425408724.111,19.678867
1425408724.127,23.019657
1425408724.142,25.722672
1425408724.158,28.026615
1425408724.174,30.489693
1425408724.189,33.770203
1425408724.205,38.186447
1425408724.22,43.429672
1425408724.236,48.50815
1425408724.252,52.017696
1425408724.267,52.61308
1425408724.283,49.45855
1425408724.299,42.5839
1425408724.314,32.79985
1425408724.33,21.50306
1425408724.345,10.241844
1425408724.361,0.3104515
1425408724.377,-7.531868
1425408724.392,-13.152252
1425408724.408,-16.85699
1425408724.424,-19.082272
1425408724.439,-20.219582
1425408724.455,-20.513996
1425408724.47,-20.222633
1425408724.486,-19.666061
1425408724.502,-19.325054
1425408724.517,-19.655552
1425408724.533,-20.846535
1425408724.549,-22.732094
1425408724.564,-24.813362
1425408724.58,-26.481167
1425408724.595,-27.308292
1425408724.611,-27.080978
1425408724.627,-25.894531
1425408724.642,-24.028385
1425408724.658,-21.815407
1425408724.674,-19.611519
1425408724.689,-17.640099
1425408724.705,-15.943878
1425408724.72,-14.282124
1425408724.736,-12.250702
1425408724.752,-9.417801
1425408724.767,-5.6174507
1425408724.783,-1.0801544
1425408724.799,3.6665115
1425408724.814,8.015266
1425408724.83,11.578552
1425408724.845,14.334011
1425408724.861,16.563873
1425408724.877,18.709087
1425408724.892,21.159855
1425408724.908,24.181568
1425408724.924,27.8919
1425408724.939,32.261566
1425408724.955,37.031593
1425408724.97,41.614124
1425408724.986,45.181503
1425408725.002,46.722286
1425408725.017,45.37263
1425408725.033,40.752834
1425408725.049,33.143204
1425408725.064,23.47334
1425408725.08,13.046936
1425408725.095,3.1691055
1425408725.111,-5.221943
1425408725.127,-11.714249
1425408725.142,-16.39618
1425408725.158,-19.638187
1425408725.174,-21.86361
1425408725.189,-23.342278
1425408725.205,-24.218044
1425408725.22,-24.53381
1425408725.236,-24.364643
1425408725.252,-23.85059
1425408725.267,-23.188694
1425408725.283,-22.548569
1425408725.299,-22.042458
1425408725.314,-21.679344
1425408725.33,-21.389244
1425408725.345,-21.061508
1425408725.361,-20.56298
1425408725.377,-19.812576
1425408725.392,-18.810638
1425408725.408,-17.632423
1425408725.424,-16.41011
1425408725.439,-15.266052
1425408725.455,-14.186523
1425408725.47,-12.95771
1425408725.486,-11.267952
1425408725.502,-8.789589
1425408725.517,-5.424652
1425408725.533,-1.3785553
1425408725.549,2.851715
1425408725.564,6.70269
1425408725.58,9.787262
1425408725.595,12.08017
1425408725.611,13.867905
1425408725.627,15.62088
1425408725.642,17.793419
1425408725.658,20.713058
1425408725.674,24.505241
1425408725.689,29.146011
1425408725.705,34.3844
1425408725.72,39.640137
1425408725.736,43.990074
1425408725.752,46.310196
1425408725.767,45.573654
1425408725.783,41.321327
1425408725.799,33.87886
1425408725.814,24.385246
1425408725.83,14.388916
1425408725.845,5.363228
1425408725.861,-1.7498322
1425408725.877,-6.6929016
1425408725.892,-9.841225
1425408725.908,-11.869453
1425408725.924,-13.447777
1425408725.939,-15.043816
1425408725.955,-16.875229
1425408725.97,-18.872437
1425408725.986,-20.846748
1425408726.002,-22.532005
1425408726.017,-23.72329
1425408726.033,-24.281837
1425408726.049,-24.221199
1425408726.064,-23.648605
1425408726.08,-22.755676
1425408726.096,-21.718376
1425408726.111,-20.740005
1425408726.127,-19.910309
1425408726.142,-19.288292
1425408726.158,-18.7827
1425408726.174,-18.229057
1425408726.189,-17.409683
1425408726.205,-16.142357
1425408726.221,-14.344643
1425408726.236,-12.060951
1425408726.252,-9.397339
1425408726.267,-6.4745483
1425408726.283,-3.346962
1425408726.299,-0.02318573
1425408726.314,3.561203
1425408726.33,7.3774796
1425408726.346,11.236008
1425408726.361,14.8688965
1425408726.377,17.995178
1425408726.392,20.509407
1425408726.408,22.624016
1425408726.424,24.807701
1425408726.439,27.635155
1425408726.455,31.491043
1425408726.471,36.380974
1425408726.486,41.793365
1425408726.502,46.76612
1425408726.517,50.05033
1425408726.533,50.42813
1425408726.549,47.108177
1425408726.564,40.00334
1425408726.58,29.868721
1425408726.596,18.167076
1425408726.611,6.637665
1425408726.627,-3.1884613
1425408726.642,-10.479904
1425408726.658,-15.18087
1425408726.674,-17.835388
1425408726.689,-19.187103
1425408726.705,-19.85328
1425408726.721,-20.154404
1425408726.736,-20.251999
1425408726.752,-20.262177
1425408726.767,-20.355911
1425408726.783,-20.703499
1425408726.799,-21.387009
1425408726.814,-22.301697
1425408726.83,-23.191673
1425408726.846,-23.811043
1425408726.861,-24.014168
1425408726.877,-23.806755
1425408726.892,-23.352875
1425408726.908,-22.848297
1425408726.924,-22.400917
1425408726.939,-21.99971
1425408726.955,-21.504868
1425408726.971,-20.699753
1425408726.986,-19.396645
1425408727.002,-17.428314
1425408727.017,-14.74305
1425408727.033,-11.409027
1425408727.049,-7.526863
1425408727.064,-3.2912598
1425408727.08,1.0133972
1425408727.096,5.0979233
1425408727.111,8.681923
1425408727.127,11.631607
1425408727.142,14.029221
1425408727.158,16.22432
1425408727.174,18.695663
1425408727.189,21.955536
1425408727.205,26.293648
1425408727.221,31.641678
1425408727.236,37.442177
1425408727.252,42.73945
1425408727.267,46.33525
1425408727.283,47.16469
1425408727.299,44.57502
1425408727.314,38.628372
1425408727.33,30.091377
1425408727.346,20.241875
1425408727.361,10.454056
1425408727.377,1.833168
1425408727.392,-5.0640182
1425408727.408,-10.203812
1425408727.424,-13.893562
1425408727.439,-16.52243
1425408727.455,-18.421844
1425408727.471,-19.776375
1425408727.486,-20.740738
1425408727.502,-21.447273
1425408727.517,-22.034088
1425408727.533,-22.588036
1425408727.549,-23.077042
1425408727.564,-23.338463
1425408727.58,-23.171654
1425408727.596,-22.434319
1425408727.611,-21.133255
1425408727.627,-19.453392
1425408727.642,-17.720024
1425408727.658,-16.209488
1425408727.674,-15.087257
1425408727.689,-14.265274
1425408727.705,-13.466484
1425408727.721,-12.290146
1425408727.736,-10.415337
1425408727.752,-7.659775
1425408727.767,-4.1530075
1425408727.783,-0.19919586
1425408727.799,3.807434
1425408727.814,7.5162582
1425408727.83,10.743217
1425408727.846,13.535034
1425408727.861,16.125526
1425408727.877,18.822433
1425408727.892,21.942291
1425408727.908,25.688644
1425408727.924,30.057663
1425408727.939,34.81859
1425408727.955,39.468758
1425408727.971,43.343918
1425408727.986,45.70482
1425408728.002,45.91266
1425408728.017,43.49244
1425408728.033,38.319183
1425408728.049,30.682564
1425408728.064,21.275406
1425408728.08,11.132782
1425408728.096,1.3780212
1425408728.111,-7.056732
1425408728.127,-13.624046
1425408728.142,-18.291473
1425408728.158,-21.31903
1425408728.174,-23.019012
1425408728.189,-23.58461
1425408728.205,-23.092773
1425408728.221,-21.697647
1425408728.236,-19.773285
1425408728.252,-17.945084
1425408728.267,-16.847122
1425408728.283,-16.84517
1425408728.299,-17.84607
1425408728.314,-19.363228
1425408728.33,-20.815529
1425408728.346,-21.753036
1425408728.361,-21.962952
1425408728.377,-21.473145
1425408728.392,-20.402649
1425408728.408,-18.838463
1425408728.424,-16.783463
1425408728.439,-14.202751
1425408728.455,-11.040939
1425408728.471,-7.292534
1425408728.486,-3.0788956
1425408728.502,1.3674088
1425408728.517,5.7043915
1425408728.533,9.613472
1425408728.549,13.034149
1425408728.564,16.184418
1425408728.58,19.573265
1425408728.596,23.71598
1425408728.611,28.873055
1425408728.627,34.837227
1425408728.642,40.89993
1425408728.658,46.06162
1425408728.674,49.228237
1425408728.689,49.504417
1425408728.705,46.386482
1425408728.721,39.94856
1425408728.736,30.970749
1425408728.752,20.75214
1425408728.768,10.8132515
1425408728.783,2.4310608
1425408728.799,-3.8311768
1425408728.814,-8.143532
1425408728.83,-11.190144
1425408728.846,-13.681911
1425408728.861,-16.00285
1425408728.877,-18.041733
1425408728.892,-19.479362
1425408728.908,-20.077618
1425408728.924,-19.93644
1425408728.939,-19.477188
1425408728.955,-19.197163
1425408728.971,-19.356728
1425408728.986,-19.878452
1425408729.002,-20.359852
1425408729.018,-20.37083
1425408729.033,-19.69556
1425408729.049,-18.458073
1425408729.064,-17.020916
1425408729.08,-15.784348
1425408729.096,-14.919975
1425408729.111,-14.229843
1425408729.127,-13.240017
1425408729.143,-11.44342
1425408729.158,-8.567299
1425408729.174,-4.723465
1425408729.189,-0.3608284
1425408729.205,3.916195
1425408729.221,7.702095
1425408729.236,10.916294
1425408729.252,13.866165
1425408729.268,17.077583
1425408729.283,21.118183
1425408729.299,26.34993
1425408729.314,32.808296
1425408729.33,40.046097
1425408729.346,47.16954
1425408729.361,52.868443
1425408729.377,55.768497
1425408729.393,54.763733
1425408729.408,49.45491
1425408729.424,40.35457
1425408729.439,28.821707
1425408729.455,16.630661
1425408729.471,5.4243393
1425408729.486,-3.7467737
1425408729.502,-10.588205
1425408729.518,-15.4466095
1425408729.533,-18.963833
1425408729.549,-21.737835
1425408729.564,-24.116734
1425408729.58,-26.18533
1425408729.596,-27.870289
1425408729.611,-29.132406
1425408729.627,-30.012228
1425408729.643,-30.63784
1425408729.658,-31.09878
1425408729.674,-31.341724
1425408729.689,-31.124857
1425408729.705,-30.181557
1425408729.721,-28.368416
1425408729.736,-25.84127
1425408729.752,-23.041832
1425408729.768,-20.521105
1425408729.783,-18.643543
1425408729.799,-17.418201
1425408729.814,-16.379625
1425408729.83,-14.86419
1425408729.846,-12.275256
1425408729.861,-8.39262
1425408729.877,-3.4729242
1425408729.893,1.8549929
1425408729.908,6.8671227
1425408729.924,11.074984
1425408729.939,14.378799
1425408729.955,17.089018
1425408729.971,19.809305
1425408729.986,23.139185
1425408730.002,27.50689
1425408730.018,32.989704
1425408730.033,39.267677
1425408730.049,45.677235
1425408730.064,51.23301
1425408730.08,54.722088
1425408730.096,54.97074
1425408730.111,51.171356
1425408730.127,43.25887
1425408730.143,32.080566
1425408730.158,19.304596
1425408730.174,6.846302
1425408730.189,-3.7122116
1425408730.205,-11.613358
1425408730.221,-17.01691
1425408730.236,-20.670254
1425408730.252,-23.431526
1425408730.268,-25.900257
1425408730.283,-28.264671
1425408730.299,-30.43813
1425408730.314,-32.26449
1425408730.33,-33.696102
1425408730.346,-34.760803
1425408730.361,-35.54676
1425408730.377,-36.08295
1425408730.393,-36.305347
1425408730.408,-36.088707
1425408730.424,-35.208046
1425408730.439,-33.4889
1425408730.455,-30.923958
1425408730.471,-27.755466
1425408730.486,-24.476093
1425408730.502,-21.680412
1425408730.518,-19.814007
1425408730.533,-18.892658
1425408730.549,-18.503967
1425408730.564,-17.93349
1425408730.58,-16.528542
1425408730.596,-13.939041
1425408730.611,-10.19717
1425408730.627,-5.6258125
1425408730.643,-0.6961975
1425408730.658,4.1655426
1425408730.674,8.660019
1425408730.689,12.643188
1425408730.705,16.146927
1425408730.721,19.405914
1425408730.736,22.837898
1425408730.752,26.99511
1425408730.768,32.299965
1425408730.783,38.822906
1425408730.799,46.072296
1425408730.814,52.962067
1425408730.83,57.954292
1425408730.846,59.55008
1425408730.861,56.73513
1425408730.877,49.475792
1425408730.893,38.773926
1425408730.908,26.430717
1425408730.924,14.449387
1425408730.939,4.404793
1425408730.955,-3.0153503
1425408730.971,-8.05394
1425408730.986,-11.527672
1425408731.002,-14.371361
1425408731.018,-17.219215
1425408731.033,-20.219955
1425408731.049,-23.175102
1425408731.064,-25.774788
1425408731.08,-27.815155
1425408731.096,-29.302567
1425408731.111,-30.455437
1425408731.127,-31.482704
1425408731.143,-32.506126
1425408731.158,-33.411156
1425408731.174,-33.871056
1425408731.189,-33.52793
1425408731.205,-32.191345
1425408731.221,-29.981163
1425408731.236,-27.362846
1425408731.252,-24.904266
1425408731.268,-23.012802
1425408731.283,-21.682877
1425408731.299,-20.501709
1425408731.314,-18.817276
1425408731.33,-16.113876
1425408731.346,-12.225845
1425408731.361,-7.4641876
1425408731.377,-2.4397736
1425408731.393,2.2050552
1425408731.408,6.075241
1425408731.424,9.1297
1425408731.439,11.652794
1425408731.455,14.082893
1425408731.471,16.837395
1425408731.486,20.21125
1425408731.502,24.415062
1425408731.518,29.539291
1425408731.533,35.481316
1425408731.549,41.82598
1425408731.564,47.705208
1425408731.58,51.803543
1425408731.596,52.731262
1425408731.611,49.49324
1425408731.627,41.96595
1425408731.643,31.07743
1425408731.658,18.573112
1425408731.674,6.414177
1425408731.69,-3.8798447
1425408731.705,-11.643394
1425408731.721,-17.050842
1425408731.736,-20.744797
1425408731.752,-23.373093
1425408731.768,-25.3303
1425408731.783,-26.713661
1425408731.799,-27.505226
1425408731.815,-27.767204
1425408731.83,-27.722061
1425408731.846,-27.63321
1425408731.861,-27.71215
1425408731.877,-27.991005
1425408731.893,-28.340904
1425408731.908,-28.536133
1425408731.924,-28.374512
1425408731.94,-27.738533
1425408731.955,-26.634651
1425408731.971,-25.184479
1425408731.986,-23.58014
1425408732.002,-21.97364
1425408732.018,-20.429428
1425408732.033,-18.848198
1425408732.049,-17.00254
1425408732.065,-14.6109085
1425408732.08,-11.468048
1425408732.096,-7.5410614
1425408732.111,-3.0114594
1425408732.127,1.7594299
1425408732.143,6.3395386
1425408732.158,10.360512
1425408732.174,13.658638
1425408732.19,16.398361
1425408732.205,19.013054
1425408732.221,22.093536
1425408732.236,26.180237
1425408732.252,31.579292
1425408732.268,38.226334
1425408732.283,45.6472
1425408732.299,52.91223
1425408732.315,58.8264
1425408732.33,62.0607
1425408732.346,61.51763
1425408732.361,56.64161
1425408732.377,47.719315
1425408732.393,35.858673
1425408732.408,22.74807
1425408732.424,10.150665
1425408732.44,-0.60622406
1425408732.455,-8.928421
1425408732.471,-14.911339
1425408732.486,-19.109924
1425408732.502,-22.136719
1425408732.518,-24.471542
1425408732.533,-26.432014
1425408732.549,-28.176323
1425408732.565,-29.810417
1425408732.58,-31.431046
1425408732.596,-33.053406
1425408732.611,-34.65206
1425408732.627,-36.129883
1425408732.643,-37.402336
1425408732.658,-38.33931
1425408732.674,-38.79345
1425408732.69,-38.583008
1425408732.705,-37.586166
1425408732.721,-35.850098
1425408732.736,-33.601295
1425408732.752,-31.208145
1425408732.768,-28.983109
1425408732.783,-27.028091
1425408732.799,-25.182228
1425408732.815,-23.134323
1425408732.83,-20.589752
1425408732.846,-17.409355
1425408732.861,-13.565811
1425408732.877,-9.156036
1425408732.893,-4.3263855
1425408732.908,0.74694824
1425408732.924,5.7806854
1425408732.94,10.464912
1425408732.955,14.536407
1425408732.971,17.967613
1425408732.986,20.989914
1425408733.002,24.098114
1425408733.018,27.848427
1425408733.033,32.640465
1425408733.049,38.60354
1425408733.065,45.417778
1425408733.08,52.285004
1425408733.096,58.009422
1425408733.111,61.184914
1425408733.127,60.56826
1425408733.143,55.51245
1425408733.158,46.300087
1425408733.174,34.19014
1425408733.19,21.076393
1425408733.205,8.867783
1425408733.221,-1.0643234
1425408733.236,-8.201042
1425408733.252,-12.838684
1425408733.268,-15.784592
1425408733.283,-17.927177
1425408733.299,-19.969421
1425408733.315,-22.266205
1425408733.33,-24.842278
1425408733.346,-27.527977
1425408733.361,-30.073395
1425408733.377,-32.2146
1425408733.393,-33.800644
1425408733.408,-34.7698
1425408733.424,-35.150826
1425408733.44,-35.064293
1425408733.455,-34.685356
1425408733.471,-34.19062
1425408733.486,-33.697456
1425408733.502,-33.248688
1425408733.518,-32.764175
1425408733.533,-32.050255
1425408733.549,-30.868492
1425408733.565,-29.045547
1425408733.58,-26.550003
1425408733.596,-23.49543
1425408733.611,-20.03263
1425408733.627,-16.273933
1425408733.643,-12.224937
1425408733.658,-7.840683
1425408733.674,-3.1408234
1425408733.69,1.7555771
1425408733.705,6.5656815
1425408733.721,10.983833
1425408733.736,14.741341
1425408733.752,17.77079
1425408733.768,20.175613
1425408733.783,22.253815
1425408733.799,24.447777
1425408733.815,27.240143
1425408733.83,31.078865
1425408733.846,36.175232
1425408733.861,42.354897
1425408733.877,48.884315
1425408733.893,54.49533
1425408733.908,57.6444
1425408733.924,56.95423
1425408733.94,51.76407
1425408733.955,42.39778
1425408733.971,30.151367
1425408733.986,16.953377
1425408734.002,4.7561264
1425408734.018,-5.0658493
1425408734.033,-11.996025
1425408734.049,-16.364082
1425408734.065,-19.03138
1425408734.08,-20.948006
1425408734.096,-22.799255
1425408734.111,-24.8684
1425408734.127,-27.076431
1425408734.143,-29.172432
1425408734.158,-30.893127
1425408734.174,-32.10405
1425408734.19,-32.756332
1425408734.205,-32.90618
1425408734.221,-32.62542
1425408734.236,-31.99273
1425408734.252,-31.097248
1425408734.268,-30.055603
1425408734.283,-29.012356
1425408734.299,-28.114494
1425408734.315,-27.453758
1425408734.33,-26.999714
1425408734.346,-26.52361
1425408734.362,-25.657238
1425408734.377,-23.951927
1425408734.393,-21.081059
1425408734.408,-16.996315
1425408734.424,-11.987045
1425408734.44,-6.6218452
1425408734.455,-1.5094299
1425408734.471,2.9188309
1425408734.487,6.52446
1425408734.502,9.520943
1425408734.518,12.300827
1425408734.533,15.299561
1425408734.549,18.865574
1425408734.565,23.252907
1425408734.58,28.58508
1425408734.596,34.826145
1425408734.612,41.663097
1425408734.627,48.401573
1425408734.643,53.99714
1425408734.658,57.204712
1425408734.674,56.938457
1425408734.69,52.681778
1425408734.705,44.722202
1425408734.721,34.151535
1425408734.737,22.589195
1425408734.752,11.694183
1425408734.768,2.6695023
1425408734.783,-4.038227
1425408734.799,-8.664921
1425408734.815,-11.878733
1425408734.83,-14.372671
1425408734.846,-16.532986
1425408734.862,-18.425072
1425408734.877,-19.90923
1425408734.893,-20.897831
1425408734.908,-21.48847
1425408734.924,-21.876968
1425408734.94,-22.262117
1425408734.955,-22.703146
1425408734.971,-23.070099
1425408734.987,-23.169859
1425408735.002,-22.86735
1425408735.018,-22.160988
1425408735.033,-21.16711
1425408735.049,-20.06393
1425408735.065,-18.947102
1425408735.08,-17.806671
1425408735.096,-16.49429
1425408735.112,-14.743576
1425408735.127,-12.271371
1425408735.143,-8.882599
1425408735.158,-4.5807104
1425408735.174,0.37882847
1425408735.19,5.525303
1425408735.205,10.343557
1425408735.221,14.452684
1425408735.237,17.761393
1425408735.252,20.4987
1425408735.268,23.117603
1425408735.283,26.13516
1425408735.299,30.00914
1425408735.315,34.96347
1425408735.33,40.82251
1425408735.346,46.92695
1425408735.362,52.10915
1425408735.377,54.929417
1425408735.393,54.090965
1425408735.408,48.93048
1425408735.424,39.76246
1425408735.44,27.900637
1425408735.455,15.231
1425408735.471,3.6320753
1425408735.487,-5.629513
1425408735.502,-12.14822
1425408735.518,-16.302942
1425408735.533,-18.842525
1425408735.549,-20.44331
1425408735.565,-21.49914
1425408735.58,-22.058506
1425408735.596,-22.072031
1425408735.612,-21.61354
1425408735.627,-20.980165
1425408735.643,-20.579935
1425408735.658,-20.703611
1425408735.674,-21.280653
1425408735.69,-21.903355
1425408735.705,-22.025434
1425408735.721,-21.287388
1425408735.737,-19.731367
1425408735.752,-17.788471
1425408735.768,-16.054117
1425408735.783,-14.905506
1425408735.799,-14.325403
1425408735.815,-13.901075
1425408735.83,-13.021431
1425408735.846,-11.167974
1425408735.862,-8.150507
1425408735.877,-4.135784
1425408735.893,0.41925812
1425408735.908,4.9794865
1425408735.924,9.101412
1425408735.94,12.618271
1425408735.955,15.609728
1425408735.971,18.41284
1425408735.987,21.454369
1425408736.002,25.149414
1425408736.018,29.77402
1425408736.033,35.38733
1425408736.049,41.745758
1425408736.065,48.207657
1425408736.08,53.664673
1425408736.096,56.702927
1425408736.112,55.993324
1425408736.127,50.76101
1425408736.143,41.217575
1425408736.158,28.658297
1425408736.174,15.107925
1425408736.19,2.6795578
1425408736.205,-7.0934467
1425408736.221,-13.67845
1425408736.237,-17.503178
1425408736.252,-19.54581
1425408736.268,-20.837019
1425408736.283,-22.041323
1425408736.299,-23.326786
1425408736.315,-24.526073
1425408736.33,-25.41757
1425408736.346,-25.93515
1425408736.362,-26.265629
1425408736.377,-26.707537
1425408736.393,-27.4592
1425408736.408,-28.408714
1425408736.424,-29.145819
1425408736.44,-29.12112
1425408736.455,-27.99699
1425408736.471,-25.882874
1425408736.487,-23.301401
1425408736.502,-20.969858
1425408736.518,-19.392138
1425408736.533,-18.566725
1425408736.549,-18.019333
1425408736.565,-17.001825
1425408736.58,-14.877998
1425408736.596,-11.426744
1425408736.612,-6.9343967
1425408736.627,-1.961544
1425408736.643,2.8240948
1425408736.658,6.960308
1425408736.674,10.301136
1425408736.69,13.007469
1425408736.705,15.462868
1425408736.721,18.17622
1425408736.737,21.612766
1425408736.752,26.135258
1425408736.768,31.85309
1425408736.783,38.513214
1425408736.799,45.44159
1425408736.815,51.584415
1425408736.83,55.627525
1425408736.846,56.298378
1425408736.862,52.774952
1425408736.877,45.04792
1425408736.893,34.048275
1425408736.908,21.475288
1425408736.924,9.260933
1425408736.94,-0.9801979
1425408736.955,-8.429029
1425408736.971,-13.150038
1425408736.987,-15.774954
1425408737.002,-17.1287
1425408737.018,-17.872284
1425408737.034,-18.385914
1425408737.049,-18.849945
1425408737.065,-19.402306
1425408737.08,-20.219841
1425408737.096,-21.401867
1425408737.112,-22.998653
1425408737.127,-24.82782
1425408737.143,-26.601852
1425408737.159,-27.951862
1425408737.174,-28.572472
1425408737.19,-28.276218
1425408737.205,-27.12117
1425408737.221,-25.383904
1425408737.237,-23.502018
1425408737.252,-21.941174
1425408737.268,-20.954884
1425408737.284,-20.413578
1425408737.299,-19.84885
1425408737.315,-18.60265
1425408737.33,-16.167747
1425408737.346,-12.395588
1425408737.362,-7.5581017
1425408737.377,-2.199463
1425408737.393,3.0603104
1425408737.409,7.811905
1425408737.424,11.893188
1425408737.44,15.421078
1425408737.455,18.705372
1425408737.471,22.176136
1425408737.487,26.309582
1425408737.502,31.450275
1425408737.518,37.625946
1425408737.534,44.353893
1425408737.549,50.600346
1425408737.565,55.009525
1425408737.58,56.22538
1425408737.596,53.458164
1425408737.612,46.72685
1425408737.627,36.932083
1425408737.643,25.57558
1425408737.659,14.299164
1425408737.674,4.3930016
1425408737.69,-3.4424934
1425408737.705,-9.150406
1425408737.721,-13.092667
1425408737.737,-15.751308
1425408737.752,-17.537296
1425408737.768,-18.695843
1425408737.784,-19.366257
1425408737.799,-19.700214
1425408737.815,-19.879593
1425408737.83,-20.09528
1425408737.846,-20.487782
1425408737.862,-21.028793
1425408737.877,-21.538769
1425408737.893,-21.782982
1425408737.909,-21.555695
1425408737.924,-20.854546
1425408737.94,-19.82381
1425408737.955,-18.730633
1425408737.971,-17.795755
1425408737.987,-17.062914
1425408738.002,-16.356308
1425408738.018,-15.33778
1425408738.034,-13.635288
1425408738.049,-11.027233
1425408738.065,-7.530384
1425408738.08,-3.4270859
1425408738.096,0.83086014
1425408738.112,4.7947636
1425408738.127,8.170719
1425408738.143,10.930178
1425408738.159,13.284666
1425408738.174,15.635895
1425408738.19,18.395536
1425408738.205,21.885769
1425408738.221,26.280909
1425408738.237,31.504612
1425408738.252,37.161663
1425408738.268,42.497147
1425408738.284,46.48475
1425408738.299,47.994682
1425408738.315,46.13543
1425408738.33,40.562553
1425408738.346,31.68175
1425408738.362,20.608055
1425408738.377,8.844883
1425408738.393,-2.138279
1425408738.409,-11.26787
1425408738.424,-18.088997
1425408738.44,-22.659979
1425408738.455,-25.400717
1425408738.471,-26.777937
1425408738.487,-27.20342
1425408738.502,-26.970243
1425408738.518,-26.330847
1425408738.534,-25.5162
1425408738.549,-24.769444
1425408738.565,-24.257132
1425408738.58,-24.060335
1425408738.596,-24.090075
1425408738.612,-24.193945
1425408738.627,-24.179703
1425408738.643,-23.91695
1425408738.659,-23.384861
1425408738.674,-22.546257
1425408738.69,-21.382915
1425408738.705,-19.849768
1425408738.721,-17.887302
1425408738.737,-15.452925
1425408738.752,-12.545355
1425408738.768,-9.156111
1425408738.784,-5.3188534
1425408738.799,-1.0769386
1425408738.815,3.4330006
1425408738.83,7.9494753
1425408738.846,12.177535
1425408738.862,15.885962
1425408738.877,19.08532
1425408738.893,22.04944
1425408738.909,25.26159
1425408738.924,29.194061
1425408738.94,34.1474
1425408738.955,40.00718
1425408738.971,46.201935
1425408738.987,51.687515
1425408739.002,55.188286
1425408739.018,55.47019
1425408739.034,51.763237
1425408739.049,44.1152
1425408739.065,33.464264
1425408739.08,21.412323
1425408739.096,9.749861
1425408739.112,-0.15746593
1425408739.127,-7.7476816
1425408739.143,-13.247398
1425408739.159,-17.36517
1425408739.174,-20.857262
1425408739.19,-24.09851
1425408739.205,-27.088156
1425408739.221,-29.554234
1425408739.237,-31.225586
1425408739.252,-32.021374
1425408739.268,-32.09871
1425408739.284,-31.741512
1425408739.299,-31.222193
1425408739.315,-30.713863
1425408739.33,-30.196419
1425408739.346,-29.52566
1425408739.362,-28.53033
1425408739.377,-27.124372
1425408739.393,-25.345335
1425408739.409,-23.366615
1425408739.424,-21.34766
1425408739.44,-19.344475
1425408739.455,-17.245344
1425408739.471,-14.784398
1425408739.487,-11.761278
1425408739.502,-8.072285
1425408739.518,-3.8606465
1425408739.534,0.57586956
1425408739.549,4.8658905
1425408739.565,8.7725115
1425408739.58,12.2056675
1425408739.596,15.239283
1425408739.612,18.026087
1425408739.627,20.752756
1425408739.643,23.58915
1425408739.659,26.726383
1425408739.674,30.444387
1425408739.69,35.037292
1425408739.706,40.624874
1425408739.721,46.951252
1425408739.737,53.177418
1425408739.752,57.93018
1425408739.768,59.687336
1425408739.784,57.275654
1425408739.799,50.45093
1425408739.815,40.060074
1425408739.83,27.785774
1425408739.846,15.580171
1425408739.862,4.981865
1425408739.877,-3.3273907
1425408739.893,-9.544461
1425408739.909,-14.37181
1425408739.924,-18.594147
1425408739.94,-22.641453
1425408739.956,-26.557104
1425408739.971,-30.068584
1425408739.987,-32.901775
1425408740.002,-34.918213
1425408740.018,-36.199608
1425408740.034,-36.9076
1425408740.049,-37.17756
1425408740.065,-37.041756
1425408740.081,-36.432636
1425408740.096,-35.304893
1425408740.112,-33.769905
1425408740.127,-32.09404
1425408740.143,-30.579285
1425408740.159,-29.445536
1425408740.174,-28.61913
1425408740.19,-27.743412
1425408740.206,-26.385763
1425408740.221,-24.198835
1425408740.237,-21.141417
1425408740.252,-17.437733
1425408740.268,-13.511229
1425408740.284,-9.696993
1425408740.299,-6.1530266
1425408740.315,-2.7904434
1425408740.331,0.5895996
1425408740.346,4.139673
1425408740.362,7.8947983
1425408740.377,11.727053
1425408740.393,15.476339
1425408740.409,19.033073
1425408740.424,22.486502
1425408740.44,26.09364
1425408740.456,30.24955
1425408740.471,35.371124
1425408740.487,41.583313
1425408740.502,48.57328
1425408740.518,55.40267
1425408740.534,60.749626
1425408740.549,63.19278
1425408740.565,61.75303
1425408740.581,56.180847
1425408740.596,47.059578
1425408740.612,35.615997
1425408740.627,23.297972
1425408740.643,11.457645
1425408740.659,1.0528412
1425408740.674,-7.4213314
1425408740.69,-13.918913
1425408740.706,-18.733097
1425408740.721,-22.296568
1425408740.737,-25.030933
1425408740.752,-27.17753
1425408740.768,-28.8275
1425408740.784,-29.999306
1425408740.799,-30.751762
1425408740.815,-31.288525
1425408740.831,-31.891973
1425408740.846,-32.747612
1425408740.862,-33.85998
1425408740.877,-35.019638
1425408740.893,-35.91011
1425408740.909,-36.247437
1425408740.924,-35.815636
1425408740.94,-34.533028
1425408740.956,-32.45253
1425408740.971,-29.746105
1425408740.987,-26.707
1425408741.002,-23.675613
1425408741.018,-20.949799
1425408741.034,-18.577782
1425408741.049,-16.377201
1425408741.065,-13.958788
1425408741.081,-10.953613
1425408741.096,-7.197918
1425408741.112,-2.7667427
1425408741.127,2.0641155
1425408741.143,6.9496136
1425408741.159,11.583521
1425408741.174,15.751076
1425408741.19,19.368568
1425408741.206,22.466404
1425408741.221,25.29988
1425408741.237,28.30653
1425408741.252,32.05402
1425408741.268,36.972176
1425408741.284,43.047943
1425408741.299,49.648018
1425408741.315,55.51174
1425408741.331,59.033688
1425408741.346,58.824406
1425408741.362,54.19203
1425408741.377,45.452225
1425408741.393,33.82003
1425408741.409,21.060875
1425408741.424,8.902634
1425408741.44,-1.4060631
1425408741.456,-9.328781
1425408741.471,-14.974079
1425408741.487,-18.769043
1425408741.502,-21.185553
1425408741.518,-22.578568
1425408741.534,-23.176641
1425408741.549,-23.22586
1425408741.565,-23.043564
1425408741.581,-23.01413
1425408741.596,-23.454277
1425408741.612,-24.513206
1425408741.627,-26.044834
1425408741.643,-27.709988
1425408741.659,-29.072075
1425408741.674,-29.785122
1425408741.69,-29.703175
1425408741.706,-28.899921
1425408741.721,-27.596184
1425408741.737,-26.030556
1425408741.752,-24.377533
1425408741.768,-22.667538
1425408741.784,-20.759682
1425408741.799,-18.464085
1425408741.815,-15.56773
1425408741.831,-12.001343
1425408741.846,-7.840679
1425408741.862,-3.307232
1425408741.877,1.3152199
1425408741.893,5.735203
1425408741.909,9.750362
1425408741.924,13.259865
1425408741.94,16.356594
1425408741.956,19.288254
1425408741.971,22.48648
1425408741.987,26.43806
1425408742.002,31.500175
1425408742.018,37.630245
1425408742.034,44.192547
1425408742.049,49.972206
1425408742.065,53.42961
1425408742.081,53.17127
1425408742.096,48.521706
1425408742.112,39.76782
1425408742.127,28.163654
1425408742.143,15.494179
1425408742.159,3.5156326
1425408742.174,-6.562546
1425408742.19,-14.285732
1425408742.206,-19.835487
1425408742.221,-23.763817
1425408742.237,-26.573116
1425408742.252,-28.57713
1425408742.268,-29.861866
1425408742.284,-30.438408
1425408742.299,-30.342243
1425408742.315,-29.755524
1425408742.331,-28.986095
1425408742.346,-28.309036
1425408742.362,-27.960716
1425408742.377,-27.976326
1425408742.393,-28.22332
1425408742.409,-28.362696
1425408742.424,-27.99957
1425408742.44,-26.783195
1425408742.456,-24.63237
1425408742.471,-21.782715
1425408742.487,-18.728245
1425408742.502,-16.015076
1425408742.518,-13.945908
1425408742.534,-12.412064
1425408742.549,-10.957415
1425408742.565,-8.948715
1425408742.581,-5.9311695
1425408742.596,-1.8171272
1425408742.612,3.1043205
1425408742.628,8.307388
1425408742.643,13.227413
1425408742.659,17.471397
1425408742.674,20.895224
1425408742.69,23.583904
1425408742.706,25.826645
1425408742.721,28.114763
1425408742.737,30.98433
1425408742.753,34.939613
1425408742.768,40.166725
1425408742.784,46.33759
1425408742.799,52.585716
1425408742.815,57.59149
1425408742.831,59.885048
1425408742.846,58.308807
1425408742.862,52.413906
1425408742.878,42.632187
1425408742.893,30.280333
1425408742.909,17.13933
1425408742.924,4.9433556
1425408742.94,-5.0739574
1425408742.956,-12.488432
1425408742.971,-17.512552
1425408742.987,-20.701923
1425408743.003,-22.652916
1425408743.018,-23.832075
1425408743.034,-24.543528
1425408743.049,-25.086292
1425408743.065,-25.74896
1425408743.081,-26.772429
1425408743.096,-28.213394
1425408743.112,-29.870653
1425408743.128,-31.384623
1425408743.143,-32.403893
1425408743.159,-32.738953
1425408743.174,-32.361137
1425408743.19,-31.386505
1425408743.206,-29.981518
1425408743.221,-28.285528
1425408743.237,-26.428213
1425408743.253,-24.530598
1425408743.268,-22.692091
1425408743.284,-20.914248
1425408743.299,-19.100748
1425408743.315,-17.056175
1425408743.331,-14.603546
1425408743.346,-11.654848
1425408743.362,-8.153278
1425408743.378,-4.1747646
1425408743.393,0.11784935
1425408743.409,4.4997845
1425408743.424,8.674604
1425408743.44,12.356787
1425408743.456,15.413969
1425408743.471,17.969885
1425408743.487,20.436565
1425408743.503,23.440886
1425408743.518,27.539906
1425408743.534,33.025024
1425408743.549,39.664513
1425408743.565,46.66671
1425408743.581,52.759384
1425408743.596,56.4582
1425408743.612,56.470272
1425408743.628,52.132313
1425408743.643,43.680573
1425408743.659,32.28057
1425408743.674,19.696857
1425408743.69,7.767645
1425408743.706,-2.1439476
1425408743.721,-9.457258
1425408743.737,-14.290134
1425408743.753,-17.226736
1425408743.768,-18.975227
1425408743.784,-20.136528
1425408743.799,-21.125172
1425408743.815,-22.176254
1425408743.831,-23.37981
1425408743.846,-24.713923
1425408743.862,-26.06681
1425408743.878,-27.26224
1425408743.893,-28.191391
1425408743.909,-28.797115
1425408743.924,-29.149572
1425408743.94,-29.30365
1425408743.956,-29.2807
1425408743.971,-29.013512
1425408743.987,-28.380476
1425408744.003,-27.319494
1425408744.018,-25.849705
1425408744.034,-24.037457
1425408744.049,-21.983074
1425408744.065,-19.715733
1425408744.081,-17.13956
1425408744.096,-14.100191
1425408744.112,-10.406872
1425408744.128,-6.0074806
1425408744.143,-1.0610466
1425408744.159,4.026396
1425408744.174,8.802368
1425408744.19,12.933931
1425408744.206,16.383417
1425408744.221,19.43108
1425408744.237,22.4889
1425408744.253,25.934357
1425408744.268,29.95929
1425408744.284,34.614815
1425408744.299,39.796753
1425408744.315,45.325165
1425408744.331,50.75734
1425408744.346,55.28846
1425408744.362,57.771004
1425408744.378,56.957146
1425408744.393,51.986282
1425408744.409,42.89175
1425408744.424,30.680988
1425408744.44,17.122879
1425408744.456,4.172411
1425408744.471,-6.6584034
1425408744.487,-14.574791
1425408744.503,-19.518917
1425408744.518,-22.006733
1425408744.534,-22.799913
1425408744.549,-22.645449
1425408744.565,-22.188173
1425408744.581,-21.872713
1425408744.596,-21.950918
1425408744.612,-22.548954
1425408744.628,-23.652609
1425408744.643,-25.14399
1425408744.659,-26.745846
1425408744.674,-28.008083
1425408744.69,-28.415356
1425408744.706,-27.627403
1425408744.721,-25.69046
1425408744.737,-23.08828
1425408744.753,-20.625164
1425408744.768,-19.019268
1425408744.784,-18.503782
1425408744.799,-18.733555
1425408744.815,-18.925549
1425408744.831,-18.250847
1425408744.846,-16.213203
1425408744.862,-12.743963
1425408744.878,-8.159118
1425408744.893,-2.9789639
1425408744.909,2.2542171
1425408744.924,7.046481
1425408744.94,11.042575
1425408744.956,14.138805
1425408744.971,16.575005
1425408744.987,18.903418
1425408745.003,21.939705
1425408745.018,26.348942
1425408745.034,32.380966
1425408745.049,39.593887
1425408745.065,46.852985
1425408745.081,52.55858
1425408745.096,55.0849
1425408745.112,53.290913
1425408745.128,46.905598
1425408745.143,36.660828
1425408745.159,24.152569
1425408745.174,11.312725
1425408745.19,-0.09657383
1425408745.206,-8.99561
1425408745.221,-15.119312
1425408745.237,-18.769573
1425408745.253,-20.545416
1425408745.268,-21.030582
1425408745.284,-20.651543
1425408745.3,-19.804335
1425408745.315,-18.87257
1425408745.331,-18.244858
1425408745.346,-18.213678
1425408745.362,-18.850601
1425408745.378,-19.93
1425408745.393,-21.02727
1425408745.409,-21.696991
1425408745.425,-21.624884
1425408745.44,-20.78815
1425408745.456,-19.430485
1425408745.471,-17.92299
1425408745.487,-16.59697
1425408745.503,-15.61093
1425408745.518,-14.853669
1425408745.534,-13.959884
1425408745.55,-12.524661
1425408745.565,-10.172297
1425408745.581,-6.768072
1425408745.596,-2.451746
1425408745.612,2.4672117
1425408745.628,7.573599
1425408745.643,12.437073
1425408745.659,16.72452
1425408745.675,20.27384
1425408745.69,23.15849
1425408745.706,25.729752
1425408745.721,28.581284
1425408745.737,32.317326
1425408745.753,37.318283
1425408745.768,43.39595
1425408745.784,49.68827
1425408745.8,54.73782
1425408745.815,56.94593
1425408745.831,55.059975
1425408745.846,48.682343
1425408745.862,38.459415
1425408745.878,25.917965
1425408745.893,12.941591
1425408745.909,1.2360325
1425408745.925,-8.182505
1425408745.94,-15.131968
1425408745.956,-20.079035
1425408745.971,-23.739666
1425408745.987,-26.633488
1425408746.003,-28.943367
1425408746.018,-30.553043
1425408746.034,-31.329771
1425408746.05,-31.332325
1425408746.065,-30.891325
1425408746.081,-30.431978
1425408746.096,-30.252716
1425408746.112,-30.376581
1425408746.128,-30.566278
1425408746.143,-30.483652
1425408746.159,-29.883055
1425408746.175,-28.75815
1425408746.19,-27.24277
1425408746.206,-25.523844
1425408746.221,-23.753635
1425408746.237,-21.954435
1425408746.253,-20.053986
1425408746.268,-17.949503
1425408746.284,-15.4814
1425408746.3,-12.574362
1425408746.315,-9.19039
1425408746.331,-5.3808823
1425408746.346,-1.2648563
1425408746.362,3.0344315
1425408746.378,7.4357224
1425408746.393,11.876923
1425408746.409,16.294613
1425408746.425,20.63654
1425408746.44,24.85963
1425408746.456,29.01519
1425408746.471,33.32721
1425408746.487,38.097733
1425408746.503,43.56289
1425408746.518,49.617634
1425408746.534,55.64783
1425408746.55,60.539986
1425408746.565,62.981926
1425408746.581,61.79342
1425408746.596,56.38132
1425408746.612,47.028957
1425408746.628,34.84466
1425408746.643,21.539024
1425408746.659,8.9439125
1425408746.675,-1.5564613
1425408746.69,-9.365177
1425408746.706,-14.72374
1425408746.721,-18.41283
1425408746.737,-21.27354
1425408746.753,-23.819363
1425408746.768,-26.179695
1425408746.784,-28.20736
1425408746.8,-29.789215
1425408746.815,-30.959415
1425408746.831,-31.910671
1425408746.846,-32.771503
1425408746.862,-33.557617
1425408746.878,-34.130848
1425408746.893,-34.33109
1425408746.909,-34.096912
1425408746.925,-33.402565
1425408746.94,-32.264503
1425408746.956,-30.679657
1425408746.971,-28.682076
1425408746.987,-26.365932
1425408747.003,-23.991299
1425408747.018,-21.816803
1425408747.034,-19.973038
1425408747.05,-18.332478
1425408747.065,-16.49054
1425408747.081,-13.99902
1425408747.096,-10.522247
1425408747.112,-6.0074654
1425408747.128,-0.6779938
1425408747.143,5.001549
1425408747.159,10.532909
1425408747.175,15.5240555
1425408747.19,19.767677
1425408747.206,23.371872
1425408747.221,26.723877
1425408747.237,30.387867
1425408747.253,34.920593
1425408747.268,40.62184
1425408747.284,47.245388
1425408747.3,54.016785
1425408747.315,59.662117
1425408747.331,62.689873
1425408747.346,61.842793
1425408747.362,56.475094
1425408747.378,46.902264
1425408747.393,34.35739
1425408747.409,20.711403
1425408747.425,7.903595
1425408747.44,-2.5871277
1425408747.456,-10.1434555
1425408747.471,-15.079781
1425408747.487,-18.23433
1425408747.503,-20.568886
1425408747.518,-22.76316
1425408747.534,-25.045746
1425408747.55,-27.282211
1425408747.565,-29.268509
1425408747.581,-30.900734
1425408747.596,-32.262573
1425408747.612,-33.543854
1425408747.628,-34.867393
1425408747.643,-36.177742
1425408747.659,-37.203545
1425408747.675,-37.52952
1425408747.69,-36.849915
1425408747.706,-35.145485
1425408747.721,-32.725563
1425408747.737,-30.14814
1425408747.753,-27.915848
1425408747.768,-26.202332
1425408747.784,-24.699104
1425408747.8,-22.775978
1425408747.815,-19.778412
1425408747.831,-15.412369
1425408747.846,-9.938568
1425408747.862,-4.0815964
1425408747.878,1.3441391
1425408747.893,5.7884064
1425408747.909,9.227219
1425408747.925,12.092148
1425408747.94,15.085487
1425408747.956,18.811111
1425408747.972,23.629295
1425408747.987,29.52546
1425408748.003,36.22435
1425408748.018,43.212006
1425408748.034,49.731567
1425408748.05,54.820663
1425408748.065,57.406487
1425408748.081,56.53482
1425408748.097,51.679253
1425408748.112,43.06408
1425408748.128,31.677856
1425408748.143,19.0597
1425408748.159,6.835289
1425408748.175,-3.712883
1425408748.19,-11.934685
1425408748.206,-17.80101
1425408748.222,-21.667084
1425408748.237,-23.99797
1425408748.253,-25.146149
1425408748.268,-25.375526
1425408748.284,-24.969917
1425408748.3,-24.279617
1425408748.315,-23.76152
1425408748.331,-23.803116
1425408748.347,-24.586761
1425408748.362,-26.008629
1425408748.378,-27.704529
1425408748.393,-29.22496
1425408748.409,-30.17434
1425408748.425,-30.33921
1425408748.44,-29.70021
1425408748.456,-28.436737
1425408748.472,-26.73964
1425408748.487,-24.787651
1425408748.503,-22.635635
1425408748.518,-20.209114
1425408748.534,-17.28585
1425408748.55,-13.662193
1425408748.565,-9.262718
1425408748.581,-4.23275
1425408748.597,1.0304642
1425408748.612,6.033943
1425408748.628,10.403847
1425408748.643,14.018013
1425408748.659,17.15142
1425408748.675,20.336761
1425408748.69,24.22927
1425408748.706,29.361366
1425408748.722,35.91854
1425408748.737,43.547035
1425408748.753,51.319443
1425408748.768,57.787903
1425408748.784,61.331467
1425408748.8,60.621758
1425408748.815,55.12581
1425408748.831,45.3612
1425408748.847,32.794518
1425408748.862,19.415413
1425408748.878,7.0889587
1425408748.893,-2.9870148
1425408748.909,-10.484505
1425408748.925,-15.827904
1425408748.94,-19.745491
1425408748.956,-22.901878
1425408748.972,-25.571823
1425408748.987,-27.673027
1425408749.003,-28.964478
1425408749.018,-29.34822
1425408749.034,-28.995346
1425408749.05,-28.353447
1425408749.065,-27.956726
1425408749.081,-28.169945
1425408749.097,-29.008034
1425408749.112,-30.197792
1425408749.128,-31.274155
1425408749.143,-31.841827
1425408749.159,-31.676804
1425408749.175,-30.727783
1425408749.19,-29.064835
1425408749.206,-26.803207
1425408749.222,-24.02533
1425408749.237,-20.819359
1425408749.253,-17.235428
1425408749.268,-13.32473
1425408749.284,-9.065163
1425408749.3,-4.4760895
1425408749.315,0.35902405
1425408749.331,5.233238
1425408749.347,9.855515
1425408749.362,14.025986
1425408749.378,17.765259
1425408749.393,21.314438
1425408749.409,25.089172
1425408749.425,29.454185
1425408749.44,34.622986
1425408749.456,40.583282
1425408749.472,47.119873
1425408749.487,53.744377
1425408749.503,59.656723
1425408749.518,63.71997
1425408749.534,64.657906
1425408749.55,61.428055
1425408749.565,53.714195
1425408749.581,42.211487
1425408749.597,28.548271
1425408749.612,14.833069
1425408749.628,2.9197617
1425408749.643,-6.131485
1425408749.659,-12.250023
1425408749.675,-16.158707
1425408749.69,-18.873543
1425408749.706,-21.22953
1425408749.722,-23.59539
1425408749.737,-25.864594
1425408749.753,-27.729568
1425408749.768,-28.977196
1425408749.784,-29.69728
1425408749.8,-30.253357
1425408749.815,-31.07132
1425408749.831,-32.38054
1425408749.847,-34.041176
1425408749.862,-35.651093
1425408749.878,-36.702065
1425408749.893,-36.895058
1425408749.909,-36.22023
1425408749.925,-34.90631
1425408749.94,-33.219513
1425408749.956,-31.315414
1425408749.972,-29.150269
1425408749.987,-26.561432
1425408750.003,-23.382683
1425408750.018,-19.56086
1425408750.034,-15.145233
1425408750.05,-10.300537
1425408750.065,-5.231064
1425408750.081,-0.19766998
1425408750.097,4.549202
1425408750.112,8.847107
1425408750.128,12.674568
1425408750.143,16.128998
1425408750.159,19.454712
1425408750.175,22.941116
1425408750.19,26.907059
1425408750.206,31.651047
1425408750.222,37.434303
1425408750.237,44.28933
1425408750.253,51.877975
1425408750.268,59.258743
1425408750.284,64.9917
1425408750.3,67.45691
1425408750.315,65.40992
1425408750.331,58.493614
1425408750.347,47.45498
1425408750.362,33.97
1425408750.378,20.047142
1425408750.393,7.4504547
1425408750.409,-2.7806396
1425408750.425,-10.471138
1425408750.44,-16.069817
1425408750.456,-20.324387
1425408750.472,-23.863533
1425408750.487,-26.973663
1425408750.503,-29.604446
1425408750.518,-31.568726
1425408750.534,-32.73349
1425408750.55,-33.222557
1425408750.565,-33.34127
1425408750.581,-33.459137
1425408750.597,-33.77217
1425408750.612,-34.241005
1425408750.628,-34.60038
1425408750.644,-34.588074
1425408750.659,-34.070114
1425408750.675,-33.115807
1425408750.69,-31.885971
1425408750.706,-30.512054
1425408750.722,-28.994331
1425408750.737,-27.204506
1425408750.753,-24.954071
1425408750.768,-22.136848
1425408750.784,-18.743973
1425408750.8,-14.889427
1425408750.815,-10.702827
1425408750.831,-6.3153534
1425408750.847,-1.8479843
1425408750.862,2.6185074
1425408750.878,6.973648
1425408750.894,11.103859
1425408750.909,14.908531
1425408750.925,18.374321
1425408750.94,21.587944
1425408750.956,24.80803
1425408750.972,28.416908
1425408750.987,32.84436
1425408751.003,38.391243
1425408751.019,45.008972
1425408751.034,52.158195
1425408751.05,58.75477
1425408751.065,63.3321
1425408751.081,64.40396
1425408751.097,60.944595
1425408751.112,52.792305
1425408751.128,40.842087
1425408751.144,26.80722
1425408751.159,12.781708
1425408751.175,0.52518463
1425408751.19,-8.972786
1425408751.206,-15.630882
1425408751.222,-20.038986
1425408751.237,-22.987015
1425408751.253,-25.030098
1425408751.269,-26.386116
1425408751.284,-27.057999
1425408751.3,-27.061333
1425408751.315,-26.654877
1425408751.331,-26.277855
1425408751.347,-26.386375
1425408751.362,-27.267632
1425408751.378,-28.857689
1425408751.394,-30.8667
1425408751.409,-32.85659
1425408751.425,-34.370705
1425408751.44,-35.063393
1425408751.456,-34.79711
1425408751.472,-33.61846
1425408751.487,-31.79358
1425408751.503,-29.685104
1425408751.519,-27.596771
1425408751.534,-25.597519
1425408751.55,-23.46939
1425408751.565,-20.84253
1425408751.581,-17.367455
1425408751.597,-12.988815
1425408751.612,-7.952812
1425408751.628,-2.7207565
1425408751.644,2.2399673
1425408751.659,6.6920547
1425408751.675,10.720795
1425408751.69,14.649857
1425408751.706,18.900932
1425408751.722,23.878593
1425408751.737,29.817413
1425408751.753,36.72757
1425408751.769,44.309647
1425408751.784,51.855515
1425408751.8,58.299202
1425408751.815,62.333588
1425408751.831,62.711113
1425408751.847,58.641052
1425408751.862,50.15319
1425408751.878,38.2015
1425408751.894,24.487732
1425408751.909,10.94503
1425408751.925,-0.77950287
1425408751.94,-9.757324
1425408751.956,-15.892319
1425408751.972,-19.721138
1425408751.987,-22.023117
1425408752.003,-23.461014
1425408752.019,-24.424973
1425408752.034,-25.042145
1425408752.05,-25.317696
1425408752.065,-25.302864
1425408752.081,-25.141586
1425408752.097,-25.046997
1425408752.112,-25.262016
1425408752.128,-25.89016
1425408752.144,-26.884972
1425408752.159,-28.004646
1425408752.175,-28.815788
1425408752.19,-28.842728
1425408752.206,-27.769821
1425408752.222,-25.588173
1425408752.237,-22.650658
1425408752.253,-19.554749
1425408752.269,-16.840996
1425408752.284,-14.710564
1425408752.3,-12.966244
1425408752.315,-11.080132
1425408752.331,-8.529266
1425408752.347,-5.0632515
1425408752.362,-0.82268524
1425408752.378,3.7673721
1425408752.394,8.255173
1425408752.409,12.361458
1425408752.425,16.076458
1425408752.44,19.588966
1425408752.456,23.13182
1425408752.472,26.941887
1425408752.487,31.205944
1425408752.503,36.12323
1425408752.519,41.83655
1425408752.534,48.35306
1425408752.55,55.309906
1425408752.565,61.803883
1425408752.581,66.41909
1425408752.597,67.60335
1425408752.612,64.14972
1425408752.628,55.804214
1425408752.644,43.51641
1425408752.659,29.219276
1425408752.675,15.231972
1425408752.69,3.473545
1425408752.706,-5.11887
1425408752.722,-10.716801
1425408752.737,-14.272636
1425408752.753,-16.964355
1425408752.769,-19.665115
1425408752.784,-22.670883
1425408752.8,-25.81852
1425408752.815,-28.680023
1425408752.831,-30.931599
1425408752.847,-32.41497
1425408752.862,-33.209328
1425408752.878,-33.52285
1425408752.894,-33.57364
1425408752.909,-33.519413
1425408752.925,-33.3906
1425408752.94,-33.106113
1425408752.956,-32.55331
1425408752.972,-31.620216
1425408752.987,-30.274078
1425408753.003,-28.562897
1425408753.019,-26.569107
1425408753.034,-24.343697
1425408753.05,-21.913017
1425408753.065,-19.20681
1425408753.081,-16.15971
1425408753.097,-12.677036
1425408753.112,-8.695694
1425408753.128,-4.2060623
1425408753.144,0.6734543
1425408753.159,5.714241
1425408753.175,10.602615
1425408753.19,15.031303
1425408753.206,18.82566
1425408753.222,22.041672
1425408753.237,24.960442
1425408753.253,28.03563
1425408753.269,31.78263
1425408753.284,36.64538
1425408753.3,42.801193
1425408753.316,49.97547
1425408753.331,57.234253
1425408753.347,63.076584
1425408753.362,65.73446
1425408753.378,63.76793
1425408753.394,56.64897
1425408753.409,45.121117
1425408753.425,31.019035
1425408753.44,16.678932
1425408753.456,4.1287384
1425408753.472,-5.486145
1425408753.487,-12.068947
1425408753.503,-16.340668
1425408753.519,-19.349121
1425408753.534,-21.995987
1425408753.55,-24.80194
1425408753.566,-27.872269
1425408753.581,-31.008286
1425408753.597,-33.892296
1425408753.612,-36.258514
1425408753.628,-37.949463
1425408753.644,-38.961487
1425408753.659,-39.40162
1425408753.675,-39.349297
1425408753.691,-38.846626
1425408753.706,-37.881584
1425408753.722,-36.454796
1425408753.737,-34.56981
1425408753.753,-32.322433
1425408753.769,-29.81752
1425408753.784,-27.134537
1425408753.8,-24.32547
1425408753.816,-21.355278
1425408753.831,-18.180496
1425408753.847,-14.706703
