1435100691.265,0.0
1435100691.281,0.0
1435100691.297,0.0
1435100691.312,0.0
1435100691.328,0.0
1435100691.344,0.0
1435100691.359,0.0
1435100691.375,0.0
1435100691.39,0.0
1435100691.406,0.0021714068
1435100691.422,-0.004679677
1435100691.437,-0.011532075
1435100691.453,-0.011650502
1435100691.469,0.0011578841
1435100691.484,0.02637601
1435100691.5,0.051598266
1435100691.515,0.052326974
1435100691.531,-0.0014760535
1435100691.547,-0.13209851
1435100691.562,-0.35932234
1435100691.578,-0.6629231
1435100691.594,-1.0098805
1435100691.609,-1.3634605
1435100691.625,-1.7005652
1435100691.64,-2.0229442
1435100691.656,-2.3561954
1435100691.672,-2.736861
1435100691.687,-3.188933
1435100691.703,-3.7475042
1435100691.719,-4.3728647
1435100691.734,-5.0128136
1435100691.75,-5.611888
1435100691.765,-6.1388583
1435100691.781,-6.605353
1435100691.797,-7.064905
1435100691.812,-7.5909743
1435100691.828,-8.228425
1435100691.844,-9.070423
1435100691.859,-10.023517
1435100691.875,-10.973442
1435100691.89,-11.802113
1435100691.906,-12.457001
1435100691.922,-12.999482
1435100691.937,-13.602016
1435100691.953,-14.487928
1435100691.969,-15.808886
1435100691.984,-17.781431
1435100692,-20.1974
1435100692.015,-22.773075
1435100692.031,-25.20428
1435100692.047,-27.329441
1435100692.062,-29.240667
1435100692.078,-31.277111
1435100692.094,-33.891922
1435100692.109,-37.403614
1435100692.125,-42.17183
1435100692.14,-47.806786
1435100692.156,-53.747463
1435100692.172,-59.390026
1435100692.187,-64.38489
1435100692.203,-68.83092
1435100692.219,-73.25947
1435100692.234,-78.40298
1435100692.25,-84.79155
1435100692.265,-92.92376
1435100692.281,-102.22647
1435100692.297,-111.83911
1435100692.312,-120.83612
1435100692.328,-128.66214
1435100692.344,-135.4042
1435100692.359,-141.7615
1435100692.375,-149.10988
1435100692.39,-156.16272
1435100692.406,-165.14078
1435100692.422,-176.57092
1435100692.437,-190.49313
1435100692.453,-205.65546
1435100692.469,-219.11032
1435100692.484,-226.4975
1435100692.5,-223.18341
1435100692.515,-205.88252
1435100692.531,-173.90442
1435100692.547,-129.89497
1435100692.562,-77.91553
1435100692.578,-22.353958
1435100692.594,33.740387
1435100692.609,89.19699
1435100692.625,144.1908
1435100692.64,199.14572
1435100692.656,253.84222
1435100692.672,307.2756
1435100692.687,357.71432
1435100692.703,404.0117
1435100692.719,445.378
1435100692.734,481.2702
1435100692.75,510.9041
1435100692.765,532.9457
1435100692.781,545.6245
1435100692.797,547.1112
1435100692.812,536.2472
1435100692.828,512.7621
1435100692.844,477.8536
1435100692.859,433.64932
1435100692.875,382.825
1435100692.89,328.04388
1435100692.906,271.58096
1435100692.922,215.16046
1435100692.937,160.0162
1435100692.953,107.11417
1435100692.969,57.222748
1435100692.984,11.235962
1435100693,-30.010956
1435100693.016,-65.81766
1435100693.031,-95.76651
1435100693.047,-119.81888
1435100693.062,-138.31784
1435100693.078,-151.91788
1435100693.094,-161.42326
1435100693.109,-167.67944
1435100693.125,-171.34717
1435100693.141,-172.87944
1435100693.156,-172.49425
1435100693.172,-170.23611
1435100693.187,-166.09702
1435100693.203,-160.15102
1435100693.219,-152.66841
1435100693.234,-144.1297
1435100693.25,-135.15591
1435100693.266,-126.29654
1435100693.281,-117.9305
1435100693.297,-110.14356
1435100693.312,-102.74979
1435100693.328,-95.437004
1435100693.344,-87.87401
1435100693.359,-79.77185
1435100693.375,-70.92484
1435100693.391,-61.282753
1435100693.406,-51.18813
1435100693.422,-41.570564
1435100693.437,-33.925533
1435100693.453,-29.862389
1435100693.469,-30.404612
1435100693.484,-35.337563
1435100693.5,-43.07459
1435100693.516,-51.14519
1435100693.531,-57.2435
1435100693.547,-60.017258
1435100693.562,-59.409386
1435100693.578,-56.39499
1435100693.594,-52.27415
1435100693.609,-48.029297
1435100693.625,-44.05393
1435100693.641,-40.335876
1435100693.656,-36.79173
1435100693.672,-33.451225
1435100693.687,-30.461535
1435100693.703,-27.90791
1435100693.719,-25.717422
1435100693.734,-23.67854
1435100693.75,-21.587517
1435100693.766,-19.28537
1435100693.781,-16.764729
1435100693.797,-14.146988
1435100693.812,-11.62101
1435100693.828,-9.419823
1435100693.844,-7.7441635
1435100693.859,-6.6966286
1435100693.875,-6.2035904
1435100693.891,-6.001419
1435100693.906,-5.7285233
1435100693.922,-5.0973015
1435100693.937,-4.0152473
1435100693.953,-2.6100082
1435100693.969,-1.1714249
1435100693.984,0.04560852
1435100694,0.8753586
1435100694.016,1.3026009
1435100694.031,1.3617516
1435100694.047,1.0764465
1435100694.062,0.46448898
1435100694.078,-0.42882156
1435100694.094,-1.4718628
1435100694.109,-2.470253
1435100694.125,-3.1910477
1435100694.141,-3.5053291
1435100694.156,-3.3877792
1435100694.172,-2.909336
1435100694.187,-2.2206879
1435100694.203,-1.4680634
1435100694.219,-0.7717056
1435100694.234,-0.22663498
1435100694.25,0.13407135
1435100694.266,0.34796906
1435100694.281,0.48817444
1435100694.297,0.65522003
1435100694.312,0.91033936
1435100694.328,1.2328758
1435100694.344,1.5634727
1435100694.359,1.8059464
1435100694.375,1.8940773
1435100694.391,1.829876
1435100694.406,1.6612167
1435100694.422,1.4157181
1435100694.437,1.1398735
1435100694.453,0.8781204
1435100694.469,0.6791954
1435100694.484,0.6158638
1435100694.5,0.7390022
1435100694.516,1.0360641
1435100694.531,1.4168091
1435100694.547,1.7577896
1435100694.562,1.9467869
1435100694.578,1.9629364
1435100694.594,1.8791275
1435100694.609,1.8190365
1435100694.625,1.8935528
1435100694.641,2.0971203
1435100694.656,2.348072
1435100694.672,2.5104446
1435100694.687,2.497654
1435100694.703,2.2927914
1435100694.719,1.9890137
1435100694.734,1.7044563
1435100694.75,1.5158463
1435100694.766,1.4123592
1435100694.781,1.3563538
1435100694.797,1.2670174
1435100694.812,1.1399384
1435100694.828,1.0231915
1435100694.844,1.0195255
1435100694.859,1.1751919
1435100694.875,1.4845486
1435100694.891,1.8819199
1435100694.906,2.3152523
1435100694.922,2.714672
1435100694.937,3.0206585
1435100694.953,3.152708
1435100694.969,3.0193195
1435100694.984,2.5842
1435100695,1.946516
1435100695.016,1.3092041
1435100695.031,0.9302597
1435100695.047,1.0103264
1435100695.062,1.5450516
1435100695.078,2.3510933
1435100695.094,3.1151047
1435100695.109,3.4911594
1435100695.125,3.2640038
1435100695.141,2.3931732
1435100695.156,1.045454
1435100695.172,-0.49174118
1435100695.187,-1.8969936
1435100695.203,-2.9622612
1435100695.219,-3.5861454
1435100695.234,-3.80443
1435100695.25,-3.7144737
1435100695.266,-3.4305687
1435100695.281,-2.949997
1435100695.297,-2.2562103
1435100695.312,-1.3195953
1435100695.328,-0.19596481
1435100695.344,0.9721222
1435100695.359,1.9731903
1435100695.375,2.6472225
1435100695.391,2.946392
1435100695.406,2.9505482
1435100695.422,2.837389
1435100695.437,2.7836075
1435100695.453,2.8821697
1435100695.469,3.1284103
1435100695.484,3.4161968
1435100695.5,3.6124096
1435100695.516,3.6111221
1435100695.531,3.4360943
1435100695.547,3.1779175
1435100695.562,3.0026112
1435100695.578,3.005436
1435100695.594,3.1996193
1435100695.609,3.4977741
1435100695.625,3.7798252
1435100695.641,3.9288864
1435100695.656,3.8811588
1435100695.672,3.587986
1435100695.688,3.0169868
1435100695.703,2.1597118
1435100695.719,1.087017
1435100695.734,-0.09552765
1435100695.75,-1.2330456
1435100695.766,-2.2541275
1435100695.781,-3.1937962
1435100695.797,-4.218872
1435100695.812,-5.4547176
1435100695.828,-6.9359226
1435100695.844,-8.488882
1435100695.859,-9.820738
1435100695.875,-10.68285
1435100695.891,-11.03093
1435100695.906,-11.040834
1435100695.922,-11.03545
1435100695.938,-11.279293
1435100695.953,-11.845106
1435100695.969,-12.589556
1435100695.984,-13.275049
1435100696,-13.673639
1435100696.016,-13.733795
1435100696.031,-13.489227
1435100696.047,-13.025373
1435100696.063,-12.33321
1435100696.078,-11.338772
1435100696.094,-9.920082
1435100696.109,-8.036066
1435100696.125,-5.7763023
1435100696.141,-3.399908
1435100696.156,-1.0653267
1435100696.172,1.0625057
1435100696.188,2.9724083
1435100696.203,4.7361193
1435100696.219,6.411913
1435100696.234,7.94285
1435100696.25,9.157559
1435100696.266,9.82028
1435100696.281,9.809183
1435100696.297,9.144399
1435100696.313,8.057902
1435100696.328,6.862747
1435100696.344,5.8622465
1435100696.359,5.2220116
1435100696.375,4.9490976
1435100696.391,4.9354935
1435100696.406,5.04058
1435100696.422,5.1597795
1435100696.438,5.2524815
1435100696.453,5.32237
1435100696.469,5.360278
1435100696.484,5.339182
1435100696.5,5.2279196
1435100696.516,4.9889984
1435100696.531,4.63242
1435100696.547,4.170871
1435100696.563,3.6913104
1435100696.578,3.2507262
1435100696.594,2.8988495
1435100696.609,2.6154714
1435100696.625,2.3650465
1435100696.641,2.0636253
1435100696.656,1.674331
1435100696.672,1.2106309
1435100696.688,0.7485733
1435100696.703,0.39328623
1435100696.719,0.20969892
1435100696.734,0.21189368
1435100696.75,0.35545927
1435100696.766,0.521073
1435100696.781,0.63468766
1435100696.797,0.6470755
1435100696.813,0.55645245
1435100696.828,0.42034367
1435100696.844,0.28481764
1435100696.859,0.17425953
1435100696.875,0.10343048
1435100696.891,0.060646296
1435100696.906,0.04543519
1435100696.922,0.055290103
1435100696.938,0.1273098
1435100696.953,0.29230046
1435100696.969,0.55164266
1435100696.984,0.8396128
1435100697,1.0418441
1435100697.016,1.033646
1435100697.031,0.77736974
1435100697.047,0.33848965
1435100697.063,-0.08858168
1435100697.078,-0.28396583
1435100697.094,-0.10529268
1435100697.109,0.44580507
1435100697.125,1.2741745
1435100697.141,2.1708896
1435100697.156,2.9689894
1435100697.172,3.6110716
1435100697.188,4.1586337
1435100697.203,4.7476134
1435100697.219,5.5281034
1435100697.234,6.5730596
1435100697.25,7.8690124
1435100697.266,9.282149
1435100697.281,10.583318
1435100697.297,11.442824
1435100697.313,11.511394
1435100697.328,10.5197
1435100697.344,8.40468
1435100697.359,5.3556314
1435100697.375,1.7929857
1435100697.391,-1.8020109
1435100697.406,-5.0349145
1435100697.422,-7.71344
1435100697.438,-9.822798
1435100697.453,-11.4290495
1435100697.469,-12.575648
1435100697.484,-13.254083
1435100697.5,-13.441695
1435100697.516,-13.195353
1435100697.531,-12.649702
1435100697.547,-12.001537
1435100697.563,-11.406563
1435100697.578,-10.926245
1435100697.594,-10.522604
1435100697.609,-10.135866
1435100697.625,-9.731784
1435100697.641,-9.366093
1435100697.656,-9.114244
1435100697.672,-9.030022
1435100697.688,-9.082999
1435100697.703,-9.175402
1435100697.719,-9.169281
1435100697.734,-8.965174
1435100697.75,-8.513332
1435100697.766,-7.841048
1435100697.781,-7.0049124
1435100697.797,-6.091775
1435100697.813,-5.171608
1435100697.828,-4.296359
1435100697.844,-3.4659376
1435100697.859,-2.6584053
1435100697.875,-1.8152723
1435100697.891,-0.88866806
1435100697.906,0.1672163
1435100697.922,1.34025
1435100697.938,2.5835905
1435100697.953,3.8118877
1435100697.969,4.9475536
1435100697.984,5.924713
1435100698,6.7512417
1435100698.016,7.447895
1435100698.031,8.067204
1435100698.047,8.672916
1435100698.063,9.316219
1435100698.078,10.043343
1435100698.094,10.895363
1435100698.109,11.881384
1435100698.125,13.035395
1435100698.141,14.3673935
1435100698.156,15.891832
1435100698.172,17.603914
1435100698.188,19.461143
1435100698.203,21.321646
1435100698.219,22.96661
1435100698.234,24.099571
1435100698.25,24.42582
1435100698.266,23.730663
1435100698.281,21.943897
1435100698.297,19.161367
1435100698.313,15.613592
1435100698.328,11.606922
1435100698.344,7.487299
1435100698.359,3.56715
1435100698.375,0.114141464
1435100698.391,-2.7162266
1435100698.406,-4.861063
1435100698.422,-6.4019012
1435100698.438,-7.491337
1435100698.453,-8.344788
1435100698.469,-9.121231
1435100698.484,-9.915449
1435100698.5,-10.689289
1435100698.516,-11.355293
1435100698.531,-11.810909
1435100698.547,-11.985186
1435100698.563,-11.872309
1435100698.578,-11.53475
1435100698.594,-11.065606
1435100698.61,-10.586506
1435100698.625,-10.201247
1435100698.641,-9.985322
1435100698.656,-9.935171
1435100698.672,-9.981101
1435100698.688,-9.9935665
1435100698.703,-9.853679
1435100698.719,-9.469792
1435100698.735,-8.848044
1435100698.75,-8.05622
1435100698.766,-7.207946
1435100698.781,-6.3824244
1435100698.797,-5.600278
1435100698.813,-4.7873154
1435100698.828,-3.8434973
1435100698.844,-2.678667
1435100698.86,-1.2869673
1435100698.875,0.24913979
1435100698.891,1.7760429
1435100698.906,3.136548
1435100698.922,4.2533274
1435100698.938,5.162798
1435100698.953,6.001816
1435100698.969,6.933832
1435100698.985,8.050814
1435100699,9.356917
1435100699.016,10.73349
1435100699.031,12.040949
1435100699.047,13.165228
1435100699.063,14.103027
1435100699.078,14.920792
1435100699.094,15.729838
1435100699.11,16.619118
1435100699.125,17.644192
1435100699.141,18.806026
1435100699.156,20.083889
1435100699.172,21.407162
1435100699.188,22.645323
1435100699.203,23.560514
1435100699.219,23.842003
1435100699.235,23.145346
1435100699.25,21.20797
1435100699.266,17.961372
1435100699.281,13.597279
1435100699.297,8.55053
1435100699.313,3.4300983
1435100699.328,-1.1902325
1435100699.344,-4.889096
1435100699.36,-7.5293274
1435100699.375,-9.214867
1435100699.391,-10.212094
1435100699.406,-10.845509
1435100699.422,-11.386244
1435100699.438,-12.0107975
1435100699.453,-12.777151
1435100699.469,-13.650134
1435100699.485,-14.54463
1435100699.5,-15.358199
1435100699.516,-16.024456
1435100699.531,-16.515907
1435100699.547,-16.881943
1435100699.563,-17.16977
1435100699.578,-17.41951
1435100699.594,-17.61692
1435100699.61,-17.719261
1435100699.625,-17.665611
1435100699.641,-17.469082
1435100699.656,-17.161482
1435100699.672,-16.818726
1435100699.688,-16.465004
1435100699.703,-16.074318
1435100699.719,-15.564816
1435100699.735,-14.848122
1435100699.75,-13.887154
1435100699.766,-12.678736
1435100699.781,-11.25447
1435100699.797,-9.673491
1435100699.813,-7.9850216
1435100699.828,-6.276099
1435100699.844,-4.647498
1435100699.86,-3.2208195
1435100699.875,-2.0566978
1435100699.891,-1.1558084
1435100699.906,-0.4000616
1435100699.922,0.390018
1435100699.938,1.4049501
1435100699.953,2.7663832
1435100699.969,4.469251
1435100699.985,6.323918
1435100700,8.005948
1435100700.016,9.102192
1435100700.031,9.239422
1435100700.047,8.230506
1435100700.063,6.142384
1435100700.078,3.30643
1435100700.094,0.21670783
1435100700.11,-2.6737814
1435100700.125,-5.078314
1435100700.141,-6.9646983
1435100700.156,-8.4226
1435100700.172,-9.59307
1435100700.188,-10.522017
1435100700.203,-11.18862
1435100700.219,-11.552764
1435100700.235,-11.661295
1435100700.25,-11.652824
1435100700.266,-11.692988
1435100700.281,-11.866523
1435100700.297,-12.127558
1435100700.313,-12.3083
1435100700.328,-12.224143
1435100700.344,-11.774074
1435100700.36,-11.027632
1435100700.375,-10.156138
1435100700.391,-9.374039
1435100700.406,-8.81842
1435100700.422,-8.514946
1435100700.438,-8.340307
1435100700.453,-8.138775
1435100700.469,-7.7685947
1435100700.485,-7.195381
1435100700.5,-6.4905415
1435100700.516,-5.768694
1435100700.531,-5.142027
1435100700.547,-4.631706
1435100700.563,-4.1736946
1435100700.578,-3.6776276
1435100700.594,-3.0400734
1435100700.61,-2.206829
1435100700.625,-1.1711311
1435100700.641,-0.0023269653
1435100700.656,1.2109642
1435100700.672,2.3469238
1435100700.688,3.3155708
1435100700.703,4.0731544
1435100700.719,4.6635857
1435100700.735,5.1828804
1435100700.75,5.754284
1435100700.766,6.4766273
1435100700.781,7.414913
1435100700.797,8.546455
1435100700.813,9.787205
1435100700.828,11.048664
1435100700.844,12.24387
1435100700.86,13.344337
1435100700.875,14.398518
1435100700.891,15.476677
1435100700.906,16.641834
1435100700.922,17.835106
1435100700.938,18.881172
1435100700.953,19.46624
1435100700.969,19.269066
1435100700.985,18.102615
1435100701,16.002975
1435100701.016,13.232811
1435100701.031,10.160439
1435100701.047,7.1214294
1435100701.063,4.3159637
1435100701.078,1.7941742
1435100701.094,-0.44773865
1435100701.11,-2.3937073
1435100701.125,-3.9559326
1435100701.141,-5.0523148
1435100701.156,-5.648102
1435100701.172,-5.8507996
1435100701.188,-5.8573837
1435100701.203,-5.890465
1435100701.219,-6.066147
1435100701.235,-6.358513
1435100701.25,-6.6300354
1435100701.266,-6.738785
1435100701.282,-6.6313477
1435100701.297,-6.3768005
1435100701.313,-6.1164246
1435100701.328,-5.9654617
1435100701.344,-5.954094
1435100701.36,-6.031418
1435100701.375,-6.056122
1435100701.391,-5.934059
1435100701.407,-5.6012573
1435100701.422,-5.0944214
1435100701.438,-4.5030594
1435100701.453,-3.949997
1435100701.469,-3.5311584
1435100701.485,-3.296959
1435100701.5,-3.1841583
1435100701.516,-3.056015
1435100701.532,-2.735794
1435100701.547,-2.0939255
1435100701.563,-1.1110992
1435100701.578,0.10668945
1435100701.594,1.4083862
1435100701.61,2.657364
1435100701.625,3.8304138
1435100701.641,4.9425507
1435100701.657,6.0588837
1435100701.672,7.1744003
1435100701.688,8.23246
1435100701.703,9.175995
1435100701.719,9.992691
1435100701.735,10.729469
1435100701.75,11.480759
1435100701.766,12.310646
1435100701.782,13.192711
1435100701.797,14.033386
1435100701.813,14.731911
1435100701.828,15.244934
1435100701.844,15.61731
1435100701.86,15.911537
1435100701.875,16.18515
1435100701.891,16.42418
1435100701.907,16.596283
1435100701.922,16.68554
1435100701.938,16.719887
1435100701.953,16.744034
1435100701.969,16.755669
1435100701.985,16.650032
1435100702,16.23433
1435100702.016,15.298378
1435100702.032,13.714424
1435100702.047,11.520554
1435100702.063,8.93367
1435100702.078,6.2445602
1435100702.094,3.751976
1435100702.11,1.6251297
1435100702.125,-0.08180237
1435100702.141,-1.4620514
1435100702.157,-2.6138077
1435100702.172,-3.6221924
1435100702.188,-4.5221252
1435100702.203,-5.2626114
1435100702.219,-5.767914
1435100702.235,-6.0059586
1435100702.25,-6.0149765
1435100702.266,-5.9248047
1435100702.282,-5.919136
1435100702.297,-6.130455
1435100702.313,-6.5940704
1435100702.328,-7.241562
1435100702.344,-7.9149323
1435100702.36,-8.474243
1435100702.375,-8.820442
1435100702.391,-8.957626
1435100702.407,-8.93615
1435100702.422,-8.829712
1435100702.438,-8.676842
1435100702.453,-8.511543
1435100702.469,-8.38018
1435100702.485,-8.32885
1435100702.5,-8.387802
1435100702.516,-8.551041
1435100702.532,-8.734886
1435100702.547,-8.813385
1435100702.563,-8.693459
1435100702.578,-8.370453
1435100702.594,-7.9050064
1435100702.61,-7.425308
1435100702.625,-7.0107193
1435100702.641,-6.691475
1435100702.657,-6.4182587
1435100702.672,-6.1027145
1435100702.688,-5.6555405
1435100702.703,-5.018982
1435100702.719,-4.170128
1435100702.735,-3.1100235
1435100702.75,-1.8351059
1435100702.766,-0.35282898
1435100702.782,1.3221588
1435100702.797,3.1322327
1435100702.813,4.9807587
1435100702.828,6.712738
1435100702.844,8.150406
1435100702.86,9.105225
1435100702.875,9.447556
1435100702.891,9.10762
1435100702.907,8.145935
1435100702.922,6.707657
1435100702.938,5.006912
1435100702.953,3.241928
1435100702.969,1.5700836
1435100702.985,0.095062256
1435100703,-1.1277924
1435100703.016,-2.0742798
1435100703.032,-2.716751
1435100703.047,-3.0484314
1435100703.063,-3.0618744
1435100703.078,-2.7838593
1435100703.094,-2.2828674
1435100703.11,-1.6768799
1435100703.125,-1.0959167
1435100703.141,-0.65348816
1435100703.157,-0.4003601
1435100703.172,-0.32487488
1435100703.188,-0.35717773
1435100703.203,-0.42033386
1435100703.219,-0.48580933
1435100703.235,-0.57637024
1435100703.25,-0.7337799
1435100703.266,-0.9954529
1435100703.282,-1.3173981
1435100703.297,-1.6255951
1435100703.313,-1.8112335
1435100703.328,-1.8261108
1435100703.344,-1.6777039
1435100703.36,-1.4291229
1435100703.375,-1.1318512
1435100703.391,-0.8161316
1435100703.407,-0.49700928
1435100703.422,-0.16508484
1435100703.438,0.1706543
1435100703.453,0.47268677
1435100703.469,0.7204895
1435100703.485,0.8904724
1435100703.5,0.99650574
1435100703.516,1.0777283
1435100703.532,1.1963196
1435100703.547,1.386673
1435100703.563,1.6800537
1435100703.578,2.0762787
1435100703.594,2.562439
1435100703.61,3.1308594
1435100703.625,3.806305
1435100703.641,4.625992
1435100703.657,5.6248474
1435100703.672,6.7886047
1435100703.688,8.028732
1435100703.703,9.226776
1435100703.719,10.290588
1435100703.735,11.215759
1435100703.75,12.110489
1435100703.766,13.126587
1435100703.782,14.3754425
1435100703.797,15.826965
1435100703.813,17.312683
1435100703.828,18.578201
1435100703.844,19.345383
1435100703.86,19.397003
1435100703.875,18.616959
1435100703.891,16.99939
1435100703.907,14.68277
1435100703.922,11.929733
1435100703.938,9.092911
1435100703.954,6.527069
1435100703.969,4.4851227
1435100703.985,3.0357208
1435100704,2.0600433
1435100704.016,1.3398743
1435100704.032,0.63668823
1435100704.047,-0.16020203
1435100704.063,-1.0269928
1435100704.079,-1.797348
1435100704.094,-2.2693481
1435100704.11,-2.3062897
1435100704.125,-1.9498901
1435100704.141,-1.3853302
1435100704.157,-0.9021301
1435100704.172,-0.7290039
1435100704.188,-0.9443512
1435100704.204,-1.4226074
1435100704.219,-1.9402313
1435100704.235,-2.2816772
1435100704.25,-2.3790436
1435100704.266,-2.291916
1435100704.282,-2.1583862
1435100704.297,-2.0377045
1435100704.313,-1.8922119
1435100704.329,-1.5746918
1435100704.344,-0.98109436
1435100704.36,-0.12608337
1435100704.375,0.8319855
1435100704.391,1.6735077
1435100704.407,2.2082977
1435100704.422,2.39711
1435100704.438,2.3662415
1435100704.454,2.3418045
1435100704.469,2.5305405
1435100704.485,3.0335007
1435100704.5,3.755272
1435100704.516,4.4650497
1435100704.532,4.9086227
1435100704.547,4.952774
1435100704.563,4.65831
1435100704.579,4.300186
1435100704.594,4.2146606
1435100704.61,4.660179
1435100704.625,5.6724625
1435100704.641,7.10244
1435100704.657,8.677307
1435100704.672,10.154167
1435100704.688,11.3824005
1435100704.704,12.340683
1435100704.719,13.0638275
1435100704.735,13.602669
1435100704.75,14.012665
1435100704.766,14.395988
1435100704.782,14.8478775
1435100704.797,15.457901
1435100704.813,16.189972
1435100704.829,16.844444
1435100704.844,17.087624
1435100704.86,16.55587
1435100704.875,15.017647
1435100704.891,12.491074
1435100704.907,9.232376
1435100704.922,5.6794357
1435100704.938,2.2527008
1435100704.954,-0.7550888
1435100704.969,-3.2582932
1435100704.985,-5.2983246
1435100705,-6.9869537
1435100705.016,-8.397491
1435100705.032,-9.521599
1435100705.047,-10.304176
1435100705.063,-10.730034
1435100705.079,-10.867676
1435100705.094,-10.887947
1435100705.11,-11.004684
1435100705.125,-11.392502
1435100705.141,-12.0934105
1435100705.157,-13.006542
1435100705.172,-13.941139
1435100705.188,-14.738308
1435100705.204,-15.316463
1435100705.219,-15.707977
1435100705.235,-15.989197
1435100705.25,-16.239613
1435100705.266,-16.450024
1435100705.282,-16.563297
1435100705.297,-16.499775
1435100705.313,-16.190693
1435100705.329,-15.617569
1435100705.344,-14.800446
1435100705.36,-13.762547
1435100705.375,-12.526535
1435100705.391,-11.112587
1435100705.407,-9.575005
1435100705.422,-7.962242
1435100705.438,-6.346672
1435100705.454,-4.7581673
1435100705.469,-3.2058945
1435100705.485,-1.6616325
1435100705.5,-0.11476135
1435100705.516,1.4166489
1435100705.532,2.876442
1435100705.547,4.22278
1435100705.563,5.4446754
1435100705.579,6.5956745
1435100705.594,7.7661724
1435100705.61,9.063229
1435100705.625,10.541279
1435100705.641,12.204741
1435100705.657,13.982422
1435100705.672,15.743088
1435100705.688,17.262762
1435100705.704,18.30501
1435100705.719,18.599264
1435100705.735,17.943554
1435100705.75,16.236923
1435100705.766,13.514988
1435100705.782,9.954957
1435100705.797,5.868396
1435100705.813,1.6284122
1435100705.829,-2.3797302
1435100705.844,-5.8305836
1435100705.86,-8.474861
1435100705.875,-10.212684
1435100705.891,-11.086232
1435100705.907,-11.314528
1435100705.922,-11.200275
1435100705.938,-11.067318
1435100705.954,-11.140806
1435100705.969,-11.523198
1435100705.985,-12.158886
1435100706,-12.915904
1435100706.016,-13.637775
1435100706.032,-14.219382
1435100706.047,-14.620879
1435100706.063,-14.867009
1435100706.079,-15.016318
1435100706.094,-15.121201
1435100706.11,-15.203672
1435100706.125,-15.254223
1435100706.141,-15.225162
1435100706.157,-15.080087
1435100706.172,-14.782234
1435100706.188,-14.334927
1435100706.204,-13.7562275
1435100706.219,-13.083391
1435100706.235,-12.346363
1435100706.25,-11.522614
1435100706.266,-10.568201
1435100706.282,-9.452339
1435100706.297,-8.193497
1435100706.313,-6.9010315
1435100706.329,-5.7060356
1435100706.344,-4.730235
1435100706.36,-3.9793282
1435100706.375,-3.373889
1435100706.391,-2.7548351
1435100706.407,-2.0026054
1435100706.422,-1.0610142
1435100706.438,0.032330513
1435100706.454,1.2217789
1435100706.469,2.4523706
1435100706.485,3.7351103
1435100706.5,5.082054
1435100706.516,6.4928827
1435100706.532,7.9194994
1435100706.547,9.294924
1435100706.563,10.571238
1435100706.579,11.760653
1435100706.594,12.931749
1435100706.61,14.2078085
1435100706.626,15.70561
1435100706.641,17.53199
1435100706.657,19.69139
1435100706.672,22.087885
1435100706.688,24.441467
1435100706.704,26.335144
1435100706.719,27.287405
1435100706.735,26.88153
1435100706.75,24.89923
1435100706.766,21.43409
1435100706.782,16.85825
1435100706.797,11.721195
1435100706.813,6.5972977
1435100706.829,1.9608326
1435100706.844,-1.8950424
1435100706.86,-4.860771
1435100706.876,-6.9775352
1435100706.891,-8.384058
1435100706.907,-9.302965
1435100706.922,-9.938007
1435100706.938,-10.484365
1435100706.954,-11.024786
1435100706.969,-11.544676
1435100706.985,-11.943941
1435100707.001,-12.120768
1435100707.016,-12.020285
1435100707.032,-11.686716
1435100707.047,-11.210819
1435100707.063,-10.703459
1435100707.079,-10.190891
1435100707.094,-9.674425
1435100707.11,-9.131325
1435100707.126,-8.615395
1435100707.141,-8.2273445
1435100707.157,-8.085211
1435100707.172,-8.190315
1435100707.188,-8.418827
1435100707.204,-8.542046
1435100707.219,-8.342468
1435100707.235,-7.763279
1435100707.251,-6.928581
1435100707.266,-6.062256
1435100707.282,-5.3520203
1435100707.297,-4.8313026
1435100707.313,-4.374447
1435100707.329,-3.780693
1435100707.344,-2.9279938
1435100707.36,-1.827198
1435100707.376,-0.628849
1435100707.391,0.5051842
1435100707.407,1.4401283
1435100707.422,2.2135353
1435100707.438,2.9177933
1435100707.454,3.6715698
1435100707.469,4.532879
1435100707.485,5.483223
1435100707.501,6.4256363
1435100707.516,7.2834854
1435100707.532,8.004108
1435100707.547,8.617802
1435100707.563,9.198822
1435100707.579,9.858582
1435100707.594,10.691513
1435100707.61,11.761478
1435100707.626,13.077129
1435100707.641,14.593353
1435100707.657,16.18417
1435100707.672,17.650639
1435100707.688,18.689663
1435100707.704,18.976528
1435100707.719,18.199047
1435100707.735,16.174564
1435100707.751,12.916977
1435100707.766,8.654766
1435100707.782,3.7925568
1435100707.797,-1.1533203
1435100707.813,-5.7112274
1435100707.829,-9.522327
1435100707.844,-12.423935
1435100707.86,-14.418789
1435100707.876,-15.647133
1435100707.891,-16.265598
1435100707.907,-16.418705
1435100707.922,-16.208164
1435100707.938,-15.742359
1435100707.954,-15.157295
1435100707.969,-14.642582
1435100707.985,-14.368633
1435100708.001,-14.435165
1435100708.016,-14.8190155
1435100708.032,-15.41354
1435100708.047,-16.059406
1435100708.063,-16.61409
1435100708.079,-16.969505
1435100708.094,-17.054989
1435100708.11,-16.81612
1435100708.126,-16.249786
1435100708.141,-15.389999
1435100708.157,-14.354584
1435100708.172,-13.278843
1435100708.188,-12.267593
1435100708.204,-11.348789
1435100708.219,-10.486229
1435100708.235,-9.613117
1435100708.251,-8.694771
1435100708.266,-7.724331
1435100708.282,-6.7254105
1435100708.297,-5.657852
1435100708.313,-4.457817
1435100708.329,-3.056118
1435100708.344,-1.463398
1435100708.36,0.2145195
1435100708.376,1.8048744
1435100708.391,3.1598396
1435100708.407,4.244377
1435100708.422,5.140724
1435100708.438,6.0001984
1435100708.454,6.988476
1435100708.469,8.158779
1435100708.485,9.471424
1435100708.501,10.81123
1435100708.516,12.082546
1435100708.532,13.260628
1435100708.547,14.42025
1435100708.563,15.629421
1435100708.579,16.899158
1435100708.594,18.0644
1435100708.61,18.826717
1435100708.626,18.807247
1435100708.641,17.735695
1435100708.657,15.525764
1435100708.672,12.318634
1435100708.688,8.475395
1435100708.704,4.446972
1435100708.719,0.637619
1435100708.735,-2.659626
1435100708.751,-5.32378
1435100708.766,-7.356411
1435100708.782,-8.86734
1435100708.797,-9.974907
1435100708.813,-10.800343
1435100708.829,-11.407284
1435100708.844,-11.822426
1435100708.86,-12.040215
1435100708.876,-12.070145
1435100708.891,-11.94981
1435100708.907,-11.750317
1435100708.922,-11.527103
1435100708.938,-11.323048
1435100708.954,-11.122826
1435100708.969,-10.889778
1435100708.985,-10.599136
1435100709.001,-10.2750435
1435100709.016,-9.974018
1435100709.032,-9.7875595
1435100709.047,-9.743713
1435100709.063,-9.799084
1435100709.079,-9.791832
1435100709.094,-9.540974
1435100709.11,-8.894669
1435100709.126,-7.8362274
1435100709.141,-6.4642334
1435100709.157,-4.966202
1435100709.172,-3.5046654
1435100709.188,-2.1893387
1435100709.204,-1.0340347
1435100709.219,-0.040763855
1435100709.235,0.7800789
1435100709.251,1.3884583
1435100709.266,1.7832184
1435100709.282,2.0208626
1435100709.298,2.2516174
1435100709.313,2.6635895
1435100709.329,3.3881721
1435100709.344,4.4215355
1435100709.36,5.6640434
1435100709.376,6.935562
1435100709.391,8.10865
1435100709.407,9.139011
1435100709.422,10.103243
1435100709.438,11.102356
1435100709.454,12.251062
1435100709.469,13.606215
1435100709.485,15.171257
1435100709.501,16.875143
1435100709.516,18.577284
1435100709.532,19.998865
1435100709.548,20.774708
1435100709.563,20.534695
1435100709.579,19.020224
1435100709.594,16.229406
1435100709.61,12.447126
1435100709.626,8.163107
1435100709.641,3.938589
1435100709.657,0.21741104
1435100709.673,-2.7668495
1435100709.688,-4.983967
1435100709.704,-6.5043755
1435100709.719,-7.4427967
1435100709.735,-7.884758
1435100709.751,-7.9253063
1435100709.766,-7.6750183
1435100709.782,-7.302397
1435100709.798,-6.9618587
1435100709.813,-6.7767715
1435100709.829,-6.766138
1435100709.844,-6.8791428
1435100709.86,-6.9946213
1435100709.876,-7.025646
1435100709.891,-6.931534
1435100709.907,-6.7330685
1435100709.923,-6.4792843
1435100709.938,-6.225914
1435100709.954,-5.995592
1435100709.969,-5.806286
1435100709.985,-5.664919
1435100710.001,-5.5942173
1435100710.016,-5.579939
1435100710.032,-5.6102905
1435100710.048,-5.634346
1435100710.063,-5.595951
1435100710.079,-5.453825
1435100710.094,-5.211685
1435100710.11,-4.8890896
1435100710.126,-4.532549
1435100710.141,-4.1403446
1435100710.157,-3.6798544
1435100710.173,-3.0991154
1435100710.188,-2.355421
1435100710.204,-1.4745378
1435100710.219,-0.55707073
1435100710.235,0.23769951
1435100710.251,0.75220585
1435100710.266,0.89384747
1435100710.282,0.6939659
1435100710.298,0.35825157
1435100710.313,0.17541504
1435100710.329,0.4369068
1435100710.344,1.2843037
1435100710.36,2.6638503
1435100710.376,4.3172
1435100710.391,5.9235787
1435100710.407,7.210809
1435100710.423,8.060873
1435100710.438,8.540416
1435100710.454,8.802538
1435100710.469,9.021267
1435100710.485,9.333172
1435100710.501,9.818151
1435100710.516,10.558609
1435100710.532,11.578484
1435100710.548,12.848548
1435100710.563,14.199413
1435100710.579,15.3509
1435100710.594,15.944961
1435100710.61,15.649392
1435100710.626,14.30027
1435100710.641,11.953523
1435100710.657,8.865305
1435100710.673,5.399209
1435100710.688,1.957301
1435100710.704,-1.154398
1435100710.719,-3.7566946
1435100710.735,-5.7829046
1435100710.751,-7.2885447
1435100710.766,-8.350479
1435100710.782,-9.094482
1435100710.798,-9.61404
1435100710.813,-9.998616
1435100710.829,-10.279108
1435100710.844,-10.491402
1435100710.86,-10.651046
1435100710.876,-10.80487
1435100710.891,-11.000167
1435100710.907,-11.296952
1435100710.923,-11.699747
1435100710.938,-12.153058
1435100710.954,-12.532696
1435100710.969,-12.703476
1435100710.985,-12.558859
1435100711.001,-12.100505
1435100711.016,-11.40011
1435100711.032,-10.604811
1435100711.048,-9.822584
1435100711.063,-9.115224
1435100711.079,-8.437783
1435100711.094,-7.693446
1435100711.11,-6.8047934
1435100711.126,-5.7491302
1435100711.141,-4.569723
1435100711.157,-3.3776512
1435100711.173,-2.2627316
1435100711.188,-1.2914648
1435100711.204,-0.4647827
1435100711.219,0.23595238
1435100711.235,0.8378315
1435100711.251,1.3451843
1435100711.266,1.7981529
1435100711.282,2.2343197
1435100711.298,2.7589493
1435100711.313,3.4455776
1435100711.329,4.3289185
1435100711.344,5.3412476
1435100711.36,6.370163
1435100711.376,7.302416
1435100711.391,8.124737
1435100711.407,8.950573
1435100711.423,9.949614
1435100711.438,11.246883
1435100711.454,12.842041
1435100711.469,14.529293
1435100711.485,15.98357
1435100711.501,16.83846
1435100711.516,16.86283
1435100711.532,15.98102
1435100711.548,14.332407
1435100711.563,12.148859
1435100711.579,9.708809
1435100711.594,7.241905
1435100711.61,4.9031315
1435100711.626,2.761469
1435100711.641,0.8483448
1435100711.657,-0.84589386
1435100711.673,-2.3413239
1435100711.688,-3.656971
1435100711.704,-4.7895355
1435100711.719,-5.7296486
1435100711.735,-6.4344254
1435100711.751,-6.869892
1435100711.766,-7.0173874
1435100711.782,-6.926811
1435100711.798,-6.6673965
1435100711.813,-6.3566246
1435100711.829,-6.0727425
1435100711.844,-5.85709
1435100711.86,-5.691025
1435100711.876,-5.5384254
1435100711.891,-5.3842125
1435100711.907,-5.2254906
1435100711.923,-5.096737
1435100711.938,-5.028309
1435100711.954,-4.9973984
1435100711.969,-4.93618
1435100711.985,-4.7566147
1435100712.001,-4.4192467
1435100712.016,-3.9499702
1435100712.032,-3.4866142
1435100712.048,-3.1398392
1435100712.063,-2.9434204
1435100712.079,-2.768242
1435100712.094,-2.3853302
1435100712.11,-1.5798264
1435100712.126,-0.32866287
1435100712.141,1.1701851
1435100712.157,2.5842896
1435100712.173,3.6108284
1435100712.188,4.1564484
1435100712.204,4.3839684
1435100712.22,4.5950775
1435100712.235,5.0910034
1435100712.251,5.9585648
1435100712.266,7.0745506
1435100712.282,8.187042
1435100712.298,9.104191
1435100712.313,9.771172
1435100712.329,10.322994
1435100712.345,10.98045
1435100712.36,11.942581
1435100712.376,13.30534
1435100712.391,15.033516
1435100712.407,17.005993
1435100712.423,19.043518
1435100712.438,20.924812
1435100712.454,22.37775
1435100712.47,23.077179
1435100712.485,22.678352
1435100712.501,20.939426
1435100712.516,17.869465
1435100712.532,13.77573
1435100712.548,9.263618
1435100712.563,5.0227585
1435100712.579,1.6354065
1435100712.595,-0.628685
1435100712.61,-1.8428535
1435100712.626,-2.321888
1435100712.641,-2.4454155
1435100712.657,-2.5051727
1435100712.673,-2.6322823
1435100712.688,-2.8318634
1435100712.704,-3.048397
1435100712.72,-3.268589
1435100712.735,-3.4522667
1435100712.751,-3.5926323
1435100712.766,-3.6481438
1435100712.782,-3.5958557
1435100712.798,-3.4557
1435100712.813,-3.3317986
1435100712.829,-3.3321762
1435100712.845,-3.563385
1435100712.86,-4.007286
1435100712.876,-4.5575066
1435100712.891,-5.048855
1435100712.907,-5.347992
1435100712.923,-5.4069786
1435100712.938,-5.269409
1435100712.954,-5.020012
1435100712.97,-4.716854
1435100712.985,-4.3826942
1435100713.001,-4.0068855
1435100713.016,-3.5766373
1435100713.032,-3.1256676
1435100713.048,-2.677311
1435100713.063,-2.2612572
1435100713.079,-1.8665009
1435100713.095,-1.4705067
1435100713.11,-1.0200157
1435100713.126,-0.5038395
1435100713.141,0.086372375
1435100713.157,0.7402916
1435100713.173,1.4421749
1435100713.188,2.170803
1435100713.204,2.907278
1435100713.22,3.627819
1435100713.235,4.35454
1435100713.251,5.105377
1435100713.266,5.909487
1435100713.282,6.7814846
1435100713.298,7.713255
1435100713.313,8.679871
1435100713.329,9.6840725
1435100713.345,10.7065525
1435100713.36,11.69825
1435100713.376,12.503792
1435100713.391,12.879768
1435100713.407,12.525593
1435100713.423,11.255278
1435100713.438,9.072256
1435100713.454,6.2050724
1435100713.47,3.0153713
1435100713.485,-0.12355614
1435100713.501,-2.9743404
1435100713.516,-5.439269
1435100713.532,-7.552684
1435100713.548,-9.357918
1435100713.563,-10.887274
1435100713.579,-12.106336
1435100713.595,-12.965093
1435100713.61,-13.36609
1435100713.626,-13.272962
1435100713.641,-12.722596
1435100713.657,-11.893138
1435100713.673,-11.03044
1435100713.688,-10.418884
1435100713.704,-10.23491
1435100713.72,-10.484739
1435100713.735,-11.000109
1435100713.751,-11.537778
1435100713.766,-11.893678
1435100713.782,-11.971849
1435100713.798,-11.777711
1435100713.813,-11.358524
1435100713.829,-10.752881
1435100713.845,-9.991692
1435100713.86,-9.091994
1435100713.876,-8.131201
1435100713.891,-7.1796713
1435100713.907,-6.308293
1435100713.923,-5.5272927
1435100713.938,-4.8175197
1435100713.954,-4.1369
1435100713.97,-3.4425802
1435100713.985,-2.6463447
1435100714.001,-1.6555204
1435100714.016,-0.37871933
1435100714.032,1.1871214
1435100714.048,2.903286
1435100714.063,4.524001
1435100714.079,5.818176
1435100714.095,6.6887684
1435100714.11,7.2581835
1435100714.126,7.777474
1435100714.141,8.526314
1435100714.157,9.631039
1435100714.173,11.07196
1435100714.188,12.69463
1435100714.204,14.330809
1435100714.22,15.814074
1435100714.235,16.997461
1435100714.251,17.684473
1435100714.266,17.644394
1435100714.282,16.651028
1435100714.298,14.603498
1435100714.313,11.595301
1435100714.329,7.9345717
1435100714.345,4.0474644
1435100714.36,0.40290356
1435100714.376,-2.6639285
1435100714.391,-4.959619
1435100714.407,-6.5009203
1435100714.423,-7.4327636
1435100714.438,-7.99687
1435100714.454,-8.431759
1435100714.47,-8.91703
1435100714.485,-9.498257
1435100714.501,-10.134129
1435100714.516,-10.693832
1435100714.532,-11.0619545
1435100714.548,-11.176737
1435100714.563,-11.07144
1435100714.579,-10.850668
1435100714.595,-10.645945
1435100714.61,-10.52721
1435100714.626,-10.493443
1435100714.641,-10.474956
1435100714.657,-10.398299
1435100714.673,-10.239523
1435100714.688,-10.033889
1435100714.704,-9.816628
1435100714.72,-9.604181
1435100714.735,-9.311045
1435100714.751,-8.831221
1435100714.766,-8.0633545
1435100714.782,-6.997765
1435100714.798,-5.711576
1435100714.813,-4.3745418
1435100714.829,-3.1584182
1435100714.845,-2.1927629
1435100714.86,-1.5190268
1435100714.876,-1.0924788
1435100714.892,-0.7974162
1435100714.907,-0.46783686
1435100714.923,0.08760786
1435100714.938,1.0082932
1435100714.954,2.3611112
1435100714.97,4.0649385
1435100714.985,5.9443784
1435100715.001,7.7610345
1435100715.017,9.331031
1435100715.032,10.574934
1435100715.048,11.53458
1435100715.063,12.31354
1435100715.079,13.047178
1435100715.095,13.856546
1435100715.11,14.878011
1435100715.126,16.21019
1435100715.142,17.889994
1435100715.157,19.809032
1435100715.173,21.66814
1435100715.188,22.99923
1435100715.204,23.298847
1435100715.22,22.200436
1435100715.235,19.657331
1435100715.251,15.9353285
1435100715.267,11.553135
1435100715.282,7.0725536
1435100715.298,2.9627066
1435100715.313,-0.5388293
1435100715.329,-3.358645
1435100715.345,-5.5321393
1435100715.36,-7.1158524
1435100715.376,-8.140785
1435100715.392,-8.646458
1435100715.407,-8.714778
1435100715.423,-8.490922
1435100715.438,-8.182991
1435100715.454,-7.9418797
1435100715.47,-7.8641624
1435100715.485,-7.9040446
1435100715.501,-7.9693565
1435100715.517,-7.9567037
1435100715.532,-7.8656454
1435100715.548,-7.754213
1435100715.563,-7.712886
1435100715.579,-7.763706
1435100715.595,-7.826579
1435100715.61,-7.766453
1435100715.626,-7.4681373
1435100715.642,-6.9173326
1435100715.657,-6.1976786
1435100715.673,-5.4339204
1435100715.688,-4.708513
1435100715.704,-4.027174
1435100715.72,-3.3709574
1435100715.735,-2.6929991
1435100715.751,-2.0294614
1435100715.767,-1.3966665
1435100715.782,-0.8118255
1435100715.798,-0.23329616
1435100715.813,0.37512684
1435100715.829,1.0601664
1435100715.845,1.8482845
1435100715.86,2.770685
1435100715.876,3.85067
1435100715.892,5.0787683
1435100715.907,6.3858657
1435100715.923,7.6454363
1435100715.938,8.69166
1435100715.954,9.435179
1435100715.97,9.89963
1435100715.985,10.231388
1435100716.001,10.5944805
1435100716.017,11.122553
1435100716.032,11.832878
1435100716.048,12.7227545
1435100716.063,13.803766
1435100716.079,15.10298
1435100716.095,16.578691
1435100716.11,18.01707
1435100716.126,18.97128
1435100716.142,18.926262
1435100716.157,17.477898
1435100716.173,14.545835
1435100716.188,10.421203
1435100716.204,5.662588
1435100716.22,0.87753105
1435100716.235,-3.4074316
1435100716.251,-6.9157505
1435100716.267,-9.583916
1435100716.282,-11.512705
1435100716.298,-12.857529
1435100716.313,-13.789656
1435100716.329,-14.411781
1435100716.345,-14.803415
1435100716.36,-14.985031
1435100716.376,-15.012472
1435100716.392,-14.962391
1435100716.407,-14.960773
1435100716.423,-15.076302
1435100716.438,-15.312767
1435100716.454,-15.558212
1435100716.47,-15.673376
1435100716.485,-15.572401
1435100716.501,-15.309517
1435100716.517,-15.027733
1435100716.532,-14.891233
1435100716.548,-14.957108
1435100716.563,-15.137716
1435100716.579,-15.242016
1435100716.595,-15.072432
1435100716.61,-14.499987
1435100716.626,-13.5381565
1435100716.642,-12.282003
1435100716.657,-10.872084
1435100716.673,-9.413139
1435100716.688,-7.978136
1435100716.704,-6.5586357
1435100716.72,-5.1598606
1435100716.735,-3.7662086
1435100716.751,-2.4111023
1435100716.767,-1.1501541
1435100716.782,-0.037820816
1435100716.798,0.9190407
1435100716.813,1.7672653
1435100716.829,2.6226673
1435100716.845,3.6203976
1435100716.86,4.852556
1435100716.876,6.3110466
1435100716.892,7.9006767
1435100716.907,9.490934
1435100716.923,11.004326
1435100716.938,12.439779
1435100716.954,13.860775
1435100716.97,15.313353
1435100716.985,16.762436
1435100717.001,18.0103
1435100717.017,18.744144
1435100717.032,18.60455
1435100717.048,17.334446
1435100717.063,14.867429
1435100717.079,11.406704
1435100717.095,7.3533325
1435100717.11,3.1973076
1435100717.126,-0.6328583
1435100717.142,-3.857479
1435100717.157,-6.380538
1435100717.173,-8.2283745
1435100717.188,-9.509252
1435100717.204,-10.32051
1435100717.22,-10.776946
1435100717.235,-10.937231
1435100717.251,-10.889278
1435100717.267,-10.704861
1435100717.282,-10.47938
1435100717.298,-10.292809
1435100717.313,-10.209721
1435100717.329,-10.271435
1435100717.345,-10.478766
1435100717.36,-10.7733965
1435100717.376,-11.069449
1435100717.392,-11.268078
1435100717.407,-11.280615
1435100717.423,-11.070448
1435100717.438,-10.66122
1435100717.454,-10.10571
1435100717.47,-9.494318
1435100717.485,-8.899801
1435100717.501,-8.395514
1435100717.517,-7.987857
1435100717.532,-7.658002
1435100717.548,-7.317294
1435100717.564,-6.888947
1435100717.579,-6.293894
1435100717.595,-5.4928775
1435100717.61,-4.461575
1435100717.626,-3.2192397
1435100717.642,-1.8102045
1435100717.657,-0.32696247
1435100717.673,1.1049261
1435100717.688,2.357585
1435100717.704,3.36058
1435100717.72,4.1330686
1435100717.735,4.8233676
1435100717.751,5.6135273
1435100717.767,6.665521
1435100717.782,8.00256
1435100717.798,9.533331
1435100717.814,11.069928
1435100717.829,12.467537
1435100717.845,13.663683
1435100717.86,14.714129
1435100717.876,15.744286
1435100717.892,16.897358
1435100717.907,18.283833
1435100717.923,19.942455
1435100717.939,21.809631
1435100717.954,23.679241
1435100717.97,25.171825
1435100717.985,25.839813
1435100718.001,25.241005
1435100718.017,23.166458
1435100718.032,19.70314
1435100718.048,15.294969
1435100718.064,10.550858
1435100718.079,6.0842905
1435100718.095,2.3151588
1435100718.11,-0.55485344
1435100718.126,-2.5619373
1435100718.142,-3.8555603
1435100718.157,-4.6349792
1435100718.173,-5.095806
1435100718.189,-5.423375
1435100718.204,-5.746603
1435100718.22,-6.131461
1435100718.235,-6.5810213
1435100718.251,-7.01873
1435100718.267,-7.348769
1435100718.282,-7.5149727
1435100718.298,-7.4792204
1435100718.314,-7.2943153
1435100718.329,-7.0417366
1435100718.345,-6.838381
1435100718.36,-6.7540483
1435100718.376,-6.8350487
1435100718.392,-7.0364313
1435100718.407,-7.2676163
1435100718.423,-7.426094
1435100718.439,-7.445985
1435100718.454,-7.2833214
1435100718.47,-6.9673805
1435100718.485,-6.5176783
1435100718.501,-5.956126
1435100718.517,-5.3098087
1435100718.532,-4.6137114
1435100718.548,-3.9421616
1435100718.564,-3.36347
1435100718.579,-2.9011106
1435100718.595,-2.5122938
1435100718.61,-2.0853891
1435100718.626,-1.5316296
1435100718.642,-0.7960882
1435100718.657,0.08509922
1435100718.673,1.0546722
1435100718.689,2.0600004
1435100718.704,3.0941973
1435100718.72,4.1645966
1435100718.735,5.246643
1435100718.751,6.274844
1435100718.767,7.1683416
1435100718.782,7.8687143
1435100718.798,8.410671
1435100718.814,8.910548
1435100718.829,9.533417
1435100718.845,10.411672
1435100718.86,11.629015
1435100718.876,13.14627
1435100718.892,14.856582
1435100718.907,16.53981
1435100718.923,17.904587
1435100718.939,18.599636
1435100718.954,18.298862
1435100718.97,16.790466
1435100718.985,14.072749
1435100719.001,10.388558
1435100719.017,6.1838293
1435100719.032,1.9713354
1435100719.048,-1.8363628
1435100719.064,-5.019985
1435100719.079,-7.5480294
1435100719.095,-9.501311
1435100719.11,-10.970768
1435100719.126,-12.015341
1435100719.142,-12.646477
1435100719.157,-12.930243
1435100719.173,-12.988727
1435100719.189,-13.004145
1435100719.204,-13.118462
1435100719.22,-13.387348
1435100719.235,-13.727163
1435100719.251,-14.015338
1435100719.267,-14.157116
1435100719.282,-14.15148
1435100719.298,-14.056534
1435100719.314,-13.944803
1435100719.329,-13.826334
1435100719.345,-13.650166
1435100719.36,-13.361127
1435100719.376,-12.983301
1435100719.392,-12.556843
1435100719.407,-12.101862
1435100719.423,-11.511975
1435100719.439,-10.589825
1435100719.454,-9.168352
1435100719.47,-7.2739954
1435100719.485,-5.1488185
1435100719.501,-3.2208333
1435100719.517,-1.8303471
1435100719.532,-1.0582409
1435100719.548,-0.68249226
1435100719.564,-0.33037758
1435100719.579,0.33406162
1435100719.595,1.4426775
1435100719.61,2.9249363
1435100719.626,4.6122284
1435100719.642,6.3488855
1435100719.657,8.054357
1435100719.673,9.713055
1435100719.689,11.30534
1435100719.704,12.821839
1435100719.72,14.250611
1435100719.735,15.633473
1435100719.751,17.010345
1435100719.767,18.355858
1435100719.782,19.500593
1435100719.798,20.207104
1435100719.814,20.197033
1435100719.829,19.285507
1435100719.845,17.409214
1435100719.86,14.681347
1435100719.876,11.313812
1435100719.892,7.6165476
1435100719.907,3.9457035
1435100719.923,0.6486635
1435100719.939,-1.9990282
1435100719.954,-3.8604689
1435100719.97,-4.9803514
1435100719.985,-5.477498
1435100720.001,-5.5276537
1435100720.017,-5.2903175
1435100720.032,-4.936057
1435100720.048,-4.589613
1435100720.064,-4.3485584
1435100720.079,-4.1917276
1435100720.095,-3.9869528
1435100720.11,-3.5494156
1435100720.126,-2.8006678
1435100720.142,-1.8285685
1435100720.157,-0.9258833
1435100720.173,-0.3695755
1435100720.189,-0.29685307
1435100720.204,-0.6018286
1435100720.22,-1.0314302
1435100720.236,-1.370616
1435100720.251,-1.5934181
1435100720.267,-1.8483219
1435100720.282,-2.316368
1435100720.298,-3.0188828
1435100720.314,-3.7724867
1435100720.329,-4.2723093
1435100720.345,-4.3195295
1435100720.36,-3.8771296
1435100720.376,-3.1249008
1435100720.392,-2.2800102
1435100720.407,-1.4979324
1435100720.423,-0.77905655
1435100720.439,-0.052048683
1435100720.454,0.7624121
1435100720.47,1.6529884
1435100720.486,2.5064468
1435100720.501,3.1938848
1435100720.517,3.6473207
1435100720.532,3.8770337
1435100720.548,4.0492954
1435100720.564,4.374751
1435100720.579,5.052045
1435100720.595,6.1728644
1435100720.611,7.736318
1435100720.626,9.610031
1435100720.642,11.652517
1435100720.657,13.669939
1435100720.673,15.467132
1435100720.689,16.807436
1435100720.704,17.401968
1435100720.72,16.973768
1435100720.736,15.370007
1435100720.751,12.647211
1435100720.767,9.114622
1435100720.782,5.2577024
1435100720.798,1.5902809
1435100720.814,-1.5411466
1435100720.829,-3.989506
1435100720.845,-5.828861
1435100720.861,-7.2235603
1435100720.876,-8.338676
1435100720.892,-9.264441
1435100720.907,-10.059922
1435100720.923,-10.714218
1435100720.939,-11.2259655
1435100720.954,-11.553837
1435100720.97,-11.63077
1435100720.986,-11.384771
1435100721.001,-10.828472
1435100721.017,-10.051904
1435100721.032,-9.26379
1435100721.048,-8.718773
1435100721.064,-8.613214
1435100721.079,-8.991144
1435100721.095,-9.724684
1435100721.111,-10.540592
1435100721.126,-11.149727
1435100721.142,-11.353338
1435100721.157,-11.09163
1435100721.173,-10.44228
1435100721.189,-9.554012
1435100721.204,-8.575541
1435100721.22,-7.631908
1435100721.236,-6.7916718
1435100721.251,-6.104442
1435100721.267,-5.582452
1435100721.282,-5.229616
1435100721.298,-5.0045247
1435100721.314,-4.8218727
1435100721.329,-4.563306
1435100721.345,-4.1063337
1435100721.361,-3.358892
1435100721.376,-2.3156128
1435100721.392,-1.0547075
1435100721.407,0.27075958
1435100721.423,1.5091753
1435100721.439,2.5709267
1435100721.454,3.4709969
1435100721.47,4.2821703
1435100721.486,5.1287565
1435100721.501,6.080774
1435100721.517,7.1526637
1435100721.532,8.284123
1435100721.548,9.420473
1435100721.564,10.507918
1435100721.579,11.564728
1435100721.595,12.651333
1435100721.611,13.822332
1435100721.626,15.075379
1435100721.642,16.329737
1435100721.657,17.443518
1435100721.673,18.27335
1435100721.689,18.662943
1435100721.704,18.45856
1435100721.72,17.464008
1435100721.736,15.529013
1435100721.751,12.541436
1435100721.767,8.608464
1435100721.782,4.048633
1435100721.798,-0.62980556
1435100721.814,-4.881152
1435100721.829,-8.283966
1435100721.845,-10.63404
1435100721.861,-11.9588375
1435100721.876,-12.435507
1435100721.892,-12.289677
1435100721.907,-11.762887
1435100721.923,-11.059606
1435100721.939,-10.418896
1435100721.954,-10.026323
1435100721.97,-9.985714
1435100721.986,-10.252766
1435100722.001,-10.670563
1435100722.017,-11.009716
1435100722.032,-11.094349
1435100722.048,-10.815161
1435100722.064,-10.156518
1435100722.079,-9.175549
1435100722.095,-8.003831
1435100722.111,-6.791688
1435100722.126,-5.7132874
1435100722.142,-4.8807025
1435100722.157,-4.312323
1435100722.173,-3.8906908
1435100722.189,-3.4404812
1435100722.204,-2.7950644
1435100722.22,-1.8771677
1435100722.236,-0.6250825
1435100722.251,0.9436517
1435100722.267,2.812448
1435100722.282,4.887768
1435100722.298,7.0139112
1435100722.314,8.964493
1435100722.329,10.509545
1435100722.345,11.5106325
1435100722.361,11.997916
1435100722.376,12.148574
1435100722.392,12.216335
1435100722.407,12.406823
1435100722.423,12.886804
1435100722.439,13.708715
1435100722.454,14.8513
1435100722.47,16.194042
1435100722.486,17.502857
1435100722.501,18.394638
1435100722.517,18.450394
1435100722.532,17.319798
1435100722.548,14.899626
1435100722.564,11.363375
1435100722.579,7.1194353
1435100722.595,2.657072
1435100722.611,-1.523797
1435100722.626,-5.0858965
1435100722.642,-7.83068
1435100722.657,-9.74928
1435100722.673,-10.955516
1435100722.689,-11.660079
1435100722.704,-12.079154
1435100722.72,-12.385646
1435100722.736,-12.6502905
1435100722.751,-12.855754
1435100722.767,-12.921949
1435100722.782,-12.7946615
1435100722.798,-12.466965
1435100722.814,-11.9884815
1435100722.829,-11.409032
1435100722.845,-10.77733
1435100722.861,-10.1214
1435100722.876,-9.494678
1435100722.892,-8.982471
1435100722.907,-8.69339
1435100722.923,-8.690884
1435100722.939,-8.952583
1435100722.954,-9.347103
1435100722.97,-9.6838255
1435100722.986,-9.750166
1435100723.001,-9.43414
1435100723.017,-8.737062
1435100723.032,-7.7863398
1435100723.048,-6.768235
1435100723.064,-5.8467875
1435100723.079,-5.1001368
1435100723.095,-4.512967
1435100723.111,-3.988864
1435100723.126,-3.4413385
1435100723.142,-2.8301573
1435100723.158,-2.1963987
1435100723.173,-1.6021843
1435100723.189,-1.0908155
1435100723.204,-0.60656834
1435100723.22,-0.026268959
1435100723.236,0.7900734
1435100723.251,1.918725
1435100723.267,3.3244495
1435100723.283,4.844857
1435100723.298,6.308441
1435100723.314,7.5585384
1435100723.329,8.571971
1435100723.345,9.417113
1435100723.361,10.250738
1435100723.376,11.215684
1435100723.392,12.421343
1435100723.408,13.89476
1435100723.423,15.608251
1435100723.439,17.432507
1435100723.454,19.169106
1435100723.47,20.524849
1435100723.486,21.19205
1435100723.501,20.890545
1435100723.517,19.476564
1435100723.533,16.989264
1435100723.548,13.64994
1435100723.564,9.806354
1435100723.579,5.855526
1435100723.595,2.1503105
1435100723.611,-1.0411568
1435100723.626,-3.5622501
1435100723.642,-5.362526
1435100723.658,-6.517297
1435100723.673,-7.172434
1435100723.689,-7.523052
1435100723.704,-7.7170525
1435100723.72,-7.831856
1435100723.736,-7.861246
1435100723.751,-7.774291
1435100723.767,-7.5565033
1435100723.783,-7.274596
1435100723.798,-7.023135
1435100723.814,-6.8954077
1435100723.829,-6.8987455
1435100723.845,-6.977214
1435100723.861,-7.0337133
1435100723.876,-7.0064545
1435100723.892,-6.8734665
1435100723.908,-6.647805
1435100723.923,-6.3077135
1435100723.939,-5.7943325
1435100723.954,-5.0296183
1435100723.97,-4.0414295
1435100723.986,-2.916193
1435100724.001,-1.8714218
1435100724.017,-1.1100998
1435100724.033,-0.73700905
1435100724.048,-0.7240734
1435100724.064,-0.91155815
1435100724.079,-1.0508442
1435100724.095,-0.8709297
1435100724.111,-0.13856697
1435100724.126,1.2673492
1435100724.142,3.3121166
1435100724.158,5.711199
1435100724.173,8.045847
1435100724.189,9.808123
1435100724.204,10.687115
1435100724.22,10.649202
1435100724.236,9.995239
1435100724.251,9.179968
1435100724.267,8.643597
1435100724.283,8.661179
1435100724.298,9.369503
1435100724.314,10.787598
1435100724.329,12.875404
1435100724.345,15.477783
1435100724.361,18.252989
1435100724.376,20.666504
1435100724.392,22.103577
1435100724.408,22.069944
1435100724.423,20.395742
1435100724.439,17.279305
1435100724.454,13.219004
1435100724.47,8.757086
1435100724.486,4.375355
1435100724.501,0.33433723
1435100724.517,-3.2506332
1435100724.533,-6.371557
1435100724.548,-9.028364
1435100724.564,-11.229969
1435100724.579,-12.975895
1435100724.595,-14.270443
1435100724.611,-15.142624
1435100724.626,-15.643898
1435100724.642,-15.816734
1435100724.658,-15.735256
1435100724.673,-15.415199
1435100724.689,-14.895744
1435100724.704,-14.205967
1435100724.72,-13.455547
1435100724.736,-12.787872
1435100724.751,-12.3833885
1435100724.767,-12.351345
1435100724.783,-12.695625
1435100724.798,-13.28112
1435100724.814,-13.905098
1435100724.829,-14.339977
1435100724.845,-14.424961
1435100724.861,-14.078846
1435100724.876,-13.31493
1435100724.892,-12.194168
1435100724.908,-10.814358
1435100724.923,-9.275181
1435100724.939,-7.674446
1435100724.954,-6.080509
1435100724.97,-4.5435944
1435100724.986,-3.0715218
1435100725.001,-1.6667519
1435100725.017,-0.2969017
1435100725.033,1.0441742
1435100725.048,2.4087868
1435100725.064,3.8374138
1435100725.079,5.384548
1435100725.095,7.0549927
1435100725.111,8.778683
1435100725.126,10.343807
1435100725.142,11.460007
1435100725.158,11.804146
1435100725.173,11.131565
1435100725.189,9.369198
1435100725.204,6.6758385
1435100725.22,3.3777199
1435100725.236,-0.06272888
1435100725.251,-3.2324448
1435100725.267,-5.8621407
1435100725.283,-7.8855247
1435100725.298,-9.381538
1435100725.314,-10.537735
1435100725.329,-11.460979
1435100725.345,-12.177376
1435100725.361,-12.6288185
1435100725.376,-12.771954
1435100725.392,-12.625332
1435100725.408,-12.305187
1435100725.423,-11.921604
1435100725.439,-11.526943
1435100725.454,-11.084923
1435100725.47,-10.533804
1435100725.486,-9.854158
1435100725.501,-9.149515
1435100725.517,-8.589947
1435100725.533,-8.361219
1435100725.548,-8.512934
1435100725.564,-8.93807
1435100725.579,-9.382648
1435100725.595,-9.582586
1435100725.611,-9.337061
1435100725.626,-8.625689
1435100725.642,-7.5492992
1435100725.658,-6.302246
1435100725.673,-5.0704823
1435100725.689,-3.972496
1435100725.704,-3.0276737
1435100725.72,-2.1865063
1435100725.736,-1.3532887
1435100725.751,-0.47210503
1435100725.767,0.45888042
1435100725.783,1.3706808
1435100725.798,2.2151117
1435100725.814,2.9622154
1435100725.83,3.6715527
1435100725.845,4.4299545
1435100725.861,5.32864
1435100725.876,6.3741655
1435100725.892,7.5308747
1435100725.908,8.6974125
1435100725.923,9.788671
1435100725.939,10.737957
1435100725.955,11.564028
1435100725.97,12.346119
1435100725.986,13.242525
1435100726.001,14.416001
1435100726.017,15.97813
1435100726.033,17.86692
1435100726.048,19.838575
1435100726.064,21.450369
1435100726.08,22.22484
1435100726.095,21.79549
1435100726.111,20.034977
1435100726.126,17.077065
1435100726.142,13.301789
1435100726.158,9.178499
1435100726.173,5.180973
1435100726.189,1.6652212
1435100726.205,-1.1647625
1435100726.22,-3.2942238
1435100726.236,-4.849839
1435100726.251,-6.0760784
1435100726.267,-7.2008753
1435100726.283,-8.384181
1435100726.298,-9.63
1435100726.314,-10.830085
1435100726.33,-11.798676
1435100726.345,-12.385945
1435100726.361,-12.491543
1435100726.376,-12.126986
1435100726.392,-11.397013
1435100726.408,-10.493864
1435100726.423,-9.630217
1435100726.439,-9.030796
1435100726.455,-8.818686
1435100726.47,-8.987711
1435100726.486,-9.383146
1435100726.501,-9.779137
1435100726.517,-9.958069
1435100726.533,-9.8374
1435100726.548,-9.422085
1435100726.564,-8.806795
1435100726.58,-8.060467
1435100726.595,-7.1989098
1435100726.611,-6.2011757
1435100726.626,-5.070112
1435100726.642,-3.8592968
1435100726.658,-2.6725845
1435100726.673,-1.5970783
1435100726.689,-0.6711273
1435100726.705,0.16556168
1435100726.72,1.0063972
1435100726.736,1.9704552
1435100726.751,3.07452
1435100726.767,4.2711143
1435100726.783,5.438793
1435100726.798,6.4761887
1435100726.814,7.3367577
1435100726.83,8.091423
1435100726.845,8.859776
1435100726.861,9.7616005
1435100726.876,10.833206
1435100726.892,12.0116005
1435100726.908,13.15181
1435100726.923,14.118359
1435100726.939,14.820316
1435100726.955,15.28978
1435100726.97,15.6305275
1435100726.986,16.013325
1435100727.001,16.565636
1435100727.017,17.377338
1435100727.033,18.443554
1435100727.048,19.664112
1435100727.064,20.83421
1435100727.08,21.689922
1435100727.095,21.936924
1435100727.111,21.369041
1435100727.126,19.896038
1435100727.142,17.593567
1435100727.158,14.649925
1435100727.173,11.318924
1435100727.189,7.8518333
1435100727.205,4.48061
1435100727.22,1.3922844
1435100727.236,-1.2532692
1435100727.251,-3.3656693
1435100727.267,-4.9217834
1435100727.283,-6.0055923
1435100727.298,-6.7474937
1435100727.314,-7.308975
1435100727.33,-7.7794685
1435100727.345,-8.170696
1435100727.361,-8.434509
1435100727.376,-8.523392
1435100727.392,-8.437973
1435100727.408,-8.253567
1435100727.423,-8.073219
1435100727.439,-7.9878426
1435100727.455,-8.019791
1435100727.47,-8.173943
1435100727.486,-8.386681
1435100727.501,-8.624168
1435100727.517,-8.834652
1435100727.533,-8.986343
1435100727.548,-9.0504
1435100727.564,-9.03318
1435100727.58,-8.93425
1435100727.595,-8.776718
1435100727.611,-8.544743
1435100727.626,-8.192432
1435100727.642,-7.671219
1435100727.658,-6.970867
1435100727.673,-6.142025
1435100727.689,-5.3011436
1435100727.705,-4.560417
1435100727.72,-3.978054
1435100727.736,-3.5119553
1435100727.751,-3.086422
1435100727.767,-2.6074104
1435100727.783,-2.0571785
1435100727.798,-1.4784775
1435100727.814,-0.9334564
1435100727.83,-0.44617844
1435100727.845,0.021392822
1435100727.861,0.5608444
1435100727.876,1.2630997
1435100727.892,2.1849709
1435100727.908,3.3444061
1435100727.923,4.7413216
1435100727.939,6.3510094
1435100727.955,8.105015
1435100727.97,9.8400955
1435100727.986,11.272297
1435100728.001,12.014706
1435100728.017,11.717049
1435100728.033,10.201942
1435100728.048,7.637371
1435100728.064,4.5023346
1435100728.08,1.4684715
1435100728.095,-0.8973808
1435100728.111,-2.3095055
1435100728.126,-2.9077148
1435100728.142,-3.095272
1435100728.158,-3.3465424
1435100728.173,-3.9723434
1435100728.189,-5.007496
1435100728.205,-6.2448196
1435100728.22,-7.3702736
1435100728.236,-8.068703
1435100728.251,-8.177353
1435100728.267,-7.7094727
1435100728.283,-6.8552666
1435100728.298,-5.8990097
1435100728.314,-5.160679
1435100728.33,-4.8458138
1435100728.345,-5.0196953
1435100728.361,-5.5561104
1435100728.376,-6.2358665
1435100728.392,-6.8192406
1435100728.408,-7.1759567
1435100728.423,-7.219345
1435100728.439,-6.9352417
1435100728.455,-6.334427
1435100728.47,-5.474331
1435100728.486,-4.48481
1435100728.502,-3.600151
1435100728.517,-3.054863
1435100728.533,-2.9953613
1435100728.548,-3.3399887
1435100728.564,-3.7844696
1435100728.58,-3.919693
1435100728.595,-3.453148
1435100728.611,-2.3016663
1435100728.627,-0.6937103
1435100728.642,0.998436
1435100728.658,2.411377
1435100728.673,3.3859177
1435100728.689,3.9556122
1435100728.705,4.3187256
1435100728.72,4.6597366
1435100728.736,5.096985
1435100728.752,5.6323166
1435100728.767,6.238617
1435100728.783,6.9109344
1435100728.798,7.7517853
1435100728.814,8.8806305
1435100728.83,10.388924
1435100728.845,12.226601
1435100728.861,14.245628
1435100728.877,16.217049
1435100728.892,17.960884
1435100728.908,19.340065
1435100728.923,20.290375
1435100728.939,20.722977
1435100728.955,20.516037
1435100728.97,19.537155
1435100728.986,17.719856
1435100729.002,15.154266
1435100729.017,12.0857315
1435100729.033,8.864853
1435100729.048,5.851326
1435100729.064,3.2864075
1435100729.08,1.2777863
1435100729.095,-0.20327759
1435100729.111,-1.2510147
1435100729.127,-1.9929504
1435100729.142,-2.5391083
1435100729.158,-3.007164
1435100729.173,-3.4465942
1435100729.189,-3.90493
1435100729.205,-4.363098
1435100729.22,-4.7856445
1435100729.236,-5.1216354
1435100729.252,-5.350029
1435100729.267,-5.4804
1435100729.283,-5.5772552
1435100729.298,-5.731819
1435100729.314,-6.010948
1435100729.33,-6.4326553
1435100729.345,-6.9712067
1435100729.361,-7.527092
1435100729.377,-7.981125
1435100729.392,-8.207474
1435100729.408,-8.113876
1435100729.423,-7.6462936
1435100729.439,-6.842163
1435100729.455,-5.783455
1435100729.47,-4.62249
1435100729.486,-3.5081177
1435100729.502,-2.5359497
1435100729.517,-1.720459
1435100729.533,-1.0106659
1435100729.548,-0.29958344
1435100729.564,0.4890747
1435100729.58,1.3863297
1435100729.595,2.3450012
1435100729.611,3.3093414
1435100729.627,4.216034
1435100729.642,5.0541916
1435100729.658,5.832123
1435100729.673,6.589241
1435100729.689,7.362503
1435100729.705,8.207207
1435100729.72,9.136978
1435100729.736,10.159683
1435100729.752,11.236664
1435100729.767,12.309425
1435100729.783,13.31675
1435100729.798,14.259819
1435100729.814,15.173172
1435100729.83,16.158432
1435100729.845,17.314354
1435100729.861,18.677116
1435100729.877,20.164566
1435100729.892,21.574898
1435100729.908,22.628727
1435100729.923,23.076729
1435100729.939,22.746674
1435100729.955,21.575108
1435100729.97,19.569725
1435100729.986,16.827488
1435100730.002,13.470528
1435100730.017,9.701088
1435100730.033,5.790283
1435100730.048,2.0488243
1435100730.064,-1.2428131
1435100730.08,-3.8896904
1435100730.095,-5.822815
1435100730.111,-7.046871
1435100730.127,-7.6131516
1435100730.142,-7.5957527
1435100730.158,-7.142559
1435100730.173,-6.463566
1435100730.189,-5.890888
1435100730.205,-5.7216606
1435100730.22,-6.1054344
1435100730.236,-6.9800644
1435100730.252,-8.093716
1435100730.267,-9.131622
1435100730.283,-9.86203
1435100730.298,-10.127708
1435100730.314,-9.901955
1435100730.33,-9.241531
1435100730.345,-8.29562
1435100730.361,-7.2821693
1435100730.377,-6.498905
1435100730.392,-6.172598
1435100730.408,-6.3684196
1435100730.423,-6.93943
1435100730.439,-7.580847
1435100730.455,-8.001083
1435100730.47,-8.056545
1435100730.486,-7.7432957
1435100730.502,-7.186693
1435100730.517,-6.513336
1435100730.533,-5.793091
1435100730.548,-5.046856
1435100730.564,-4.3060036
1435100730.58,-3.6010542
1435100730.595,-2.9972315
1435100730.611,-2.486905
1435100730.627,-2.0136824
1435100730.642,-1.4717836
1435100730.658,-0.7794504
1435100730.673,0.19424152
1435100730.689,1.5180445
1435100730.705,3.2341232
1435100730.72,5.3069897
1435100730.736,7.602111
1435100730.752,9.867789
1435100730.767,11.803122
1435100730.783,13.098739
1435100730.798,13.518455
1435100730.814,12.941252
1435100730.83,11.378011
1435100730.845,8.933309
1435100730.861,5.851169
1435100730.877,2.418953
1435100730.892,-1.0430653
1435100730.908,-4.260758
1435100730.923,-7.020054
1435100730.939,-9.233042
1435100730.955,-10.8871355
1435100730.97,-12.039336
1435100730.986,-12.763821
1435100731.002,-13.151531
1435100731.017,-13.2882595
1435100731.033,-13.27939
1435100731.048,-13.144263
1435100731.064,-12.887136
1435100731.08,-12.449986
1435100731.095,-11.813678
1435100731.111,-11.027666
1435100731.127,-10.258031
1435100731.142,-9.711486
1435100731.158,-9.540829
1435100731.174,-9.744568
1435100731.189,-10.169435
1435100731.205,-10.54076
1435100731.22,-10.611706
1435100731.236,-10.248728
1435100731.252,-9.498929
1435100731.267,-8.529261
1435100731.283,-7.5293884
1435100731.298,-6.614664
1435100731.314,-5.7698746
1435100731.33,-4.859331
1435100731.345,-3.7205715
1435100731.361,-2.231392
1435100731.377,-0.39019203
1435100731.392,1.701868
1435100731.408,3.8394127
1435100731.424,5.8489075
1435100731.439,7.606781
1435100731.455,9.094488
1435100731.47,10.375978
1435100731.486,11.5742855
1435100731.502,12.791384
1435100731.517,14.109858
1435100731.533,15.567465
1435100731.549,17.169304
1435100731.564,18.891783
1435100731.58,20.652239
1435100731.595,22.243008
1435100731.611,23.374369
1435100731.627,23.699785
1435100731.642,22.95632
1435100731.658,21.026834
1435100731.674,18.093204
1435100731.689,14.488302
1435100731.705,10.675629
1435100731.72,7.06719
1435100731.736,3.9092865
1435100731.752,1.2517891
1435100731.767,-0.98231125
1435100731.783,-2.8713112
1435100731.799,-4.40036
1435100731.814,-5.4580917
1435100731.83,-5.9476624
1435100731.845,-5.9003677
1435100731.861,-5.5026436
1435100731.877,-5.1103745
1435100731.892,-5.0343094
1435100731.908,-5.4699287
1435100731.924,-6.411125
1435100731.939,-7.707897
1435100731.955,-9.119179
1435100731.97,-10.429398
1435100731.986,-11.431591
1435100732.002,-11.985313
1435100732.017,-12.036083
1435100732.033,-11.662025
1435100732.049,-11.051277
1435100732.064,-10.469769
1435100732.08,-10.087769
1435100732.095,-9.906784
1435100732.111,-9.759945
1435100732.127,-9.42524
1435100732.142,-8.743851
1435100732.158,-7.7297935
1435100732.174,-6.412632
1435100732.189,-4.8302917
1435100732.205,-2.9596825
1435100732.22,-0.8073387
1435100732.236,1.5323715
1435100732.252,3.7768898
1435100732.267,5.6103325
1435100732.283,6.8281975
1435100732.299,7.4723167
1435100732.314,7.8308334
1435100732.33,8.326866
1435100732.345,9.31879
1435100732.361,11.0293045
1435100732.377,13.43808
1435100732.392,16.300491
1435100732.408,19.154099
1435100732.424,21.411087
1435100732.439,22.40815
1435100732.455,21.678886
1435100732.47,19.06446
1435100732.486,14.818672
1435100732.502,9.5316925
1435100732.517,3.939705
1435100732.533,-1.3150253
1435100732.549,-5.733551
1435100732.564,-9.07148
1435100732.58,-11.285561
1435100732.595,-12.522385
1435100732.611,-13.057503
1435100732.627,-13.263412
1435100732.642,-13.471748
1435100732.658,-13.89946
1435100732.674,-14.557213
1435100732.689,-15.285828
1435100732.705,-15.847862
1435100732.72,-16.109604
1435100732.736,-16.043236
1435100732.752,-15.788734
1435100732.767,-15.548676
1435100732.783,-15.4915695
1435100732.799,-15.657082
1435100732.814,-15.972855
1435100732.83,-16.284065
1435100732.845,-16.45575
1435100732.861,-16.432663
1435100732.877,-16.251411
1435100732.892,-15.986298
1435100732.908,-15.692978
1435100732.924,-15.285263
1435100732.939,-14.624031
1435100732.955,-13.577133
1435100732.97,-12.169998
1435100732.986,-10.5844345
1435100733.002,-9.140533
1435100733.017,-8.111
1435100733.033,-7.642639
1435100733.049,-7.653206
1435100733.064,-7.905594
1435100733.08,-8.10099
1435100733.095,-8.003639
1435100733.111,-7.5008774
1435100733.127,-6.64904
1435100733.142,-5.595932
1435100733.158,-4.546318
1435100733.174,-3.6427612
1435100733.189,-2.9588928
1435100733.205,-2.4133224
1435100733.22,-1.864914
1435100733.236,-1.1509018
1435100733.252,-0.19980621
1435100733.267,0.96398926
1435100733.283,2.2202225
1435100733.299,3.497673
1435100733.314,4.759674
1435100733.33,6.029808
1435100733.345,7.312172
1435100733.361,8.562851
1435100733.377,9.699493
1435100733.392,10.682877
1435100733.408,11.558121
1435100733.424,12.496834
1435100733.439,13.649178
1435100733.455,15.033829
1435100733.47,16.419373
1435100733.486,17.384987
1435100733.502,17.438324
1435100733.517,16.23767
1435100733.533,13.734573
1435100733.549,10.175308
1435100733.564,6.0176926
1435100733.58,1.7395096
1435100733.595,-2.2837906
1435100733.611,-5.8302
1435100733.627,-8.818901
1435100733.642,-11.217953
1435100733.658,-13.027882
1435100733.674,-14.214504
1435100733.689,-14.820503
1435100733.705,-14.9277
1435100733.72,-14.711853
1435100733.736,-14.352768
1435100733.752,-14.013981
1435100733.767,-13.754086
1435100733.783,-13.576168
1435100733.799,-13.437954
1435100733.814,-13.300224
1435100733.83,-13.143784
1435100733.845,-12.975365
1435100733.861,-12.801044
1435100733.877,-12.626278
1435100733.892,-12.448891
1435100733.908,-12.278027
1435100733.924,-12.092243
1435100733.939,-11.879234
1435100733.955,-11.58606
1435100733.97,-11.174328
1435100733.986,-10.599159
1435100734.002,-9.863045
1435100734.017,-8.986446
1435100734.033,-8.0441475
1435100734.049,-7.104931
1435100734.064,-6.2500534
1435100734.08,-5.5054626
1435100734.096,-4.8554153
1435100734.111,-4.196705
1435100734.127,-3.4186707
1435100734.142,-2.4090633
1435100734.158,-1.1582088
1435100734.174,0.23984337
1435100734.189,1.6094055
1435100734.205,2.7957344
1435100734.221,3.709053
1435100734.236,4.414179
1435100734.252,5.0347157
1435100734.267,5.6935425
1435100734.283,6.4213715
1435100734.299,7.1775885
1435100734.314,7.852827
1435100734.33,8.400685
1435100734.346,8.838805
1435100734.361,9.261685
1435100734.377,9.777873
1435100734.392,10.482601
1435100734.408,11.426849
1435100734.424,12.637486
1435100734.439,14.080608
1435100734.455,15.655533
1435100734.471,17.122757
1435100734.486,18.173397
1435100734.502,18.453926
1435100734.517,17.702824
1435100734.533,15.842849
1435100734.549,13.025315
1435100734.564,9.5889435
1435100734.58,5.98561
1435100734.596,2.6613855
1435100734.611,0.014279366
1435100734.627,-1.7398338
1435100734.642,-2.6117268
1435100734.658,-2.8468857
1435100734.674,-2.8368988
1435100734.689,-2.976965
1435100734.705,-3.4758701
1435100734.721,-4.3143616
1435100734.736,-5.2701454
1435100734.752,-6.0927086
1435100734.767,-6.62685
1435100734.783,-6.908348
1435100734.799,-7.0437126
1435100734.814,-7.1316147
1435100734.83,-7.1787205
1435100734.846,-7.1281853
1435100734.861,-6.929634
1435100734.877,-6.647785
1435100734.892,-6.4110527
1435100734.908,-6.3476295
1435100734.924,-6.483387
1435100734.939,-6.732712
1435100734.955,-6.911579
1435100734.971,-6.9018555
1435100734.986,-6.6056175
1435100735.002,-6.0382156
1435100735.017,-5.2500916
1435100735.033,-4.3292084
1435100735.049,-3.3733292
1435100735.064,-2.4946594
1435100735.08,-1.7723923
1435100735.096,-1.2588043
1435100735.111,-0.93444824
1435100735.127,-0.7068901
1435100735.142,-0.46333694
1435100735.158,-0.10544968
1435100735.174,0.4318962
1435100735.189,1.1455269
1435100735.205,1.9884834
1435100735.221,2.865593
1435100735.236,3.6968155
1435100735.252,4.404808
1435100735.267,4.991844
1435100735.283,5.510704
1435100735.299,6.0722046
1435100735.314,6.766426
1435100735.33,7.628929
1435100735.346,8.591736
1435100735.361,9.604134
1435100735.377,10.623718
1435100735.392,11.690895
1435100735.408,12.875732
1435100735.424,14.206764
1435100735.439,15.607941
1435100735.455,16.953812
1435100735.471,18.130035
1435100735.486,19.151352
1435100735.502,20.110443
1435100735.517,21.08738
1435100735.533,22.03669
1435100735.549,22.739227
1435100735.564,22.857018
1435100735.58,22.125626
1435100735.596,20.450043
1435100735.611,17.985863
1435100735.627,15.046234
1435100735.642,12.004021
1435100735.658,9.160667
1435100735.674,6.6999283
1435100735.689,4.680786
1435100735.705,3.0706558
1435100735.721,1.7746887
1435100735.736,0.71910095
1435100735.752,-0.16119385
1435100735.767,-0.8779907
1435100735.783,-1.4420624
1435100735.799,-1.8426361
1435100735.814,-2.1102524
1435100735.83,-2.286293
1435100735.846,-2.4320679
1435100735.861,-2.5761185
1435100735.877,-2.7416534
1435100735.892,-2.9072418
1435100735.908,-3.046112
1435100735.924,-3.0967026
1435100735.939,-3.0198593
1435100735.955,-2.8205948
1435100735.971,-2.6012497
1435100735.986,-2.4952393
1435100736.002,-2.6616135
1435100736.017,-3.1659546
1435100736.033,-3.970932
1435100736.049,-4.927223
1435100736.064,-5.8297577
1435100736.08,-6.450737
1435100736.096,-6.588951
1435100736.111,-6.073097
1435100736.127,-4.8469696
1435100736.142,-3.0398712
1435100736.158,-1.0138702
1435100736.174,0.76322937
1435100736.189,1.8354034
1435100736.205,2.0198898
1435100736.221,1.4685898
1435100736.236,0.5901413
1435100736.252,-0.19506836
1435100736.267,-0.614975
1435100736.283,-0.65834045
1435100736.299,-0.37364197
1435100736.314,0.1880188
1435100736.33,1.0736542
1435100736.346,2.3044968
1435100736.361,3.8248062
1435100736.377,5.369873
1435100736.392,6.6293488
1435100736.408,7.3882446
1435100736.424,7.645859
1435100736.439,7.610489
1435100736.455,7.5777893
1435100736.471,7.772003
1435100736.486,8.328888
1435100736.502,9.221512
1435100736.517,10.312187
1435100736.533,11.326912
1435100736.549,11.941772
1435100736.564,11.781113
1435100736.58,10.608566
1435100736.596,8.392433
1435100736.611,5.379898
1435100736.627,1.9960632
1435100736.642,-1.2770157
1435100736.658,-4.0829086
1435100736.674,-6.1745224
1435100736.689,-7.475502
1435100736.705,-8.041588
1435100736.721,-8.031128
1435100736.736,-7.677864
1435100736.752,-7.265587
1435100736.768,-7.039055
1435100736.783,-7.1389923
1435100736.799,-7.537323
1435100736.814,-8.078934
1435100736.83,-8.55114
1435100736.846,-8.843842
1435100736.861,-8.89521
1435100736.877,-8.760857
1435100736.893,-8.522255
1435100736.908,-8.241768
1435100736.924,-7.925415
1435100736.939,-7.5853577
1435100736.955,-7.2103653
1435100736.971,-6.829056
1435100736.986,-6.4795685
1435100737.002,-6.2024307
1435100737.018,-6.0043106
1435100737.033,-5.864662
1435100737.049,-5.6652985
1435100737.064,-5.301834
1435100737.08,-4.7193527
1435100737.096,-3.9866562
1435100737.111,-3.260559
1435100737.127,-2.7366714
1435100737.143,-2.507141
1435100737.158,-2.5264435
1435100737.174,-2.6078339
1435100737.189,-2.5289001
1435100737.205,-2.1539917
1435100737.221,-1.5271683
1435100737.236,-0.7979431
1435100737.252,-0.16082
1435100737.268,0.28327942
1435100737.283,0.56425476
1435100737.299,0.8270798
1435100737.314,1.2284164
1435100737.33,1.8687439
1435100737.346,2.7276535
1435100737.361,3.7232437
1435100737.377,4.733177
1435100737.393,5.682266
1435100737.408,6.5315323
1435100737.424,7.3360596
1435100737.439,8.141327
1435100737.455,9.04319
1435100737.471,10.1017685
1435100737.486,11.390411
1435100737.502,12.928658
1435100737.518,14.69001
1435100737.533,16.509949
1435100737.549,18.109184
1435100737.564,19.134384
1435100737.58,19.267708
1435100737.596,18.352806
1435100737.611,16.480278
1435100737.627,13.946518
1435100737.643,11.156967
1435100737.658,8.445755
1435100737.674,5.988121
1435100737.689,3.7928314
1435100737.705,1.8066406
1435100737.721,-0.029281616
1435100737.736,-1.6946411
1435100737.752,-3.1348877
1435100737.768,-4.3142853
1435100737.783,-5.2822723
1435100737.799,-6.115219
1435100737.814,-6.8792114
1435100737.83,-7.565117
1435100737.846,-8.089684
1435100737.861,-8.346725
1435100737.877,-8.281136
1435100737.893,-7.940922
1435100737.908,-7.4585648
1435100737.924,-6.997898
1435100737.939,-6.7073708
1435100737.955,-6.638481
1435100737.971,-6.784195
1435100737.986,-7.0507393
1435100738.002,-7.3265724
1435100738.018,-7.4801407
1435100738.033,-7.4384193
1435100738.049,-7.1579475
1435100738.064,-6.664341
1435100738.08,-6.021061
1435100738.096,-5.2917976
1435100738.111,-4.5448837
1435100738.127,-3.8374672
1435100738.143,-3.2017822
1435100738.158,-2.6204224
1435100738.174,-2.0204697
1435100738.189,-1.2807045
1435100738.205,-0.32239914
1435100738.221,0.83551025
1435100738.236,2.0376778
1435100738.252,3.046257
1435100738.268,3.6819077
1435100738.283,3.9250755
1435100738.299,3.965187
1435100738.314,4.097267
1435100738.33,4.590496
1435100738.346,5.56522
1435100738.361,6.9491043
1435100738.377,8.58073
1435100738.393,10.276302
1435100738.408,11.938805
1435100738.424,13.546871
1435100738.439,15.128506
1435100738.455,16.705036
1435100738.471,18.316402
1435100738.486,19.935825
1435100738.502,21.497314
1435100738.518,22.843872
1435100738.533,23.754375
1435100738.549,24.029835
1435100738.564,23.565285
1435100738.58,22.345276
1435100738.596,20.442322
1435100738.611,17.942123
1435100738.627,14.890011
1435100738.643,11.358284
1435100738.658,7.507759
1435100738.674,3.6148682
1435100738.689,0.049123764
1435100738.705,-2.884306
1435100738.721,-5.011091
1435100738.736,-6.3324413
1435100738.752,-6.968313
1435100738.768,-7.101061
1435100738.783,-6.9020176
1435100738.799,-6.5516872
1435100738.814,-6.224289
1435100738.83,-6.0797005
1435100738.846,-6.2049294
1435100738.861,-6.5988083
1435100738.877,-7.166382
1435100738.893,-7.815608
1435100738.908,-8.493187
1435100738.924,-9.203133
1435100738.939,-9.940493
1435100738.955,-10.642932
1435100738.971,-11.174587
1435100738.986,-11.406905
1435100739.002,-11.293002
1435100739.018,-10.934625
1435100739.033,-10.483548
1435100739.049,-10.089592
1435100739.064,-9.768824
1435100739.08,-9.45381
1435100739.096,-9.018194
1435100739.111,-8.331238
1435100739.127,-7.352732
1435100739.143,-6.1425986
1435100739.158,-4.851613
1435100739.174,-3.6666431
1435100739.189,-2.757268
1435100739.205,-2.173524
1435100739.221,-1.8289804
1435100739.236,-1.5167055
1435100739.252,-1.0047493
1435100739.268,-0.16575241
1435100739.283,0.98387337
1435100739.299,2.3110447
1435100739.314,3.6524296
1435100739.33,4.900547
1435100739.346,6.082245
1435100739.361,7.2702312
1435100739.377,8.570454
1435100739.393,10.002871
1435100739.408,11.552641
1435100739.424,13.129028
1435100739.44,14.6332
1435100739.455,15.902458
1435100739.471,16.712755
1435100739.486,16.801317
1435100739.502,15.902632
1435100739.518,13.854872
1435100739.533,10.678387
1435100739.549,6.604664
1435100739.565,2.0539398
1435100739.58,-2.4875488
1435100739.596,-6.5382805
1435100739.611,-9.797222
1435100739.627,-12.164463
1435100739.643,-13.766197
1435100739.658,-14.847153
1435100739.674,-15.60342
1435100739.69,-16.126423
1435100739.705,-16.401184
1435100739.721,-16.37828
1435100739.736,-16.100784
1435100739.752,-15.703541
1435100739.768,-15.369167
1435100739.783,-15.223961
1435100739.799,-15.254719
1435100739.815,-15.309006
1435100739.83,-15.232006
1435100739.846,-14.932735
1435100739.861,-14.470589
1435100739.877,-13.972752
1435100739.893,-13.557568
1435100739.908,-13.208286
1435100739.924,-12.803059
1435100739.94,-12.147327
1435100739.955,-11.130486
1435100739.971,-9.765118
1435100739.986,-8.201649
1435100740.002,-6.63517
1435100740.018,-5.2351036
1435100740.033,-4.068722
1435100740.049,-3.0853271
1435100740.065,-2.130478
1435100740.08,-1.0249748
1435100740.096,0.4037819
1435100740.111,2.2239609
1435100740.127,4.417984
1435100740.143,6.845234
1435100740.158,9.29583
1435100740.174,11.539516
1435100740.19,13.420158
1435100740.205,14.916733
1435100740.221,16.15374
1435100740.236,17.335777
1435100740.252,18.643604
1435100740.268,20.084747
1435100740.283,21.440971
1435100740.299,22.295261
1435100740.315,22.181637
1435100740.33,20.770397
1435100740.346,18.02686
1435100740.361,14.197842
1435100740.377,9.734581
1435100740.393,5.1157074
1435100740.408,0.740654
1435100740.424,-3.110489
1435100740.44,-6.2254944
1435100740.455,-8.489632
1435100740.471,-9.893379
1435100740.486,-10.572464
1435100740.502,-10.847321
1435100740.518,-11.084778
1435100740.533,-11.5542145
1435100740.549,-12.3591385
1435100740.565,-13.368698
1435100740.58,-14.341576
1435100740.596,-15.031525
1435100740.611,-15.289322
1435100740.627,-15.071625
1435100740.643,-14.456886
1435100740.658,-13.620712
1435100740.674,-12.790451
1435100740.69,-12.21479
1435100740.705,-12.05481
1435100740.721,-12.287537
1435100740.736,-12.719917
1435100740.752,-13.048195
1435100740.768,-13.029243
1435100740.783,-12.58078
1435100740.799,-11.776878
1435100740.815,-10.758667
1435100740.83,-9.654404
1435100740.846,-8.5327
1435100740.861,-7.443001
1435100740.877,-6.4657974
1435100740.893,-5.703911
1435100740.908,-5.2093964
1435100740.924,-4.94088
1435100740.94,-4.7162323
1435100740.955,-4.325859
1435100740.971,-3.6438217
1435100740.986,-2.6802902
1435100741.002,-1.591896
1435100741.018,-0.5903473
1435100741.033,0.15154266
1435100741.049,0.5938873
1435100741.065,0.83068085
1435100741.08,1.0348663
1435100741.096,1.4203873
1435100741.111,2.114128
1435100741.127,3.148796
1435100741.143,4.4563904
1435100741.158,5.9253006
1435100741.174,7.511177
1435100741.19,9.224464
1435100741.205,11.086807
1435100741.221,13.066086
1435100741.236,15.010666
1435100741.252,16.757317
1435100741.268,18.189095
1435100741.283,19.390854
1435100741.299,20.621384
1435100741.315,22.184212
1435100741.33,24.215027
1435100741.346,26.524094
1435100741.361,28.608757
1435100741.377,29.831703
1435100741.393,29.63633
1435100741.408,27.75666
1435100741.424,24.274261
1435100741.44,19.58052
1435100741.455,14.210083
1435100741.471,8.731667
1435100741.486,3.595909
1435100741.502,-0.93190765
1435100741.518,-4.747658
1435100741.533,-7.863289
1435100741.549,-10.281364
1435100741.565,-11.967224
1435100741.58,-12.903351
1435100741.596,-13.140526
1435100741.611,-12.888161
1435100741.627,-12.438309
1435100741.643,-12.107643
1435100741.658,-12.066032
1435100741.674,-12.303604
1435100741.69,-12.658295
1435100741.705,-12.950439
1435100741.721,-13.082802
1435100741.736,-13.118134
1435100741.752,-13.1645355
1435100741.768,-13.311935
1435100741.783,-13.549072
1435100741.799,-13.751572
1435100741.815,-13.753403
1435100741.83,-13.437927
1435100741.846,-12.769684
1435100741.861,-11.811897
1435100741.877,-10.665741
1435100741.893,-9.421066
1435100741.908,-8.113197
1435100741.924,-6.70874
1435100741.94,-5.133026
1435100741.955,-3.3711243
1435100741.971,-1.4715271
1435100741.986,0.42207336
1435100742.002,2.1594849
1435100742.018,3.6335754
1435100742.033,4.8426666
1435100742.049,5.843544
1435100742.065,6.728424
1435100742.08,7.5547256
1435100742.096,8.356369
1435100742.112,9.133797
1435100742.127,9.907669
1435100742.143,10.698166
1435100742.158,11.5290985
1435100742.174,12.385994
1435100742.19,13.231102
1435100742.205,14.0010605
1435100742.221,14.686127
1435100742.236,15.285774
1435100742.252,15.832588
1435100742.268,16.37178
1435100742.283,16.960655
1435100742.299,17.697052
1435100742.315,18.719963
1435100742.33,20.125801
1435100742.346,21.883156
1435100742.362,23.777672
1435100742.377,25.374954
1435100742.393,26.132378
1435100742.408,25.582169
1435100742.424,23.444595
1435100742.44,19.737358
1435100742.455,14.737839
1435100742.471,8.92778
1435100742.487,2.892891
1435100742.502,-2.766426
1435100742.518,-7.5696945
1435100742.533,-11.253021
1435100742.549,-13.804741
1435100742.565,-15.442497
1435100742.58,-16.52668
1435100742.596,-17.317307
1435100742.612,-17.964584
1435100742.627,-18.426445
1435100742.643,-18.617744
1435100742.658,-18.489883
1435100742.674,-18.108696
1435100742.69,-17.619148
1435100742.705,-17.189857
1435100742.721,-16.947372
1435100742.737,-16.937828
1435100742.752,-17.183289
1435100742.768,-17.713264
1435100742.783,-18.524712
1435100742.799,-19.581406
1435100742.815,-20.756287
1435100742.83,-21.849236
1435100742.846,-22.594734
1435100742.862,-22.715836
1435100742.877,-22.003555
1435100742.893,-20.444717
1435100742.908,-18.221512
1435100742.924,-15.722031
1435100742.94,-13.392838
1435100742.955,-11.57695
1435100742.971,-10.372223
1435100742.987,-9.603043
1435100743.002,-8.906937
1435100743.018,-7.9322968
1435100743.033,-6.514557
1435100743.049,-4.684128
1435100743.065,-2.6103516
1435100743.08,-0.5127106
1435100743.096,1.4741821
1435100743.112,3.293518
1435100743.127,4.9642334
1435100743.143,6.5257263
1435100743.158,8.090683
1435100743.174,9.779617
1435100743.19,11.760849
1435100743.205,14.107376
1435100743.221,16.733643
1435100743.237,19.377121
1435100743.252,21.60701
1435100743.268,22.905502
1435100743.283,22.841766
1435100743.299,21.171661
1435100743.315,17.92685
1435100743.33,13.42691
1435100743.346,8.232025
1435100743.362,2.988968
1435100743.377,-1.6791229
1435100743.393,-5.386162
1435100743.408,-8.015541
1435100743.424,-9.728218
1435100743.44,-10.831955
1435100743.455,-11.632553
1435100743.471,-12.309578
1435100743.487,-12.89061
1435100743.502,-13.311958
1435100743.518,-13.500664
1435100743.533,-13.450661
1435100743.549,-13.252495
1435100743.565,-13.037491
1435100743.58,-12.926308
1435100743.596,-12.975243
1435100743.612,-13.125656
1435100743.627,-13.235786
1435100743.643,-13.17778
1435100743.658,-12.86203
1435100743.674,-12.34446
1435100743.69,-11.762253
1435100743.705,-11.278397
1435100743.721,-10.978416
1435100743.737,-10.832573
1435100743.752,-10.673431
1435100743.768,-10.3233795
1435100743.783,-9.674782
1435100743.799,-8.749214
1435100743.815,-7.680107
1435100743.83,-6.632393
1435100743.846,-5.673973
1435100743.862,-4.7695694
1435100743.877,-3.7894287
1435100743.893,-2.6380997
1435100743.908,-1.2977524
1435100743.924,0.119522095
1435100743.94,1.4643478
1435100743.955,2.6299896
1435100743.971,3.5930405
1435100743.987,4.4047394
1435100744.002,5.123947
1435100744.018,5.7587967
1435100744.033,6.2891083
1435100744.049,6.7397842
1435100744.065,7.2639084
1435100744.08,8.112984
1435100744.096,9.546707
1435100744.112,11.634979
1435100744.127,14.185539
1435100744.143,16.744713
1435100744.158,18.81836
1435100744.174,20.080078
1435100744.19,20.531975
1435100744.205,20.485771
1435100744.221,20.427528
1435100744.237,20.83017
1435100744.252,21.987549
1435100744.268,23.92546
1435100744.283,26.402672
1435100744.299,28.948166
1435100744.315,30.971336
1435100744.33,31.88752
1435100744.346,31.308624
1435100744.362,29.137703
1435100744.377,25.615173
1435100744.393,21.190773
1435100744.408,16.369797
1435100744.424,11.591049
1435100744.44,7.124275
1435100744.455,3.1315536
1435100744.471,-0.28809357
1435100744.487,-3.1085052
1435100744.502,-5.3621216
1435100744.518,-7.1600113
1435100744.533,-8.611336
1435100744.549,-9.749367
1435100744.565,-10.477936
1435100744.58,-10.630234
1435100744.596,-10.1102295
1435100744.612,-9.031776
1435100744.627,-7.7481766
1435100744.643,-6.750839
1435100744.658,-6.3981247
1435100744.674,-6.7905655
1435100744.69,-7.7328568
1435100744.705,-8.867699
1435100744.721,-9.855286
1435100744.737,-10.483368
1435100744.752,-10.696121
1435100744.768,-10.590126
1435100744.783,-10.310867
1435100744.799,-10.024971
1435100744.815,-9.87899
1435100744.83,-9.957825
1435100744.846,-10.235832
1435100744.862,-10.582817
1435100744.877,-10.8053055
1435100744.893,-10.727371
1435100744.908,-10.271225
1435100744.924,-9.440842
1435100744.94,-8.321892
1435100744.955,-7.0350266
1435100744.971,-5.7013626
1435100744.987,-4.459358
1435100745.002,-3.42704
1435100745.018,-2.7156754
1435100745.034,-2.3351364
1435100745.049,-2.1972275
1435100745.065,-2.1132126
1435100745.08,-1.876503
1435100745.096,-1.3559952
1435100745.112,-0.5141754
1435100745.127,0.6236801
1435100745.143,1.9841309
1435100745.159,3.5317078
1435100745.174,5.2280426
1435100745.19,7.0017395
1435100745.205,8.7191925
1435100745.221,10.203369
1435100745.237,11.30304
1435100745.252,11.997261
1435100745.268,12.4423065
1435100745.284,12.948555
1435100745.299,13.901154
1435100745.315,15.570381
1435100745.33,17.909615
1435100745.346,20.511612
1435100745.362,22.616623
1435100745.377,23.385254
1435100745.393,22.181389
1435100745.409,18.828178
1435100745.424,13.678665
1435100745.44,7.5049973
1435100745.455,1.2015457
1435100745.471,-4.508362
1435100745.487,-9.255684
1435100745.502,-13.044876
1435100745.518,-16.130836
1435100745.534,-18.851158
1435100745.549,-21.501282
1435100745.565,-24.240425
1435100745.58,-27.053108
1435100745.596,-29.69429
1435100745.612,-31.763184
1435100745.627,-32.745407
1435100745.643,-32.247025
1435100745.659,-30.067825
1435100745.674,-26.307297
1435100745.69,-21.341568
1435100745.705,-15.736206
1435100745.721,-10.108025
1435100745.737,-4.991211
1435100745.752,-0.7664337
1435100745.768,2.4056244
1435100745.784,4.597061
1435100745.799,6.0459747
1435100745.815,7.1058426
1435100745.83,8.086395
1435100745.846,9.220467
1435100745.862,10.566612
1435100745.877,12.066071
1435100745.893,13.539673
1435100745.909,14.805298
1435100745.924,15.664398
1435100745.94,16.020004
1435100745.955,15.87117
1435100745.971,15.342117
1435100745.987,14.648361
1435100746.002,14.025299
1435100746.018,13.62883
1435100746.034,13.482117
1435100746.049,13.516251
1435100746.065,13.616562
1435100746.08,13.70462
1435100746.096,13.817017
1435100746.112,14.092621
1435100746.127,14.751556
1435100746.143,15.980682
1435100746.159,17.83496
1435100746.174,20.12384
1435100746.19,22.396286
1435100746.205,23.968185
1435100746.221,24.12674
1435100746.237,22.39328
1435100746.252,18.708954
1435100746.268,13.468994
1435100746.284,7.3950653
1435100746.299,1.2855072
1435100746.315,-4.219467
1435100746.33,-8.769836
1435100746.346,-12.291611
1435100746.362,-14.887772
1435100746.377,-16.696
1435100746.393,-17.85254
1435100746.409,-18.43634
1435100746.424,-18.52156
1435100746.44,-18.192673
1435100746.455,-17.592026
1435100746.471,-16.89032
1435100746.487,-16.24527
1435100746.502,-15.763824
1435100746.518,-15.474472
1435100746.534,-15.328781
1435100746.549,-15.258194
1435100746.565,-15.18779
1435100746.58,-15.100464
1435100746.596,-14.96846
1435100746.612,-14.74054
1435100746.627,-14.297073
1435100746.643,-13.537613
1435100746.659,-12.4223175
1435100746.674,-11.0260315
1435100746.69,-9.5043335
1435100746.705,-8.021637
1435100746.721,-6.6358795
1435100746.737,-5.2871857
1435100746.752,-3.834015
1435100746.768,-2.157486
1435100746.784,-0.21929932
1435100746.799,1.9431458
1435100746.815,4.27388
1435100746.83,6.6917725
1435100746.846,9.119751
1435100746.862,11.458496
1435100746.877,13.573685
1435100746.893,15.3758545
1435100746.909,16.91101
1435100746.924,18.330963
1435100746.94,19.846832
1435100746.955,21.528717
1435100746.971,23.209824
1435100746.987,24.517014
1435100747.002,24.994812
1435100747.018,24.26091
1435100747.034,22.146774
1435100747.049,18.687088
1435100747.065,14.102936
1435100747.08,8.722427
1435100747.096,2.9704895
1435100747.112,-2.6849976
1435100747.127,-7.7667847
1435100747.143,-11.927383
1435100747.159,-15.045029
1435100747.174,-17.185059
1435100747.19,-18.552185
1435100747.205,-19.382126
1435100747.221,-19.851212
1435100747.237,-20.07315
1435100747.252,-20.140152
1435100747.268,-20.181274
1435100747.284,-20.30542
1435100747.299,-20.587494
1435100747.315,-20.99356
1435100747.33,-21.412613
1435100747.346,-21.712051
1435100747.362,-21.757446
1435100747.377,-21.486938
1435100747.393,-20.929108
1435100747.409,-20.16095
1435100747.424,-19.306824
1435100747.44,-18.490677
1435100747.455,-17.784607
1435100747.471,-17.202927
1435100747.487,-16.681564
1435100747.502,-16.080627
1435100747.518,-15.2846985
1435100747.534,-14.229584
1435100747.549,-12.950775
1435100747.565,-11.549881
1435100747.58,-10.154388
1435100747.596,-8.848038
1435100747.612,-7.6486053
1435100747.627,-6.501129
1435100747.643,-5.3325653
1435100747.659,-4.091568
1435100747.674,-2.7895508
1435100747.69,-1.4864197
1435100747.706,-0.27993774
1435100747.721,0.7588501
1435100747.737,1.6425629
1435100747.752,2.466217
1435100747.768,3.3644714
1435100747.784,4.458313
1435100747.799,5.76001
1435100747.815,7.215317
1435100747.831,8.703659
1435100747.846,10.141174
1435100747.862,11.501495
1435100747.877,12.84491
1435100747.893,14.235245
1435100747.909,15.71022
1435100747.924,17.231216
1435100747.94,18.715271
1435100747.956,20.088882
1435100747.971,21.36287
1435100747.987,22.652298
1435100748.002,24.145111
1435100748.018,25.961884
1435100748.034,28.035309
1435100748.049,30.02501
1435100748.065,31.412643
1435100748.081,31.630615
1435100748.096,30.287811
1435100748.112,27.302765
1435100748.127,22.910156
1435100748.143,17.544327
1435100748.159,11.73671
1435100748.174,5.957184
1435100748.19,0.59776306
1435100748.206,-4.064453
1435100748.221,-7.853607
1435100748.237,-10.727463
1435100748.252,-12.776642
1435100748.268,-14.188477
1435100748.284,-15.209503
1435100748.299,-16.047165
1435100748.315,-16.81105
1435100748.331,-17.527359
1435100748.346,-18.14618
1435100748.362,-18.618835
1435100748.377,-18.920776
1435100748.393,-19.062347
1435100748.409,-19.073822
1435100748.424,-19.024185
1435100748.44,-18.954285
1435100748.456,-18.926071
1435100748.471,-18.969238
1435100748.487,-19.105148
1435100748.502,-19.305664
1435100748.518,-19.505875
1435100748.534,-19.594833
1435100748.549,-19.446564
1435100748.565,-18.94728
1435100748.581,-18.05838
1435100748.596,-16.834656
1435100748.612,-15.4599
1435100748.627,-14.14772
1435100748.643,-13.064636
1435100748.659,-12.200302
1435100748.674,-11.362717
1435100748.69,-10.270836
1435100748.706,-8.7393265
1435100748.721,-6.8168106
1435100748.737,-4.7866135
1435100748.752,-3.0667114
1435100748.768,-1.979248
1435100748.784,-1.5651321
1435100748.799,-1.6217651
1435100748.815,-1.7742081
1435100748.831,-1.6997452
1435100748.846,-1.1969604
1435100748.862,-0.19622803
1435100748.877,1.2922668
1435100748.893,3.2004623
1435100748.909,5.396057
1435100748.924,7.684059
1435100748.94,9.798447
1435100748.956,11.511551
1435100748.971,12.774033
1435100748.987,13.700424
1435100749.002,14.540245
1435100749.018,15.477295
1435100749.034,16.54306
1435100749.049,17.573547
1435100749.065,18.275734
1435100749.081,18.330345
1435100749.096,17.480736
1435100749.112,15.562103
1435100749.127,12.563591
1435100749.143,8.638756
1435100749.159,4.13694
1435100749.174,-0.44410706
1435100749.19,-4.5516357
1435100749.206,-7.7778015
1435100749.221,-9.977936
1435100749.237,-11.243629
1435100749.252,-11.842705
1435100749.268,-12.064224
1435100749.284,-12.091064
1435100749.299,-11.998932
1435100749.315,-11.803581
1435100749.331,-11.545578
1435100749.346,-11.308228
1435100749.362,-11.211708
1435100749.377,-11.331856
1435100749.393,-11.663349
1435100749.409,-12.084198
1435100749.424,-12.359203
1435100749.44,-12.260685
1435100749.456,-11.691837
1435100749.471,-10.746647
1435100749.487,-9.70776
1435100749.502,-8.880066
1435100749.518,-8.463505
1435100749.534,-8.456989
1435100749.549,-8.6459465
1435100749.565,-8.730618
1435100749.581,-8.476704
1435100749.596,-7.795273
1435100749.612,-6.778599
1435100749.627,-5.5767174
1435100749.643,-4.3462563
1435100749.659,-3.1665611
1435100749.674,-2.0676765
1435100749.69,-1.0594559
1435100749.706,-0.18144035
1435100749.721,0.51796913
1435100749.737,0.99170685
1435100749.752,1.2531357
1435100749.768,1.3796177
1435100749.784,1.5249252
1435100749.799,1.8912878
1435100749.815,2.6371164
1435100749.831,3.7853584
1435100749.846,5.188546
1435100749.862,6.567461
1435100749.877,7.644144
1435100749.893,8.266371
1435100749.909,8.50758
1435100749.924,8.60204
1435100749.94,8.844517
1435100749.956,9.397968
1435100749.971,10.25706
1435100749.987,11.238081
1435100750.002,12.146911
1435100750.018,12.878392
1435100750.034,13.477684
1435100750.049,14.120155
1435100750.065,15.020929
1435100750.081,16.309105
1435100750.096,17.964243
1435100750.112,19.775454
1435100750.127,21.386745
1435100750.143,22.3855
1435100750.159,22.415775
1435100750.174,21.312887
1435100750.19,19.161537
1435100750.206,16.240673
1435100750.221,12.912037
1435100750.237,9.514465
1435100750.252,6.281986
1435100750.268,3.3303146
1435100750.284,0.7210388
1435100750.299,-1.5395927
1435100750.315,-3.4544983
1435100750.331,-5.035084
1435100750.346,-6.24382
1435100750.362,-6.987812
1435100750.378,-7.139679
1435100750.393,-6.650894
1435100750.409,-5.6730995
1435100750.424,-4.5505676
1435100750.44,-3.7358894
1435100750.456,-3.5739899
1435100750.471,-4.089611
1435100750.487,-5.035553
1435100750.503,-5.998619
1435100750.518,-6.673752
1435100750.534,-6.975765
1435100750.549,-7.0383873
1435100750.565,-6.997772
1435100750.581,-6.909401
1435100750.596,-6.6808662
1435100750.612,-6.2060547
1435100750.628,-5.5187225
1435100750.643,-4.7883377
1435100750.659,-4.2355957
1435100750.674,-4.005913
1435100750.69,-4.0364304
1435100750.706,-4.121292
1435100750.721,-4.03302
1435100750.737,-3.5938644
1435100750.753,-2.7658005
1435100750.768,-1.6520538
1435100750.784,-0.4220581
1435100750.799,0.7136917
1435100750.815,1.5766144
1435100750.831,2.032753
1435100750.846,2.096138
1435100750.862,1.8680191
1435100750.878,1.5539322
1435100750.893,1.3800735
1435100750.909,1.5264969
1435100750.924,2.121315
1435100750.94,3.2079544
1435100750.956,4.7230988
1435100750.971,6.4881134
1435100750.987,8.224358
1435100751.003,9.614677
1435100751.018,10.420471
1435100751.034,10.612518
1435100751.049,10.363121
1435100751.065,9.998779
1435100751.081,9.831833
1435100751.096,10.050499
1435100751.112,10.702209
1435100751.128,11.719612
1435100751.143,12.9537735
1435100751.159,14.253105
1435100751.174,15.4518585
1435100751.19,16.396484
1435100751.206,17.012001
1435100751.221,17.360619
1435100751.237,17.62613
1435100751.253,18.049904
1435100751.268,18.73339
1435100751.284,19.54766
1435100751.299,20.159218
1435100751.315,20.168846
1435100751.331,19.299843
1435100751.346,17.557953
1435100751.362,15.183945
1435100751.378,12.535767
1435100751.393,9.910095
1435100751.409,7.467499
1435100751.424,5.2275467
1435100751.44,3.1921082
1435100751.456,1.3924255
1435100751.471,-0.1147995
1435100751.487,-1.2587357
1435100751.503,-2.0346527
1435100751.518,-2.5392227
1435100751.534,-2.9037552
1435100751.549,-3.2466125
1435100751.565,-3.6072083
1435100751.581,-3.9590607
1435100751.596,-4.2444916
1435100751.612,-4.4574356
1435100751.628,-4.647995
1435100751.643,-4.9114304
1435100751.659,-5.305626
1435100751.674,-5.786743
1435100751.69,-6.225113
1435100751.706,-6.4950867
1435100751.721,-6.550392
1435100751.737,-6.4636383
1435100751.753,-6.3961716
1435100751.768,-6.513855
1435100751.784,-6.8842926
1435100751.799,-7.4615097
1435100751.815,-8.106422
1435100751.831,-8.657471
1435100751.846,-8.941498
1435100751.862,-8.835793
1435100751.878,-8.25988
1435100751.893,-7.22583
1435100751.909,-5.8528137
1435100751.924,-4.384529
1435100751.94,-3.0974197
1435100751.956,-2.2191238
1435100751.971,-1.8126984
1435100751.987,-1.797821
1435100752.003,-1.9776993
1435100752.018,-2.1856232
1435100752.034,-2.332222
1435100752.049,-2.3804626
1435100752.065,-2.2737732
1435100752.081,-1.9102402
1435100752.096,-1.1368103
1435100752.112,0.12326813
1435100752.128,1.7988663
1435100752.143,3.6375046
1435100752.159,5.320511
1435100752.174,6.596794
1435100752.19,7.416733
1435100752.206,7.9358673
1435100752.221,8.422005
1435100752.237,9.136711
1435100752.253,10.187309
1435100752.268,11.459869
1435100752.284,12.671249
1435100752.299,13.45417
1435100752.315,13.511902
1435100752.331,12.689346
1435100752.346,11.041496
1435100752.362,8.752083
1435100752.378,6.0932465
1435100752.393,3.3330154
1435100752.409,0.6953125
1435100752.424,-1.6530304
1435100752.44,-3.5763702
1435100752.456,-4.956299
1435100752.471,-5.72921
1435100752.487,-5.932129
1435100752.503,-5.693695
1435100752.518,-5.2493515
1435100752.534,-4.836075
1435100752.549,-4.640068
1435100752.565,-4.724678
1435100752.581,-5.0441437
1435100752.596,-5.4776993
1435100752.612,-5.895424
1435100752.628,-6.1575165
1435100752.643,-6.1975937
1435100752.659,-6.020668
1435100752.674,-5.69471
1435100752.69,-5.3696365
1435100752.706,-5.187523
1435100752.721,-5.224968
1435100752.737,-5.4853134
1435100752.753,-5.866295
1435100752.768,-6.229782
1435100752.784,-6.3963013
1435100752.799,-6.2029877
1435100752.815,-5.5161667
1435100752.831,-4.3396225
1435100752.846,-2.830986
1435100752.862,-1.28936
1435100752.878,-0.08785248
1435100752.893,0.48750305
1435100752.909,0.3873825
1435100752.924,-0.20098877
1435100752.94,-0.9309616
1435100752.956,-1.4457321
1435100752.971,-1.5167084
1435100752.987,-1.0629501
1435100753.003,-0.10181427
1435100753.018,1.2557297
1435100753.034,2.8417358
1435100753.05,4.4307404
1435100753.065,5.7350845
1435100753.081,6.528755
1435100753.096,6.765381
1435100753.112,6.611412
1435100753.128,6.3881454
1435100753.143,6.39254
1435100753.159,6.772873
1435100753.174,7.536331
1435100753.19,8.613892
1435100753.206,9.915176
1435100753.221,11.4038925
1435100753.237,13.009964
1435100753.253,14.614998
1435100753.268,16.041626
1435100753.284,17.153748
1435100753.3,17.877197
1435100753.315,18.261368
1435100753.331,18.342567
1435100753.346,18.07508
1435100753.362,17.351242
1435100753.378,16.067955
1435100753.393,14.205879
1435100753.409,11.896744
1435100753.425,9.370628
1435100753.44,6.846367
1435100753.456,4.463417
1435100753.471,2.2779846
1435100753.487,0.27391815
1435100753.503,-1.5352097
1435100753.518,-3.141365
1435100753.534,-4.543808
1435100753.55,-5.7130203
1435100753.565,-6.631958
1435100753.581,-7.282089
1435100753.596,-7.65271
1435100753.612,-7.786171
1435100753.628,-7.7779694
1435100753.643,-7.772629
1435100753.659,-7.8718643
1435100753.675,-8.119514
1435100753.69,-8.434509
1435100753.706,-8.718086
1435100753.721,-8.890411
1435100753.737,-8.966606
1435100753.753,-9.015503
1435100753.768,-9.146042
1435100753.784,-9.365768
1435100753.8,-9.61335
1435100753.815,-9.730545
1435100753.831,-9.575935
1435100753.846,-9.079262
1435100753.862,-8.308083
1435100753.878,-7.416588
1435100753.893,-6.6022873
1435100753.909,-6.0017548
1435100753.925,-5.6152115
1435100753.94,-5.3273315
1435100753.956,-4.9663773
1435100753.971,-4.387329
1435100753.987,-3.5549393
1435100754.003,-2.557129
1435100754.018,-1.561943
1435100754.034,-0.72520447
1435100754.05,-0.13050842
1435100754.065,0.28120422
1435100754.081,0.65737915
1435100754.096,1.2298584
1435100754.112,2.2029114
1435100754.128,3.6857986
1435100754.143,5.6206284
1435100754.159,7.8050613
1435100754.175,9.925255
1435100754.19,11.702019
1435100754.206,12.991997
1435100754.221,13.840637
1435100754.237,14.421066
1435100754.253,14.9698105
1435100754.268,15.658623
1435100754.284,16.58844
1435100754.3,17.773663
1435100754.315,19.19141
1435100754.331,20.740456
1435100754.346,22.253021
1435100754.362,23.431267
1435100754.378,23.915928
1435100754.393,23.36111
1435100754.409,21.580654
1435100754.425,18.654327
1435100754.44,14.918545
1435100754.456,10.86924
1435100754.471,7.0011826
1435100754.487,3.6635551
1435100754.503,0.97192764
1435100754.518,-1.1564789
1435100754.534,-2.8920097
1435100754.55,-4.4207993
1435100754.565,-5.815624
1435100754.581,-7.0661087
1435100754.596,-8.091347
1435100754.612,-8.820778
1435100754.628,-9.250103
1435100754.643,-9.468834
1435100754.659,-9.608349
1435100754.675,-9.765171
1435100754.69,-9.966072
1435100754.706,-10.179028
1435100754.721,-10.376583
1435100754.737,-10.5509815
1435100754.753,-10.753065
1435100754.768,-11.010893
1435100754.784,-11.307228
1435100754.8,-11.599476
1435100754.815,-11.8052635
1435100754.831,-11.903269
1435100754.846,-11.872318
1435100754.862,-11.681173
1435100754.878,-11.250523
1435100754.893,-10.500458
1435100754.909,-9.422361
1435100754.925,-8.11545
1435100754.94,-6.7970095
1435100754.956,-5.68629
1435100754.971,-4.8970814
1435100754.987,-4.379114
1435100755.003,-3.9498672
1435100755.018,-3.405758
1435100755.034,-2.6069384
1435100755.05,-1.5051513
1435100755.065,-0.12127638
1435100755.081,1.4502492
1435100755.096,3.0875158
1435100755.112,4.620508
1435100755.128,5.883146
1435100755.143,6.7829714
1435100755.159,7.4110703
1435100755.175,8.002201
1435100755.19,8.828753
1435100755.206,9.993819
1435100755.221,11.304554
1435100755.237,12.361057
1435100755.253,12.703988
1435100755.268,12.03251
1435100755.284,10.300076
1435100755.3,7.673746
1435100755.315,4.4322004
1435100755.331,0.857996
1435100755.346,-2.7873125
1435100755.362,-6.251793
1435100755.378,-9.255157
1435100755.393,-11.56881
1435100755.409,-13.073552
1435100755.425,-13.820762
1435100755.44,-14.024023
1435100755.456,-13.971931
1435100755.471,-13.875819
1435100755.487,-13.805385
1435100755.503,-13.68369
1435100755.518,-13.402147
1435100755.534,-12.941315
1435100755.55,-12.396818
1435100755.565,-11.951149
1435100755.581,-11.760988
1435100755.596,-11.848381
1435100755.612,-12.041538
1435100755.628,-12.069498
1435100755.643,-11.695463
1435100755.659,-10.841888
1435100755.675,-9.665524
1435100755.69,-8.42881
1435100755.706,-7.3760033
1435100755.722,-6.570242
1435100755.737,-5.907099
1435100755.753,-5.1533413
1435100755.768,-4.129421
1435100755.784,-2.7975693
1435100755.8,-1.2712898
1435100755.815,0.27628326
1435100755.831,1.7054424
1435100755.846,3.0004253
1435100755.862,4.2518578
1435100755.878,5.5871334
1435100755.893,7.100292
1435100755.909,8.819853
1435100755.925,10.671377
1435100755.94,12.544176
1435100755.956,14.284239
1435100755.972,15.74535
1435100755.987,16.783905
1435100756.003,17.249056
1435100756.018,16.961313
1435100756.034,15.737354
1435100756.05,13.472321
1435100756.065,10.227005
1435100756.081,6.3025017
1435100756.097,2.196621
1435100756.112,-1.5486774
1435100756.128,-4.5387936
1435100756.143,-6.6653385
1435100756.159,-8.071478
1435100756.175,-9.031765
1435100756.19,-9.759932
1435100756.206,-10.347733
1435100756.222,-10.765297
1435100756.237,-11.002735
1435100756.253,-11.12701
1435100756.268,-11.285152
1435100756.284,-11.574329
1435100756.3,-11.979015
1435100756.315,-12.332113
1435100756.331,-12.445881
1435100756.347,-12.2065735
1435100756.362,-11.631315
1435100756.378,-10.860809
1435100756.393,-10.070339
1435100756.409,-9.374752
1435100756.425,-8.787033
1435100756.44,-8.23225
1435100756.456,-7.6173344
1435100756.472,-6.854059
1435100756.487,-5.962942
1435100756.503,-5.028965
1435100756.518,-4.1938915
1435100756.534,-3.5782852
1435100756.55,-3.1980247
1435100756.565,-2.9144135
1435100756.581,-2.5027122
1435100756.597,-1.7261753
1435100756.612,-0.46800232
1435100756.628,1.2133007
1435100756.643,3.1083012
1435100756.659,4.9662323
1435100756.675,6.5712547
1435100756.69,7.819668
1435100756.706,8.735062
1435100756.722,9.424513
1435100756.737,10.081486
1435100756.753,10.942963
1435100756.768,12.207701
1435100756.784,13.962753
1435100756.8,16.1093
1435100756.815,18.356222
1435100756.831,20.269825
1435100756.847,21.4529
1435100756.862,21.600033
1435100756.878,20.618935
1435100756.893,18.574652
1435100756.909,15.686979
1435100756.925,12.280491
1435100756.94,8.731731
1435100756.956,5.379446
1435100756.972,2.4528942
1435100756.987,0.0470829
1435100757.003,-1.9114323
1435100757.018,-3.5615902
1435100757.034,-5.030525
1435100757.05,-6.4149094
1435100757.065,-7.7096233
1435100757.081,-8.871159
1435100757.097,-9.81148
1435100757.112,-10.401545
1435100757.128,-10.510557
1435100757.143,-10.108545
1435100757.159,-9.294138
1435100757.175,-8.338272
1435100757.19,-7.6276207
1435100757.206,-7.4568024
1435100757.222,-7.9090576
1435100757.237,-8.805691
1435100757.253,-9.830257
1435100757.268,-10.67643
1435100757.284,-11.186134
1435100757.3,-11.302818
1435100757.315,-11.024769
1435100757.331,-10.385267
1435100757.347,-9.413979
1435100757.362,-8.254818
1435100757.378,-7.116026
1435100757.393,-6.244976
1435100757.409,-5.7573566
1435100757.425,-5.5980644
1435100757.44,-5.5043736
1435100757.456,-5.217722
1435100757.472,-4.610813
1435100757.487,-3.7193317
1435100757.503,-2.718401
1435100757.518,-1.7756577
1435100757.534,-0.9638252
1435100757.55,-0.22686195
1435100757.565,0.51530075
1435100757.581,1.3162479
1435100757.597,2.1554546
1435100757.612,2.9378014
1435100757.628,3.5863094
1435100757.643,4.0589104
1435100757.659,4.4245777
1435100757.675,4.8733883
1435100757.69,5.6604786
1435100757.706,6.9757137
1435100757.722,8.873302
1435100757.737,11.148167
1435100757.753,13.387201
1435100757.768,15.069666
1435100757.784,15.761309
1435100757.8,15.230234
1435100757.815,13.533106
1435100757.831,10.927029
1435100757.847,7.75428
1435100757.862,4.345211
1435100757.878,0.9593868
1435100757.893,-2.2121487
1435100757.909,-5.026573
1435100757.925,-7.3884525
1435100757.94,-9.240067
1435100757.956,-10.626654
1435100757.972,-11.652464
1435100757.987,-12.492874
1435100758.003,-13.29656
1435100758.018,-14.143354
1435100758.034,-14.991068
1435100758.05,-15.650076
1435100758.065,-15.912035
1435100758.081,-15.649551
1435100758.097,-14.916899
1435100758.112,-13.960886
1435100758.128,-13.09617
1435100758.143,-12.579842
1435100758.159,-12.466934
1435100758.175,-12.647366
1435100758.19,-12.89835
1435100758.206,-13.066348
1435100758.222,-13.096672
1435100758.237,-13.015451
1435100758.253,-12.838784
1435100758.268,-12.517547
1435100758.284,-11.933115
1435100758.3,-11.003607
1435100758.315,-9.748679
1435100758.331,-8.31318
1435100758.347,-6.9169025
1435100758.362,-5.758971
1435100758.378,-4.920602
1435100758.393,-4.37498
1435100758.409,-4.002553
1435100758.425,-3.639217
1435100758.44,-3.1338763
1435100758.456,-2.4236403
1435100758.472,-1.4991903
1435100758.487,-0.46165442
1435100758.503,0.56691504
1435100758.518,1.4676294
1435100758.534,2.2115707
1435100758.55,2.85536
1435100758.565,3.5112314
1435100758.581,4.2772007
1435100758.597,5.161949
1435100758.612,6.0974216
1435100758.628,6.989792
1435100758.644,7.7859
1435100758.659,8.5227585
1435100758.675,9.29138
1435100758.69,10.194023
1435100758.706,11.255474
1435100758.722,12.436415
1435100758.737,13.632381
1435100758.753,14.747227
1435100758.769,15.705782
1435100758.784,16.439434
1435100758.8,16.864452
1435100758.815,16.880186
1435100758.831,16.379107
1435100758.847,15.287846
1435100758.862,13.629253
1435100758.878,11.516491
1435100758.894,9.102943
1435100758.909,6.559784
1435100758.925,3.9991493
1435100758.94,1.5108376
1435100758.956,-0.82629776
1435100758.972,-2.8887634
1435100758.987,-4.5263596
1435100759.003,-5.587715
1435100759.019,-6.0571938
1435100759.034,-6.0659943
1435100759.05,-5.8826485
1435100759.065,-5.815136
1435100759.081,-6.0628586
1435100759.097,-6.624279
1435100759.112,-7.3251114
1435100759.128,-7.931778
1435100759.144,-8.278809
1435100759.159,-8.335209
1435100759.175,-8.176193
1435100759.19,-7.8844986
1435100759.206,-7.4949074
1435100759.222,-6.972286
1435100759.237,-6.2914886
1435100759.253,-5.4866447
1435100759.269,-4.687668
1435100759.284,-4.058193
1435100759.3,-3.7542763
1435100759.315,-3.8027
1435100759.331,-4.1079597
1435100759.347,-4.473942
1435100759.362,-4.6580276
1435100759.378,-4.4745483
1435100759.394,-3.8815536
1435100759.409,-2.9832382
1435100759.425,-2.0085907
1435100759.44,-1.2064896
1435100759.456,-0.7484131
1435100759.472,-0.6362457
1435100759.487,-0.76181793
1435100759.503,-0.9199295
1435100759.519,-0.9693146
1435100759.534,-0.8526993
1435100759.55,-0.5545502
1435100759.565,-0.08546448
1435100759.581,0.538887
1435100759.597,1.2925949
1435100759.612,2.1092377
1435100759.628,2.8555374
1435100759.644,3.3974762
1435100759.659,3.6652298
1435100759.675,3.695488
1435100759.69,3.63311
1435100759.706,3.6387253
1435100759.722,3.8314438
1435100759.737,4.2551804
1435100759.753,4.8970413
1435100759.769,5.674629
1435100759.784,6.5269394
1435100759.8,7.370674
1435100759.815,8.13784
1435100759.831,8.780945
1435100759.847,9.296722
1435100759.862,9.7204895
1435100759.878,10.158539
1435100759.894,10.697632
1435100759.909,11.388344
1435100759.925,12.2430725
1435100759.94,13.240906
1435100759.956,14.351677
1435100759.972,15.55603
1435100759.987,16.815811
1435100760.003,18.036316
1435100760.019,19.001686
1435100760.034,19.43045
1435100760.05,19.01091
1435100760.065,17.573135
1435100760.081,15.198357
1435100760.097,12.237473
1435100760.112,9.258644
1435100760.128,6.8233337
1435100760.144,5.249344
1435100760.159,4.5179596
1435100760.175,4.2782745
1435100760.19,4.056267
1435100760.206,3.5042343
1435100760.222,2.555008
1435100760.237,1.400032
1435100760.253,0.352417
1435100760.269,-0.3763504
1435100760.284,-0.7723999
1435100760.3,-1.0103455
1435100760.315,-1.2903214
1435100760.331,-1.6938019
1435100760.347,-2.1258163
1435100760.362,-2.4025955
1435100760.378,-2.363617
1435100760.394,-2.0193253
1435100760.409,-1.5457687
1435100760.425,-1.2169037
1435100760.44,-1.2283249
1435100760.456,-1.6111832
1435100760.472,-2.2370148
1435100760.487,-2.8850937
1435100760.503,-3.3657837
1435100760.519,-3.6311493
1435100760.534,-3.7278519
1435100760.55,-3.784195
1435100760.565,-3.8875504
1435100760.581,-4.0662155
1435100760.597,-4.263481
1435100760.612,-4.406006
1435100760.628,-4.4030533
1435100760.644,-4.2192383
1435100760.659,-3.8494415
1435100760.675,-3.3292465
1435100760.69,-2.7354736
1435100760.706,-2.1663284
1435100760.722,-1.7062225
1435100760.737,-1.394989
1435100760.753,-1.193222
1435100760.769,-1.0202789
1435100760.784,-0.79093933
1435100760.8,-0.5218506
1435100760.815,-0.27445984
1435100760.831,-0.13541412
1435100760.847,-0.109451294
1435100760.862,-0.0975647
1435100760.878,0.09354401
1435100760.894,0.62093353
1435100760.909,1.5108032
1435100760.925,2.63665
1435100760.94,3.7645493
1435100760.956,4.656868
1435100760.972,5.203987
1435100760.987,5.4374084
1435100761.003,5.524704
1435100761.019,5.6577454
1435100761.034,6.016838
1435100761.05,6.6861725
1435100761.065,7.681877
1435100761.081,8.875694
1435100761.097,10.041412
1435100761.112,10.853699
1435100761.128,10.992798
1435100761.144,10.241249
1435100761.159,8.583984
1435100761.175,6.186325
1435100761.19,3.370964
1435100761.206,0.49306488
1435100761.222,-2.1064758
1435100761.237,-4.164444
1435100761.253,-5.5145416
1435100761.269,-6.153023
1435100761.284,-6.215271
1435100761.3,-5.9822235
1435100761.316,-5.759262
1435100761.331,-5.7723465
1435100761.347,-6.056961
1435100761.362,-6.4911804
1435100761.378,-6.867401
1435100761.394,-7.0383224
1435100761.409,-6.9630585
1435100761.425,-6.6889954
1435100761.441,-6.2753067
1435100761.456,-5.786026
1435100761.472,-5.277237
1435100761.487,-4.852371
1435100761.503,-4.665268
1435100761.519,-4.8655243
1435100761.534,-5.4762726
1435100761.55,-6.3669815
1435100761.566,-7.2147217
1435100761.581,-7.7085648
1435100761.597,-7.6509705
1435100761.612,-7.057541
1435100761.628,-6.1117096
1435100761.644,-5.089409
1435100761.659,-4.218033
1435100761.675,-3.5985565
1435100761.691,-3.2123413
1435100761.706,-2.937233
1435100761.722,-2.6442337
1435100761.737,-2.2588196
1435100761.753,-1.798523
1435100761.769,-1.368103
1435100761.784,-1.0599747
1435100761.8,-0.89190674
1435100761.816,-0.774704
1435100761.831,-0.559639
1435100761.847,-0.12516785
1435100761.862,0.5344696
1435100761.878,1.3274231
1435100761.894,2.089508
1435100761.909,2.701065
1435100761.925,3.1226425
1435100761.941,3.4118576
1435100761.956,3.6564865
1435100761.972,3.9475555
1435100761.987,4.335327
1435100762.003,4.854042
1435100762.019,5.5242844
1435100762.034,6.362129
1435100762.05,7.372452
1435100762.066,8.541382
1435100762.081,9.826332
1435100762.097,11.180977
1435100762.112,12.537758
1435100762.128,13.86084
1435100762.144,15.12043
1435100762.159,16.330132
1435100762.175,17.555992
1435100762.191,18.83162
1435100762.206,20.077019
1435100762.222,21.05233
1435100762.237,21.371758
1435100762.253,20.66964
1435100762.269,18.764267
1435100762.284,15.815552
1435100762.3,12.257156
1435100762.316,8.666855
1435100762.331,5.521866
1435100762.347,3.0350876
1435100762.362,1.1740799
1435100762.378,-0.22666168
1435100762.394,-1.3569183
1435100762.409,-2.2677994
1435100762.425,-2.9563065
1435100762.441,-3.3963318
1435100762.456,-3.6299667
1435100762.472,-3.7453918
1435100762.487,-3.8836746
1435100762.503,-4.104973
1435100762.519,-4.42247
1435100762.534,-4.796158
1435100762.55,-5.157585
1435100762.566,-5.481224
1435100762.581,-5.7869186
1435100762.597,-6.1082764
1435100762.612,-6.47876
1435100762.628,-6.896042
1435100762.644,-7.344406
1435100762.659,-7.7668686
1435100762.675,-8.132912
1435100762.691,-8.39431
1435100762.706,-8.525795
1435100762.722,-8.517044
1435100762.737,-8.377533
1435100762.753,-8.128593
1435100762.769,-7.8153763
1435100762.784,-7.467888
1435100762.8,-7.0895576
1435100762.816,-6.6755104
1435100762.831,-6.1994514
1435100762.847,-5.6640167
1435100762.862,-5.1146126
1435100762.878,-4.606575
1435100762.894,-4.2047997
1435100762.909,-3.8976936
1435100762.925,-3.601448
1435100762.941,-3.1648598
1435100762.956,-2.4669838
1435100762.972,-1.4873581
1435100762.987,-0.34426117
1435100763.003,0.75787735
1435100763.019,1.622158
1435100763.034,2.1580887
1435100763.05,2.423973
1435100763.066,2.6003075
1435100763.081,2.8998222
1435100763.097,3.5106125
1435100763.112,4.5338974
1435100763.128,5.99144
1435100763.144,7.788189
1435100763.159,9.782295
1435100763.175,11.774136
1435100763.191,13.598526
1435100763.206,15.153286
1435100763.222,16.461994
1435100763.237,17.632145
1435100763.253,18.8018
1435100763.269,20.060692
1435100763.284,21.394524
1435100763.3,22.73824
1435100763.316,23.98124
1435100763.331,24.956474
1435100763.347,25.457233
1435100763.362,25.197914
1435100763.378,23.897133
1435100763.394,21.401943
1435100763.409,17.83454
1435100763.425,13.570839
1435100763.441,9.188229
1435100763.456,5.2142735
1435100763.472,1.9762516
1435100763.487,-0.46437073
1435100763.503,-2.2325077
1435100763.519,-3.546194
1435100763.534,-4.574709
1435100763.55,-5.4218445
1435100763.566,-6.14867
1435100763.581,-6.7974644
1435100763.597,-7.400037
1435100763.612,-7.984702
1435100763.628,-8.5518875
1435100763.644,-9.090671
1435100763.659,-9.599269
1435100763.675,-10.059243
1435100763.691,-10.475174
1435100763.706,-10.877411
1435100763.722,-11.292059
1435100763.737,-11.783926
1435100763.753,-12.375061
1435100763.769,-13.0716305
1435100763.784,-13.805431
1435100763.8,-14.468934
1435100763.816,-14.922247
1435100763.831,-15.075892
1435100763.847,-14.895309
1435100763.862,-14.405048
1435100763.878,-13.658066
1435100763.894,-12.727316
1435100763.909,-11.662088
1435100763.925,-10.522547
1435100763.941,-9.361698
1435100763.956,-8.231293
1435100763.972,-7.162237
1435100763.988,-6.201708
1435100764.003,-5.3738804
1435100764.019,-4.71397
1435100764.034,-4.229967
1435100764.05,-3.8540668
1435100764.066,-3.4348717
1435100764.081,-2.7658997
1435100764.097,-1.6412735
1435100764.112,-0.0030784607
1435100764.128,2.0439034
1435100764.144,4.215275
1435100764.159,6.185898
1435100764.175,7.7072105
1435100764.191,8.749592
1435100764.206,9.474419
1435100764.222,10.190586
1435100764.238,11.191849
1435100764.253,12.677921
1435100764.269,14.646027
1435100764.284,16.9114
1435100764.3,19.116684
1435100764.316,20.833153
1435100764.331,21.649246
1435100764.347,21.272121
1435100764.363,19.5559
1435100764.378,16.561203
1435100764.394,12.48856
1435100764.409,7.7066574
1435100764.425,2.6666794
1435100764.441,-2.1267738
1435100764.456,-6.2601395
1435100764.472,-9.468151
1435100764.488,-11.734543
1435100764.503,-13.234886
1435100764.519,-14.266502
1435100764.534,-15.072479
1435100764.55,-15.788681
1435100764.566,-16.40461
1435100764.581,-16.83162
1435100764.597,-17.002403
1435100764.613,-16.928665
1435100764.628,-16.693962
1435100764.644,-16.41832
1435100764.659,-16.203537
1435100764.675,-16.126457
1435100764.691,-16.221054
1435100764.706,-16.500443
1435100764.722,-16.948204
1435100764.738,-17.5141
1435100764.753,-18.100426
1435100764.769,-18.59652
1435100764.784,-18.881935
1435100764.8,-18.85215
1435100764.816,-18.425499
1435100764.831,-17.572632
1435100764.847,-16.311539
1435100764.863,-14.739876
1435100764.878,-12.971962
1435100764.894,-11.1324005
1435100764.909,-9.297226
1435100764.925,-7.5105057
1435100764.941,-5.7826996
1435100764.956,-4.143013
1435100764.972,-2.6410828
1435100764.988,-1.3260956
1435100765.003,-0.20259857
1435100765.019,0.75839996
1435100765.034,1.6493301
1435100765.05,2.5939713
1435100765.066,3.7033768
1435100765.081,5.03228
1435100765.097,6.5688324
1435100765.113,8.194054
1435100765.128,9.751289
1435100765.144,11.107262
1435100765.159,12.240646
1435100765.175,13.290894
1435100765.191,14.531532
1435100765.206,16.236435
1435100765.222,18.550339
1435100765.238,21.384407
1435100765.253,24.422745
1435100765.269,27.194183
1435100765.284,29.204681
1435100765.3,30.029442
1435100765.316,29.388687
1435100765.331,27.179245
1435100765.347,23.555367
1435100765.363,18.859077
1435100765.378,13.612457
1435100765.394,8.336739
1435100765.409,3.4236145
1435100765.425,-0.94699097
1435100765.441,-4.7799377
1435100765.456,-8.166298
1435100765.472,-11.1618805
1435100765.488,-13.728058
1435100765.503,-15.772026
1435100765.519,-17.2238
1435100765.534,-18.065735
1435100765.55,-18.34819
1435100765.566,-18.157013
1435100765.581,-17.614662
1435100765.597,-16.865646
1435100765.613,-16.123314
1435100765.628,-15.591484
1435100765.644,-15.455376
1435100765.659,-15.747421
1435100765.675,-16.371887
1435100765.691,-17.092293
1435100765.706,-17.670128
1435100765.722,-17.922699
1435100765.738,-17.79889
1435100765.753,-17.363937
1435100765.769,-16.75016
1435100765.784,-16.09668
1435100765.8,-15.463005
1435100765.816,-14.816147
