1427146441.678,0.0
1427146441.694,0.0
1427146441.709,0.0
1427146441.725,0.0
1427146441.741,0.0
1427146441.756,0.0
1427146441.772,0.0
1427146441.788,0.0
1427146441.803,0.0
1427146441.819,0.0022315353
1427146441.834,-0.0045169927
1427146441.85,-0.011265522
1427146441.866,-0.011383951
1427146441.881,0.0011864507
1427146441.897,0.025910312
1427146441.913,0.050634187
1427146441.928,0.051362894
1427146441.944,-0.0014929791
1427146441.959,-0.1302426
1427146441.975,-0.35562757
1427146441.991,-0.6591247
1427146442.006,-1.0095103
1427146442.022,-1.3709826
1427146442.038,-1.7197359
1427146442.053,-2.0551105
1427146442.069,-2.39945
1427146442.084,-2.7866635
1427146442.1,-3.2399073
1427146442.116,-3.796012
1427146442.131,-4.418684
1427146442.147,-5.0592937
1427146442.163,-5.6644096
1427146442.178,-6.2021537
1427146442.194,-6.6808796
1427146442.209,-7.149598
1427146442.225,-7.6782336
1427146442.241,-8.310739
1427146442.256,-9.143657
1427146442.272,-10.089731
1427146442.288,-11.041313
1427146442.303,-11.8842125
1427146442.319,-12.564316
1427146442.334,-13.13563
1427146442.35,-13.760044
1427146442.366,-14.65232
1427146442.381,-15.962056
1427146442.397,-17.914442
1427146442.413,-20.317299
1427146442.428,-22.903854
1427146442.444,-25.37947
1427146442.459,-27.578028
1427146442.475,-29.57246
1427146442.491,-31.675173
1427146442.506,-34.3178
1427146442.522,-37.813618
1427146442.538,-42.541233
1427146442.553,-48.1463
1427146442.569,-54.104755
1427146442.584,-59.83309
1427146442.6,-64.972374
1427146442.616,-69.58293
1427146442.631,-74.14353
1427146442.647,-79.344986
1427146442.663,-85.70726
1427146442.678,-93.76193
1427146442.694,-102.99779
1427146442.709,-112.61757
1427146442.725,-121.73034
1427146442.741,-129.76602
1427146442.756,-136.75102
1427146442.772,-143.30344
1427146442.788,-150.74623
1427146442.803,-157.77356
1427146442.819,-166.64323
1427146442.834,-177.94798
1427146442.85,-191.79102
1427146442.866,-206.96808
1427146442.881,-220.56592
1427146442.897,-228.24644
1427146442.913,-225.36154
1427146442.928,-208.53198
1427146442.944,-176.87024
1427146442.959,-132.76222
1427146442.975,-80.04997
1427146442.991,-23.069275
1427146443.006,34.94339
1427146443.022,92.43695
1427146443.038,149.15695
1427146443.053,205.22772
1427146443.069,260.36963
1427146443.084,313.74133
1427146443.1,363.87396
1427146443.116,409.83353
1427146443.131,450.90775
1427146443.147,486.50244
1427146443.163,515.73865
1427146443.178,537.2274
1427146443.194,549.22
1427146443.209,549.9613
1427146443.225,538.367
1427146443.241,514.2055
1427146443.256,478.674
1427146443.272,433.87952
1427146443.288,382.45126
1427146443.303,327.02106
1427146443.319,269.84186
1427146443.334,212.63379
1427146443.35,156.6594
1427146443.366,102.95233
1427146443.381,52.373596
1427146443.397,5.9046936
1427146443.413,-35.580414
1427146443.428,-71.42584
1427146443.444,-101.35184
1427146443.459,-125.50113
1427146443.475,-144.3797
1427146443.491,-158.69403
1427146443.506,-169.15071
1427146443.522,-176.3711
1427146443.538,-180.75139
1427146443.553,-182.57419
1427146443.569,-182.06863
1427146443.584,-179.5066
1427146443.6,-175.23325
1427146443.616,-169.65286
1427146443.631,-163.17691
1427146443.647,-156.14568
1427146443.663,-148.80681
1427146443.678,-141.29686
1427146443.694,-133.68983
1427146443.71,-126.01962
1427146443.725,-118.33268
1427146443.741,-110.68864
1427146443.756,-103.15572
1427146443.772,-95.80455
1427146443.788,-88.684166
1427146443.803,-81.82744
1427146443.819,-75.24594
1427146443.835,-68.9526
1427146443.85,-62.949085
1427146443.866,-57.247494
1427146443.881,-51.857185
1427146443.897,-46.78282
1427146443.913,-42.02776
1427146443.928,-37.58521
1427146443.944,-33.451748
1427146443.96,-29.613855
1427146443.975,-26.070963
1427146443.991,-22.808779
1427146444.006,-19.824995
1427146444.022,-17.113392
1427146444.038,-14.666497
1427146444.053,-12.47932
1427146444.069,-10.538469
1427146444.085,-8.833674
1427146444.1,-7.3478527
1427146444.116,-6.067689
1427146444.131,-4.9734235
1427146444.147,-4.046258
1427146444.163,-3.2673752
1427146444.178,-2.6211367
1427146444.194,-2.088365
1427146444.21,-1.6507506
1427146444.225,-1.2976913
1427146444.241,-1.0147024
1427146444.256,-0.79105926
1427146444.272,-0.6133206
1427146444.288,-0.47516227
1427146444.303,-0.3684653
1427146444.319,-0.28461677
1427146444.335,-0.22397345
1427146444.35,-0.17647654
1427146444.366,-0.14055526
1427146444.381,-0.11251485
1427146444.397,-0.0926249
1427146444.413,-0.07977182
1427146444.428,-0.06783539
1427146444.444,-0.05929327
1427146444.46,-0.052183747
1427146444.475,-0.046860814
1427146444.491,-0.044131815
1427146444.506,-0.040358156
1427146444.522,-0.039164305
1427146444.538,-0.034330726
1427146444.553,-0.03515649
1427146444.569,-0.03181714
1427146444.585,-0.030750751
1427146444.6,-0.02810505
1427146444.616,-0.029290557
1427146444.631,-0.027453512
1427146444.647,-0.026081413
1427146444.663,-0.023851603
1427146444.678,-0.022989094
1427146444.694,-0.022172749
1427146444.71,-0.022157341
1427146444.725,-0.020828396
1427146444.741,-0.020277172
1427146444.756,-0.01940465
1427146444.772,-0.018795371
1427146444.788,-0.019169807
1427146444.803,-0.017195046
1427146444.819,-0.016264498
1427146444.835,-0.01676847
1427146444.85,-0.016039208
1427146444.866,-0.016356274
1427146444.881,-0.012255222
1427146444.897,-0.014531761
1427146444.913,-0.013970271
1427146444.928,-0.0151048
1427146444.944,-0.011057541
1427146444.96,-0.0131264925
1427146444.975,-0.011830375
1427146444.991,-0.011561602
1427146445.006,-0.011305705
1427146445.022,-0.011727303
1427146445.038,-0.011188552
1427146445.053,-0.00897336
1427146445.069,-0.0100701
1427146445.085,-0.010106817
1427146445.1,-0.00829272
1427146445.116,-0.012381226
1427146445.131,-0.009308472
1427146445.147,-0.009468168
1427146445.163,-0.0076998025
1427146445.178,-0.008273825
1427146445.194,-0.006166175
1427146445.21,-0.011123031
1427146445.225,-0.0061910003
1427146445.241,-0.0064854324
1427146445.256,-0.0073835254
1427146445.272,-0.0068089813
1427146445.288,-0.006369114
1427146445.303,-0.0060507804
1427146445.319,-0.009991199
1427146445.335,-0.0037221313
1427146445.35,-0.007614076
1427146445.366,-0.0034412742
1427146445.381,-0.006843284
1427146445.397,-0.008096278
1427146445.413,-0.004096344
1427146445.428,-0.0026427805
1427146445.444,-0.005605355
1427146445.46,-0.0030369759
1427146445.475,-0.0060448796
1427146445.491,-0.008684054
1427146445.506,-0.010535389
1427146445.522,-0.008763775
1427146445.538,-0.015291482
1427146445.553,-0.02574797
1427146445.569,-0.043004885
1427146445.585,-0.075688675
1427146445.6,-0.11608276
1427146445.616,-0.14833558
1427146445.631,-0.16360769
1427146445.647,-0.14903024
1427146445.663,-0.10693887
1427146445.678,-0.054241136
1427146445.694,-0.0028403252
1427146445.71,0.020274498
1427146445.725,-5.4460764E-4
1427146445.741,-0.04338771
1427146445.756,-0.102963895
1427146445.772,-0.14531541
1427146445.788,-0.14663282
1427146445.803,-0.112552434
1427146445.819,-0.06822114
1427146445.835,-0.0461123
1427146445.85,-0.06616269
1427146445.866,-0.15778118
1427146445.881,-0.28121164
1427146445.897,-0.39444
1427146445.913,-0.44886047
1427146445.928,-0.40181917
1427146445.944,-0.27529094
1427146445.96,-0.12883271
1427146445.975,-0.04146515
1427146445.991,-0.09877759
1427146446.006,-0.31508577
1427146446.022,-0.6341516
1427146446.038,-0.9403465
1427146446.053,-1.0967313
1427146446.069,-1.0133475
1427146446.085,-0.7170613
1427146446.1,-0.336723
1427146446.116,-0.09380652
1427146446.131,-0.14558461
1427146446.147,-0.5703474
1427146446.163,-1.2315394
1427146446.178,-1.8752214
1427146446.194,-2.2095602
1427146446.21,-2.0386438
1427146446.225,-1.4201812
1427146446.241,-0.6330094
1427146446.256,-0.084092155
1427146446.272,-0.10398464
1427146446.288,-0.8150546
1427146446.303,-1.9655552
1427146446.319,-3.0730782
1427146446.335,-3.6211393
1427146446.35,-3.3181138
1427146446.366,-2.2611976
1427146446.382,-0.95446545
1427146446.397,-0.07023628
1427146446.413,-0.06056362
1427146446.428,-1.0024648
1427146446.444,-2.4638042
1427146446.46,-3.7230716
1427146446.475,-4.0897837
1427146446.491,-3.12952
1427146446.506,-0.73396873
1427146446.522,3.0472252
1427146446.538,8.016655
1427146446.553,13.692726
1427146446.569,19.07999
1427146446.585,22.782412
1427146446.6,23.326805
1427146446.616,19.93569
1427146446.632,13.002588
1427146446.647,4.2556257
1427146446.663,-4.037192
1427146446.678,-9.94476
1427146446.694,-12.624155
1427146446.71,-12.538862
1427146446.725,-10.920798
1427146446.741,-8.954634
1427146446.757,-7.0686326
1427146446.772,-4.8634205
1427146446.788,-1.6737053
1427146446.803,2.7800894
1427146446.819,7.827051
1427146446.835,12.0581455
1427146446.85,13.850272
1427146446.866,12.297913
1427146446.882,7.681579
1427146446.897,1.4321551
1427146446.913,-4.3987923
1427146446.928,-8.072522
1427146446.944,-8.916615
1427146446.96,-7.5382476
1427146446.975,-5.392107
1427146446.991,-3.9596312
1427146447.007,-3.9482894
1427146447.022,-5.053014
1427146447.038,-6.241118
1427146447.053,-6.480546
1427146447.069,-5.4552464
1427146447.085,-3.664821
1427146447.1,-2.1239152
1427146447.116,-1.7060272
1427146447.132,-2.703359
1427146447.147,-4.5033245
1427146447.163,-6.107989
1427146447.178,-6.563996
1427146447.194,-5.592185
1427146447.21,-3.7215786
1427146447.225,-1.8757024
1427146447.241,-0.87638927
1427146447.257,-0.9923574
1427146447.272,-1.839027
1427146447.288,-2.7206142
1427146447.303,-3.0477061
1427146447.319,-2.531811
1427146447.335,-1.3901889
1427146447.35,-0.1343961
1427146447.366,0.7189721
1427146447.382,0.9242233
1427146447.397,0.5801269
1427146447.413,0.031493306
1427146447.428,-0.17688537
1427146447.444,0.44167936
1427146447.46,2.3854861
1427146447.475,5.7161565
1427146447.491,10.033291
1427146447.507,14.536
1427146447.522,18.341778
1427146447.538,20.816769
1427146447.553,21.885794
1427146447.569,22.069622
1427146447.585,21.271177
1427146447.6,20.090733
1427146447.616,19.097134
1427146447.632,18.573248
1427146447.647,18.554996
1427146447.663,18.911978
1427146447.678,19.499046
1427146447.694,20.200619
1427146447.71,20.85841
1427146447.725,21.24184
1427146447.741,21.224485
1427146447.757,20.620789
1427146447.772,19.334063
1427146447.788,17.405672
1427146447.803,15.027824
1427146447.819,12.452407
1427146447.835,9.963547
1427146447.85,7.7913055
1427146447.866,6.048889
1427146447.882,4.7237244
1427146447.897,3.4859238
1427146447.913,1.7843914
1427146447.928,-0.8075638
1427146447.944,-4.3072376
1427146447.96,-8.175026
1427146447.975,-11.550091
1427146447.991,-13.697842
1427146448.007,-14.450216
1427146448.022,-14.211765
1427146448.038,-13.802036
1427146448.053,-13.927181
1427146448.069,-14.841694
1427146448.085,-16.23384
1427146448.1,-17.514477
1427146448.116,-18.158897
1427146448.132,-17.994797
1427146448.147,-17.141403
1427146448.163,-15.847725
1427146448.178,-14.386105
1427146448.194,-12.980137
1427146448.21,-11.803272
1427146448.225,-11.020462
1427146448.241,-10.668808
1427146448.257,-10.624931
1427146448.272,-10.602352
1427146448.288,-10.29015
1427146448.303,-9.511635
1427146448.319,-8.315796
1427146448.335,-6.8627167
1427146448.35,-5.2895927
1427146448.366,-3.5923882
1427146448.382,-1.7284584
1427146448.397,0.28070068
1427146448.413,2.2462997
1427146448.428,4.0018845
1427146448.444,5.5429153
1427146448.46,7.218933
1427146448.475,9.5551605
1427146448.491,12.9925
1427146448.507,17.48542
1427146448.522,22.567253
1427146448.538,27.42511
1427146448.553,31.375107
1427146448.569,34.052437
1427146448.585,35.396378
1427146448.6,35.442978
1427146448.616,34.16617
1427146448.632,31.495644
1427146448.647,27.419388
1427146448.663,22.090248
1427146448.678,15.782928
1427146448.694,8.780754
1427146448.71,1.2608185
1427146448.725,-6.717163
1427146448.741,-15.039223
1427146448.757,-23.440346
1427146448.772,-31.390602
1427146448.788,-38.270714
1427146448.803,-43.509262
1427146448.819,-46.812447
1427146448.835,-48.17296
1427146448.85,-47.832977
1427146448.866,-46.042747
1427146448.882,-42.9795
1427146448.897,-38.723717
1427146448.913,-33.375504
1427146448.928,-27.211296
1427146448.944,-20.836891
1427146448.96,-15.098946
1427146448.975,-10.845154
1427146448.991,-8.565544
1427146449.007,-8.110634
1427146449.022,-8.636932
1427146449.038,-9.081474
1427146449.053,-8.618271
1427146449.069,-7.0870056
1427146449.085,-4.889595
1427146449.1,-2.6741486
1427146449.116,-0.83699036
1427146449.132,0.6630707
1427146449.147,2.0790405
1427146449.163,3.4351044
1427146449.178,4.333946
1427146449.194,4.1136093
1427146449.21,2.5987015
1427146449.225,0.5315857
1427146449.241,-0.43978882
1427146449.257,1.4925919
1427146449.272,7.396019
1427146449.288,16.89087
1427146449.304,28.27517
1427146449.319,39.16867
1427146449.335,47.48175
1427146449.35,52.044205
1427146449.366,52.688393
1427146449.382,49.93753
1427146449.397,44.57895
1427146449.413,37.386772
1427146449.429,29.136238
1427146449.444,20.599136
1427146449.46,12.553658
1427146449.475,5.6102905
1427146449.491,0.06678772
1427146449.507,-4.1790314
1427146449.522,-7.5446243
1427146449.538,-10.5821
1427146449.554,-13.72258
1427146449.569,-17.270927
1427146449.585,-21.168633
1427146449.6,-25.125084
1427146449.616,-28.695564
1427146449.632,-31.471588
1427146449.647,-33.32144
1427146449.663,-34.458595
1427146449.679,-35.28447
1427146449.694,-36.199898
1427146449.71,-37.3469
1427146449.725,-38.48044
1427146449.741,-39.038513
1427146449.757,-38.352753
1427146449.772,-35.811478
1427146449.788,-31.08677
1427146449.804,-24.226639
1427146449.819,-15.756187
1427146449.835,-6.607544
1427146449.85,2.0393066
1427146449.866,9.069115
1427146449.882,13.760567
1427146449.897,16.034706
1427146449.913,16.386467
1427146449.929,15.683807
1427146449.944,14.671547
1427146449.96,13.753273
1427146449.975,12.905014
1427146449.991,11.945389
1427146450.007,10.844292
1427146450.022,9.894478
1427146450.038,9.549721
1427146450.054,10.167641
1427146450.069,11.779564
1427146450.085,14.102554
1427146450.1,16.800583
1427146450.116,19.74778
1427146450.132,23.114883
1427146450.147,27.245094
1427146450.163,32.351585
1427146450.179,38.299316
1427146450.194,44.603424
1427146450.21,50.576027
1427146450.225,55.483963
1427146450.241,58.698456
1427146450.257,59.703033
1427146450.272,58.161606
1427146450.288,53.976303
1427146450.304,47.435654
1427146450.319,39.20511
1427146450.335,30.25499
1427146450.35,21.587036
1427146450.366,13.951096
1427146450.382,7.6946564
1427146450.397,2.7359314
1427146450.413,-1.306961
1427146450.429,-4.8943634
1427146450.444,-8.431183
1427146450.46,-12.118225
1427146450.475,-15.907654
1427146450.491,-19.486572
1427146450.507,-22.451797
1427146450.522,-24.457077
1427146450.538,-25.529327
1427146450.554,-26.101074
1427146450.569,-26.838394
1427146450.585,-28.335007
1427146450.6,-30.801117
1427146450.616,-33.963013
1427146450.632,-37.28264
1427146450.647,-40.21965
1427146450.663,-42.47249
1427146450.679,-43.970627
1427146450.694,-44.733948
1427146450.71,-44.677887
1427146450.725,-43.683838
1427146450.741,-41.69507
1427146450.757,-38.88507
1427146450.772,-35.617905
1427146450.788,-32.32904
1427146450.804,-29.223541
1427146450.819,-26.292755
1427146450.835,-23.398865
1427146450.85,-20.498047
1427146450.866,-17.768387
1427146450.882,-15.492111
1427146450.897,-13.821701
1427146450.913,-12.609711
1427146450.929,-11.427658
1427146450.944,-9.863541
1427146450.96,-7.732254
1427146450.975,-5.174515
1427146450.991,-2.4984436
1427146451.007,0.046310425
1427146451.022,2.490631
1427146451.038,5.136261
1427146451.054,8.387146
1427146451.069,12.529388
1427146451.085,17.595383
1427146451.1,23.325531
1427146451.116,29.199844
1427146451.132,34.54416
1427146451.147,38.61223
1427146451.163,40.69748
1427146451.179,40.302475
1427146451.194,37.287598
1427146451.21,31.996613
1427146451.225,25.2426
1427146451.241,18.110184
1427146451.257,11.658127
1427146451.272,6.688202
1427146451.288,3.502411
1427146451.304,1.929184
1427146451.319,1.4225922
1427146451.335,1.2519379
1427146451.35,0.7438812
1427146451.366,-0.5023804
1427146451.382,-2.5234222
1427146451.397,-5.048218
1427146451.413,-7.701721
1427146451.429,-10.213242
1427146451.444,-12.563171
1427146451.46,-14.938431
1427146451.475,-17.553253
1427146451.491,-20.425934
1427146451.507,-23.325531
1427146451.522,-25.878845
1427146451.538,-27.813248
1427146451.554,-29.096832
1427146451.569,-29.959229
1427146451.585,-30.67044
1427146451.6,-31.288803
1427146451.616,-31.552094
1427146451.632,-30.950546
1427146451.647,-29.038605
1427146451.663,-25.734406
1427146451.679,-21.425385
1427146451.694,-16.860855
1427146451.71,-12.799744
1427146451.725,-9.688171
1427146451.741,-7.5257416
1427146451.757,-5.9968567
1427146451.772,-4.6769714
1427146451.788,-3.264923
1427146451.804,-1.6252441
1427146451.819,0.28935242
1427146451.835,2.5631714
1427146451.85,5.27417
1427146451.866,8.41539
1427146451.882,11.732971
1427146451.897,14.805252
1427146451.913,17.207336
1427146451.929,18.850586
1427146451.944,20.090317
1427146451.96,21.676804
1427146451.976,24.332352
1427146451.991,28.346191
1427146452.007,33.274445
1427146452.022,38.05835
1427146452.038,41.357468
1427146452.054,42.09709
1427146452.069,39.842224
1427146452.085,34.971786
1427146452.101,28.466736
1427146452.116,21.545303
1427146452.132,15.225388
1427146452.147,10.03186
1427146452.163,5.9644623
1427146452.179,2.680359
1427146452.194,-0.24537659
1427146452.21,-3.1111603
1427146452.226,-6.043976
1427146452.241,-9.03331
1427146452.257,-12.046326
1427146452.272,-14.963898
1427146452.288,-17.633286
1427146452.304,-19.839188
1427146452.319,-21.473251
1427146452.335,-22.602036
1427146452.351,-23.556427
1427146452.366,-24.744919
1427146452.382,-26.460754
1427146452.397,-28.665375
1427146452.413,-31.014008
1427146452.429,-33.041977
1427146452.444,-34.402725
1427146452.46,-34.996506
1427146452.476,-34.885086
1427146452.491,-34.119537
1427146452.507,-32.65193
1427146452.522,-30.371933
1427146452.538,-27.298096
1427146452.554,-23.680786
1427146452.569,-19.9543
1427146452.585,-16.536713
1427146452.601,-13.665253
1427146452.616,-11.308701
1427146452.632,-9.282684
1427146452.647,-7.3831787
1427146452.663,-5.4809113
1427146452.679,-3.5353088
1427146452.694,-1.5287933
1427146452.71,0.5615845
1427146452.726,2.7278442
1427146452.741,4.9324036
1427146452.757,7.0930634
1427146452.772,9.195023
1427146452.788,11.311996
1427146452.804,13.661148
1427146452.819,16.40036
1427146452.835,19.61982
1427146452.851,23.202477
1427146452.866,26.971306
1427146452.882,30.680168
1427146452.897,34.08809
1427146452.913,36.85311
1427146452.929,38.471214
1427146452.944,38.365776
1427146452.96,36.10035
1427146452.976,31.68422
1427146452.991,25.67228
1427146453.007,19.066673
1427146453.022,12.928658
1427146453.038,7.9376373
1427146453.054,4.1741104
1427146453.069,1.1706696
1427146453.085,-1.7039413
1427146453.101,-4.840515
1427146453.116,-8.0942
1427146453.132,-10.904106
1427146453.147,-12.612679
1427146453.163,-12.912201
1427146453.179,-12.089973
1427146453.194,-10.9346695
1427146453.21,-10.36203
1427146453.226,-10.9965515
1427146453.241,-12.876411
1427146453.257,-15.511353
1427146453.272,-18.133492
1427146453.288,-20.07402
1427146453.304,-21.01921
1427146453.319,-21.08496
1427146453.335,-20.649796
1427146453.351,-20.074905
1427146453.366,-19.500298
1427146453.382,-18.837402
1427146453.397,-17.845749
1427146453.413,-16.373878
1427146453.429,-14.533722
1427146453.444,-12.689362
1427146453.46,-11.264725
1427146453.476,-10.526665
1427146453.491,-10.359451
1427146453.507,-10.277702
1427146453.522,-9.637688
1427146453.538,-7.9709015
1427146453.554,-5.2222977
1427146453.569,-1.7950592
1427146453.585,1.6346436
1427146453.601,4.412224
1427146453.616,6.192646
1427146453.632,7.00782
1427146453.647,7.229355
1427146453.663,7.3303604
1427146453.679,7.757744
1427146453.694,8.755207
1427146453.71,10.3042755
1427146453.726,12.191593
1427146453.741,14.142506
1427146453.757,15.981575
1427146453.772,17.749516
1427146453.788,19.778088
1427146453.804,22.550781
1427146453.819,26.412678
1427146453.835,31.276318
1427146453.851,36.41532
1427146453.866,40.599144
1427146453.882,42.52879
1427146453.897,41.359062
1427146453.913,37.091953
1427146453.929,30.642982
1427146453.944,23.396763
1427146453.96,16.678337
1427146453.976,11.24337
1427146453.991,7.1317673
1427146454.007,3.8905144
1427146454.022,1.014061
1427146454.038,-1.7878551
1427146454.054,-4.4714737
1427146454.069,-6.8169765
1427146454.085,-8.656929
1427146454.101,-10.042309
1427146454.116,-11.170038
1427146454.132,-12.31732
1427146454.147,-13.671827
1427146454.163,-15.311441
1427146454.179,-17.153175
1427146454.194,-19.052147
1427146454.21,-20.846085
1427146454.226,-22.427288
1427146454.241,-23.752256
1427146454.257,-24.863007
1427146454.272,-25.82588
1427146454.288,-26.683445
1427146454.304,-27.386833
1427146454.319,-27.803875
1427146454.335,-27.763313
1427146454.351,-27.14888
1427146454.366,-25.941273
1427146454.382,-24.246712
1427146454.397,-22.25589
1427146454.413,-20.200645
1427146454.429,-18.26469
1427146454.444,-16.598341
1427146454.46,-15.240598
1427146454.476,-14.144887
1427146454.491,-13.125818
1427146454.507,-11.945152
1427146454.522,-10.379905
1427146454.538,-8.35469
1427146454.554,-5.955473
1427146454.569,-3.4058027
1427146454.585,-0.9668579
1427146454.601,1.1596098
1427146454.616,2.8984318
1427146454.632,4.2935486
1427146454.648,5.525837
1427146454.663,6.8519745
1427146454.679,8.563999
1427146454.694,10.911955
1427146454.71,13.993277
1427146454.726,17.660707
1427146454.741,21.533577
1427146454.757,25.039589
1427146454.773,27.605438
1427146454.788,28.73259
1427146454.804,28.0816
1427146454.819,25.51867
1427146454.835,21.155872
1427146454.851,15.4741745
1427146454.866,9.316093
1427146454.882,3.7256432
1427146454.898,-0.3684082
1427146454.913,-2.567505
1427146454.929,-3.0907326
1427146454.944,-2.6777267
1427146454.96,-2.1542397
1427146454.976,-2.1002197
1427146454.991,-2.603157
1427146455.007,-3.3979187
1427146455.023,-4.0840836
1427146455.038,-4.413872
1427146455.054,-4.326805
1427146455.069,-3.9113846
1427146455.085,-3.2393188
1427146455.101,-2.3417892
1427146455.116,-1.2599716
1427146455.132,-0.17612457
1427146455.148,0.5704346
1427146455.163,0.58117676
1427146455.179,-0.42920685
1427146455.194,-2.499237
1427146455.21,-5.3958206
1427146455.226,-8.694778
1427146455.241,-11.878586
1427146455.257,-14.487991
1427146455.273,-16.201347
1427146455.288,-16.897957
1427146455.304,-16.628471
1427146455.319,-15.566872
1427146455.335,-13.93251
1427146455.351,-12.013443
1427146455.366,-10.122246
1427146455.382,-8.634834
1427146455.398,-7.8251038
1427146455.413,-7.7868423
1427146455.429,-8.290848
1427146455.444,-8.830292
1427146455.46,-8.8341675
1427146455.476,-8.005356
1427146455.491,-6.4188538
1427146455.507,-4.5263214
1427146455.523,-2.892624
1427146455.538,-1.8596191
1427146455.554,-1.3720703
1427146455.569,-1.0834808
1427146455.585,-0.5620575
1427146455.601,0.54008484
1427146455.616,2.488449
1427146455.632,5.4668274
1427146455.648,9.636612
1427146455.663,14.93837
1427146455.679,20.968674
1427146455.694,26.975433
1427146455.71,32.115646
1427146455.726,35.720688
1427146455.741,37.556488
1427146455.757,37.601944
1427146455.773,35.833344
1427146455.788,32.081024
1427146455.804,26.16748
1427146455.819,18.234146
1427146455.835,9.100601
1427146455.851,0.24716187
1427146455.866,-6.531891
1427146455.882,-9.740967
1427146455.898,-8.72554
1427146455.913,-3.935501
1427146455.929,3.3109741
1427146455.944,11.234985
1427146455.96,18.209534
1427146455.976,23.098526
1427146455.991,25.515152
1427146456.007,25.682083
1427146456.023,24.185913
1427146456.038,21.58995
1427146456.054,18.265411
1427146456.069,14.366562
1427146456.085,10.02034
1427146456.101,5.5792084
1427146456.116,1.7216492
1427146456.132,-0.8306427
1427146456.148,-1.6079254
1427146456.163,-0.68525696
1427146456.179,1.3457031
1427146456.194,3.6763306
1427146456.21,5.690506
1427146456.226,7.1310577
1427146456.241,8.239731
1427146456.257,9.453903
1427146456.273,11.133804
1427146456.288,13.322845
1427146456.304,15.724625
1427146456.319,17.821594
1427146456.335,19.161362
1427146456.351,19.55545
1427146456.366,19.193054
1427146456.382,18.571442
1427146456.398,18.27974
1427146456.413,18.775345
1427146456.429,20.234009
1427146456.444,22.498474
1427146456.46,25.171371
1427146456.476,27.78447
1427146456.491,29.935883
1427146456.507,31.298096
1427146456.523,31.589401
1427146456.538,30.470749
1427146456.554,27.653076
1427146456.569,23.043106
1427146456.585,16.949432
1427146456.601,10.116882
1427146456.616,3.5509796
1427146456.632,-1.848053
1427146456.648,-5.6580963
1427146456.663,-8.035095
1427146456.679,-9.577698
1427146456.694,-10.977951
1427146456.71,-12.66449
1427146456.726,-14.654678
1427146456.741,-16.641464
1427146456.757,-18.252563
1427146456.773,-19.246964
1427146456.788,-19.684906
1427146456.804,-19.818436
1427146456.819,-19.978653
1427146456.835,-20.394882
1427146456.851,-21.138336
1427146456.866,-22.104294
1427146456.882,-23.135712
1427146456.898,-24.08641
1427146456.913,-24.87555
1427146456.929,-25.49089
1427146456.944,-25.900375
1427146456.96,-25.982132
1427146456.976,-25.583557
1427146456.991,-24.564972
1427146457.007,-22.925888
1427146457.023,-20.801834
1427146457.038,-18.437866
1427146457.054,-16.01056
1427146457.069,-13.652496
1427146457.085,-11.393021
1427146457.101,-9.300003
1427146457.116,-7.459656
1427146457.132,-5.9101563
1427146457.148,-4.4853973
1427146457.163,-2.8473816
1427146457.179,-0.61846924
1427146457.194,2.3560944
1427146457.21,5.8309937
1427146457.226,9.199402
1427146457.241,11.923599
1427146457.257,13.797562
1427146457.273,15.164169
1427146457.288,16.692963
1427146457.304,18.914886
1427146457.32,21.76332
1427146457.335,24.741455
1427146457.351,26.95958
1427146457.366,27.62944
1427146457.382,26.151367
1427146457.398,22.106705
1427146457.413,15.171082
1427146457.429,5.331848
1427146457.444,-6.720413
1427146457.46,-19.263
1427146457.476,-29.764572
1427146457.491,-35.711227
1427146457.507,-35.714462
1427146457.523,-30.243668
1427146457.538,-21.477982
1427146457.554,-12.336975
1427146457.57,-5.2240753
1427146457.585,-1.1118164
1427146457.601,0.4288025
1427146457.616,0.56951904
1427146457.632,0.26750183
1427146457.648,-0.16508484
1427146457.663,-1.0284119
1427146457.679,-2.6593323
1427146457.695,-4.9871674
1427146457.71,-7.418106
1427146457.726,-9.162323
1427146457.741,-9.609451
1427146457.757,-8.8012085
1427146457.773,-7.323105
1427146457.788,-5.963089
1427146457.804,-5.2509155
1427146457.82,-5.213867
1427146457.835,-5.2371674
1427146457.851,-4.4724884
1427146457.866,-2.2678528
1427146457.882,1.4593811
1427146457.898,6.1169586
1427146457.913,10.697647
1427146457.929,14.213303
1427146457.945,16.099976
1427146457.96,16.44397
1427146457.976,15.901871
1427146457.991,15.421173
1427146458.007,15.8376465
1427146458.023,17.580338
1427146458.038,20.524918
1427146458.054,24.088348
1427146458.07,27.413925
1427146458.085,29.636581
1427146458.101,30.153976
1427146458.116,28.7612
1427146458.132,25.676132
1427146458.148,21.46402
1427146458.163,16.85086
1427146458.179,12.556244
1427146458.195,9.09227
1427146458.21,6.714813
1427146458.226,5.3739166
1427146458.241,4.809555
1427146458.257,4.632416
1427146458.273,4.548416
1427146458.288,4.368408
1427146458.304,4.074478
1427146458.32,3.6580048
1427146458.335,3.073822
1427146458.351,2.111679
1427146458.366,0.50660706
1427146458.382,-1.9770508
1427146458.398,-5.3592377
1427146458.413,-9.372253
1427146458.429,-13.538071
1427146458.445,-17.274384
1427146458.46,-20.089493
1427146458.476,-21.703445
1427146458.491,-22.098648
1427146458.507,-21.483475
1427146458.523,-20.183136
1427146458.538,-18.526932
1427146458.554,-16.66336
1427146458.57,-14.578613
1427146458.585,-12.084091
1427146458.601,-9.078964
1427146458.616,-5.6866455
1427146458.632,-2.354416
1427146458.648,0.31315613
1427146458.663,1.8507843
1427146458.679,2.2110443
1427146458.695,1.853836
1427146458.71,1.569458
1427146458.726,2.0771637
1427146458.741,3.7565308
1427146458.757,6.5075836
1427146458.773,9.90065
1427146458.788,13.436142
1427146458.804,16.791794
1427146458.82,19.84407
1427146458.835,22.531143
1427146458.851,24.689835
1427146458.866,25.94748
1427146458.882,25.742447
1427146458.898,23.57576
1427146458.913,19.279526
1427146458.929,13.203369
1427146458.945,6.245529
1427146458.96,-0.40034485
1427146458.976,-5.62825
1427146458.991,-8.776169
1427146459.007,-9.855499
1427146459.023,-9.407944
1427146459.038,-8.234009
1427146459.054,-6.9826508
1427146459.07,-6.0261993
1427146459.085,-5.4595184
1427146459.101,-5.288727
1427146459.116,-5.5558167
1427146459.132,-6.3520355
1427146459.148,-7.70874
1427146459.163,-9.505157
1427146459.179,-11.476349
1427146459.195,-13.326035
1427146459.21,-14.831238
1427146459.226,-15.868774
1427146459.241,-16.380737
1427146459.257,-16.31128
1427146459.273,-15.639572
1427146459.288,-14.424423
1427146459.304,-12.823349
1427146459.32,-11.051361
1427146459.335,-9.230637
1427146459.351,-7.336319
1427146459.366,-5.197357
1427146459.382,-2.6773224
1427146459.398,0.21115112
1427146459.413,3.1721802
1427146459.429,5.753868
1427146459.445,7.5878143
1427146459.46,8.55381
1427146459.476,8.872574
1427146459.491,9.062073
1427146459.507,9.714699
1427146459.523,11.299171
1427146459.538,13.960304
1427146459.554,17.539711
1427146459.57,21.563683
1427146459.585,25.438484
1427146459.601,28.543304
1427146459.616,30.33574
1427146459.632,30.442596
1427146459.648,28.697525
1427146459.663,25.169365
1427146459.679,20.22271
1427146459.695,14.473152
1427146459.71,8.670525
1427146459.726,3.5128021
1427146459.741,-0.56088257
1427146459.757,-3.4831696
1427146459.773,-5.445503
1427146459.788,-6.793144
1427146459.804,-7.758751
1427146459.82,-8.4401245
1427146459.835,-8.845222
1427146459.851,-9.070572
1427146459.866,-9.319748
1427146459.882,-9.812096
1427146459.898,-10.609268
1427146459.913,-11.52108
1427146459.929,-12.214294
1427146459.945,-12.46257
1427146459.96,-12.355568
1427146459.976,-12.3005905
1427146459.992,-12.7933655
1427146460.007,-14.088463
1427146460.023,-15.974289
1427146460.038,-17.866982
1427146460.054,-19.071945
1427146460.07,-19.159767
1427146460.085,-18.122711
1427146460.101,-16.308762
1427146460.116,-14.116547
1427146460.132,-11.818367
1427146460.148,-9.444878
1427146460.163,-6.9103775
1427146460.179,-4.157402
1427146460.195,-1.2962952
1427146460.21,1.4897919
1427146460.226,3.9885483
1427146460.242,6.09272
1427146460.257,7.754364
1427146460.273,9.073074
1427146460.288,10.190529
1427146460.304,11.341774
1427146460.32,12.811783
1427146460.335,14.89463
1427146460.351,17.70008
1427146460.367,21.050667
1427146460.382,24.384453
1427146460.398,26.887772
1427146460.413,27.720482
1427146460.429,26.403404
1427146460.445,22.998077
1427146460.46,18.160683
1427146460.476,12.831131
1427146460.492,7.92078
1427146460.507,3.9426079
1427146460.523,0.88531494
1427146460.538,-1.6596489
1427146460.554,-4.1818886
1427146460.57,-6.93013
1427146460.585,-9.760559
1427146460.601,-12.207584
1427146460.617,-13.805279
1427146460.632,-14.399395
1427146460.648,-14.293076
1427146460.663,-14.11739
1427146460.679,-14.491657
1427146460.695,-15.69429
1427146460.71,-17.481354
1427146460.726,-19.273727
1427146460.742,-20.471638
1427146460.757,-20.80389
1427146460.773,-20.400898
1427146460.788,-19.677029
1427146460.804,-18.994884
1427146460.82,-18.472706
1427146460.835,-17.92318
1427146460.851,-17.034847
1427146460.867,-15.609093
1427146460.882,-13.668205
1427146460.898,-11.463669
1427146460.913,-9.329311
1427146460.929,-7.4733467
1427146460.945,-5.907303
1427146460.96,-4.4180527
1427146460.976,-2.7335777
1427146460.992,-0.6418762
1427146461.007,1.8452644
1427146461.023,4.510357
1427146461.038,7.0140686
1427146461.054,9.10778
1427146461.07,10.825668
1427146461.085,12.509319
1427146461.101,14.710709
1427146461.117,17.856342
1427146461.132,21.948578
1427146461.148,26.393658
1427146461.163,30.14626
1427146461.179,32.102634
1427146461.195,31.516594
1427146461.21,28.327484
1427146461.226,23.10735
1427146461.242,16.886736
1427146461.257,10.745327
1427146461.273,5.54809
1427146461.288,1.7236214
1427146461.304,-0.68858147
1427146461.32,-1.992176
1427146461.335,-2.6353836
1427146461.351,-3.0890064
1427146461.367,-3.6353664
1427146461.382,-4.4107933
1427146461.398,-5.3455486
1427146461.413,-6.3556404
1427146461.429,-7.3514633
1427146461.445,-8.330746
1427146461.46,-9.209215
1427146461.476,-9.774065
1427146461.492,-9.8256645
1427146461.507,-9.584793
1427146461.523,-9.864964
1427146461.538,-11.850687
1427146461.554,-16.356256
1427146461.57,-23.058083
1427146461.585,-30.182066
1427146461.601,-35.16484
1427146461.617,-35.89541
1427146461.632,-31.881435
1427146461.648,-24.55204
1427146461.663,-16.48169
1427146461.679,-9.951401
1427146461.695,-5.889324
1427146461.71,-3.6164083
1427146461.726,-1.7278633
1427146461.742,0.8541794
1427146461.757,4.164892
1427146461.773,7.3964167
1427146461.788,9.646498
1427146461.804,10.642101
1427146461.82,10.989799
1427146461.835,11.707568
1427146461.851,13.606649
1427146461.867,16.919706
1427146461.882,21.12822
1427146461.898,25.390364
1427146461.913,28.853008
1427146461.929,31.081867
1427146461.945,32.02511
1427146461.96,31.907742
1427146461.976,30.922531
1427146461.992,29.09858
1427146462.007,26.227762
1427146462.023,22.1027
1427146462.038,16.741987
1427146462.054,10.581351
1427146462.07,4.411145
1427146462.085,-0.8861065
1427146462.101,-4.7095294
1427146462.117,-6.948064
1427146462.132,-7.970706
1427146462.148,-8.394861
1427146462.163,-8.803282
1427146462.179,-9.538174
1427146462.195,-10.6844845
1427146462.21,-12.160984
1427146462.226,-13.891446
1427146462.242,-15.814427
1427146462.257,-17.89053
1427146462.273,-19.981161
1427146462.288,-21.872156
1427146462.304,-23.30149
1427146462.32,-24.056189
1427146462.335,-24.062286
1427146462.351,-23.437757
1427146462.367,-22.412876
1427146462.382,-21.238117
1427146462.398,-20.087921
1427146462.413,-18.988382
1427146462.429,-17.823462
1427146462.445,-16.46486
1427146462.46,-14.842487
1427146462.476,-12.992125
1427146462.492,-10.998161
1427146462.507,-8.953793
1427146462.523,-6.8511486
1427146462.538,-4.6319046
1427146462.554,-2.1978817
1427146462.57,0.44818115
1427146462.585,3.1791325
1427146462.601,5.754383
1427146462.617,7.899889
1427146462.632,9.454128
1427146462.648,10.499874
1427146462.663,11.349621
1427146462.679,12.445641
1427146462.695,14.162832
1427146462.71,16.706623
1427146462.726,20.011545
1427146462.742,23.803083
1427146462.757,27.659096
1427146462.773,31.135782
1427146462.788,33.772434
1427146462.804,35.167137
1427146462.82,34.95568
1427146462.835,32.914642
1427146462.851,29.025848
1427146462.867,23.588673
1427146462.882,17.199707
1427146462.898,10.616253
1427146462.914,4.526203
1427146462.929,-0.59096146
1427146462.945,-4.608631
1427146462.96,-7.653164
1427146462.976,-9.97657
1427146462.992,-11.792252
1427146463.007,-13.187618
1427146463.023,-14.151997
1427146463.039,-14.638367
1427146463.054,-14.685211
1427146463.07,-14.487438
1427146463.085,-14.401176
1427146463.101,-14.802811
1427146463.117,-15.962212
1427146463.132,-17.90596
1427146463.148,-20.353588
1427146463.164,-22.854332
1427146463.179,-24.96413
1427146463.195,-26.487553
1427146463.21,-27.532444
1427146463.226,-28.417744
1427146463.242,-29.417027
1427146463.257,-30.546978
1427146463.273,-31.500141
1427146463.289,-31.801334
1427146463.304,-31.094978
1427146463.32,-29.393059
1427146463.335,-27.088245
1427146463.351,-24.779423
1427146463.367,-22.958973
1427146463.382,-21.742626
1427146463.398,-20.843758
1427146463.414,-19.711903
1427146463.429,-17.836235
1427146463.445,-14.996696
1427146463.46,-11.371586
1427146463.476,-7.4476585
1427146463.492,-3.8158302
1427146463.507,-0.8904457
1427146463.523,1.2706299
1427146463.539,2.8892174
1427146463.554,4.4592323
1427146463.57,6.4267693
1427146463.585,9.062672
1427146463.601,12.387432
1427146463.617,16.282024
1427146463.632,20.502945
1427146463.648,24.668066
1427146463.664,28.222013
1427146463.679,30.498222
1427146463.695,30.903246
1427146463.71,29.221418
1427146463.726,25.753061
1427146463.742,21.277428
1427146463.757,16.688753
1427146463.773,12.662163
1427146463.789,9.4036255
1427146463.804,6.716633
1427146463.82,4.282114
1427146463.835,1.9290829
1427146463.851,-0.28462982
1427146463.867,-2.1853313
1427146463.882,-3.6813564
1427146463.898,-4.8663006
1427146463.914,-5.926422
1427146463.929,-6.967967
1427146463.945,-7.9096804
1427146463.96,-8.528914
1427146463.976,-8.652806
1427146463.992,-8.3346405
1427146464.007,-7.837228
1427146464.023,-7.3837194
1427146464.039,-7.2080746
1427146464.054,-7.2751827
1427146464.07,-7.456387
1427146464.085,-7.6468325
1427146464.101,-7.8958006
1427146464.117,-8.344019
1427146464.132,-9.100765
1427146464.148,-10.086998
1427146464.164,-11.004938
1427146464.179,-11.446769
1427146464.195,-11.0955
1427146464.21,-9.884974
1427146464.226,-8.069951
1427146464.242,-6.0931296
1427146464.257,-4.371395
1427146464.273,-3.1213098
1427146464.289,-2.3009677
1427146464.304,-1.67451
1427146464.32,-0.9332075
1427146464.335,0.12295246
1427146464.351,1.4576874
1427146464.367,2.8068523
1427146464.382,3.805541
1427146464.398,4.2015724
1427146464.414,3.9792166
1427146464.429,3.4015293
1427146464.445,2.828473
1427146464.46,2.579544
1427146464.476,2.8086948
1427146464.492,3.5804882
1427146464.507,4.9635925
1427146464.523,7.0372143
1427146464.539,9.769564
1427146464.554,12.855902
1427146464.57,15.648882
1427146464.585,17.353191
1427146464.601,17.409143
1427146464.617,15.800903
1427146464.632,13.112122
1427146464.648,10.187174
1427146464.664,7.628113
1427146464.679,5.5237694
1427146464.695,3.5023708
1427146464.71,1.1467667
1427146464.726,-1.6314774
1427146464.742,-4.385296
1427146464.757,-6.561207
1427146464.773,-7.721962
1427146464.789,-8.013859
1427146464.804,-8.033878
1427146464.82,-8.462433
1427146464.835,-9.568916
1427146464.851,-11.13879
1427146464.867,-12.720299
1427146464.882,-14.077747
1427146464.898,-15.46088
1427146464.914,-17.443169
1427146464.929,-20.476826
1427146464.945,-24.396019
1427146464.96,-28.346684
1427146464.976,-31.182487
1427146464.992,-32.077633
1427146465.007,-31.017033
1427146465.023,-28.773907
1427146465.039,-26.472305
1427146465.054,-24.93209
1427146465.07,-24.300735
1427146465.085,-24.091003
1427146465.101,-23.579834
1427146465.117,-22.306175
1427146465.132,-20.247116
1427146465.148,-17.665398
1427146465.164,-14.807381
1427146465.179,-11.662514
1427146465.195,-8.062225
1427146465.21,-3.9067383
1427146465.226,0.53118134
1427146465.242,4.6747284
1427146465.257,7.623047
1427146465.273,8.709534
1427146465.289,7.686371
1427146465.304,4.9014816
1427146465.32,1.1549911
1427146465.335,-2.4773712
1427146465.351,-4.9588623
1427146465.367,-5.3923798
1427146465.382,-3.1925507
1427146465.398,1.8101807
1427146465.414,9.296524
1427146465.429,18.399956
1427146465.445,27.822998
1427146465.46,36.09497
1427146465.476,41.92794
1427146465.492,44.502396
1427146465.507,43.5916
1427146465.523,39.526184
1427146465.539,32.9758
1427146465.554,24.861374
1427146465.57,16.205322
1427146465.586,8.132767
1427146465.601,1.7880707
1427146465.617,-1.8373566
1427146465.632,-2.2094727
1427146465.648,0.44221497
1427146465.664,5.08934
1427146465.679,10.163376
1427146465.695,14.1566925
1427146465.711,16.26117
1427146465.726,16.65268
1427146465.742,16.37825
1427146465.757,16.772095
1427146465.773,18.760315
1427146465.789,22.380783
1427146465.804,26.77536
1427146465.82,30.554901
1427146465.836,32.506073
1427146465.851,32.10858
1427146465.867,29.727005
1427146465.882,26.431152
1427146465.898,23.472794
1427146465.914,21.686646
1427146465.929,21.150238
1427146465.945,21.18631
1427146465.961,20.822525
1427146465.976,19.368805
1427146465.992,16.873077
1427146466.007,14.112946
1427146466.023,12.173828
1427146466.039,11.786438
1427146466.054,12.936523
1427146466.07,14.868469
1427146466.086,16.604507
1427146466.101,17.51332
1427146466.117,17.7426
1427146466.132,18.03386
1427146466.148,19.219986
1427146466.164,21.63646
1427146466.179,24.888351
1427146466.195,28.09407
1427146466.211,30.436554
1427146466.226,31.67157
1427146466.242,32.238342
1427146466.257,32.907104
1427146466.273,34.262985
1427146466.289,36.25978
1427146466.304,38.18672
1427146466.32,38.95128
1427146466.336,37.613968
1427146466.351,33.728546
1427146466.367,27.52269
1427146466.382,19.775124
1427146466.398,11.533302
1427146466.414,3.7948227
1427146466.429,-2.7646255
1427146466.445,-7.9694138
1427146466.461,-12.0731125
1427146466.476,-15.590218
1427146466.492,-18.928886
1427146466.507,-22.219742
1427146466.523,-25.283974
1427146466.539,-27.852577
1427146466.554,-29.84481
1427146466.57,-31.516594
1427146466.586,-33.306534
1427146466.601,-35.5933
1427146466.617,-38.375214
1427146466.632,-41.245438
1427146466.648,-43.590477
1427146466.664,-44.877045
1427146466.679,-44.861313
1427146466.695,-43.655396
1427146466.711,-41.591476
1427146466.726,-39.06492
1427146466.742,-36.389496
1427146466.757,-33.777435
1427146466.773,-31.329033
1427146466.789,-28.986565
1427146466.804,-26.587456
1427146466.82,-23.844429
1427146466.836,-20.473106
1427146466.851,-16.357445
1427146466.867,-11.666374
1427146466.882,-6.904297
1427146466.898,-2.7099533
1427146466.914,0.40206146
1427146466.929,2.3257942
1427146466.945,3.4800873
1427146466.961,4.6905518
1427146466.976,6.7737236
1427146466.992,10.170883
1427146467.007,14.697659
1427146467.023,19.63269
1427146467.039,24.082787
1427146467.054,27.351246
1427146467.07,29.163864
1427146467.086,29.570522
1427146467.101,28.689789
1427146467.117,26.498226
1427146467.132,22.889568
1427146467.148,17.890064
1427146467.164,11.85178
1427146467.179,5.565159
1427146467.195,-0.03937912
1427146467.211,-4.2376213
1427146467.226,-6.856636
1427146467.242,-8.245651
1427146467.257,-9.115887
1427146467.273,-10.1266365
1427146467.289,-11.58276
1427146467.304,-13.370384
1427146467.32,-15.076988
1427146467.336,-16.293179
1427146467.351,-16.82761
1427146467.367,-16.816528
1427146467.382,-16.628036
1427146467.398,-16.624493
1427146467.414,-16.95649
1427146467.429,-17.453964
1427146467.445,-17.722794
1427146467.461,-17.347717
1427146467.476,-16.13631
1427146467.492,-14.2193985
1427146467.507,-12.040043
1427146467.523,-10.070847
1427146467.539,-8.582539
1427146467.554,-7.488289
1427146467.57,-6.3924522
1427146467.586,-4.81921
1427146467.601,-2.509121
1427146467.617,0.43851852
1427146467.632,3.58667
1427146467.648,6.392475
1427146467.664,8.481213
1427146467.679,9.834492
1427146467.695,10.823696
1427146467.711,12.005795
1427146467.726,13.819977
1427146467.742,16.429844
1427146467.757,19.579483
1427146467.773,22.6979
1427146467.789,25.096157
1427146467.804,26.264938
1427146467.82,26.012775
1427146467.836,24.530956
1427146467.851,22.278816
1427146467.867,19.7512
1427146467.882,17.298048
1427146467.898,14.9673195
1427146467.914,12.602184
1427146467.929,9.986671
1427146467.945,7.012024
1427146467.961,3.7863693
1427146467.976,0.54691315
1427146467.992,-2.4196625
1427146468.007,-4.9534035
1427146468.023,-6.9468365
1427146468.039,-8.319309
1427146468.054,-8.889332
1427146468.07,-8.482889
1427146468.086,-7.0630493
1427146468.101,-4.9678917
1427146468.117,-2.9228783
1427146468.132,-1.8805962
1427146468.148,-2.5947018
1427146468.164,-5.2702446
1427146468.179,-9.439735
1427146468.195,-14.16659
1427146468.211,-18.499878
1427146468.226,-21.850418
1427146468.242,-24.13084
1427146468.258,-25.540316
1427146468.273,-26.237942
1427146468.289,-26.181068
1427146468.304,-25.183441
1427146468.32,-23.228416
1427146468.336,-20.64172
1427146468.351,-18.130447
1427146468.367,-16.375443
1427146468.382,-15.666586
1427146468.398,-15.63118
1427146468.414,-15.442593
1427146468.429,-14.173395
1427146468.445,-11.30353
1427146468.461,-6.9070735
1427146468.476,-1.5192809
1427146468.492,4.2178473
1427146468.508,9.88788
1427146468.523,15.377821
1427146468.539,20.658272
1427146468.554,25.56284
1427146468.57,29.60402
1427146468.586,32.0905
1427146468.601,32.40351
1427146468.617,30.324024
1427146468.633,26.144382
1427146468.648,20.585663
1427146468.664,14.493681
1427146468.679,8.629536
1427146468.695,3.5240428
1427146468.711,-0.52658725
1427146468.726,-3.3965921
1427146468.742,-5.133239
1427146468.758,-5.946047
1427146468.773,-6.165644
1427146468.789,-6.174597
1427146468.804,-6.2828217
1427146468.82,-6.690376
1427146468.836,-7.465164
1427146468.851,-8.623314
1427146468.867,-10.141851
1427146468.883,-11.986213
1427146468.898,-14.014751
1427146468.914,-16.01676
1427146468.929,-17.754356
1427146468.945,-19.118355
1427146468.961,-20.240686
1427146468.976,-21.43036
1427146468.992,-23.02155
1427146469.008,-25.094934
1427146469.023,-27.398785
1427146469.039,-29.461273
1427146469.054,-30.805939
1427146469.07,-31.220055
1427146469.086,-30.81639
1427146469.101,-29.91711
1427146469.117,-28.814896
1427146469.133,-27.637337
1427146469.148,-26.278393
1427146469.164,-24.537691
1427146469.179,-22.273539
1427146469.195,-19.513535
1427146469.211,-16.418499
1427146469.226,-13.138397
1427146469.242,-9.742189
1427146469.258,-6.1020584
1427146469.273,-1.9639759
1427146469.289,2.8646336
1427146469.304,8.41226
1427146469.32,14.387508
1427146469.336,20.220554
1427146469.351,25.129772
1427146469.367,28.372194
1427146469.383,29.471767
1427146469.398,28.451302
1427146469.414,25.76347
1427146469.429,22.118732
1427146469.445,18.166672
1427146469.461,14.251385
1427146469.476,10.382755
1427146469.492,6.432289
1427146469.508,2.4153976
1427146469.523,-1.3511086
1427146469.539,-4.320938
1427146469.554,-5.995384
1427146469.57,-6.2161674
1427146469.586,-5.219242
1427146469.601,-3.5284538
1427146469.617,-1.6527901
1427146469.633,0.017578125
1427146469.648,1.322052
1427146469.664,2.15765
1427146469.679,2.445137
1427146469.695,2.1039314
1427146469.711,1.1720505
1427146469.726,-0.05624771
1427146469.742,-1.1394882
1427146469.758,-1.5761795
1427146469.773,-1.0073853
1427146469.789,0.6917038
1427146469.804,3.465294
1427146469.82,7.175865
1427146469.836,11.670662
1427146469.851,16.709076
1427146469.867,21.84452
1427146469.883,26.45935
1427146469.898,29.932503
1427146469.914,31.899635
1427146469.929,32.50373
1427146469.945,32.390633
1427146469.961,32.42057
1427146469.976,33.320847
1427146469.992,35.31803
1427146470.008,38.063644
1427146470.023,40.898643
1427146470.039,43.227135
1427146470.054,44.83716
1427146470.07,45.860157
1427146470.086,46.550083
1427146470.101,46.9561
1427146470.117,46.731018
1427146470.133,45.202866
1427146470.148,41.682087
1427146470.164,35.71518
1427146470.179,27.338707
1427146470.195,17.010006
1427146470.211,5.511608
1427146470.226,-6.307434
1427146470.242,-17.623463
1427146470.258,-27.681469
1427146470.273,-35.724014
1427146470.289,-40.981125
1427146470.304,-42.76057
1427146470.32,-40.75226
1427146470.336,-35.31218
1427146470.351,-27.630295
1427146470.367,-19.594185
1427146470.383,-13.215652
1427146470.398,-9.913952
1427146470.414,-9.934296
1427146470.429,-12.163239
1427146470.445,-14.654228
1427146470.461,-15.494337
1427146470.476,-13.602024
1427146470.492,-9.053616
1427146470.508,-2.8574448
1427146470.523,3.731903
1427146470.539,9.801426
1427146470.554,15.1068735
1427146470.57,19.940933
1427146470.586,24.767883
1427146470.601,29.888607
1427146470.617,35.31145
1427146470.633,40.864296
1427146470.648,46.409958
1427146470.664,51.958374
1427146470.679,57.697
1427146470.695,63.705605
1427146470.711,69.7563
1427146470.726,75.100586
1427146470.742,78.69685
1427146470.758,79.628204
1427146470.773,77.64661
1427146470.789,73.39966
1427146470.804,68.28737
1427146470.82,63.789345
1427146470.836,60.850845
1427146470.851,59.483406
1427146470.867,58.96717
1427146470.883,58.370422
1427146470.898,57.017365
1427146470.914,54.509323
1427146470.93,50.276825
1427146470.945,43.107193
1427146470.961,31.30935
1427146470.976,13.646011
1427146470.992,-9.35717
1427146471.008,-34.6108
1427146471.023,-56.97341
1427146471.039,-71.18475
1427146471.054,-74.211975
1427146471.07,-66.83325
1427146471.086,-53.340027
1427146471.101,-39.709778
1427146471.117,-30.890991
1427146471.133,-28.910706
1427146471.148,-32.518158
1427146471.164,-38.480774
1427146471.18,-43.52855
1427146471.195,-45.948257
1427146471.211,-46.12735
1427146471.226,-45.947006
1427146471.242,-47.616302
1427146471.258,-52.53296
1427146471.273,-60.758835
1427146471.289,-71.0876
1427146471.305,-81.555756
1427146471.32,-90.23384
1427146471.336,-95.81767
1427146471.351,-97.91109
1427146471.367,-96.84531
1427146471.383,-93.24126
1427146471.398,-87.546844
1427146471.414,-79.89336
1427146471.43,-70.24692
1427146471.445,-58.80565
1427146471.461,-46.274918
1427146471.476,-33.80298
1427146471.492,-22.635818
1427146471.508,-13.714966
1427146471.523,-7.367447
1427146471.539,-3.3335571
1427146471.555,-1.0124512
1427146471.57,0.24737549
1427146471.586,0.9991913
1427146471.601,1.5032959
1427146471.617,1.7640991
1427146471.633,1.5717621
1427146471.648,0.6404114
1427146471.664,-1.2599792
1427146471.68,-4.0635376
1427146471.695,-7.438629
1427146471.711,-10.806076
1427146471.726,-13.641525
1427146471.742,-15.70433
1427146471.758,-17.162933
1427146471.773,-18.422241
1427146471.789,-19.859634
1427146471.805,-21.539612
1427146471.82,-23.114655
1427146471.836,-24.019302
1427146471.851,-23.76001
1427146471.867,-22.274857
1427146471.883,-20.061264
1427146471.898,-17.997879
1427146471.914,-16.994003
1427146471.93,-17.567047
1427146471.945,-19.540375
1427146471.961,-22.11441
1427146471.976,-24.119095
1427146471.992,-24.44159
1427146472.008,-22.435455
1427146472.023,-18.106705
1427146472.039,-12.107025
1427146472.055,-5.495392
1427146472.07,0.5744629
1427146472.086,5.186081
1427146472.101,7.8805847
1427146472.117,8.800171
1427146472.133,8.619278
1427146472.148,8.3606415
1427146472.164,9.024597
1427146472.18,11.194
1427146472.195,14.766556
1427146472.211,18.951416
1427146472.226,22.575958
1427146472.242,24.595718
1427146472.258,24.409836
1427146472.273,22.149445
1427146472.289,18.434616
1427146472.305,14.070679
1427146472.32,9.741547
1427146472.336,5.831085
1427146472.351,2.3579712
1427146472.367,-0.8983612
1427146472.383,-4.1304626
1427146472.398,-7.263153
1427146472.414,-9.776352
1427146472.43,-10.826019
1427146472.445,-9.519897
1427146472.461,-5.450943
1427146472.476,0.9595642
1427146472.492,8.437485
1427146472.508,15.223007
1427146472.523,19.75827
1427146472.539,21.235672
1427146472.555,19.840714
1427146472.57,16.507141
1427146472.586,12.434235
1427146472.601,8.560532
1427146472.617,5.4026337
1427146472.633,3.1108704
1427146472.648,1.6476898
1427146472.664,0.88520813
1427146472.68,0.65275574
1427146472.695,0.5810547
1427146472.711,0.30338287
1427146472.726,-0.3500595
1427146472.742,-1.1405716
1427146472.758,-1.4147034
1427146472.773,-0.26825714
1427146472.789,2.8976593
1427146472.805,7.9892654
1427146472.82,13.866341
1427146472.836,18.644753
1427146472.851,20.368393
1427146472.867,17.844246
1427146472.883,11.202118
1427146472.898,2.0377655
1427146472.914,-7.2058105
1427146472.93,-14.014214
1427146472.945,-16.657585
1427146472.961,-14.742043
1427146472.976,-9.234528
1427146472.992,-1.9962921
1427146473.008,4.8199615
1427146473.023,9.383369
1427146473.039,10.443626
1427146473.055,7.4041595
1427146473.07,0.21009827
1427146473.086,-10.743164
1427146473.101,-24.611084
1427146473.117,-40.171738
1427146473.133,-55.8475
1427146473.148,-70.083755
1427146473.164,-81.71994
1427146473.18,-90.2563
1427146473.195,-96.07992
1427146473.211,-100.16134
1427146473.226,-103.6687
1427146473.242,-107.51308
1427146473.258,-112.02402
1427146473.273,-116.87362
1427146473.289,-121.36414
1427146473.305,-124.48415
1427146473.32,-125.193726
1427146473.336,-122.579124
1427146473.351,-116.02796
1427146473.367,-105.353966
1427146473.383,-90.811264
1427146473.398,-72.94854
1427146473.414,-52.564404
1427146473.43,-30.509972
1427146473.445,-7.675541
1427146473.461,15.054512
1427146473.476,36.800903
1427146473.492,56.753735
1427146473.508,74.29903
1427146473.523,89.064804
1427146473.539,100.90508
1427146473.555,109.82082
1427146473.57,115.85035
1427146473.586,119.06199
1427146473.601,119.6039
1427146473.617,117.77261
1427146473.633,114.05871
1427146473.648,109.120514
1427146473.664,103.669044
1427146473.68,98.3324
1427146473.695,93.576584
1427146473.711,89.66374
1427146473.726,86.6384
1427146473.742,84.41458
1427146473.758,82.78
1427146473.773,81.47357
1427146473.789,80.18164
1427146473.805,78.54477
1427146473.82,76.157776
1427146473.836,72.61607
1427146473.852,67.61037
1427146473.867,61.011414
1427146473.883,52.998306
1427146473.898,44.029892
1427146473.914,34.811386
1427146473.93,26.160263
1427146473.945,18.820587
1427146473.961,13.283157
1427146473.977,9.628128
1427146473.992,7.5400696
1427146474.008,6.3012085
1427146474.023,5.069504
1427146474.039,3.1237488
1427146474.055,0.14447021
1427146474.07,-3.805832
1427146474.086,-8.300247
1427146474.102,-12.703659
1427146474.117,-16.273682
1427146474.133,-18.221283
1427146474.148,-17.839188
1427146474.164,-14.724503
1427146474.18,-9.146347
1427146474.195,-2.2858124
1427146474.211,3.903244
1427146474.227,7.307968
1427146474.242,6.503479
1427146474.258,1.3608093
1427146474.273,-6.68396
1427146474.289,-15.432175
1427146474.305,-22.701416
1427146474.32,-27.243576
1427146474.336,-29.004745
1427146474.352,-28.859726
1427146474.367,-27.849854
1427146474.383,-26.584976
1427146474.398,-24.942703
1427146474.414,-22.44217
1427146474.43,-18.829208
1427146474.445,-14.459625
1427146474.461,-10.371811
1427146474.477,-7.8804474
1427146474.492,-7.801758
1427146474.508,-9.956955
1427146474.523,-13.069244
1427146474.539,-15.196869
1427146474.555,-14.500519
1427146474.57,-10.093521
1427146474.586,-2.316452
1427146474.602,7.4117126
1427146474.617,17.238129
1427146474.633,25.502655
1427146474.648,31.180481
1427146474.664,33.855408
1427146474.68,33.631653
1427146474.695,30.88646
1427146474.711,26.172684
1427146474.727,20.208115
1427146474.742,13.844101
1427146474.758,7.8396454
1427146474.773,2.904358
1427146474.789,-0.6004486
1427146474.805,-2.6139984
1427146474.82,-3.3779297
1427146474.836,-3.291565
1427146474.852,-2.8328857
1427146474.867,-2.4377441
1427146474.883,-2.5053253
1427146474.898,-3.193573
1427146474.914,-4.4293976
1427146474.93,-5.8937225
1427146474.945,-7.180664
1427146474.961,-8.002441
1427146474.977,-8.3798065
1427146474.992,-8.604218
1427146475.008,-9.070602
1427146475.023,-10.042587
1427146475.039,-11.495758
1427146475.055,-13.164322
1427146475.07,-14.697922
1427146475.086,-15.798157
1427146475.102,-16.296234
1427146475.117,-16.117203
1427146475.133,-15.225433
1427146475.148,-13.643127
1427146475.164,-11.483643
1427146475.18,-9.002838
1427146475.195,-6.5379486
1427146475.211,-4.4158173
1427146475.227,-2.855545
1427146475.242,-1.7840729
1427146475.258,-0.9793091
1427146475.273,-0.09425354
1427146475.289,1.105133
1427146475.305,2.7158356
1427146475.32,4.643402
1427146475.336,6.782257
1427146475.352,9.104996
1427146475.367,11.5681
1427146475.383,13.913834
1427146475.398,15.527237
1427146475.414,15.615051
1427146475.43,13.677872
1427146475.445,10.008392
1427146475.461,5.7976685
1427146475.477,2.6440582
1427146475.492,1.7477264
1427146475.508,3.1459045
1427146475.523,5.6150208
1427146475.539,7.312332
1427146475.555,6.943222
1427146475.57,4.3930664
1427146475.586,0.8928375
1427146475.602,-1.8688202
1427146475.617,-2.7630463
1427146475.633,-1.7990723
1427146475.648,0.029693604
1427146475.664,1.4629822
1427146475.68,1.6662598
1427146475.695,0.5364227
1427146475.711,-1.5079346
1427146475.727,-3.9295807
1427146475.742,-6.2917786
1427146475.758,-8.420395
1427146475.773,-10.2131195
1427146475.789,-11.655685
1427146475.805,-12.648743
1427146475.82,-13.161545
1427146475.836,-13.203079
1427146475.852,-12.873901
1427146475.867,-12.302536
1427146475.883,-11.645309
1427146475.898,-11.055206
1427146475.914,-10.651321
1427146475.93,-10.524185
1427146475.945,-10.604736
1427146475.961,-10.683594
1427146475.977,-10.41394
1427146475.992,-9.464752
1427146476.008,-7.6573334
1427146476.023,-5.089447
1427146476.039,-2.1243134
1427146476.055,0.8553009
1427146476.07,3.4594269
1427146476.086,5.6092987
1427146476.102,7.414627
1427146476.117,9.13031
1427146476.133,10.933441
1427146476.148,12.817734
1427146476.164,14.555328
1427146476.18,15.875122
1427146476.195,16.651184
1427146476.211,17.031876
1427146476.227,17.415146
1427146476.242,18.246582
1427146476.258,19.756088
1427146476.273,21.831726
1427146476.289,24.027588
1427146476.305,25.709045
1427146476.32,26.323486
1427146476.336,25.581543
1427146476.352,23.496338
1427146476.367,20.3703
1427146476.383,16.620605
1427146476.398,12.691681
1427146476.414,8.930847
1427146476.43,5.588806
1427146476.445,2.8351135
1427146476.461,0.7902832
1427146476.477,-0.5372009
1427146476.492,-1.2374268
1427146476.508,-1.4903259
1427146476.524,-1.5551147
1427146476.539,-1.6852417
1427146476.555,-2.026886
1427146476.57,-2.6211853
1427146476.586,-3.3997803
1427146476.602,-4.2631836
1427146476.617,-5.1332703
1427146476.633,-5.98822
1427146476.649,-6.804474
1427146476.664,-7.5654907
1427146476.68,-8.264252
1427146476.695,-8.903687
1427146476.711,-9.549072
1427146476.727,-10.282654
1427146476.742,-11.130493
1427146476.758,-11.984772
1427146476.774,-12.584991
1427146476.789,-12.631836
1427146476.805,-11.93866
1427146476.82,-10.544739
1427146476.836,-8.73938
1427146476.852,-6.9194336
1427146476.867,-5.377899
1427146476.883,-4.1619263
1427146476.899,-3.0892944
1427146476.914,-1.9097595
1427146476.93,-0.5171814
1427146476.945,0.9868469
1427146476.961,2.3695679
1427146476.977,3.4038696
1427146476.992,4.0357666
1427146477.008,4.363312
1427146477.024,4.5453186
1427146477.039,4.6661377
1427146477.055,4.8019714
1427146477.07,5.0920715
1427146477.086,5.855713
1427146477.102,7.4998474
1427146477.117,10.264923
1427146477.133,14.024597
1427146477.149,18.137207
1427146477.164,21.632599
1427146477.18,23.631805
1427146477.195,23.635895
1427146477.211,21.728882
1427146477.227,18.438385
1427146477.242,14.502197
1427146477.258,10.648987
1427146477.274,7.4224854
1427146477.289,5.1194763
1427146477.305,3.7854004
1427146477.32,3.2498474
1427146477.336,3.1452332
1427146477.352,3.0671082
1427146477.367,2.6732483
1427146477.383,1.7850952
1427146477.399,0.41281128
1427146477.414,-1.3100281
1427146477.43,-3.2009583
1427146477.445,-5.069763
1427146477.461,-6.72876
1427146477.477,-8.053421
1427146477.492,-8.984772
1427146477.508,-9.578812
1427146477.524,-9.967102
1427146477.539,-10.356934
1427146477.555,-10.852661
1427146477.57,-11.413025
1427146477.586,-11.852524
1427146477.602,-11.952393
1427146477.617,-11.565674
1427146477.633,-10.642105
1427146477.649,-9.262711
1427146477.664,-7.5406494
1427146477.68,-5.549179
1427146477.695,-3.3417053
1427146477.711,-0.9815674
1427146477.727,1.3644409
1427146477.742,3.424469
1427146477.758,4.868286
1427146477.774,5.5330505
1427146477.789,5.4660034
1427146477.805,5.0161743
1427146477.82,4.6792145
1427146477.836,4.8475494
1427146477.852,5.567688
1427146477.867,6.501541
1427146477.883,7.1041565
1427146477.899,6.9759216
1427146477.914,6.134613
1427146477.93,5.091034
1427146477.945,4.635727
1427146477.961,5.4589386
1427146477.977,7.8206177
1427146477.992,11.427856
1427146478.008,15.556885
1427146478.024,19.296112
1427146478.039,21.824402
1427146478.055,22.65152
1427146478.07,21.681183
1427146478.086,19.244827
1427146478.102,15.948166
1427146478.117,12.524551
1427146478.133,9.557419
1427146478.149,7.353241
1427146478.164,5.860794
1427146478.18,4.7851257
1427146478.195,3.805832
1427146478.211,2.7066803
1427146478.227,1.4485779
1427146478.242,0.14076233
1427146478.258,-1.0675812
1427146478.274,-2.0240326
1427146478.289,-2.665863
1427146478.305,-3.0090027
1427146478.32,-3.222229
1427146478.336,-3.5562134
1427146478.352,-4.2883606
1427146478.367,-5.589279
1427146478.383,-7.3576813
1427146478.399,-9.243301
1427146478.414,-10.819321
1427146478.43,-11.826019
1427146478.445,-12.301849
1427146478.461,-12.519897
1427146478.477,-12.748917
1427146478.492,-12.978165
1427146478.508,-12.864365
1427146478.524,-11.935165
1427146478.539,-9.89798
1427146478.555,-6.9399414
1427146478.57,-3.6482697
1427146478.586,-0.7910919
1427146478.602,1.0722961
1427146478.617,1.8396606
1427146478.633,1.9519501
1427146478.649,2.1315918
1427146478.664,3.074997
1427146478.68,5.0857697
1427146478.695,7.9391937
1427146478.711,10.930725
1427146478.727,13.19278
1427146478.742,14.119492
1427146478.758,13.707123
1427146478.774,12.662048
1427146478.789,12.079285
1427146478.805,12.981247
1427146478.82,15.777832
1427146478.836,20.052963
1427146478.852,24.656693
1427146478.867,28.154892
1427146478.883,29.336945
1427146478.899,27.661682
1427146478.914,23.370255
1427146478.93,17.35292
1427146478.945,10.801102
1427146478.961,4.8071594
1427146478.977,0.066726685
1427146478.992,-3.229065
1427146479.008,-5.341736
1427146479.024,-6.728012
1427146479.039,-7.8090973
1427146479.055,-8.789871
1427146479.07,-9.617325
1427146479.086,-10.053177
1427146479.102,-9.885498
1427146479.117,-9.170486
1427146479.133,-8.207489
1427146479.149,-7.48143
1427146479.164,-7.421234
1427146479.18,-8.184113
1427146479.196,-9.552719
1427146479.211,-11.068817
1427146479.227,-12.31723
1427146479.242,-13.160385
1427146479.258,-13.814896
1427146479.274,-14.638565
1427146479.289,-15.834915
1427146479.305,-17.185333
1427146479.321,-18.097633
1427146479.336,-17.903458
1427146479.352,-16.305885
1427146479.367,-13.572983
1427146479.383,-10.448868
1427146479.399,-7.754181
1427146479.414,-5.9581833
1427146479.43,-4.9721146
1427146479.446,-4.330475
1427146479.461,-3.4930649
1427146479.477,-2.1754684
1427146479.492,-0.44548035
1427146479.508,1.3978653
1427146479.524,3.0397034
1427146479.539,4.2987366
1427146479.555,5.230995
1427146479.571,6.019829
1427146479.586,6.938652
1427146479.602,8.261078
1427146479.617,10.211601
1427146479.633,12.775887
1427146479.649,15.68528
1427146479.664,18.37172
1427146479.68,20.166557
1427146479.696,20.615547
1427146479.711,19.664185
1427146479.727,17.66848
1427146479.742,15.15815
1427146479.758,12.516144
1427146479.774,9.8111725
1427146479.789,6.880333
1427146479.805,3.5972366
1427146479.821,0.12908936
1427146479.836,-3.0419388
1427146479.852,-5.403427
1427146479.867,-6.720276
1427146479.883,-7.1999893
1427146479.899,-7.3665466
1427146479.914,-7.7340317
1427146479.93,-8.470612
1427146479.946,-9.387711
1427146479.961,-10.107559
1427146479.977,-10.439598
1427146479.992,-10.549816
1427146480.008,-10.8764305
1427146480.024,-11.794735
1427146480.039,-13.339893
1427146480.055,-15.046818
1427146480.071,-16.213356
1427146480.086,-16.26696
1427146480.102,-15.110966
1427146480.117,-13.154793
1427146480.133,-11.097797
1427146480.149,-9.490963
1427146480.164,-8.4672165
1427146480.18,-7.702469
1427146480.196,-6.7022705
1427146480.211,-5.114155
1427146480.227,-2.955841
1427146480.242,-0.5508461
1427146480.258,1.6944046
1427146480.274,3.5694466
1427146480.289,5.1975594
1427146480.305,6.9364433
1427146480.321,9.177052
1427146480.336,12.184954
1427146480.352,15.977299
1427146480.367,20.405092
1427146480.383,25.172697
1427146480.399,29.897465
1427146480.414,34.059586
1427146480.43,37.05731
1427146480.446,38.27545
1427146480.461,37.369083
1427146480.477,34.373924
1427146480.492,29.756111
1427146480.508,24.300152
1427146480.524,18.782593
1427146480.539,13.748539
1427146480.555,9.414965
1427146480.571,5.7315655
1427146480.586,2.6015856
1427146480.602,0.0056335926
1427146480.617,-1.948581
1427146480.633,-3.1413474
1427146480.649,-3.5497713
1427146480.664,-3.4139957
1427146480.68,-3.1682978
1427146480.696,-3.3273106
1427146480.711,-4.2780724
1427146480.727,-6.178011
1427146480.742,-8.845627
1427146480.758,-11.871826
1427146480.774,-14.746176
1427146480.789,-17.002338
1427146480.805,-18.329124
1427146480.821,-18.603142
1427146480.836,-17.939262
1427146480.852,-16.683231
1427146480.867,-15.271183
1427146480.883,-14.154366
1427146480.899,-13.517075
1427146480.914,-13.225815
1427146480.93,-12.790234
1427146480.946,-11.643871
1427146480.961,-9.420284
1427146480.977,-6.2162514
1427146480.992,-2.6061592
1427146481.008,0.64419556
1427146481.024,2.9799042
1427146481.039,4.354225
1427146481.055,5.2778473
1427146481.071,6.5462494
1427146481.086,8.821457
1427146481.102,12.31945
1427146481.117,16.728249
1427146481.133,21.423706
1427146481.149,25.788124
1427146481.164,29.375778
1427146481.18,31.936684
1427146481.196,33.310677
1427146481.211,33.26674
1427146481.227,31.533867
1427146481.242,27.9598
1427146481.258,22.745697
1427146481.274,16.545311
1427146481.289,10.301483
1427146481.305,4.9842834
1427146481.321,1.1851196
1427146481.336,-1.0468445
1427146481.352,-2.1841507
1427146481.367,-2.9284363
1427146481.383,-3.8293152
1427146481.399,-5.0946198
1427146481.414,-6.556885
1427146481.43,-7.9099274
1427146481.446,-8.9474945
1427146481.461,-9.723038
1427146481.477,-10.534317
1427146481.492,-11.721344
1427146481.508,-13.4944
1427146481.524,-15.75444
1427146481.539,-18.138626
1427146481.555,-20.150711
1427146481.571,-21.355621
1427146481.586,-21.506073
1427146481.602,-20.619705
1427146481.617,-18.93399
1427146481.633,-16.794785
1427146481.649,-14.529419
1427146481.664,-12.432922
1427146481.68,-10.615784
1427146481.696,-9.071136
1427146481.711,-7.659607
1427146481.727,-6.1345215
1427146481.742,-4.1168976
1427146481.758,-1.2255859
1427146481.774,2.6927185
1427146481.789,7.215988
1427146481.805,11.322205
1427146481.821,13.607788
1427146481.836,12.936096
1427146481.852,9.070969
1427146481.868,2.9675903
1427146481.883,-3.4963531
1427146481.899,-8.2504425
1427146481.914,-9.886261
1427146481.93,-8.083328
1427146481.946,-3.5592346
1427146481.961,2.4335632
1427146481.977,8.586899
1427146481.992,13.886322
1427146482.008,17.609756
1427146482.024,19.25319
1427146482.039,18.540741
1427146482.055,15.512222
1427146482.071,10.62616
1427146482.086,4.760437
1427146482.102,-1.0516968
1427146482.118,-5.952667
1427146482.133,-9.433807
1427146482.149,-11.353607
1427146482.164,-11.914703
1427146482.18,-11.465942
1427146482.196,-10.468018
1427146482.211,-9.4192505
1427146482.227,-8.878174
1427146482.243,-9.312958
1427146482.258,-11.004456
1427146482.274,-13.87088
1427146482.289,-17.540619
1427146482.305,-21.428741
1427146482.321,-25.01764
1427146482.336,-27.984283
1427146482.352,-30.291992
1427146482.368,-32.03839
1427146482.383,-33.31256
1427146482.399,-34.050903
1427146482.414,-34.0791
1427146482.43,-33.22287
1427146482.446,-31.503876
1427146482.461,-29.116547
1427146482.477,-26.390015
1427146482.493,-23.590485
1427146482.508,-20.874512
1427146482.524,-18.229431
1427146482.539,-15.6015625
1427146482.555,-12.988434
1427146482.571,-10.500763
1427146482.586,-8.291687
1427146482.602,-6.5022583
1427146482.618,-5.1258545
1427146482.633,-4.0596924
1427146482.649,-3.1046753
1427146482.664,-2.1093445
1427146482.68,-0.9699402
1427146482.696,0.31048584
1427146482.711,1.68927
1427146482.727,3.0914307
1427146482.743,4.4880066
1427146482.758,5.8981323
1427146482.774,7.410492
1427146482.789,9.231506
1427146482.805,11.683685
1427146482.821,15.15509
1427146482.836,19.918457
1427146482.852,25.819122
1427146482.868,32.185272
1427146482.883,37.790344
1427146482.899,41.240845
1427146482.914,41.469635
1427146482.93,38.20923
1427146482.946,32.08081
1427146482.961,24.349121
1427146482.977,16.367676
1427146482.993,9.141663
1427146483.008,3.058136
1427146483.024,-1.941742
1427146483.039,-6.064209
1427146483.055,-9.3828125
1427146483.071,-11.830811
1427146483.086,-13.31723
1427146483.102,-13.985718
1427146483.118,-14.261993
1427146483.133,-14.680695
1427146483.149,-15.679352
1427146483.164,-17.371826
1427146483.18,-19.581268
1427146483.196,-21.988373
1427146483.211,-24.30777
1427146483.227,-26.42865
1427146483.243,-28.350586
1427146483.258,-30.086426
1427146483.274,-31.548126
1427146483.289,-32.601746
1427146483.305,-33.111237
1427146483.321,-32.99295
1427146483.336,-32.22058
1427146483.352,-30.80716
1427146483.368,-28.753418
1427146483.383,-26.114777
1427146483.399,-23.075684
1427146483.414,-19.94168
1427146483.43,-17.08017
1427146483.446,-14.719635
1427146483.461,-12.83197
1427146483.477,-11.154266
1427146483.493,-9.321167
1427146483.508,-7.1170044
1427146483.524,-4.6186523
1427146483.539,-2.1960144
1427146483.555,-0.2703247
1427146483.571,0.9025574
1427146483.586,1.4342957
1427146483.602,1.7521667
1427146483.618,2.3773193
1427146483.633,3.6973877
1427146483.649,5.7763367
1427146483.664,8.401825
1427146483.68,11.290588
1427146483.696,14.319275
1427146483.711,17.624023
1427146483.727,21.438538
1427146483.743,25.791656
1427146483.758,30.225311
1427146483.774,33.791656
1427146483.789,35.36148
1427146483.805,34.154724
1427146483.821,30.15741
1427146483.836,24.164764
1427146483.852,17.410645
1427146483.868,11.021576
1427146483.883,5.5711975
1427146483.899,1.0001221
1427146483.914,-3.0535583
1427146483.93,-6.879883
1427146483.946,-10.391693
1427146483.961,-13.227051
1427146483.977,-15.06958
1427146483.993,-15.925262
1427146484.008,-16.226349
1427146484.024,-16.603668
1427146484.039,-17.557892
1427146484.055,-19.145294
1427146484.071,-21.037598
1427146484.086,-22.693085
1427146484.102,-23.700623
1427146484.118,-23.970276
1427146484.133,-23.749146
1427146484.149,-23.472198
1427146484.164,-23.516174
1427146484.18,-24.06424
1427146484.196,-25.025269
1427146484.211,-26.07019
1427146484.227,-26.72113
1427146484.243,-26.519135
1427146484.258,-25.160522
1427146484.274,-22.643524
1427146484.289,-19.357117
1427146484.305,-15.948151
1427146484.321,-13.118652
1427146484.336,-11.26767
1427146484.352,-10.331238
1427146484.368,-9.748932
1427146484.383,-8.762787
1427146484.399,-6.771942
1427146484.414,-3.658966
1427146484.43,0.13955688
1427146484.446,3.8633728
1427146484.461,6.8183594
1427146484.477,8.687195
1427146484.493,9.705078
1427146484.508,10.506317
1427146484.524,11.852051
1427146484.539,14.301758
1427146484.555,18.016296
1427146484.571,22.706665
1427146484.586,27.776642
1427146484.602,32.386322
1427146484.618,35.665375
1427146484.633,36.8649
1427146484.649,35.531708
1427146484.664,31.6828
1427146484.68,25.86847
1427146484.696,19.030518
1427146484.711,12.267578
1427146484.727,6.4653015
1427146484.743,2.0295105
1427146484.758,-1.148346
1427146484.774,-3.5112305
1427146484.79,-5.534668
1427146484.805,-7.471863
1427146484.821,-9.247223
1427146484.836,-10.594086
1427146484.852,-11.290222
1427146484.868,-11.321136
1427146484.883,-10.999725
1427146484.899,-10.758026
1427146484.915,-10.9887085
1427146484.93,-11.78421
1427146484.946,-12.932709
1427146484.961,-13.963898
1427146484.977,-14.405914
1427146484.993,-13.972443
1427146485.008,-12.632599
1427146485.024,-10.567139
1427146485.04,-8.047119
1427146485.055,-5.313324
1427146485.071,-2.599121
1427146485.086,-0.12927246
1427146485.102,1.8709106
1427146485.118,3.2831726
1427146485.133,4.2079773
1427146485.149,5.01001
1427146485.165,6.1282654
1427146485.18,7.8482666
1427146485.196,10.077393
1427146485.211,12.369415
1427146485.227,14.152679
1427146485.243,15.1138
1427146485.258,15.335114
1427146485.274,15.295471
1427146485.29,15.529724
1427146485.305,16.311218
1427146485.321,17.526123
1427146485.336,18.857788
1427146485.352,20.07843
1427146485.368,21.30716
1427146485.383,23.002213
1427146485.399,25.67012
1427146485.415,29.474792
1427146485.43,34.00534
1427146485.446,38.25113
1427146485.461,40.97003
1427146485.477,41.107666
1427146485.493,38.260117
1427146485.508,32.76027
1427146485.524,25.537292
1427146485.54,17.582916
1427146485.555,9.59877
1427146485.571,1.7621765
1427146485.586,-6.0881042
1427146485.602,-14.122559
1427146485.618,-22.1501
1427146485.633,-29.593796
1427146485.649,-35.66327
1427146485.665,-39.7509
1427146485.68,-41.692276
1427146485.696,-41.85678
1427146485.711,-40.96727
1427146485.727,-39.821625
1427146485.743,-39.074356
1427146485.758,-39.07292
1427146485.774,-39.874435
1427146485.79,-41.337738
1427146485.805,-43.174927
1427146485.821,-45.05194
1427146485.836,-46.61177
1427146485.852,-47.51866
1427146485.868,-47.470444
1427146485.883,-46.218933
1427146485.899,-43.618057
1427146485.915,-39.70424
1427146485.93,-34.744446
1427146485.946,-29.24205
1427146485.961,-23.782928
1427146485.977,-18.876236
1427146485.993,-14.698959
1427146486.008,-11.092941
1427146486.024,-7.6451874
1427146486.04,-3.9318695
1427146486.055,0.19474792
1427146486.071,4.5425262
1427146486.086,8.666779
1427146486.102,12.097137
1427146486.118,14.627457
1427146486.133,16.37622
1427146486.149,17.754868
1427146486.165,19.164566
1427146486.18,20.837692
1427146486.196,22.66571
1427146486.211,24.369812
1427146486.227,25.71724
1427146486.243,26.704132
1427146486.258,27.627136
1427146486.274,28.925064
1427146486.29,30.953842
1427146486.305,33.832596
1427146486.321,37.46057
1427146486.336,41.565628
1427146486.352,45.773727
1427146486.368,49.588486
1427146486.383,52.310883
1427146486.399,53.154846
1427146486.415,51.413925
1427146486.43,46.870987
1427146486.446,39.982803
1427146486.461,31.869171
1427146486.477,23.91249
1427146486.493,17.263824
1427146486.508,12.450272
1427146486.524,9.288223
1427146486.54,7.1355743
1427146486.555,5.2655334
1427146486.571,3.1965332
1427146486.586,0.84532166
1427146486.602,-1.6415405
1427146486.618,-4.026413
1427146486.633,-6.1947327
1427146486.649,-8.192322
1427146486.665,-10.193695
1427146486.68,-12.372986
1427146486.696,-14.807419
1427146486.711,-17.413147
1427146486.727,-19.99768
1427146486.743,-22.35672
1427146486.758,-24.38411
1427146486.774,-26.071274
1427146486.79,-27.471893
1427146486.805,-28.573135
1427146486.821,-29.236115
1427146486.836,-29.253754
1427146486.852,-28.459045
1427146486.868,-26.829697
1427146486.883,-24.588898
1427146486.899,-22.067642
1427146486.915,-19.613022
1427146486.93,-17.405548
1427146486.946,-15.491913
1427146486.961,-13.774658
1427146486.977,-12.136185
1427146486.993,-10.489502
1427146487.008,-8.807739
1427146487.024,-7.107132
1427146487.04,-5.445633
1427146487.055,-3.8492126
1427146487.071,-2.3123016
1427146487.086,-0.7247162
1427146487.102,1.0770569
1427146487.118,3.2552948
1427146487.133,5.8300323
1427146487.149,8.638824
1427146487.165,11.358246
1427146487.18,13.669006
1427146487.196,15.444809
1427146487.211,16.852783
1427146487.227,18.274048
1427146487.243,20.177536
1427146487.258,22.891296
1427146487.274,26.507645
1427146487.29,30.802902
1427146487.305,35.28839
1427146487.321,39.248856
1427146487.336,41.833626
1427146487.352,42.237946
1427146487.368,39.98652
1427146487.383,35.2015
1427146487.399,28.654655
1427146487.415,21.55091
1427146487.43,15.100395
1427146487.446,10.050819
1427146487.462,6.4888687
1427146487.477,3.9120636
1427146487.493,1.6550674
1427146487.508,-0.79538727
1427146487.524,-3.5281143
1427146487.54,-6.283333
1427146487.555,-8.641388
1427146487.571,-10.28875
1427146487.587,-11.1719055
1427146487.602,-11.545242
1427146487.618,-11.8367
1427146487.633,-12.474777
1427146487.649,-13.690506
1427146487.665,-15.450714
1427146487.68,-17.495796
1427146487.696,-19.55857
1427146487.712,-21.482254
1427146487.727,-23.304794
1427146487.743,-25.11251
1427146487.758,-26.827423
1427146487.774,-28.087662
1427146487.79,-28.34687
1427146487.805,-27.202187
1427146487.821,-24.696274
1427146487.837,-21.438477
1427146487.852,-18.378418
1427146487.868,-16.329231
1427146487.883,-15.606201
1427146487.899,-15.798157
1427146487.915,-16.05577
1427146487.93,-15.464546
1427146487.946,-13.515381
1427146487.962,-10.267059
1427146487.977,-6.309799
1427146487.993,-2.4281464
1427146488.008,0.74186707
1427146488.024,2.9715881
1427146488.04,4.4181824
1427146488.055,5.5092697
1427146488.071,6.7048874
1427146488.087,8.389938
1427146488.102,10.836037
1427146488.118,14.236229
1427146488.133,18.677551
1427146488.149,24.037193
1427146488.165,29.801056
1427146488.18,35.037888
1427146488.196,38.598915
1427146488.212,39.496147
1427146488.227,37.29618
1427146488.243,32.375237
1427146488.258,25.737808
1427146488.274,18.68248
1427146488.29,12.330246
1427146488.305,7.3144226
1427146488.321,3.723877
1427146488.337,1.2780685
1427146488.352,-0.4750824
1427146488.368,-1.8733826
1427146488.383,-3.1190567
1427146488.399,-4.235512
1427146488.415,-5.2165756
1427146488.43,-6.095169
1427146488.446,-7.0293503
1427146488.462,-8.203217
1427146488.477,-9.746803
1427146488.493,-11.606422
1427146488.508,-13.525627
1427146488.524,-15.119385
1427146488.54,-16.082237
1427146488.555,-16.292046
1427146488.571,-15.856522
1427146488.587,-15.045502
1427146488.602,-14.134575
1427146488.618,-13.288654
1427146488.633,-12.55368
1427146488.649,-11.896633
1427146488.665,-11.246544
1427146488.68,-10.534805
1427146488.696,-9.70182
1427146488.712,-8.686546
1427146488.727,-7.4738693
1427146488.743,-6.0806847
1427146488.758,-4.5706253
1427146488.774,-2.9916801
1427146488.79,-1.3556137
1427146488.805,0.36541748
1427146488.821,2.195366
1427146488.837,4.074978
1427146488.852,5.8534546
1427146488.868,7.3549232
1427146488.883,8.469902
1427146488.899,9.278255
1427146488.915,10.068539
1427146488.93,11.264103
1427146488.946,13.266079
1427146488.962,16.29876
1427146488.977,20.184898
1427146488.993,24.362381
1427146489.008,27.964397
1427146489.024,30.05576
1427146489.04,29.925354
1427146489.055,27.374454
1427146489.071,22.78727
1427146489.087,17.006931
1427146489.102,11.024849
1427146489.118,5.5990486
1427146489.133,1.0746841
1427146489.149,-2.647789
1427146489.165,-5.8952217
1427146489.18,-8.920185
1427146489.196,-11.765194
1427146489.212,-14.235041
1427146489.227,-16.065414
1427146489.243,-17.09477
1427146489.258,-17.424927
1427146489.274,-17.37801
1427146489.29,-17.395147
1427146489.305,-17.808386
1427146489.321,-18.722673
1427146489.337,-19.96872
1427146489.352,-21.193064
1427146489.368,-22.05956
1427146489.383,-22.415129
1427146489.399,-22.355015
1427146489.415,-22.151415
1427146489.43,-22.05934
1427146489.446,-22.128927
1427146489.462,-22.100224
1427146489.477,-21.560738
1427146489.493,-20.134068
1427146489.508,-17.685436
1427146489.524,-14.383816
1427146489.54,-10.607918
1427146489.555,-6.721573
1427146489.571,-2.943266
1427146489.587,0.7351365
1427146489.602,4.4265127
1427146489.618,8.233149
1427146489.633,12.169943
1427146489.649,16.099916
1427146489.665,19.796165
1427146489.68,23.035643
1427146489.696,25.666838
1427146489.712,27.690952
1427146489.727,29.313583
1427146489.743,30.906853
1427146489.758,32.832413
1427146489.774,35.27327
1427146489.79,38.00203
1427146489.805,40.429787
1427146489.821,41.757305
1427146489.837,41.324627
1427146489.852,38.884003
1427146489.868,34.704933
1427146489.883,29.399635
1427146489.899,23.672884
1427146489.915,18.034313
1427146489.93,12.735733
1427146489.946,7.793661
1427146489.962,3.2083654
1427146489.977,-0.95381165
1427146489.993,-4.5286694
1427146490.008,-7.3486376
1427146490.024,-9.35679
1427146490.04,-10.673935
1427146490.055,-11.556163
1427146490.071,-12.315909
1427146490.087,-13.185277
1427146490.102,-14.305708
1427146490.118,-15.714706
1427146490.134,-17.390533
1427146490.149,-19.261253
1427146490.165,-21.21241
1427146490.18,-23.029226
1427146490.196,-24.463114
1427146490.212,-25.269081
1427146490.227,-25.351664
1427146490.243,-24.785526
1427146490.259,-23.846994
1427146490.274,-22.835829
1427146490.29,-21.925045
1427146490.305,-21.040108
1427146490.321,-19.925545
1427146490.337,-18.296087
1427146490.352,-16.033342
1427146490.368,-13.256397
1427146490.384,-10.256029
1427146490.399,-7.2875633
1427146490.415,-4.406643
1427146490.43,-1.4565048
1427146490.446,1.7814617
1427146490.462,5.3827076
1427146490.477,9.167469
1427146490.493,12.768457
1427146490.509,15.839436
1427146490.524,18.320547
1427146490.54,20.42354
1427146490.555,22.605715
1427146490.571,25.244274
1427146490.587,28.477734
1427146490.602,32.14871
1427146490.618,35.907482
1427146490.634,39.376152
1427146490.649,42.249676
1427146490.665,44.262993
1427146490.68,45.14244
1427146490.696,44.517937
1427146490.712,42.041763
1427146490.727,37.550564
1427146490.743,31.235203
1427146490.759,23.753544
1427146490.774,16.03624
1427146490.79,9.015472
1427146490.805,3.3040352
1427146490.821,-1.0407715
1427146490.837,-4.405731
1427146490.852,-7.4062805
1427146490.868,-10.525276
1427146490.884,-13.862484
1427146490.899,-17.109066
1427146490.915,-19.718071
1427146490.93,-21.171852
1427146490.946,-21.309206
1427146490.962,-20.367115
1427146490.977,-18.928076
1427146490.993,-17.670269
1427146491.009,-17.068913
1427146491.024,-17.254444
1427146491.04,-18.020676
1427146491.055,-18.959839
1427146491.071,-19.752565
1427146491.087,-20.24438
1427146491.102,-20.49323
1427146491.118,-20.589697
1427146491.134,-20.498594
1427146491.149,-19.986534
1427146491.165,-18.746212
1427146491.18,-16.613983
1427146491.196,-13.714458
1427146491.212,-10.450262
1427146491.227,-7.3596725
1427146491.243,-4.8354683
1427146491.259,-2.9880466
1427146491.274,-1.6462955
1427146491.29,-0.5096245
1427146491.305,0.7035427
1427146491.321,2.1314392
1427146491.337,3.7745514
1427146491.352,5.556015
1427146491.368,7.4121323
1427146491.384,9.320923
1427146491.399,11.327644
1427146491.415,13.447147
1427146491.43,15.695002
1427146491.446,17.963844
1427146491.462,20.109043
1427146491.477,21.977581
1427146491.493,23.493713
1427146491.509,24.72956
1427146491.524,25.885637
1427146491.54,27.186926
1427146491.555,28.72853
1427146491.571,30.373074
1427146491.587,31.742273
1427146491.602,32.28642
1427146491.618,31.528784
1427146491.634,29.172153
1427146491.649,25.251894
1427146491.665,20.090048
1427146491.68,14.228449
1427146491.696,8.307991
1427146491.712,2.9084873
1427146491.727,-1.5768204
1427146491.743,-5.047655
1427146491.759,-7.6484165
1427146491.774,-9.718763
1427146491.79,-11.593498
1427146491.805,-13.484556
1427146491.821,-15.409178
1427146491.837,-17.208693
1427146491.852,-18.704239
1427146491.868,-19.80331
1427146491.884,-20.574734
1427146491.899,-21.19206
1427146491.915,-21.845747
1427146491.93,-22.582628
1427146491.946,-23.330965
1427146491.962,-23.917955
1427146491.977,-24.221642
1427146491.993,-24.255424
1427146492.009,-24.14224
1427146492.024,-24.023808
1427146492.04,-23.94572
1427146492.055,-23.78501
1427146492.071,-23.307362
1427146492.087,-22.319336
1427146492.102,-20.802673
1427146492.118,-18.893377
1427146492.134,-16.831455
1427146492.149,-14.740341
1427146492.165,-12.619743
1427146492.18,-10.410088
1427146492.196,-8.211664
1427146492.212,-6.3229427
1427146492.227,-5.1341343
1427146492.243,-4.8605537
1427146492.259,-5.235237
1427146492.274,-5.5974274
1427146492.29,-5.161377
1427146492.305,-3.476904
1427146492.321,-0.72270775
1427146492.337,2.4291897
1427146492.352,5.210331
1427146492.368,7.2393513
1427146492.384,8.6766815
1427146492.399,10.106743
1427146492.415,12.065952
1427146492.43,14.777452
1427146492.446,18.086042
1427146492.462,21.688187
1427146492.477,25.315498
1427146492.493,28.815748
1427146492.509,31.96928
1427146492.524,34.347393
1427146492.54,35.32602
1427146492.555,34.32062
1427146492.571,31.125858
1427146492.587,26.099895
1427146492.602,20.00882
1427146492.618,13.746822
1427146492.634,7.9202194
1427146492.649,2.7782097
1427146492.665,-1.7283516
1427146492.68,-5.642235
1427146492.696,-8.873257
1427146492.712,-11.18309
1427146492.727,-12.375011
1427146492.743,-12.472237
1427146492.759,-11.828789
1427146492.774,-10.98624
1427146492.79,-10.498989
1427146492.806,-10.734222
1427146492.821,-11.737923
1427146492.837,-13.254791
1427146492.852,-14.8870125
1427146492.868,-16.265194
1427146492.884,-17.195423
1427146492.899,-17.714699
1427146492.915,-18.015465
1427146492.93,-18.264854
1427146492.946,-18.512062
1427146492.962,-18.60611
1427146492.977,-18.290054
1427146492.993,-17.373741
1427146493.009,-15.839703
1427146493.024,-13.85751
1427146493.04,-11.74168
1427146493.056,-9.786087
1427146493.071,-8.159782
1427146493.087,-6.8692017
1427146493.102,-5.78022
1427146493.118,-4.7126427
1427146493.134,-3.5188866
1427146493.149,-2.1132393
1427146493.165,-0.49404144
1427146493.181,1.2587471
1427146493.196,3.0628853
1427146493.212,4.87759
1427146493.227,6.63406
1427146493.243,8.2882805
1427146493.259,9.77607
1427146493.274,11.089298
1427146493.29,12.319069
1427146493.306,13.775745
1427146493.321,15.853832
1427146493.337,18.872375
1427146493.352,22.754787
1427146493.368,26.907982
1427146493.384,30.335209
1427146493.399,31.99297
1427146493.415,31.215065
1427146493.431,28.03653
1427146493.446,23.161678
1427146493.462,17.58192
1427146493.477,12.205254
1427146493.493,7.5408897
1427146493.509,3.6285286
1427146493.524,0.31638718
1427146493.54,-2.5065918
1427146493.556,-4.750683
1427146493.571,-6.18412
1427146493.587,-6.61364
1427146493.602,-6.123398
1427146493.618,-5.0893173
1427146493.634,-4.060257
1427146493.649,-3.5482063
1427146493.665,-3.8024597
1427146493.681,-4.780163
1427146493.696,-6.279854
1427146493.712,-8.049355
1427146493.727,-9.954788
1427146493.743,-11.96265
1427146493.759,-14.04245
1427146493.774,-16.05104
1427146493.79,-17.783989
1427146493.806,-19.003319
1427146493.821,-19.598778
1427146493.837,-19.580803
1427146493.852,-19.054466
1427146493.868,-18.141129
1427146493.884,-16.939903
1427146493.899,-15.489349
1427146493.915,-13.872368
1427146493.931,-12.224068
1427146493.946,-10.650932
1427146493.962,-9.150238
1427146493.977,-7.5975037
1427146493.993,-5.7847977
1427146494.009,-3.5751038
1427146494.024,-1.0065079
1427146494.04,1.6898575
1427146494.056,4.2289047
1427146494.071,6.4061356
1427146494.087,8.221458
1427146494.102,9.824135
1427146494.118,11.4162445
1427146494.134,13.158325
1427146494.149,15.144852
1427146494.165,17.415726
1427146494.181,20.034317
1427146494.196,23.086884
1427146494.212,26.631775
1427146494.227,30.582817
1427146494.243,34.637123
1427146494.259,38.2511
1427146494.274,40.76068
1427146494.29,41.524002
1427146494.306,40.154068
1427146494.321,36.664284
1427146494.337,31.50142
1427146494.352,25.44413
1427146494.368,19.398087
1427146494.384,14.074699
1427146494.399,9.868462
1427146494.415,6.7097855
1427146494.431,4.2331543
1427146494.446,1.9105148
1427146494.462,-0.666214
1427146494.477,-3.6517258
1427146494.493,-6.900177
1427146494.509,-10.0364685
1427146494.524,-12.671898
1427146494.54,-14.62455
1427146494.556,-16.023438
1427146494.571,-17.226334
1427146494.587,-18.639687
1427146494.602,-20.451973
1427146494.618,-22.510643
1427146494.634,-24.434029
1427146494.649,-25.749535
1427146494.665,-26.269241
1427146494.681,-26.118446
1427146494.696,-25.689056
1427146494.712,-25.361755
1427146494.727,-25.276726
1427146494.743,-25.209038
1427146494.759,-24.701012
1427146494.774,-23.31829
1427146494.79,-20.921303
1427146494.806,-17.785606
1427146494.821,-14.5159
1427146494.837,-11.747604
1427146494.852,-9.856598
1427146494.868,-8.801865
1427146494.884,-8.15786
1427146494.899,-7.362076
1427146494.915,-6.0384293
1427146494.931,-4.137459
1427146494.946,-1.9678574
1427146494.962,0.052482605
1427146494.977,1.615448
1427146494.993,2.7417831
1427146495.009,3.7170868
1427146495.024,4.987015
1427146495.04,6.905678
1427146495.056,9.606728
1427146495.071,12.994209
1427146495.087,16.810585
1427146495.102,20.752327
1427146495.118,24.485672
1427146495.134,27.654518
1427146495.149,29.817108
1427146495.165,30.467674
1427146495.181,29.181282
1427146495.196,25.757355
1427146495.212,20.450554
1427146495.227,13.953949
1427146495.243,7.292122
1427146495.259,1.5091095
1427146495.274,-2.6639938
1427146495.29,-5.0654373
1427146495.306,-6.0716553
1427146495.321,-6.3410034
1427146495.337,-6.4814224
1427146495.352,-6.7605896
1427146495.368,-7.021736
1427146495.384,-6.897316
1427146495.399,-6.1141205
1427146495.415,-4.698456
1427146495.431,-3.013298
1427146495.446,-1.5404434
1427146495.462,-0.6021805
1427146495.477,-0.23252869
1427146495.493,-0.20214081
1427146495.509,-0.22232819
1427146495.524,-0.15544128
1427146495.54,-0.094055176
1427146495.556,-0.27223969
1427146495.571,-0.90841675
1427146495.587,-2.0287857
1427146495.602,-3.4782257
1427146495.618,-4.9707565
1427146495.634,-6.2171326
1427146495.649,-6.989403
1427146495.665,-7.237381
1427146495.681,-7.027771
1427146495.696,-6.53553
1427146495.712,-5.9508896
1427146495.728,-5.385025
1427146495.743,-4.827408
1427146495.759,-4.1383896
1427146495.774,-3.1724472
1427146495.79,-1.8683167
1427146495.806,-0.311203
1427146495.821,1.3527985
1427146495.837,3.01548
1427146495.853,4.672554
1427146495.868,6.425659
1427146495.884,8.381912
1427146495.899,10.589722
1427146495.915,12.993057
1427146495.931,15.481773
1427146495.946,17.950455
1427146495.962,20.367905
1427146495.978,22.76455
1427146495.993,25.19165
1427146496.009,27.63784
1427146496.024,29.97683
1427146496.04,31.928734
1427146496.056,33.057045
1427146496.071,32.911407
1427146496.087,31.141571
1427146496.103,27.703629
1427146496.118,22.928642
1427146496.134,17.445313
1427146496.149,11.993347
1427146496.165,7.135498
1427146496.181,3.1417236
1427146496.196,0.007987976
1427146496.212,-2.4319687
1427146496.228,-4.401947
1427146496.243,-6.0517197
1427146496.259,-7.4987335
1427146496.274,-8.795197
1427146496.29,-9.981453
1427146496.306,-11.0562935
1427146496.321,-12.036125
1427146496.337,-13.000019
1427146496.353,-14.084755
1427146496.368,-15.468567
1427146496.384,-17.257862
1427146496.399,-19.32935
1427146496.415,-21.382362
1427146496.431,-22.987354
1427146496.446,-23.842186
1427146496.462,-23.854816
1427146496.478,-23.171669
1427146496.493,-22.077286
1427146496.509,-20.811592
1427146496.524,-19.47696
1427146496.54,-18.024807
1427146496.556,-16.401371
1427146496.571,-14.572311
1427146496.587,-12.601002
1427146496.603,-10.605473
1427146496.618,-8.684574
1427146496.634,-6.875576
1427146496.649,-5.133999
1427146496.665,-3.3749847
1427146496.681,-1.4792213
1427146496.696,0.58460236
1427146496.712,2.7679558
1427146496.728,4.9219513
1427146496.743,6.901264
1427146496.759,8.635193
1427146496.774,10.264919
1427146496.79,12.104126
1427146496.806,14.561745
1427146496.821,17.904057
1427146496.837,22.084045
1427146496.853,26.638466
1427146496.868,30.815746
1427146496.884,33.743008
1427146496.899,34.739815
1427146496.915,33.491505
1427146496.931,30.145512
1427146496.946,25.220768
1427146496.962,19.457565
1427146496.978,13.631248
1427146496.993,8.41507
1427146497.009,4.224697
1427146497.024,1.160078
1427146497.04,-0.9623337
1427146497.056,-2.5248508
1427146497.071,-3.8776913
1427146497.087,-5.190813
1427146497.103,-6.384371
1427146497.118,-7.289837
1427146497.134,-7.8231697
1427146497.149,-8.183575
1427146497.165,-8.829617
1427146497.181,-10.196102
1427146497.196,-12.46563
1427146497.212,-15.36459
1427146497.228,-18.286053
1427146497.243,-20.61057
1427146497.259,-22.038418
1427146497.274,-22.698128
1427146497.29,-23.065292
1427146497.306,-23.557606
1427146497.321,-24.281254
1427146497.337,-24.932428
1427146497.353,-24.990778
1427146497.368,-24.00231
1427146497.384,-21.85768
1427146497.399,-18.811523
1427146497.415,-15.343214
1427146497.431,-11.91263
1427146497.446,-8.802154
1427146497.462,-6.0487165
1427146497.478,-3.528572
1427146497.493,-1.0580225
1427146497.509,1.548749
1427146497.524,4.464552
1427146497.54,7.9138117
1427146497.556,12.156011
1427146497.571,17.354336
1427146497.587,23.448418
1427146497.603,29.95585
1427146497.618,36.00446
1427146497.634,40.529877
1427146497.649,42.6059
1427146497.665,41.824787
1427146497.681,38.45222
1427146497.696,33.325836
1427146497.712,27.564123
1427146497.728,22.158007
1427146497.743,17.68817
1427146497.759,14.179458
1427146497.774,11.265008
1427146497.79,8.352494
1427146497.806,4.9575377
1427146497.821,0.84653807
1427146497.837,-3.849033
1427146497.853,-8.697921
1427146497.868,-13.077232
1427146497.884,-16.335983
1427146497.899,-18.06968
1427146497.915,-18.276665
1427146497.931,-17.397888
1427146497.946,-16.209621
1427146497.962,-15.486987
1427146497.978,-15.714138
1427146497.993,-16.872892
1427146498.009,-18.52864
1427146498.024,-20.02369
1427146498.04,-20.886475
1427146498.056,-20.955486
1427146498.071,-20.443964
1427146498.087,-19.684433
1427146498.103,-18.927803
1427146498.118,-18.153742
1427146498.134,-17.084793
1427146498.149,-15.403023
1427146498.165,-12.86742
1427146498.181,-9.495806
1427146498.196,-5.543354
1427146498.212,-1.3815956
1427146498.228,2.62294
1427146498.243,6.252674
1427146498.259,9.554005
1427146498.274,12.7897415
1427146498.29,16.269512
1427146498.306,20.239643
1427146498.321,24.696949
1427146498.337,29.427032
1427146498.353,34.082577
1427146498.368,38.34652
1427146498.384,41.97848
1427146498.4,44.76513
1427146498.415,46.43522
1427146498.431,46.620476
1427146498.446,44.964607
1427146498.462,41.388195
1427146498.478,36.27373
1427146498.493,30.465366
1427146498.509,24.920609
1427146498.525,20.22216
1427146498.54,16.21481
1427146498.556,12.088852
1427146498.571,6.8130226
1427146498.587,-0.13972473
1427146498.603,-8.397816
1427146498.618,-16.734966
1427146498.634,-23.60514
1427146498.65,-27.927746
1427146498.665,-29.651054
1427146498.681,-29.727768
1427146498.696,-29.634346
1427146498.712,-30.56894
1427146498.728,-32.967842
1427146498.743,-36.367462
1427146498.759,-39.7909
1427146498.775,-42.256554
1427146498.79,-43.18313
1427146498.806,-42.46631
1427146498.821,-40.337723
1427146498.837,-37.16411
1427146498.853,-33.353706
1427146498.868,-29.468658
1427146498.884,-26.287697
1427146498.9,-24.656425
1427146498.915,-25.063873
1427146498.931,-27.057022
1427146498.946,-28.957794
1427146498.962,-28.139915
1427146498.978,-22.05333
1427146498.993,-9.521355
1427146499.009,8.379425
1427146499.025,28.394318
1427146499.04,46.16127
1427146499.056,57.875206
1427146499.071,61.660866
1427146499.087,58.08087
1427146499.103,49.62699
1427146499.118,39.519623
1427146499.134,30.545486
1427146499.15,24.31488
1427146499.165,21.185005
1427146499.181,20.589203
1427146499.196,21.394035
1427146499.212,22.168594
1427146499.228,21.37217
1427146499.243,17.697662
1427146499.259,10.480598
1427146499.275,0.15587616
1427146499.29,-11.658371
1427146499.306,-22.57174
1427146499.321,-30.279503
1427146499.337,-33.419296
1427146499.353,-32.130997
1427146499.368,-27.937378
1427146499.384,-23.077248
1427146499.4,-19.498894
1427146499.415,-18.109108
1427146499.431,-18.482635
1427146499.446,-19.209343
1427146499.462,-18.675018
1427146499.478,-15.827255
1427146499.493,-10.661179
1427146499.509,-4.3316193
1427146499.525,1.2572632
1427146499.54,3.98629
1427146499.556,2.2618256
1427146499.571,-4.4279785
1427146499.587,-15.247627
1427146499.603,-28.242874
1427146499.618,-40.884857
1427146499.634,-50.842133
1427146499.65,-56.620117
1427146499.665,-57.87519
1427146499.681,-55.29725
1427146499.696,-50.223732
1427146499.712,-44.14843
1427146499.728,-38.260445
1427146499.743,-33.164955
1427146499.759,-28.666748
1427146499.775,-23.831482
1427146499.79,-17.351875
1427146499.806,-8.089722
1427146499.821,4.2578964
1427146499.837,18.856735
1427146499.853,33.930817
1427146499.868,47.552002
1427146499.884,58.404922
1427146499.9,66.327614
1427146499.915,72.08934
1427146499.931,76.667786
1427146499.946,80.57035
1427146499.962,83.39676
1427146499.978,84.06956
1427146499.993,81.50561
1427146500.009,75.23832
1427146500.025,65.72801
1427146500.04,54.20047
1427146500.056,42.22294
1427146500.071,31.119728
1427146500.087,21.741837
1427146500.103,14.275719
1427146500.118,8.400711
1427146500.134,3.5584793
1427146500.15,-0.8187256
1427146500.165,-5.0317
1427146500.181,-9.067574
1427146500.196,-12.700371
1427146500.212,-15.717133
1427146500.228,-18.112625
1427146500.243,-20.1194
1427146500.259,-22.10817
1427146500.275,-24.253922
1427146500.29,-26.401352
1427146500.306,-27.981476
1427146500.321,-28.241241
1427146500.337,-26.64096
1427146500.353,-23.255112
1427146500.368,-18.815826
1427146500.384,-14.503143
1427146500.4,-11.401688
1427146500.415,-10.015289
1427146500.431,-10.104889
1427146500.446,-10.871506
1427146500.462,-11.404541
1427146500.478,-11.133026
1427146500.493,-9.997314
1427146500.509,-8.313934
1427146500.525,-6.475464
1427146500.54,-4.724579
1427146500.556,-3.0200806
1427146500.571,-1.1752472
1427146500.587,1.0891113
1427146500.603,3.9852753
1427146500.618,7.6637115
1427146500.634,12.162628
1427146500.65,17.353943
1427146500.665,22.7966
1427146500.681,27.768158
1427146500.696,31.386444
1427146500.712,32.86084
1427146500.728,31.725388
1427146500.743,28.077576
1427146500.759,22.511276
1427146500.775,16.003998
1427146500.79,9.561371
1427146500.806,4.017914
1427146500.821,-0.19743347
1427146500.837,-3.058609
1427146500.853,-4.8476563
1427146500.868,-5.9344177
1427146500.884,-6.6072693
1427146500.9,-6.9550934
1427146500.915,-6.918106
1427146500.931,-6.4617615
1427146500.946,-5.7366333
1427146500.962,-5.0361786
1427146500.978,-4.685684
1427146500.993,-4.8208923
1427146501.009,-5.3044434
1427146501.025,-5.8045044
1427146501.04,-6.0594482
1427146501.056,-6.1042175
1427146501.072,-6.3014374
1427146501.087,-7.0730743
1427146501.103,-8.626602
1427146501.118,-10.700043
1427146501.134,-12.589767
1427146501.15,-13.4618225
1427146501.165,-12.725006
1427146501.181,-10.297791
1427146501.197,-6.672989
1427146501.212,-2.682785
1427146501.228,0.7636719
1427146501.243,3.0217133
1427146501.259,3.8852234
1427146501.275,3.6011353
1427146501.29,2.7390747
1427146501.306,2.0648193
1427146501.322,2.3302765
1427146501.337,4.1574097
1427146501.353,7.7891846
1427146501.368,13.038849
1427146501.384,19.08368
1427146501.4,24.673004
1427146501.415,28.380463
1427146501.431,29.064331
1427146501.447,26.292358
1427146501.462,20.51767
1427146501.478,12.849304
1427146501.493,4.628113
1427146501.509,-3.0533752
1427146501.525,-9.613434
1427146501.54,-14.963593
1427146501.556,-19.24591
1427146501.572,-22.642761
1427146501.587,-25.245087
1427146501.603,-27.119934
1427146501.618,-28.379578
1427146501.634,-29.171967
1427146501.65,-29.627167
1427146501.665,-29.86377
1427146501.681,-29.965881
1427146501.697,-30.075623
1427146501.712,-30.381592
1427146501.728,-31.067657
1427146501.743,-32.15924
1427146501.759,-33.45105
1427146501.775,-34.556488
1427146501.79,-35.07376
1427146501.806,-34.77295
1427146501.822,-33.673462
1427146501.837,-31.99057
1427146501.853,-29.99704
1427146501.868,-27.861176
1427146501.884,-25.63382
1427146501.9,-23.273071
1427146501.915,-20.791656
1427146501.931,-18.262878
1427146501.947,-15.818756
1427146501.962,-13.502472
1427146501.978,-11.242889
1427146501.993,-8.786407
1427146502.009,-5.8055725
1427146502.025,-2.0448303
1427146502.04,2.4318542
1427146502.056,7.2459717
1427146502.072,11.820404
1427146502.087,15.649658
1427146502.103,18.593658
1427146502.118,20.984558
1427146502.134,23.474243
1427146502.15,26.69162
1427146502.165,30.784882
1427146502.181,35.246216
1427146502.197,39.02014
1427146502.212,40.904846
1427146502.228,39.962708
1427146502.243,35.92575
1427146502.259,29.224579
1427146502.275,20.80246
1427146502.29,11.736908
1427146502.306,2.9674988
1427146502.322,-4.9226685
1427146502.337,-11.626984
1427146502.353,-17.088623
1427146502.368,-21.332733
1427146502.384,-24.394836
1427146502.4,-26.364563
1427146502.415,-27.473541
1427146502.431,-28.05655
1427146502.447,-28.562714
1427146502.462,-29.387146
1427146502.478,-30.742706
1427146502.493,-32.606018
1427146502.509,-34.753326
1427146502.525,-36.84314
1427146502.54,-38.626648
1427146502.556,-40.013855
1427146502.572,-41.068146
1427146502.587,-41.891724
1427146502.603,-42.5679
1427146502.618,-43.02133
1427146502.634,-43.09259
1427146502.65,-42.5878
1427146502.665,-41.426697
1427146502.681,-39.641907
1427146502.697,-37.40512
1427146502.712,-34.877808
1427146502.728,-32.147034
1427146502.743,-29.138885
1427146502.759,-25.62854
1427146502.775,-21.439056
1427146502.79,-16.58989
1427146502.806,-11.413193
1427146502.822,-6.4774323
1427146502.837,-2.3639069
1427146502.853,0.6008911
1427146502.868,2.4858704
1427146502.884,3.6967468
1427146502.9,4.7812653
1427146502.915,6.176178
1427146502.931,8.073593
1427146502.947,10.408447
1427146502.962,13.000092
1427146502.978,15.662109
1427146502.993,18.303085
1427146503.009,20.94629
1427146503.025,23.66272
1427146503.04,26.539444
1427146503.056,29.627335
1427146503.072,32.94188
1427146503.087,36.51117
1427146503.103,40.354156
1427146503.118,44.482956
1427146503.134,48.802444
1427146503.15,52.99356
1427146503.165,56.410095
1427146503.181,58.192062
1427146503.197,57.461105
1427146503.212,53.713425
1427146503.228,47.106125
1427146503.243,38.531296
1427146503.259,29.321884
1427146503.275,20.831131
1427146503.29,13.935486
1427146503.306,8.875916
1427146503.322,5.2860413
1427146503.337,2.5657043
1427146503.353,0.1328888
1427146503.368,-2.3514252
1427146503.384,-5.0083923
1427146503.4,-7.8501434
1427146503.415,-10.899338
1427146503.431,-14.194199
1427146503.447,-17.795502
1427146503.462,-21.66333
1427146503.478,-25.654541
1427146503.493,-29.526031
1427146503.509,-32.99321
1427146503.525,-35.78531
1427146503.54,-37.718918
1427146503.556,-38.714233
1427146503.572,-38.819733
1427146503.587,-38.171646
1427146503.603,-37.00122
1427146503.618,-35.554443
1427146503.634,-34.077744
1427146503.65,-32.722397
1427146503.665,-31.54953
1427146503.681,-30.496262
1427146503.697,-29.424995
1427146503.712,-28.205208
1427146503.728,-26.733894
1427146503.744,-25.0075
1427146503.759,-23.125572
1427146503.775,-21.275375
1427146503.79,-19.748543
1427146503.806,-18.853714
1427146503.822,-18.838966
1427146503.837,-19.653
1427146503.853,-20.880623
1427146503.868,-21.723732
1427146503.884,-21.216805
1427146503.9,-18.588463
1427146503.915,-13.593842
1427146503.931,-6.642975
1427146503.947,1.3365479
1427146503.962,9.2591095
1427146503.978,16.21051
1427146503.994,21.686878
1427146504.009,25.536297
1427146504.025,27.85545
1427146504.04,28.818718
1427146504.056,28.690773
1427146504.072,27.840431
1427146504.087,26.77359
1427146504.103,26.038166
1427146504.119,26.07919
1427146504.134,27.069862
1427146504.15,28.869785
1427146504.165,31.075842
1427146504.181,33.176018
1427146504.197,34.594078
1427146504.212,34.744682
1427146504.228,33.17665
1427146504.244,29.672318
1427146504.259,24.420248
1427146504.275,18.079437
1427146504.29,11.617338
1427146504.306,6.006916
1427146504.322,1.834744
1427146504.337,-0.8978634
1427146504.353,-2.7151642
1427146504.369,-4.335126
1427146504.384,-6.2799187
1427146504.4,-8.61306
1427146504.415,-10.973246
1427146504.431,-12.816395
1427146504.447,-13.735809
1427146504.462,-13.720562
1427146504.478,-13.1679
1427146504.494,-12.676945
1427146504.509,-12.779766
1427146504.525,-13.679558
1427146504.54,-15.22533
1427146504.556,-16.970444
1427146504.572,-18.49313
1427146504.587,-19.539696
1427146504.603,-20.155506
1427146504.619,-20.54676
1427146504.634,-20.905396
1427146504.65,-21.269554
1427146504.665,-21.52526
1427146504.681,-21.516663
1427146504.697,-21.167648
1427146504.712,-20.539574
1427146504.728,-19.72641
1427146504.744,-18.722382
1427146504.759,-17.375084
1427146504.775,-15.418655
1427146504.79,-12.680481
1427146504.806,-9.268578
1427146504.822,-5.557396
1427146504.837,-2.052803
1427146504.853,0.8312378
1427146504.869,2.9878387
1427146504.884,4.610611
1427146504.9,6.1042633
1427146504.915,7.8622894
1427146504.931,10.09259
1427146504.947,12.787598
1427146504.962,15.754791
1427146504.978,18.705475
1427146504.994,21.353989
1427146505.009,23.489532
1427146505.025,24.988205
1427146505.04,25.844025
1427146505.056,26.21605
1427146505.072,26.438202
1427146505.087,26.99878
1427146505.103,28.387177
1427146505.119,30.875122
1427146505.134,34.316345
1427146505.15,38.08557
1427146505.165,41.25383
1427146505.181,42.934586
1427146505.197,42.585648
1427146505.212,40.242508
1427146505.228,36.39351
1427146505.244,31.749847
1427146505.259,26.983902
1427146505.275,22.559814
1427146505.29,18.770554
1427146505.306,15.790543
1427146505.322,13.703842
1427146505.337,12.447556
1427146505.353,11.741135
1427146505.369,11.136673
1427146505.384,10.189865
1427146505.4,8.68544
1427146505.415,6.7172546
1427146505.431,4.6246033
1427146505.447,2.7410278
1427146505.462,1.1733398
1427146505.478,-0.24232483
1427146505.494,-1.7979736
1427146505.509,-3.7499084
1427146505.525,-6.078827
1427146505.54,-8.570221
1427146505.556,-10.864883
1427146505.572,-12.696213
1427146505.587,-14.006119
1427146505.603,-14.982162
1427146505.619,-15.933777
1427146505.634,-17.075989
1427146505.65,-18.405838
1427146505.665,-19.663254
1427146505.681,-20.438232
1427146505.697,-20.423157
1427146505.712,-19.556396
1427146505.728,-18.061432
1427146505.744,-16.324554
1427146505.759,-14.655334
1427146505.775,-13.153976
1427146505.79,-11.726501
1427146505.806,-10.205322
1427146505.822,-8.522308
1427146505.837,-6.737152
1427146505.853,-5.0000916
1427146505.869,-3.3857117
1427146505.884,-1.8404236
1427146505.9,-0.20397949
1427146505.915,1.6811829
1427146505.931,3.8509216
1427146505.947,6.297638
1427146505.962,8.932709
1427146505.978,11.648163
1427146505.994,14.335815
1427146506.009,16.875183
1427146506.025,19.163513
1427146506.04,21.140625
1427146506.056,22.801178
1427146506.072,24.097748
1427146506.087,24.929321
1427146506.103,25.05066
1427146506.119,24.198395
1427146506.134,22.217957
1427146506.15,19.252075
1427146506.165,15.697937
1427146506.181,12.109497
1427146506.197,8.996429
1427146506.212,6.626953
1427146506.228,5.0086365
1427146506.244,3.9787598
1427146506.259,3.3207092
1427146506.275,2.8959045
1427146506.29,2.6394653
1427146506.306,2.5474854
1427146506.322,2.6549683
1427146506.337,2.9897156
1427146506.353,3.5298157
1427146506.369,4.1746826
1427146506.384,4.700531
1427146506.4,4.823059
1427146506.416,4.274475
1427146506.431,2.964325
1427146506.447,1.0452881
1427146506.462,-1.1100464
1427146506.478,-3.0540771
1427146506.494,-4.4277344
1427146506.509,-5.0644836
1427146506.525,-5.023468
1427146506.54,-4.5167847
1427146506.556,-3.7889404
1427146506.572,-3.039856
1427146506.587,-2.375122
1427146506.603,-1.8433533
1427146506.619,-1.4396362
1427146506.634,-1.1342773
1427146506.65,-0.86035156
1427146506.666,-0.52948
1427146506.681,-0.049682617
1427146506.697,0.62957764
1427146506.712,1.5324707
1427146506.728,2.6392517
1427146506.744,3.9386292
1427146506.759,5.386902
1427146506.775,6.904236
1427146506.791,8.32724
1427146506.806,9.483826
1427146506.822,10.231049
1427146506.837,10.558197
1427146506.853,10.67868
1427146506.869,10.9357605
1427146506.884,11.702942
1427146506.9,13.212738
1427146506.916,15.429138
1427146506.931,18.055084
1427146506.947,20.631653
1427146506.962,22.681854
1427146506.978,23.799805
1427146506.994,23.760315
1427146507.009,22.507019
1427146507.025,20.21048
1427146507.041,17.215698
1427146507.056,13.977325
1427146507.072,10.91391
1427146507.087,8.316467
1427146507.103,6.248993
1427146507.119,4.640106
1427146507.134,3.3707275
1427146507.15,2.367096
1427146507.166,1.624115
1427146507.181,1.2055359
1427146507.197,1.1113586
1427146507.212,1.2344666
1427146507.228,1.3678894
1427146507.244,1.2909851
1427146507.259,0.87841797
1427146507.275,0.17819214
1427146507.291,-0.6373291
1427146507.306,-1.3266602
1427146507.322,-1.701416
1427146507.337,-1.7324829
1427146507.353,-1.5533447
1427146507.369,-1.4511719
1427146507.384,-1.7888489
1427146507.4,-2.8617554
1427146507.416,-4.753357
1427146507.431,-7.2380066
1427146507.447,-9.805054
1427146507.462,-11.819153
1427146507.478,-12.812927
1427146507.494,-12.673065
1427146507.509,-11.668793
1427146507.525,-10.292084
1427146507.541,-8.920563
1427146507.556,-7.664337
1427146507.572,-6.3849487
1427146507.587,-4.907837
1427146507.603,-3.2973938
1427146507.619,-1.9370422
1427146507.634,-1.32724
1427146507.65,-1.7775574
1427146507.666,-3.1779785
1427146507.681,-4.954895
1427146507.697,-6.3117065
1427146507.712,-6.565674
1427146507.728,-5.410919
1427146507.744,-2.9784546
1427146507.759,0.25057983
1427146507.775,3.6255188
1427146507.791,6.4914856
1427146507.806,8.36618
1427146507.822,9.017609
1427146507.837,8.527771
1427146507.853,7.205597
1427146507.869,5.440338
1427146507.884,3.4934387
1427146507.9,1.5512085
1427146507.916,-0.3458252
1427146507.931,-2.1140747
1427146507.947,-3.6400452
1427146507.962,-4.846863
1427146507.978,-5.927704
1427146507.994,-7.3582153
1427146508.009,-9.644562
1427146508.025,-12.808746
1427146508.041,-16.1492
1427146508.056,-18.282715
1427146508.072,-17.759033
1427146508.087,-13.840332
1427146508.103,-6.980774
1427146508.119,1.3681335
1427146508.134,9.3237
1427146508.15,15.391113
1427146508.166,18.73816
1427146508.181,19.164978
1427146508.197,16.859833
1427146508.212,12.082764
1427146508.228,5.240326
1427146508.244,-2.9724426
1427146508.259,-11.367767
1427146508.275,-18.255737
1427146508.291,-21.797302
1427146508.306,-20.498413
1427146508.322,-13.91391
1427146508.337,-2.8894043
1427146508.353,10.39975
1427146508.369,23.069366
1427146508.384,32.329926
1427146508.4,36.591766
1427146508.416,35.93857
1427146508.431,31.906952
1427146508.447,26.57547
1427146508.462,21.47052
1427146508.478,16.891571
1427146508.494,12.003143
1427146508.509,5.576416
1427146508.525,-3.0664368
1427146508.541,-13.8003235
1427146508.556,-25.839447
1427146508.572,-38.38629
1427146508.587,-51.152863
1427146508.603,-64.50342
1427146508.619,-79.08795
1427146508.634,-95.49835
1427146508.65,-113.75174
1427146508.666,-133.39612
1427146508.681,-153.68497
1427146508.697,-173.80807
1427146508.712,-193.13156
1427146508.728,-211.21304
1427146508.744,-227.70602
1427146508.759,-242.1322
1427146508.775,-253.73343
1427146508.791,-261.44315
1427146508.806,-264.30048
1427146508.822,-262.16974
1427146508.837,-256.12003
1427146508.853,-248.27023
1427146508.869,-240.76111
1427146508.884,-234.49661
1427146508.9,-228.26917
1427146508.916,-219.0727
1427146508.931,-203.44824
1427146508.947,-179.35217
1427146508.962,-146.73547
1427146508.978,-108.28302
1427146508.994,-68.291626
1427146509.009,-30.484985
1427146509.025,3.71875
1427146509.041,35.086243
1427146509.056,65.157776
1427146509.072,94.753174
1427146509.087,123.254395
1427146509.103,149.64142
1427146509.119,172.57782
1427146509.134,191.15814
1427146509.15,205.80585
1427146509.166,218.43365
1427146509.181,231.9123
1427146509.197,249.30627
1427146509.212,273.18787
1427146509.228,304.73846
1427146509.244,344.38574
1427146509.259,388.70313
1427146509.275,429.70007
1427146509.291,457.2525
1427146509.306,462.89026
1427146509.322,442.3158
1427146509.338,396.23474
1427146509.353,329.5315
1427146509.369,249.35632
1427146509.384,167.15192
1427146509.4,91.296265
1427146509.416,24.878967
1427146509.431,-31.256653
1427146509.447,-74.92761
1427146509.463,-103.0069
1427146509.478,-113.918945
1427146509.494,-109.3042
1427146509.509,-94.02881
1427146509.525,-66.53552
1427146509.541,-29.720703
1427146509.556,5.8635864
1427146509.572,27.824036
1427146509.588,29.54718
1427146509.603,11.207703
1427146509.619,-22.435242
1427146509.634,-63.9422
1427146509.65,-104.81152
1427146509.666,-124.01294
1427146509.681,-109.8913
1427146509.697,-68.41168
1427146509.713,-14.689636
1427146509.728,39.74768
1427146509.744,89.95599
1427146509.759,135.02032
1427146509.775,175.73102
1427146509.791,213.25232
1427146509.806,265.84546
1427146509.822,342.68683
1427146509.838,434.88562
1427146509.853,526.622
1427146509.869,610.3071
1427146509.884,687.4147
1427146509.9,762.6578
1427146509.916,839.65125
1427146509.931,809.7163
1427146509.947,635.7721
1427146509.963,384.84088
1427146509.978,152.50433
1427146509.994,-19.074646
1427146510.009,-133.13599
1427146510.025,-206.4375
1427146510.041,-253.87238
1427146510.056,-285.42853
1427146510.072,-307.15784
1427146510.088,-305.73468
1427146510.103,-276.33618
1427146510.119,-232.93881
1427146510.134,-197.30493
1427146510.15,-182.71933
1427146510.166,-191.06454
1427146510.181,-217.09793
1427146510.197,-252.65488
1427146510.213,-289.88016
1427146510.228,-310.0104
1427146510.244,-304.45572
1427146510.259,-281.33344
1427146510.275,-255.73398
1427146510.291,-236.58578
1427146510.306,-225.00333
1427146510.322,-218.5571
1427146510.338,-214.86273
1427146510.353,-213.05432
1427146510.369,-205.1694
1427146510.384,-187.87495
1427146510.4,-165.97705
1427146510.416,-146.92892
1427146510.431,-134.01587
1427146510.447,-126.3186
1427146510.463,-121.48973
1427146510.478,-117.97922
1427146510.494,-115.51788
1427146510.509,-110.381836
1427146510.525,-101.13042
1427146510.541,-90.16568
1427146510.556,-81.07284
1427146510.572,-75.20461
1427146510.588,-71.949356
1427146510.603,-69.90045
1427146510.619,-68.137215
1427146510.634,-66.35605
1427146510.65,-63.124084
1427146510.666,-58.20256
1427146510.681,-53.190063
1427146510.697,-50.440758
1427146510.713,-51.247467
1427146510.728,-54.99507
1427146510.744,-59.22518
1427146510.759,-60.33487
1427146510.775,-54.725426
1427146510.791,-40.304955
1427146510.806,-17.623566
1427146510.822,10.2955475
1427146510.838,38.856514
1427146510.853,63.556984
1427146510.869,81.655624
1427146510.884,92.51964
1427146510.9,97.42747
1427146510.916,98.5687
1427146510.931,98.372604
1427146510.947,98.00439
1427146510.963,98.64582
1427146510.978,101.34044
1427146510.994,106.730934
1427146511.009,114.25947
1427146511.025,121.38206
1427146511.041,123.86847
1427146511.056,117.33887
1427146511.072,99.45641
1427146511.088,71.33485
1427146511.103,38.121826
1427146511.119,6.8701553
1427146511.134,-16.329605
1427146511.15,-28.519753
1427146511.166,-30.598488
1427146511.181,-26.105133
1427146511.197,-19.054726
1427146511.213,-12.234005
1427146511.228,-6.7555428
1427146511.244,-2.5129356
1427146511.259,0.74721146
1427146511.275,3.045372
1427146511.291,4.385212
1427146511.306,5.126354
1427146511.322,6.0525055
1427146511.338,7.936699
1427146511.353,10.785408
1427146511.369,13.775127
1427146511.384,15.257683
1427146511.4,13.590094
1427146511.416,7.8968506
1427146511.431,-1.3943577
1427146511.447,-12.860348
1427146511.463,-24.71666
1427146511.478,-35.571304
1427146511.494,-44.971375
1427146511.509,-53.51405
1427146511.525,-62.558506
1427146511.541,-73.73554
1427146511.556,-88.25181
1427146511.572,-105.93945
1427146511.588,-124.42914
1427146511.603,-139.0986
1427146511.619,-143.98763
1427146511.634,-134.08122
1427146511.65,-107.91029
1427146511.666,-68.91106
1427146511.681,-24.505865
1427146511.697,16.45057
1427146511.713,47.400898
1427146511.728,66.41751
1427146511.744,75.98959
1427146511.759,81.357155
1427146511.775,87.66813
1427146511.791,97.915115
1427146511.806,112.2088
1427146511.822,128.20749
1427146511.838,142.0394
1427146511.853,149.45586
1427146511.869,146.95102
1427146511.884,132.68694
1427146511.9,108.04883
1427146511.916,77.443756
1427146511.931,47.00205
1427146511.947,22.174576
1427146511.963,6.091614
1427146511.978,-1.2858124
1427146511.994,-2.2214355
1427146512.01,0.5122833
1427146512.025,4.4531784
1427146512.041,8.82251
1427146512.056,13.485252
1427146512.072,17.955078
1427146512.088,21.051895
1427146512.103,21.398514
1427146512.119,18.214989
1427146512.135,11.902946
1427146512.15,3.8346252
1427146512.166,-5.229347
1427146512.181,-14.389862
1427146512.197,-23.669502
1427146512.213,-33.969513
1427146512.228,-46.586685
1427146512.244,-62.403725
1427146512.26,-81.68278
1427146512.275,-103.7476
1427146512.291,-122.81918
1427146512.306,-137.49341
1427146512.322,-147.28354
1427146512.338,-152.4013
1427146512.353,-153.64607
1427146512.369,-152.17377
1427146512.385,-149.1149
1427146512.4,-145.5091
1427146512.416,-141.8656
1427146512.431,-138.09271
1427146512.447,-134.5639
1427146512.463,-131.1635
1427146512.478,-128.11978
1427146512.494,-126.19111
1427146512.51,-126.09431
1427146512.525,-127.39736
1427146512.541,-128.36978
1427146512.556,-125.988266
1427146512.572,-117.39347
1427146512.588,-102.26159
1427146512.603,-82.72374
1427146512.619,-62.750168
1427146512.635,-46.513977
1427146512.65,-37.299244
1427146512.666,-33.616417
1427146512.681,-32.933304
1427146512.697,-32.6305
1427146512.713,-31.198166
1427146512.728,-28.701061
1427146512.744,-25.398481
1427146512.76,-20.607418
1427146512.775,-13.147938
1427146512.791,-2.2108035
1427146512.806,11.547321
1427146512.822,25.17606
1427146512.838,34.752308
1427146512.853,37.20777
1427146512.869,31.669022
1427146512.885,20.08162
1427146512.9,6.5802
1427146512.916,-5.1517487
1427146512.931,-13.312889
1427146512.947,-18.205193
1427146512.963,-21.746834
1427146512.978,-25.885605
1427146512.994,-31.628128
1427146513.01,-38.88675
1427146513.025,-46.83922
1427146513.041,-53.909195
1427146513.056,-59.371323
1427146513.072,-63.39702
1427146513.088,-66.6745
1427146513.103,-70.05075
1427146513.119,-73.611465
1427146513.135,-76.29932
1427146513.15,-75.592896
1427146513.166,-72.93744
1427146513.181,-67.40021
1427146513.197,-58.092438
1427146513.213,-44.8443
1427146513.228,-28.391052
1427146513.244,-10.281158
1427146513.26,7.643341
1427146513.275,23.792572
1427146513.291,37.17395
1427146513.306,47.48459
1427146513.322,55.71286
1427146513.338,62.869354
1427146513.353,69.77066
1427146513.369,76.89816
1427146513.385,84.372314
1427146513.4,92.11105
1427146513.416,100.08499
1427146513.431,108.340454
1427146513.447,116.85205
1427146513.463,125.759155
1427146513.478,134.44763
1427146513.494,141.7251
1427146513.51,146.29706
1427146513.525,147.51605
1427146513.541,145.6612
1427146513.556,141.84119
1427146513.572,137.28955
1427146513.588,132.53735
1427146513.603,127.18536
1427146513.619,119.80603
1427146513.635,108.77466
1427146513.65,93.45941
1427146513.666,74.81177
1427146513.681,55.13507
1427146513.697,37.234924
1427146513.713,23.462646
1427146513.728,15.137573
1427146513.744,12.783325
1427146513.76,16.206116
1427146513.775,24.670593
1427146513.791,36.743896
1427146513.806,50.158813
1427146513.822,61.856873
1427146513.838,68.8064
1427146513.853,69.055664
1427146513.869,62.776184
1427146513.885,52.480713
1427146513.9,42.061523
1427146513.916,35.21997
1427146513.931,33.95343
1427146513.947,37.927307
1427146513.963,45.0177
1427146513.978,52.60315
1427146513.994,58.94165
1427146514.01,63.679504
1427146514.025,67.6532
1427146514.041,71.851135
1427146514.056,76.45459
1427146514.072,80.37366
1427146514.088,81.62732
1427146514.103,78.13257
1427146514.119,68.67859
1427146514.135,53.376526
1427146514.15,33.73285
1427146514.166,12.05072
1427146514.181,-9.187988
1427146514.197,-27.854492
1427146514.213,-42.525635
1427146514.228,-52.542908
1427146514.244,-57.962708
1427146514.26,-59.323303
1427146514.275,-57.453735
1427146514.291,-53.3526
1427146514.306,-48.056274
1427146514.322,-42.75598
1427146514.338,-38.63159
1427146514.353,-36.63025
1427146514.369,-37.10211
1427146514.385,-39.530884
1427146514.4,-42.586548
1427146514.416,-44.595093
1427146514.431,-44.20868
1427146514.447,-40.96692
1427146514.463,-35.42285
1427146514.478,-28.87732
1427146514.494,-22.856934
1427146514.51,-18.587952
1427146514.525,-16.55719
1427146514.541,-16.31897
1427146514.556,-16.513916
1427146514.572,-15.194519
1427146514.588,-10.374878
1427146514.603,-0.85687256
1427146514.619,13.195129
1427146514.635,30.030945
1427146514.65,46.781067
1427146514.666,60.32202
1427146514.682,68.18402
1427146514.697,69.1662
1427146514.713,63.455505
1427146514.728,52.317688
1427146514.744,37.72223
1427146514.76,21.944275
1427146514.775,7.2926025
1427146514.791,-4.232666
1427146514.806,-11.268555
1427146514.822,-13.311707
1427146514.838,-10.810059
1427146514.853,-4.9887695
1427146514.869,2.5269165
1427146514.885,10.120361
1427146514.9,16.533875
1427146514.916,21.09198
1427146514.932,23.708252
1427146514.947,24.78247
1427146514.963,24.950134
1427146514.978,24.78711
1427146514.994,24.626953
1427146515.01,24.405396
1427146515.025,23.822083
1427146515.041,22.538818
1427146515.057,20.412354
1427146515.072,17.533203
1427146515.088,14.150269
1427146515.103,10.437439
1427146515.119,6.416809
1427146515.135,1.9974365
1427146515.15,-2.819641
1427146515.166,-7.7263794
1427146515.182,-12.0442505
1427146515.197,-14.8932495
1427146515.213,-15.499023
1427146515.228,-13.582214
1427146515.244,-9.551392
1427146515.26,-4.444702
1427146515.275,0.49884033
1427146515.291,4.3375854
1427146515.307,6.8010254
1427146515.322,8.342346
1427146515.338,9.766632
1427146515.353,11.725067
1427146515.369,14.276245
1427146515.385,16.778778
1427146515.4,18.156372
1427146515.416,17.403625
1427146515.432,14.045868
1427146515.447,8.36319
1427146515.463,1.3077087
1427146515.478,-5.854553
1427146515.494,-11.90686
1427146515.51,-16.054077
1427146515.525,-18.040985
1427146515.541,-18.194824
1427146515.557,-17.215118
1427146515.572,-15.928833
1427146515.588,-14.97406
1427146515.603,-14.579315
1427146515.619,-14.554138
1427146515.635,-14.423309
1427146515.65,-13.749451
1427146515.666,-12.4184265
1427146515.682,-10.7031555
1427146515.697,-9.123169
1427146515.713,-8.176605
1427146515.728,-8.0660095
1427146515.744,-8.613464
1427146515.76,-9.413116
1427146515.775,-10.022644
1427146515.791,-10.2152405
1427146515.807,-10.021301
1427146515.822,-9.644257
1427146515.838,-9.220245
1427146515.853,-8.697418
1427146515.869,-7.799103
1427146515.885,-6.216339
1427146515.9,-3.846344
1427146515.916,-0.9831238
1427146515.932,1.7416687
1427146515.947,3.6495361
1427146515.963,4.3277283
1427146515.978,3.9179382
1427146515.994,3.0684814
1427146516.01,2.593933
1427146516.025,3.0508728
1427146516.041,4.4188538
1427146516.057,6.1052246
