1434409032.709,0.0
1434409032.724,0.0
1434409032.74,0.0
1434409032.756,0.0
1434409032.771,0.0
1434409032.787,0.0
1434409032.802,0.0
1434409032.818,0.0
1434409032.834,0.0
1434409032.849,-0.0031344104
1434409032.865,-0.0087806815
1434409032.881,-0.010152619
1434409032.896,-0.0014647921
1434409032.912,0.018183252
1434409032.927,0.03986061
1434409032.943,0.045118943
1434409032.959,0.013649381
1434409032.974,-0.0649571
1434409032.99,-0.1858958
1434409033.006,-0.3239142
1434409033.021,-0.44360873
1434409033.037,-0.52378947
1434409033.052,-0.5726641
1434409033.068,-0.63067675
1434409033.084,-0.75522274
1434409033.099,-0.99362904
1434409033.115,-1.3586162
1434409033.131,-1.8278444
1434409033.146,-2.340524
1434409033.162,-2.8194714
1434409033.177,-3.2157803
1434409033.193,-3.5302973
1434409033.209,-3.8173127
1434409033.224,-4.1613417
1434409033.24,-4.635213
1434409033.256,-5.2593646
1434409033.271,-6.005208
1434409033.287,-6.767913
1434409033.302,-7.3980823
1434409033.318,-7.8018064
1434409033.334,-7.994484
1434409033.349,-8.122
1434409033.365,-8.413399
1434409033.381,-9.077649
1434409033.396,-10.1931925
1434409033.412,-11.697038
1434409033.428,-13.332401
1434409033.443,-14.739546
1434409033.459,-15.694679
1434409033.474,-16.240784
1434409033.49,-16.725842
1434409033.506,-17.678497
1434409033.521,-19.562172
1434409033.537,-22.527927
1434409033.553,-26.374681
1434409033.568,-30.507816
1434409033.584,-34.16806
1434409033.599,-36.89339
1434409033.615,-38.76375
1434409033.631,-40.436935
1434409033.646,-42.881977
1434409033.662,-46.91633
1434409033.678,-52.77432
1434409033.693,-60.031273
1434409033.709,-67.6275
1434409033.724,-74.29961
1434409033.74,-79.2999
1434409033.756,-82.76121
1434409033.771,-85.70087
1434409033.787,-89.57188
1434409033.803,-95.56224
1434409033.818,-103.41917
1434409033.834,-112.58537
1434409033.849,-122.76877
1434409033.865,-133.29495
1434409033.881,-143.33815
1434409033.896,-151.48026
1434409033.912,-155.71425
1434409033.928,-154.20776
1434409033.943,-146.54068
1434409033.959,-134.50418
1434409033.974,-121.68671
1434409033.99,-111.44439
1434409034.006,-104.59525
1434409034.021,-98.40312
1434409034.037,-87.426384
1434409034.053,-66.09927
1434409034.068,-31.510666
1434409034.084,15.232391
1434409034.099,69.79001
1434409034.115,126.81572
1434409034.131,182.35161
1434409034.146,234.80028
1434409034.162,284.09637
1434409034.178,330.16168
1434409034.193,371.7201
1434409034.209,406.29742
1434409034.224,431.21432
1434409034.24,444.66208
1434409034.256,446.37366
1434409034.271,437.54282
1434409034.287,420.0733
1434409034.303,395.71606
1434409034.318,365.64517
1434409034.334,330.42203
1434409034.349,290.46945
1434409034.365,246.55995
1434409034.381,200.12178
1434409034.396,153.18053
1434409034.412,107.99361
1434409034.428,66.5163
1434409034.443,29.920609
1434409034.459,-1.5528412
1434409034.474,-28.41034
1434409034.49,-51.483276
1434409034.506,-71.49733
1434409034.521,-88.7991
1434409034.537,-103.330444
1434409034.553,-114.81856
1434409034.568,-123.05342
1434409034.584,-128.10713
1434409034.599,-130.38254
1434409034.615,-130.51349
1434409034.631,-129.15828
1434409034.646,-126.84219
1434409034.662,-123.87062
1434409034.678,-120.359314
1434409034.693,-116.33046
1434409034.709,-111.80769
1434409034.724,-106.855125
1434409034.74,-101.55741
1434409034.756,-95.99524
1434409034.771,-90.201225
1434409034.787,-84.20267
1434409034.803,-78.06279
1434409034.818,-71.91955
1434409034.834,-65.98404
1434409034.849,-60.466972
1434409034.865,-55.47515
1434409034.881,-50.931107
1434409034.896,-46.59087
1434409034.912,-42.133144
1434409034.928,-37.327938
1434409034.943,-32.160835
1434409034.959,-26.86594
1434409034.974,-21.826193
1434409034.99,-17.41007
1434409035.006,-13.802597
1434409035.021,-10.929695
1434409035.037,-8.495325
1434409035.053,-6.1279306
1434409035.068,-3.4933891
1434409035.084,-0.3290205
1434409035.099,3.536293
1434409035.115,8.055403
1434409035.131,12.768661
1434409035.146,16.652922
1434409035.162,18.286444
1434409035.178,16.327595
1434409035.193,10.219137
1434409035.209,0.6471243
1434409035.224,-10.511041
1434409035.24,-20.84195
1434409035.256,-28.34234
1434409035.271,-32.14704
1434409035.287,-32.647987
1434409035.303,-31.025827
1434409035.318,-28.541443
1434409035.334,-25.973463
1434409035.349,-23.562138
1434409035.365,-21.291891
1434409035.381,-19.183182
1434409035.396,-17.435884
1434409035.412,-16.265013
1434409035.428,-15.68918
1434409035.443,-15.404257
1434409035.459,-14.9936695
1434409035.474,-14.132727
1434409035.49,-12.729128
1434409035.506,-10.988998
1434409035.521,-9.25996
1434409035.537,-7.8376045
1434409035.553,-6.8190994
1434409035.568,-6.0980415
1434409035.584,-5.446659
1434409035.599,-4.6247597
1434409035.615,-3.5061264
1434409035.631,-2.115425
1434409035.646,-0.6858177
1434409035.662,0.42563248
1434409035.678,0.78297424
1434409035.693,0.08969498
1434409035.709,-1.6641846
1434409035.724,-4.1147194
1434409035.74,-6.612232
1434409035.756,-8.426067
1434409035.771,-9.033447
1434409035.787,-8.35891
1434409035.803,-6.7550774
1434409035.818,-4.936363
1434409035.834,-3.531433
1434409035.849,-2.943943
1434409035.865,-3.1206245
1434409035.881,-3.6904564
1434409035.896,-4.165066
1434409035.912,-4.228653
1434409035.928,-3.8275719
1434409035.943,-3.067913
1434409035.959,-2.1232758
1434409035.974,-1.1438713
1434409035.99,-0.19776917
1434409036.006,0.6115494
1434409036.021,1.1630096
1434409036.037,1.3300934
1434409036.053,1.0919876
1434409036.068,0.57066345
1434409036.084,0.04415512
1434409036.1,-0.19004059
1434409036.115,0.024578094
1434409036.131,0.6289959
1434409036.146,1.4047184
1434409036.162,2.0867348
1434409036.178,2.5057945
1434409036.193,2.610445
1434409036.209,2.49123
1434409036.225,2.2762833
1434409036.24,2.0570526
1434409036.256,1.8841476
1434409036.271,1.8042336
1434409036.287,1.8328629
1434409036.303,2.0021725
1434409036.318,2.271284
1434409036.334,2.6341038
1434409036.35,2.9894657
1434409036.365,3.2269192
1434409036.381,3.23007
1434409036.396,2.954874
1434409036.412,2.449417
1434409036.428,1.9018574
1434409036.443,1.5397835
1434409036.459,1.5769081
1434409036.475,2.0448227
1434409036.49,2.7936344
1434409036.506,3.5160866
1434409036.521,3.9562988
1434409036.537,3.9875488
1434409036.553,3.740881
1434409036.568,3.4678364
1434409036.584,3.4254608
1434409036.6,3.741129
1434409036.615,4.37138
1434409036.631,5.0829735
1434409036.646,5.609041
1434409036.662,5.745083
1434409036.678,5.3649845
1434409036.693,4.422798
1434409036.709,2.9896584
1434409036.725,1.1821308
1434409036.74,-0.75299454
1434409036.756,-2.5033112
1434409036.771,-3.7105885
1434409036.787,-4.145115
1434409036.803,-3.7578354
1434409036.818,-2.796444
1434409036.834,-1.6431313
1434409036.85,-0.6991539
1434409036.865,-0.20350456
1434409036.881,-0.16916847
1434409036.896,-0.39908218
1434409036.912,-0.6346321
1434409036.928,-0.6511402
1434409036.943,-0.38654518
1434409036.959,0.11421013
1434409036.975,0.7356758
1434409036.99,1.3932285
1434409037.006,2.0205898
1434409037.021,2.580284
1434409037.037,2.9895382
1434409037.053,3.191286
1434409037.068,3.089138
1434409037.084,2.676443
1434409037.1,2.007143
1434409037.115,1.2344666
1434409037.131,0.4898758
1434409037.146,-0.1657772
1434409037.162,-0.72398186
1434409037.178,-1.2828865
1434409037.193,-1.9727612
1434409037.209,-2.9297886
1434409037.225,-4.239315
1434409037.24,-5.8913918
1434409037.256,-7.7306576
1434409037.271,-9.514099
1434409037.287,-10.99017
1434409037.303,-11.977528
1434409037.318,-12.460163
1434409037.334,-12.605146
1434409037.35,-12.672985
1434409037.365,-12.888535
1434409037.381,-13.344446
1434409037.396,-13.9513035
1434409037.412,-14.471609
1434409037.428,-14.685942
1434409037.443,-14.443045
1434409037.459,-13.735651
1434409037.475,-12.660734
1434409037.49,-11.288452
1434409037.506,-9.637878
1434409037.521,-7.6424465
1434409037.537,-5.3203964
1434409037.553,-2.5999718
1434409037.568,0.33000374
1434409037.584,3.2644482
1434409037.6,5.9737434
1434409037.615,8.330616
1434409037.631,10.319986
1434409037.646,11.966063
1434409037.662,13.2125635
1434409037.678,13.886709
1434409037.693,13.77347
1434409037.709,12.752686
1434409037.725,10.914147
1434409037.74,8.63618
1434409037.756,6.386469
1434409037.771,4.6229773
1434409037.787,3.569312
1434409037.803,3.2054434
1434409037.818,3.309143
1434409037.834,3.6006985
1434409037.85,3.8259716
1434409037.865,3.8058996
1434409037.881,3.5225897
1434409037.896,3.0071187
1434409037.912,2.3726025
1434409037.928,1.7350249
1434409037.943,1.1952329
1434409037.959,0.8147197
1434409037.975,0.6182809
1434409037.99,0.6779628
1434409038.006,0.98277617
1434409038.021,1.5294557
1434409038.037,2.1643548
1434409038.053,2.6978357
1434409038.068,2.8650684
1434409038.084,2.5529575
1434409038.1,1.8268633
1434409038.115,0.9212434
1434409038.131,0.12244606
1434409038.146,-0.31711853
1434409038.162,-0.3293532
1434409038.178,0.014971912
1434409038.193,0.55224264
1434409038.209,1.1256523
1434409038.225,1.5869436
1434409038.24,1.8436127
1434409038.256,1.8090084
1434409038.271,1.493606
1434409038.287,0.9495508
1434409038.303,0.3384329
1434409038.318,-0.12538087
1434409038.334,-0.2602021
1434409038.35,-0.02433753
1434409038.365,0.45078278
1434409038.381,0.9691233
1434409038.396,1.3479086
1434409038.412,1.5615431
1434409038.428,1.6891503
1434409038.443,1.8376174
1434409038.459,2.1175833
1434409038.475,2.5293708
1434409038.49,3.0555415
1434409038.506,3.6519916
1434409038.521,4.3947225
1434409038.537,5.2209864
1434409038.553,6.2186832
1434409038.568,7.4629116
1434409038.584,8.968145
1434409038.6,10.683271
1434409038.615,12.578993
1434409038.631,14.653883
1434409038.646,16.933521
1434409038.662,19.36423
1434409038.678,21.703533
1434409038.693,23.502647
1434409038.709,24.195704
1434409038.725,23.276653
1434409038.74,20.573097
1434409038.756,16.308899
1434409038.772,11.107173
1434409038.787,5.7538795
1434409038.803,0.9522891
1434409038.818,-2.927268
1434409038.834,-5.8558197
1434409038.85,-8.111416
1434409038.865,-10.064037
1434409038.881,-12.037776
1434409038.897,-14.194673
1434409038.912,-16.509342
1434409038.928,-18.846756
1434409038.943,-21.052942
1434409038.959,-22.974863
1434409038.975,-24.51034
1434409038.99,-25.575287
1434409039.006,-26.138487
1434409039.022,-26.162142
1434409039.037,-25.655796
1434409039.053,-24.655191
1434409039.068,-23.288912
1434409039.084,-21.746866
1434409039.1,-20.24706
1434409039.115,-18.957813
1434409039.131,-17.957096
1434409039.147,-17.169569
1434409039.162,-16.443247
1434409039.178,-15.583084
1434409039.193,-14.476038
1434409039.209,-13.087231
1434409039.225,-11.496998
1434409039.24,-9.81946
1434409039.256,-8.161974
1434409039.272,-6.600256
1434409039.287,-5.1771994
1434409039.303,-3.8847299
1434409039.318,-2.7176087
1434409039.334,-1.6323876
1434409039.35,-0.6008346
1434409039.365,0.4102825
1434409039.381,1.4341223
1434409039.397,2.4941623
1434409039.412,3.647647
1434409039.428,4.985509
1434409039.443,6.6031117
1434409039.459,8.545052
1434409039.475,10.705833
1434409039.49,12.883025
1434409039.506,14.796007
1434409039.522,16.279163
1434409039.537,17.317574
1434409039.553,18.123192
1434409039.568,18.992931
1434409039.584,20.21939
1434409039.6,22.012735
1434409039.615,24.461075
1434409039.631,27.492657
1434409039.647,30.87094
1434409039.662,34.12619
1434409039.678,36.622887
1434409039.693,37.66444
1434409039.709,36.752495
1434409039.725,33.813442
1434409039.74,29.284626
1434409039.756,23.984976
1434409039.772,18.806866
1434409039.787,14.373117
1434409039.803,10.885641
1434409039.818,8.111395
1434409039.834,5.666711
1434409039.85,3.2215896
1434409039.865,0.6760335
1434409039.881,-1.8467698
1434409039.897,-4.1256604
1434409039.912,-5.999655
1434409039.928,-7.4318914
1434409039.943,-8.5440235
1434409039.959,-9.491337
1434409039.975,-10.416763
1434409039.99,-11.32375
1434409040.006,-12.100532
1434409040.022,-12.564515
1434409040.037,-12.606389
1434409040.053,-12.214672
1434409040.068,-11.533978
1434409040.084,-10.782608
1434409040.1,-10.147228
1434409040.115,-9.680567
1434409040.131,-9.295915
1434409040.147,-8.785793
1434409040.162,-7.972467
1434409040.178,-6.7709804
1434409040.193,-5.2740307
1434409040.209,-3.6901388
1434409040.225,-2.2359295
1434409040.24,-1.0407753
1434409040.256,-0.06890869
1434409040.272,0.8650713
1434409040.287,1.9873161
1434409040.303,3.4537601
1434409040.318,5.2818794
1434409040.334,7.3315163
1434409040.35,9.380325
1434409040.365,11.251038
1434409040.381,12.872673
1434409040.397,14.322294
1434409040.412,15.751213
1434409040.428,17.3826
1434409040.443,19.394625
1434409040.459,21.953625
1434409040.475,25.119846
1434409040.49,28.812504
1434409040.506,32.71224
1434409040.522,36.30246
1434409040.537,38.903664
1434409040.553,39.878204
1434409040.568,38.844296
1434409040.584,35.812355
1434409040.6,31.19057
1434409040.615,25.652687
1434409040.631,19.912598
1434409040.647,14.52248
1434409040.662,9.7395935
1434409040.678,5.5466423
1434409040.693,1.6971169
1434409040.709,-2.108471
1434409040.725,-6.1532974
1434409040.74,-10.522095
1434409040.756,-15.102676
1434409040.772,-19.59882
1434409040.787,-23.661728
1434409040.803,-26.983421
1434409040.818,-29.374138
1434409040.834,-30.766846
1434409040.85,-31.220734
1434409040.865,-30.921036
1434409040.881,-30.17292
1434409040.897,-29.370422
1434409040.912,-28.897842
1434409040.928,-28.964256
1434409040.943,-29.547684
1434409040.959,-30.355148
1434409040.975,-31.009315
1434409040.99,-31.185379
1434409041.006,-30.805168
1434409041.022,-29.97512
1434409041.037,-28.890755
1434409041.053,-27.668465
1434409041.068,-26.287346
1434409041.084,-24.65738
1434409041.1,-22.721619
1434409041.115,-20.555458
1434409041.131,-18.339554
1434409041.147,-16.248573
1434409041.162,-14.348541
1434409041.178,-12.558723
1434409041.193,-10.739075
1434409041.209,-8.706337
1434409041.225,-6.3897095
1434409041.24,-3.7963562
1434409041.256,-1.0235901
1434409041.272,1.806961
1434409041.287,4.5811005
1434409041.303,7.214363
1434409041.318,9.640335
1434409041.334,11.817474
1434409041.35,13.748337
1434409041.365,15.502937
1434409041.381,17.224648
1434409041.397,19.121162
1434409041.412,21.397934
1434409041.428,24.187538
1434409041.444,27.426514
1434409041.459,30.814865
1434409041.475,33.79309
1434409041.49,35.73094
1434409041.506,36.08648
1434409041.522,34.608467
1434409041.537,31.45372
1434409041.553,27.100586
1434409041.568,22.164032
1434409041.584,17.197021
1434409041.6,12.530716
1434409041.615,8.248566
1434409041.631,4.2631607
1434409041.647,0.44886017
1434409041.662,-3.325142
1434409041.678,-7.1206512
1434409041.694,-10.984558
1434409041.709,-14.925827
1434409041.725,-18.90033
1434409041.74,-22.738693
1434409041.756,-26.172638
1434409041.772,-28.885101
1434409041.787,-30.63498
1434409041.803,-31.348763
1434409041.819,-31.167084
1434409041.834,-30.366821
1434409041.85,-29.285576
1434409041.865,-28.189186
1434409041.881,-27.235443
1434409041.897,-26.456001
1434409041.912,-25.832703
1434409041.928,-25.287392
1434409041.944,-24.74778
1434409041.959,-24.138298
1434409041.975,-23.409584
1434409041.99,-22.536423
1434409042.006,-21.557945
1434409042.022,-20.548004
1434409042.037,-19.556679
1434409042.053,-18.567764
1434409042.069,-17.476234
1434409042.084,-16.11029
1434409042.1,-14.342087
1434409042.115,-12.152084
1434409042.131,-9.658997
1434409042.147,-7.087219
1434409042.162,-4.679512
1434409042.178,-2.579422
1434409042.194,-0.8385544
1434409042.209,0.629364
1434409042.225,1.9491119
1434409042.24,3.2689285
1434409042.256,4.7307434
1434409042.272,6.4484863
1434409042.287,8.474571
1434409042.303,10.772804
1434409042.319,13.217903
1434409042.334,15.617714
1434409042.35,17.779297
1434409042.365,19.63993
1434409042.381,21.299278
1434409042.397,23.03424
1434409042.412,25.159798
1434409042.428,27.908073
1434409042.444,31.22583
1434409042.459,34.73111
1434409042.475,37.743484
1434409042.49,39.500458
1434409042.506,39.39441
1434409042.522,37.2322
1434409042.537,33.29502
1434409042.553,28.22557
1434409042.569,22.777924
1434409042.584,17.542107
1434409042.6,12.783012
1434409042.615,8.439537
1434409042.631,4.2618866
1434409042.647,9.460449E-4
1434409042.662,-4.4553223
1434409042.678,-9.028641
1434409042.694,-13.529373
1434409042.709,-17.669289
1434409042.725,-21.213371
1434409042.74,-24.008728
1434409042.756,-25.99472
1434409042.772,-27.223877
1434409042.787,-27.821388
1434409042.803,-27.930511
1434409042.819,-27.685715
1434409042.834,-27.16661
1434409042.85,-26.456375
1434409042.865,-25.608292
1434409042.881,-24.671951
1434409042.897,-23.681473
1434409042.912,-22.657478
1434409042.928,-21.564087
1434409042.944,-20.400513
1434409042.959,-19.164299
1434409042.975,-17.900726
1434409042.99,-16.662704
1434409043.006,-15.523613
1434409043.022,-14.5206375
1434409043.037,-13.647186
1434409043.053,-12.85376
1434409043.069,-12.042091
1434409043.084,-11.080345
1434409043.1,-9.826332
1434409043.115,-8.16362
1434409043.131,-6.115303
1434409043.147,-3.8380127
1434409043.162,-1.6447067
1434409043.178,0.14230347
1434409043.194,1.3146057
1434409043.209,1.9317474
1434409043.225,2.2703018
1434409043.24,2.7277832
1434409043.256,3.6842957
1434409043.272,5.3391304
1434409043.287,7.652546
1434409043.303,10.400341
1434409043.319,13.232689
1434409043.334,15.797348
1434409043.35,17.81218
1434409043.365,19.144978
1434409043.381,19.87983
1434409043.397,20.320057
1434409043.412,20.894238
1434409043.428,22.007225
1434409043.444,23.795116
1434409043.459,26.01601
1434409043.475,28.054207
1434409043.49,29.171623
1434409043.506,28.761944
1434409043.522,26.628654
1434409043.537,23.034428
1434409043.553,18.576561
1434409043.569,13.935291
1434409043.584,9.639622
1434409043.6,5.9016495
1434409043.615,2.6608925
1434409043.631,-0.3433838
1434409043.647,-3.3168373
1434409043.662,-6.399128
1434409043.678,-9.562145
1434409043.694,-12.698883
1434409043.709,-15.662918
1434409043.725,-18.3567
1434409043.74,-20.706295
1434409043.756,-22.648369
1434409043.772,-24.069523
1434409043.787,-24.862562
1434409043.803,-24.952068
1434409043.819,-24.412199
1434409043.834,-23.456566
1434409043.85,-22.3969
1434409043.865,-21.53958
1434409043.881,-21.05996
1434409043.897,-20.941149
1434409043.912,-21.008535
1434409043.928,-21.00539
1434409043.944,-20.714918
1434409043.959,-19.998468
1434409043.975,-18.859924
1434409043.99,-17.38101
1434409044.006,-15.714652
1434409044.022,-14.021795
1434409044.037,-12.446386
1434409044.053,-11.02409
1434409044.069,-9.726997
1434409044.084,-8.4176
1434409044.1,-6.9831657
1434409044.115,-5.360466
1434409044.131,-3.622879
1434409044.147,-1.878642
1434409044.162,-0.250607
1434409044.178,1.2192845
1434409044.194,2.574368
1434409044.209,3.8932724
1434409044.225,5.224184
1434409044.24,6.5487204
1434409044.256,7.7857723
1434409044.272,8.860223
1434409044.287,9.738348
1434409044.303,10.505844
1434409044.319,11.304981
1434409044.334,12.336712
1434409044.35,13.776077
1434409044.366,15.739447
1434409044.381,18.220911
1434409044.397,21.144873
1434409044.412,24.323166
1434409044.428,27.50329
1434409044.444,30.35157
1434409044.459,32.476837
1434409044.475,33.462795
1434409044.491,32.982975
1434409044.506,30.912277
1434409044.522,27.443932
1434409044.537,23.056679
1434409044.553,18.41042
1434409044.569,14.081028
1434409044.584,10.422668
1434409044.6,7.428623
1434409044.616,4.881962
1434409044.631,2.4829826
1434409044.647,0.04933548
1434409044.662,-2.4101715
1434409044.678,-4.733635
1434409044.694,-6.7169
1434409044.709,-8.200924
1434409044.725,-9.174
1434409044.741,-9.738647
1434409044.756,-10.060013
1434409044.772,-10.255493
1434409044.787,-10.363018
1434409044.803,-10.293808
1434409044.819,-9.9473
1434409044.834,-9.288479
1434409044.85,-8.412331
1434409044.866,-7.50243
1434409044.881,-6.776222
1434409044.897,-6.3368683
1434409044.912,-6.157112
1434409044.928,-6.0788803
1434409044.944,-5.917488
1434409044.959,-5.525978
1434409044.975,-4.8712997
1434409044.991,-3.9913254
1434409045.006,-2.9593964
1434409045.022,-1.8265228
1434409045.037,-0.63370514
1434409045.053,0.60422516
1434409045.069,1.8784256
1434409045.084,3.2390518
1434409045.1,4.739212
1434409045.116,6.431549
1434409045.131,8.2773285
1434409045.147,10.173599
1434409045.162,11.9398575
1434409045.178,13.452827
1434409045.194,14.671478
1434409045.209,15.693314
1434409045.225,16.66549
1434409045.241,17.747704
1434409045.256,19.082642
1434409045.272,20.82447
1434409045.287,23.079056
1434409045.303,25.88964
1434409045.319,29.068253
1434409045.334,32.140793
1434409045.35,34.385033
1434409045.366,35.08439
1434409045.381,33.78885
1434409045.397,30.557327
1434409045.412,25.95111
1434409045.428,20.80375
1434409045.444,15.885475
1434409045.459,11.701653
1434409045.475,8.3787155
1434409045.491,5.7939377
1434409045.506,3.7041245
1434409045.522,1.8774948
1434409045.537,0.1171875
1434409045.553,-1.7111816
1434409045.569,-3.689064
1434409045.584,-5.7803574
1434409045.6,-7.847168
1434409045.616,-9.652878
1434409045.631,-10.999947
1434409045.647,-11.7575
1434409045.662,-11.997696
1434409045.678,-11.894524
1434409045.694,-11.670418
1434409045.709,-11.466354
1434409045.725,-11.31279
1434409045.741,-11.14698
1434409045.756,-10.90889
1434409045.772,-10.553436
1434409045.787,-10.082676
1434409045.803,-9.478771
1434409045.819,-8.691277
1434409045.834,-7.6274757
1434409045.85,-6.2105293
1434409045.866,-4.443218
1434409045.881,-2.470108
1434409045.897,-0.5281334
1434409045.912,1.129715
1434409045.928,2.3530807
1434409045.944,3.142849
1434409045.959,3.6508064
1434409045.975,4.0709
1434409045.991,4.577877
1434409046.006,5.260441
1434409046.022,6.1469536
1434409046.037,7.2246323
1434409046.053,8.485718
1434409046.069,9.93034
1434409046.084,11.566879
1434409046.1,13.384327
1434409046.116,15.388607
1434409046.131,17.587368
1434409046.147,20.022598
1434409046.162,22.7247
1434409046.178,25.628654
1434409046.194,28.472637
1434409046.209,30.81131
1434409046.225,32.061947
1434409046.241,31.742361
1434409046.256,29.633608
1434409046.272,25.938602
1434409046.287,21.21834
1434409046.303,16.201473
1434409046.319,11.519926
1434409046.334,7.493574
1434409046.35,4.0905685
1434409046.366,1.0196934
1434409046.381,-2.0818958
1434409046.397,-5.437971
1434409046.412,-9.073722
1434409046.428,-12.81507
1434409046.444,-16.406948
1434409046.459,-19.587816
1434409046.475,-22.1834
1434409046.491,-24.112823
1434409046.506,-25.387466
1434409046.522,-26.082432
1434409046.537,-26.311996
1434409046.553,-26.221119
1434409046.569,-25.940714
1434409046.584,-25.55393
1434409046.6,-25.104513
1434409046.616,-24.613308
1434409046.631,-24.097723
1434409046.647,-23.565844
1434409046.662,-23.028337
1434409046.678,-22.452435
1434409046.694,-21.77693
1434409046.709,-20.909746
1434409046.725,-19.804895
1434409046.741,-18.440418
1434409046.756,-16.878292
1434409046.772,-15.187171
1434409046.787,-13.438143
1434409046.803,-11.673899
1434409046.819,-9.914996
1434409046.834,-8.158741
1434409046.85,-6.383093
1434409046.866,-4.554451
1434409046.881,-2.6422596
1434409046.897,-0.628067
1434409046.912,1.4732075
1434409046.928,3.6352596
1434409046.944,5.790388
1434409046.959,7.9065437
1434409046.975,9.969002
1434409046.991,12.009354
1434409047.006,14.066633
1434409047.022,16.215937
1434409047.038,18.544086
1434409047.053,21.161371
1434409047.069,24.162981
1434409047.084,27.557238
1434409047.1,31.181412
1434409047.116,34.64774
1434409047.131,37.396866
1434409047.147,38.867065
1434409047.163,38.633545
1434409047.178,36.57511
1434409047.194,32.867874
1434409047.209,27.981949
1434409047.225,22.492825
1434409047.241,16.996174
1434409047.256,11.941372
1434409047.272,7.567154
1434409047.288,3.8647728
1434409047.303,0.6495819
1434409047.319,-2.3424149
1434409047.334,-5.2893867
1434409047.35,-8.240177
1434409047.366,-11.106178
1434409047.381,-13.744804
1434409047.397,-16.04813
1434409047.413,-17.995667
1434409047.428,-19.59998
1434409047.444,-20.885715
1434409047.459,-21.855545
1434409047.475,-22.527615
1434409047.491,-22.940903
1434409047.506,-23.195145
1434409047.522,-23.37593
1434409047.538,-23.517933
1434409047.553,-23.585335
1434409047.569,-23.49931
1434409047.584,-23.192356
1434409047.6,-22.65168
1434409047.616,-21.914001
1434409047.631,-21.044964
1434409047.647,-20.08693
1434409047.663,-19.05526
1434409047.678,-17.9553
1434409047.694,-16.828667
1434409047.709,-15.676018
1434409047.725,-14.502251
1434409047.741,-13.257874
1434409047.756,-11.894196
1434409047.772,-10.34742
1434409047.788,-8.628326
1434409047.803,-6.7633133
1434409047.819,-4.8263474
1434409047.834,-2.8572083
1434409047.85,-0.8834686
1434409047.866,1.115509
1434409047.881,3.179512
1434409047.897,5.3681183
1434409047.913,7.6827316
1434409047.928,10.079605
1434409047.944,12.442261
1434409047.959,14.678413
1434409047.975,16.7594
1434409047.991,18.82174
1434409048.006,21.132393
1434409048.022,23.942451
1434409048.038,27.310272
1434409048.053,30.958351
1434409048.069,34.25721
1434409048.084,36.44838
1434409048.1,36.891937
1434409048.116,35.363586
1434409048.131,32.086136
1434409048.147,27.644753
1434409048.163,22.708382
1434409048.178,17.817192
1434409048.194,13.221291
1434409048.209,8.909119
1434409048.225,4.7177505
1434409048.241,0.47554016
1434409048.256,-3.9027176
1434409048.272,-8.345772
1434409048.288,-12.679619
1434409048.303,-16.679436
1434409048.319,-20.172722
1434409048.334,-23.024551
1434409048.35,-25.195663
1434409048.366,-26.686325
1434409048.381,-27.559868
1434409048.397,-27.918266
1434409048.413,-27.927307
1434409048.428,-27.770424
1434409048.444,-27.639374
1434409048.459,-27.625458
1434409048.475,-27.698196
1434409048.491,-27.71421
1434409048.506,-27.51773
1434409048.522,-26.99327
1434409048.538,-26.16159
1434409048.553,-25.11557
1434409048.569,-23.994598
1434409048.584,-22.873886
1434409048.6,-21.80339
1434409048.616,-20.776932
1434409048.631,-19.790825
1434409048.647,-18.807335
1434409048.663,-17.758713
1434409048.678,-16.523712
1434409048.694,-15.024887
1434409048.709,-13.221527
1434409048.725,-11.206001
1434409048.741,-9.130653
1434409048.756,-7.14888
1434409048.772,-5.3340454
1434409048.788,-3.6363907
1434409048.803,-1.9039459
1434409048.819,0.052116394
1434409048.834,2.386917
1434409048.85,5.1432114
1434409048.866,8.217514
1434409048.881,11.380432
1434409048.897,14.3536
1434409048.913,16.892426
1434409048.928,18.923744
1434409048.944,20.567574
1434409048.959,22.134102
1434409048.975,23.965103
1434409048.991,26.316307
1434409049.006,29.179161
1434409049.022,32.29789
1434409049.038,35.1688
1434409049.053,37.205727
1434409049.069,37.851646
1434409049.084,36.76056
1434409049.1,33.879356
1434409049.116,29.498016
1434409049.131,24.16925
1434409049.147,18.54602
1434409049.163,13.158852
1434409049.178,8.304466
1434409049.194,3.9718933
1434409049.209,0.020378113
1434409049.225,-3.7282257
1434409049.241,-7.36364
1434409049.256,-10.902451
1434409049.272,-14.293251
1434409049.288,-17.500648
1434409049.303,-20.45961
1434409049.319,-23.063217
1434409049.334,-25.136818
1434409049.35,-26.482994
1434409049.366,-27.023674
1434409049.381,-26.831673
1434409049.397,-26.144829
1434409049.413,-25.278687
1434409049.428,-24.494652
1434409049.444,-23.968086
1434409049.459,-23.72464
1434409049.475,-23.718964
1434409049.491,-23.85421
1434409049.506,-23.9486
1434409049.522,-23.75637
1434409049.538,-23.018387
1434409049.553,-21.549583
1434409049.569,-19.353386
1434409049.584,-16.640419
1434409049.6,-13.769119
1434409049.616,-11.107307
1434409049.631,-8.911827
1434409049.647,-7.2538376
1434409049.663,-6.06501
1434409049.678,-5.186157
1434409049.694,-4.455757
1434409049.71,-3.7375717
1434409049.725,-2.958191
1434409049.741,-2.0654755
1434409049.756,-1.0588684
1434409049.772,0.06788254
1434409049.788,1.3090973
1434409049.803,2.6912994
1434409049.819,4.2610397
1434409049.835,6.0316086
1434409049.85,7.961529
1434409049.866,9.906868
1434409049.881,11.68795
1434409049.897,13.158466
1434409049.913,14.309742
1434409049.928,15.296169
1434409049.944,16.357586
1434409049.96,17.768486
1434409049.975,19.677486
1434409049.991,22.07623
1434409050.006,24.755829
1434409050.022,27.383018
1434409050.038,29.529827
1434409050.053,30.782001
1434409050.069,30.815937
1434409050.085,29.477962
1434409050.1,26.823856
1434409050.116,23.144135
1434409050.131,18.887875
1434409050.147,14.5602455
1434409050.163,10.552261
1434409050.178,7.0340843
1434409050.194,3.9187355
1434409050.21,0.96247864
1434409050.225,-2.1310616
1434409050.241,-5.508957
1434409050.256,-9.09029
1434409050.272,-12.593121
1434409050.288,-15.664875
1434409050.303,-18.011726
1434409050.319,-19.525723
1434409050.335,-20.24028
1434409050.35,-20.28881
1434409050.366,-19.819838
1434409050.381,-18.99052
1434409050.397,-17.971886
1434409050.413,-16.98834
1434409050.428,-16.270525
1434409050.444,-15.993046
1434409050.46,-16.196424
1434409050.475,-16.746181
1434409050.491,-17.386538
1434409050.506,-17.83475
1434409050.522,-17.852133
1434409050.538,-17.33367
1434409050.553,-16.303886
1434409050.569,-14.9139805
1434409050.585,-13.340887
1434409050.6,-11.785839
1434409050.616,-10.356977
1434409050.631,-9.085503
1434409050.647,-7.93373
1434409050.663,-6.8362207
1434409050.678,-5.7466555
1434409050.694,-4.667074
1434409050.71,-3.5833616
1434409050.725,-2.4882607
1434409050.741,-1.3527699
1434409050.756,-0.18442774
1434409050.772,0.9994955
1434409050.788,2.1205678
1434409050.803,3.153122
1434409050.819,4.137396
1434409050.835,5.1955976
1434409050.85,6.455699
1434409050.866,7.988205
1434409050.881,9.733753
1434409050.897,11.572827
1434409050.913,13.357876
1434409050.928,15.026215
1434409050.944,16.60922
1434409050.96,18.206985
1434409050.975,19.932852
1434409050.991,21.878946
1434409051.006,24.035439
1434409051.022,26.283611
1434409051.038,28.345211
1434409051.053,29.840796
1434409051.069,30.326889
1434409051.085,29.510746
1434409051.1,27.334627
1434409051.116,24.058813
1434409051.131,20.177269
1434409051.147,16.280903
1434409051.163,12.786457
1434409051.178,9.860933
1434409051.194,7.3647423
1434409051.21,4.984453
1434409051.225,2.3909855
1434409051.241,-0.5755062
1434409051.256,-3.8496246
1434409051.272,-7.1228466
1434409051.288,-9.999935
1434409051.303,-12.168337
1434409051.319,-13.533529
1434409051.335,-14.209372
1434409051.35,-14.483448
1434409051.366,-14.612364
1434409051.381,-14.753147
1434409051.397,-14.889877
1434409051.413,-14.969135
1434409051.428,-14.9348755
1434409051.444,-14.836243
1434409051.46,-14.753983
1434409051.475,-14.772259
1434409051.491,-14.895794
1434409051.506,-15.065067
1434409051.522,-15.171326
1434409051.538,-15.146969
1434409051.553,-14.953411
1434409051.569,-14.600494
1434409051.585,-14.117733
1434409051.6,-13.522537
1434409051.616,-12.81041
1434409051.631,-11.970119
1434409051.647,-10.944431
1434409051.663,-9.69289
1434409051.678,-8.189602
1434409051.694,-6.4993057
1434409051.71,-4.7275543
1434409051.725,-3.0213623
1434409051.741,-1.4664268
1434409051.756,-0.10192871
1434409051.772,1.1262169
1434409051.788,2.2681847
1434409051.803,3.374401
1434409051.819,4.448452
1434409051.835,5.535446
1434409051.85,6.7200356
1434409051.866,8.114895
1434409051.881,9.774864
1434409051.897,11.62476
1434409051.913,13.46534
1434409051.928,15.081497
1434409051.944,16.341629
1434409051.96,17.337875
1434409051.975,18.33477
1434409051.991,19.685982
1434409052.006,21.617233
1434409052.022,24.177605
1434409052.038,27.125717
1434409052.053,30.040054
1434409052.069,32.38138
1434409052.085,33.66828
1434409052.1,33.54612
1434409052.116,31.939941
1434409052.131,29.05381
1434409052.147,25.33265
1434409052.163,21.334915
1434409052.178,17.585686
1434409052.194,14.38385
1434409052.21,11.758141
1434409052.225,9.488121
1434409052.241,7.246872
1434409052.256,4.7305145
1434409052.272,1.8208847
1434409052.288,-1.3964844
1434409052.303,-4.6441345
1434409052.319,-7.587158
1434409052.335,-9.949829
1434409052.35,-11.619736
1434409052.366,-12.618935
1434409052.382,-13.082474
1434409052.397,-13.165375
1434409052.413,-12.995445
1434409052.428,-12.653603
1434409052.444,-12.2462845
1434409052.46,-11.874535
1434409052.475,-11.670433
1434409052.491,-11.716408
1434409052.506,-12.019806
1434409052.522,-12.465698
1434409052.538,-12.88163
1434409052.553,-13.056557
1434409052.569,-12.845551
1434409052.585,-12.176216
1434409052.6,-11.106163
1434409052.616,-9.779518
1434409052.632,-8.432465
1434409052.647,-7.29718
1434409052.663,-6.5636826
1434409052.678,-6.2529526
1434409052.694,-6.2571945
1434409052.71,-6.3643036
1434409052.725,-6.358124
1434409052.741,-6.097519
1434409052.757,-5.5704193
1434409052.772,-4.815628
1434409052.788,-3.9127274
1434409052.803,-2.891014
1434409052.819,-1.7608185
1434409052.835,-0.4788742
1434409052.85,0.9753189
1434409052.866,2.6196136
1434409052.882,4.430084
1434409052.897,6.374428
1434409052.913,8.393486
1434409052.928,10.440735
1434409052.944,12.456657
1434409052.96,14.424522
1434409052.975,16.323654
1434409052.991,18.154205
1434409053.007,19.93528
1434409053.022,21.737663
1434409053.038,23.640549
1434409053.053,25.73658
1434409053.069,27.997047
1434409053.085,30.21054
1434409053.1,31.957054
1434409053.116,32.728493
1434409053.132,32.086617
1434409053.147,29.89833
1434409053.163,26.38443
1434409053.178,22.087242
1434409053.194,17.627014
1434409053.21,13.505337
1434409053.225,9.928604
1434409053.241,6.8399544
1434409053.257,3.983078
1434409053.272,1.119381
1434409053.288,-1.8923073
1434409053.303,-5.0209465
1434409053.319,-8.119694
1434409053.335,-10.9660225
1434409053.35,-13.383476
1434409053.366,-15.258251
1434409053.382,-16.588776
1434409053.397,-17.450264
1434409053.413,-17.97628
1434409053.428,-18.286495
1434409053.444,-18.493542
1434409053.46,-18.684185
1434409053.475,-18.930744
1434409053.491,-19.254562
1434409053.507,-19.6083
1434409053.522,-19.798798
1434409053.538,-19.597897
1434409053.553,-18.790314
1434409053.569,-17.338272
1434409053.585,-15.411835
1434409053.6,-13.369171
1434409053.616,-11.58017
1434409053.632,-10.312653
1434409053.647,-9.602917
1434409053.663,-9.306026
1434409053.678,-9.177063
1434409053.694,-8.978512
1434409053.71,-8.540524
1434409053.725,-7.8069153
1434409053.741,-6.801445
1434409053.757,-5.6157913
1434409053.772,-4.3814583
1434409053.788,-3.2376366
1434409053.803,-2.2593727
1434409053.819,-1.4365311
1434409053.835,-0.64938736
1434409053.85,0.2780075
1434409053.866,1.5302773
1434409053.882,3.1851578
1434409053.897,5.2097206
1434409053.913,7.4348717
1434409053.928,9.62532
1434409053.944,11.570702
1434409053.96,13.175091
1434409053.975,14.495861
1434409053.991,15.733475
1434409054.007,17.142231
1434409054.022,18.980362
1434409054.038,21.3755
1434409054.053,24.320885
1434409054.069,27.636784
1434409054.085,31.011292
1434409054.1,34.001835
1434409054.116,36.081417
1434409054.132,36.73777
1434409054.147,35.632877
1434409054.163,32.76245
1434409054.178,28.518095
1434409054.194,23.561361
1434409054.21,18.58223
1434409054.225,14.056276
1434409054.241,10.078535
1434409054.257,6.4082203
1434409054.272,2.7047234
1434409054.288,-1.2749004
1434409054.303,-5.526352
1434409054.319,-9.828224
1434409054.335,-13.84897
1434409054.35,-17.329782
1434409054.366,-20.146421
1434409054.382,-22.322706
1434409054.397,-23.950022
1434409054.413,-25.148106
1434409054.428,-25.986702
1434409054.444,-26.527
1434409054.46,-26.791344
1434409054.475,-26.844616
1434409054.491,-26.78407
1434409054.507,-26.728859
1434409054.522,-26.737518
1434409054.538,-26.79404
1434409054.553,-26.75291
1434409054.569,-26.427662
1434409054.585,-25.661873
1434409054.6,-24.426805
1434409054.616,-22.849049
1434409054.632,-21.153906
1434409054.647,-19.511505
1434409054.663,-17.994976
1434409054.678,-16.536007
1434409054.694,-15.032909
1434409054.71,-13.430189
1434409054.725,-11.779321
1434409054.741,-10.144038
1434409054.757,-8.574945
1434409054.772,-7.011404
1434409054.788,-5.335856
1434409054.803,-3.4513717
1434409054.819,-1.3534799
1434409054.835,0.92169
1434409054.85,3.3430295
1434409054.866,5.9535003
1434409054.882,8.829646
1434409054.897,11.990564
1434409054.913,15.305709
1434409054.928,18.521252
1434409054.944,21.307806
1434409054.96,23.465595
1434409054.975,25.02462
1434409054.991,26.196781
1434409055.007,27.285427
1434409055.022,28.58502
1434409055.038,30.25769
1434409055.054,32.37873
1434409055.069,34.935207
1434409055.085,37.79886
1434409055.1,40.688316
1434409055.116,43.131405
1434409055.132,44.494476
1434409055.147,44.212635
1434409055.163,41.98044
1434409055.178,37.9505
1434409055.194,32.661243
1434409055.21,26.906221
1434409055.225,21.364887
1434409055.241,16.425253
1434409055.257,12.06318
1434409055.272,8.007439
1434409055.288,3.9199944
1434409055.304,-0.3730936
1434409055.319,-4.8297234
1434409055.335,-9.224918
1434409055.35,-13.288151
1434409055.366,-16.785076
1434409055.382,-19.584478
1434409055.397,-21.62871
1434409055.413,-22.962017
1434409055.429,-23.673075
1434409055.444,-23.953184
1434409055.46,-24.003628
1434409055.475,-24.02644
1434409055.491,-24.11291
1434409055.507,-24.28075
1434409055.522,-24.440563
1434409055.538,-24.523895
1434409055.554,-24.46809
1434409055.569,-24.243893
1434409055.585,-23.785202
1434409055.6,-22.993656
1434409055.616,-21.79803
1434409055.632,-20.228912
1434409055.647,-18.463173
1434409055.663,-16.817303
1434409055.679,-15.56345
1434409055.694,-14.816929
1434409055.71,-14.426048
1434409055.725,-14.074829
1434409055.741,-13.406864
1434409055.757,-12.251804
1434409055.772,-10.635609
1434409055.788,-8.738235
1434409055.804,-6.757309
1434409055.819,-4.7926903
1434409055.835,-2.8175316
1434409055.85,-0.7163582
1434409055.866,1.6228981
1434409055.882,4.23032
1434409055.897,7.0452576
1434409055.913,9.921146
1434409055.929,12.706673
1434409055.944,15.255032
1434409055.96,17.526703
1434409055.975,19.573792
1434409055.991,21.548313
1434409056.007,23.658684
1434409056.022,26.14965
1434409056.038,29.172356
1434409056.054,32.727646
1434409056.069,36.564285
1434409056.085,40.17402
1434409056.1,42.888626
1434409056.116,44.056038
1434409056.132,43.23568
1434409056.147,40.3891
1434409056.163,35.870285
1434409056.179,30.327362
1434409056.194,24.438194
1434409056.21,18.753685
1434409056.225,13.512688
1434409056.241,8.703178
1434409056.257,4.1365356
1434409056.272,-0.41458893
1434409056.288,-5.1268005
1434409056.304,-10.036476
1434409056.319,-15.016876
1434409056.335,-19.791481
1434409056.35,-24.00454
1434409056.366,-27.331375
1434409056.382,-29.626884
1434409056.397,-30.959953
1434409056.413,-31.588028
1434409056.429,-31.802795
1434409056.444,-31.819511
1434409056.46,-31.695
1434409056.475,-31.398643
1434409056.491,-30.895905
1434409056.507,-30.253471
1434409056.522,-29.55899
1434409056.538,-28.886932
1434409056.554,-28.170868
1434409056.569,-27.245377
1434409056.585,-25.903854
1434409056.6,-24.061623
1434409056.616,-21.81942
1434409056.632,-19.457382
1434409056.647,-17.324974
1434409056.663,-15.671661
1434409056.679,-14.54274
1434409056.694,-13.792671
1434409056.71,-13.110939
1434409056.725,-12.183823
1434409056.741,-10.792892
1434409056.757,-8.904343
1434409056.772,-6.640442
1434409056.788,-4.251709
1434409056.804,-1.9673462
1434409056.819,0.05466461
1434409056.835,1.8219833
1434409056.85,3.4827576
1434409056.866,5.2615433
1434409056.882,7.317177
1434409056.897,9.711502
1434409056.913,12.33873
1434409056.929,14.999321
1434409056.944,17.490463
1434409056.96,19.717339
1434409056.975,21.735855
1434409056.991,23.765396
1434409057.007,26.085556
1434409057.022,28.93637
1434409057.038,32.393425
1434409057.054,36.31463
1434409057.069,40.296356
1434409057.085,43.766113
1434409057.1,46.06949
1434409057.116,46.642365
1434409057.132,45.161026
1434409057.147,41.689026
1434409057.163,36.634445
1434409057.179,30.683075
1434409057.194,24.541489
1434409057.21,18.704971
1434409057.225,13.305298
1434409057.241,8.153336
1434409057.257,2.9273376
1434409057.272,-2.5760803
1434409057.288,-8.309525
1434409057.304,-13.969711
1434409057.319,-19.177948
1434409057.335,-23.636368
1434409057.35,-27.229553
1434409057.366,-29.964813
1434409057.382,-31.91507
1434409057.397,-33.13649
1434409057.413,-33.68799
1434409057.429,-33.678787
1434409057.444,-33.343124
1434409057.46,-32.981674
1434409057.475,-32.88948
1434409057.491,-33.19284
1434409057.507,-33.807495
1434409057.522,-34.391983
1434409057.538,-34.531616
1434409057.554,-33.87767
1434409057.569,-32.309402
1434409057.585,-29.994186
1434409057.6,-27.321548
1434409057.616,-24.751282
1434409057.632,-22.597046
1434409057.647,-20.877716
1434409057.663,-19.354477
1434409057.679,-17.692596
1434409057.694,-15.699524
1434409057.71,-13.393158
1434409057.725,-11.032791
1434409057.741,-8.888641
1434409057.757,-7.0965424
1434409057.772,-5.5963593
1434409057.788,-4.2293243
1434409057.804,-2.8484192
1434409057.819,-1.3603058
1434409057.835,0.33824158
1434409057.85,2.3729858
1434409057.866,4.897537
1434409057.882,7.9597015
1434409057.897,11.398407
1434409057.913,14.817612
1434409057.929,17.751968
1434409057.944,19.883987
1434409057.96,21.241516
1434409057.976,22.195663
1434409057.991,23.32759
1434409058.007,25.16098
1434409058.022,28.03482
1434409058.038,31.934479
1434409058.054,36.525513
1434409058.069,41.17845
1434409058.085,45.100525
1434409058.101,47.485367
1434409058.116,47.746017
1434409058.132,45.679047
1434409058.147,41.545914
1434409058.163,35.991333
1434409058.179,29.806992
1434409058.194,23.625916
1434409058.21,17.822037
1434409058.226,12.403168
1434409058.241,7.1545563
1434409058.257,1.7746735
1434409058.272,-3.9141083
1434409058.288,-9.917831
1434409058.304,-16.010849
1434409058.319,-21.85083
1434409058.335,-27.044495
1434409058.351,-31.275116
1434409058.366,-34.36479
1434409058.382,-36.30597
1434409058.397,-37.21753
1434409058.413,-37.311783
1434409058.429,-36.85257
1434409058.444,-36.108597
1434409058.46,-35.282867
1434409058.476,-34.53151
1434409058.491,-33.8985
1434409058.507,-33.363525
1434409058.522,-32.83893
1434409058.538,-32.20897
1434409058.554,-31.340027
1434409058.569,-30.11235
1434409058.585,-28.442795
1434409058.601,-26.34346
1434409058.616,-23.928024
1434409058.632,-21.43686
1434409058.647,-19.134918
1434409058.663,-17.23108
1434409058.679,-15.782288
1434409058.694,-14.6827545
1434409058.71,-13.711563
1434409058.726,-12.654068
1434409058.741,-11.36438
1434409058.757,-9.817703
1434409058.772,-8.032562
1434409058.788,-6.0924835
1434409058.804,-4.043747
1434409058.819,-1.9512787
1434409058.835,0.16368103
1434409058.851,2.283554
1434409058.866,4.4491425
1434409058.882,6.719345
1434409058.897,9.128891
1434409058.913,11.645355
1434409058.929,14.146042
1434409058.944,16.455887
1434409058.96,18.523193
1434409058.976,20.433563
1434409058.991,22.44609
1434409059.007,24.856949
1434409059.022,27.909637
1434409059.038,31.628754
1434409059.054,35.815964
1434409059.069,40.050064
1434409059.085,43.765686
1434409059.101,46.331375
1434409059.116,47.20523
1434409059.132,46.056747
1434409059.147,42.926926
1434409059.163,38.2218
1434409059.179,32.621704
1434409059.194,26.819275
1434409059.21,21.334671
1434409059.226,16.299713
1434409059.241,11.553665
1434409059.257,6.7765045
1434409059.272,1.7128754
1434409059.288,-3.7133179
1434409059.304,-9.352325
1434409059.319,-14.902023
1434409059.335,-19.979065
1434409059.351,-24.213806
1434409059.366,-27.34024
1434409059.382,-29.290558
1434409059.397,-30.188293
1434409059.413,-30.345428
1434409059.429,-30.104462
1434409059.444,-29.745834
1434409059.46,-29.4039
1434409059.476,-29.089157
1434409059.491,-28.749405
1434409059.507,-28.38414
1434409059.522,-27.997574
1434409059.538,-27.580032
1434409059.554,-27.067886
1434409059.569,-26.350632
1434409059.585,-25.326797
1434409059.601,-23.975739
1434409059.616,-22.37529
1434409059.632,-20.686127
1434409059.647,-19.090881
1434409059.663,-17.72586
1434409059.679,-16.626022
1434409059.694,-15.720856
1434409059.71,-14.781082
1434409059.726,-13.54454
1434409059.741,-11.799255
1434409059.757,-9.509659
1434409059.772,-6.830765
1434409059.788,-4.09079
1434409059.804,-1.6183167
1434409059.819,0.41944885
1434409059.835,2.0572128
1434409059.851,3.4758148
1434409059.866,4.927162
1434409059.882,6.6161346
1434409059.897,8.70826
1434409059.913,11.265175
1434409059.929,14.280945
1434409059.944,17.598793
1434409059.96,20.938011
1434409059.976,23.953735
1434409059.991,26.423119
1434409060.007,28.387054
1434409060.022,30.17257
1434409060.038,32.26764
1434409060.054,35.079773
1434409060.069,38.701637
1434409060.085,42.833504
1434409060.101,46.799995
1434409060.116,49.778893
1434409060.132,51.017555
1434409060.147,50.02485
1434409060.163,46.722733
1434409060.179,41.436462
1434409060.194,34.833076
1434409060.21,27.691902
1434409060.226,20.715744
1434409060.241,14.326057
1434409060.257,8.58625
1434409060.272,3.3286285
1434409060.288,-1.7087097
1434409060.304,-6.702553
1434409060.319,-11.661507
1434409060.335,-16.449715
1434409060.351,-20.863083
1434409060.366,-24.694984
1434409060.382,-27.815536
1434409060.397,-30.152473
1434409060.413,-31.713768
1434409060.429,-32.56978
1434409060.444,-32.85411
1434409060.46,-32.69838
1434409060.476,-32.2499
1434409060.491,-31.629173
1434409060.507,-30.935112
1434409060.522,-30.22763
1434409060.538,-29.559792
1434409060.554,-28.928322
1434409060.569,-28.296547
1434409060.585,-27.567993
1434409060.601,-26.634598
1434409060.616,-25.407616
1434409060.632,-23.851791
1434409060.648,-22.020569
1434409060.663,-20.059021
1434409060.679,-18.158691
1434409060.694,-16.481628
1434409060.71,-15.088966
1434409060.726,-13.927254
1434409060.741,-12.83326
1434409060.757,-11.619751
1434409060.773,-10.187881
1434409060.788,-8.57502
1434409060.804,-6.9389496
1434409060.819,-5.437134
1434409060.835,-4.1065216
1434409060.851,-2.8597946
1434409060.866,-1.4772797
1434409060.882,0.23352814
1434409060.898,2.3356934
1434409060.913,4.738739
1434409060.929,7.2403946
1434409060.944,9.637817
1434409060.96,11.811966
1434409060.976,13.741562
1434409060.991,15.500725
1434409061.007,17.177391
1434409061.023,18.917404
1434409061.038,20.872795
1434409061.054,23.238647
1434409061.069,26.18792
1434409061.085,29.80085
1434409061.101,33.940598
1434409061.116,38.203163
1434409061.132,41.924652
1434409061.148,44.35365
1434409061.163,44.838203
1434409061.179,43.049694
1434409061.194,39.07795
1434409061.21,33.45918
1434409061.226,26.95971
1434409061.241,20.36821
1434409061.257,14.274006
1434409061.273,8.951935
1434409061.288,4.3388023
1434409061.304,0.1718483
1434409061.319,-3.8406754
1434409061.335,-7.8754005
1434409061.351,-11.923779
1434409061.366,-15.801628
1434409061.382,-19.272293
1434409061.398,-22.144173
1434409061.413,-24.357285
1434409061.429,-25.95934
1434409061.444,-27.081543
1434409061.46,-27.818584
1434409061.476,-28.242493
1434409061.491,-28.341103
1434409061.507,-28.115326
1434409061.523,-27.570526
1434409061.538,-26.759727
1434409061.554,-25.746353
1434409061.569,-24.606308
1434409061.585,-23.383175
1434409061.601,-22.10212
1434409061.616,-20.772755
1434409061.632,-19.447392
1434409061.648,-18.126877
1434409061.663,-16.873375
1434409061.679,-15.729977
1434409061.694,-14.776268
1434409061.71,-14.058416
1434409061.726,-13.568375
1434409061.741,-13.170723
1434409061.757,-12.587248
1434409061.773,-11.434275
1434409061.788,-9.42775
1434409061.804,-6.5635986
1434409061.819,-3.1862373
1434409061.835,0.093753815
1434409061.851,2.6509285
1434409061.866,4.165061
1434409061.882,4.773056
1434409061.898,4.9885387
1434409061.913,5.400877
1434409061.929,6.414753
1434409061.944,8.021499
1434409061.96,9.972004
1434409061.976,11.887342
1434409061.991,13.550995
1434409062.007,14.96858
1434409062.023,16.343603
1434409062.038,17.921795
1434409062.054,19.928204
1434409062.069,22.478668
1434409062.085,25.560442
1434409062.101,29.051638
1434409062.116,32.671898
1434409062.132,35.98189
1434409062.148,38.513123
1434409062.163,39.795532
1434409062.179,39.531384
1434409062.194,37.633774
1434409062.21,34.27882
1434409062.226,29.816534
1434409062.241,24.763367
1434409062.257,19.626661
1434409062.273,14.847168
1434409062.288,10.67873
1434409062.304,7.160591
1434409062.319,4.150238
1434409062.335,1.4839287
1434409062.351,-0.92456627
1434409062.366,-3.0562325
1434409062.382,-4.836878
1434409062.398,-6.224375
1434409062.413,-7.309147
1434409062.429,-8.246235
1434409062.444,-9.2049465
1434409062.46,-10.248737
1434409062.476,-11.3039875
1434409062.491,-12.230749
1434409062.507,-12.866877
1434409062.523,-13.09244
1434409062.538,-12.89044
1434409062.554,-12.329075
1434409062.569,-11.539921
1434409062.585,-10.662029
1434409062.601,-9.805204
1434409062.616,-9.003071
1434409062.632,-8.229052
1434409062.648,-7.4210396
1434409062.663,-6.543791
1434409062.679,-5.620098
1434409062.694,-4.713703
1434409062.71,-3.8285866
1434409062.726,-2.9258652
1434409062.741,-1.8915844
1434409062.757,-0.61011124
1434409062.773,0.9914017
1434409062.788,2.9057236
1434409062.804,5.1129475
1434409062.819,7.568756
1434409062.835,10.214193
1434409062.851,12.942411
1434409062.866,15.579697
1434409062.882,17.932531
1434409062.898,19.949215
1434409062.913,21.741232
1434409062.929,23.609802
1434409062.944,25.87205
1434409062.96,28.753283
1434409062.976,32.251526
1434409062.991,36.14
1434409063.007,40.03534
1434409063.023,43.429527
1434409063.038,45.758408
1434409063.054,46.475567
1434409063.069,45.18534
1434409063.085,41.84487
1434409063.101,36.813942
1434409063.116,30.809399
1434409063.132,24.626595
1434409063.148,18.902662
1434409063.163,13.877662
1434409063.179,9.444414
1434409063.194,5.282138
1434409063.21,1.0922642
1434409063.226,-3.2831454
1434409063.241,-7.8190265
1434409063.257,-12.36069
1434409063.273,-16.636593
1434409063.288,-20.375544
1434409063.304,-23.345991
1434409063.32,-25.444279
1434409063.335,-26.74261
1434409063.351,-27.482555
1434409063.366,-27.943832
1434409063.382,-28.339247
1434409063.398,-28.697237
1434409063.413,-28.918228
1434409063.429,-28.837093
1434409063.444,-28.410627
1434409063.46,-27.680183
1434409063.476,-26.82016
1434409063.491,-25.98017
1434409063.507,-25.225653
1434409063.523,-24.48663
1434409063.538,-23.608828
1434409063.554,-22.438309
1434409063.57,-20.894081
1434409063.585,-19.028486
1434409063.601,-17.00058
1434409063.616,-14.991222
1434409063.632,-13.129473
1434409063.648,-11.367348
1434409063.663,-9.511332
1434409063.679,-7.3135967
1434409063.695,-4.623005
1434409063.71,-1.4158173
1434409063.726,2.1117325
1434409063.741,5.7014713
1434409063.757,9.090334
1434409063.773,12.139208
1434409063.788,14.815861
1434409063.804,17.19784
1434409063.82,19.448257
1434409063.835,21.821705
1434409063.851,24.603527
1434409063.866,28.030281
1434409063.882,32.172375
1434409063.898,36.83895
1434409063.913,41.541294
1434409063.929,45.586998
1434409063.945,48.24209
1434409063.96,48.91581
1434409063.976,47.314793
1434409063.991,43.54007
1434409064.007,38.040462
1434409064.023,31.54166
1434409064.038,24.843475
1434409064.054,18.60242
1434409064.07,13.181782
1434409064.085,8.562798
1434409064.101,4.4091263
1434409064.116,0.2606964
1434409064.132,-4.26334
1434409064.148,-9.286427
1434409064.163,-14.624783
1434409064.179,-19.873264
1434409064.195,-24.597279
1434409064.21,-28.403893
1434409064.226,-31.103817
1434409064.241,-32.725582
1434409064.257,-33.47145
1434409064.273,-33.618607
1434409064.288,-33.453064
1434409064.304,-33.196083
1434409064.32,-32.97857
1434409064.335,-32.842888
1434409064.351,-32.71656
1434409064.366,-32.493553
1434409064.382,-32.028778
1434409064.398,-31.179298
1434409064.413,-29.90577
1434409064.429,-28.278687
1434409064.445,-26.46476
1434409064.46,-24.635979
1434409064.476,-22.898438
1434409064.491,-21.206512
1434409064.507,-19.42212
1434409064.523,-17.408371
1434409064.538,-15.106834
1434409064.554,-12.604012
1434409064.57,-10.057709
1434409064.585,-7.5886917
1434409064.601,-5.253174
1434409064.616,-2.997757
1434409064.632,-0.76055145
1434409064.648,1.5377731
1434409064.663,3.9148636
1434409064.679,6.3768005
1434409064.695,8.893906
1434409064.71,11.4249115
1434409064.726,13.874863
1434409064.741,16.173721
1434409064.757,18.30587
1434409064.773,20.4207
1434409064.788,22.794281
1434409064.804,25.764748
1434409064.82,29.538185
1434409064.835,34.052307
1434409064.851,38.912003
1434409064.866,43.460823
1434409064.882,46.903442
1434409064.898,48.57908
1434409064.913,48.063034
1434409064.929,45.300987
1434409064.945,40.583557
1434409064.96,34.479828
1434409064.976,27.679565
1434409064.991,20.835114
1434409065.007,14.397133
1434409065.023,8.536377
1434409065.038,3.171791
1434409065.054,-1.9398193
1434409065.07,-7.076103
1434409065.085,-12.393082
1434409065.101,-17.895927
1434409065.116,-23.381706
1434409065.132,-28.519234
1434409065.148,-32.891396
1434409065.163,-36.170273
1434409065.179,-38.192093
1434409065.195,-39.036575
1434409065.21,-38.928658
1434409065.226,-38.197525
1434409065.241,-37.12799
1434409065.257,-35.96566
1434409065.273,-34.884842
1434409065.288,-34.022552
1434409065.304,-33.447083
1434409065.32,-33.073105
1434409065.335,-32.64495
1434409065.351,-31.816368
1434409065.366,-30.288544
1434409065.382,-28.022034
1434409065.398,-25.270767
1434409065.413,-22.474548
1434409065.429,-20.032593
1434409065.445,-18.110573
1434409065.46,-16.578102
1434409065.476,-15.123138
1434409065.491,-13.456215
1434409065.507,-11.466736
1434409065.523,-9.1814575
1434409065.538,-6.7070084
1434409065.554,-4.0861664
1434409065.57,-1.344017
1434409065.585,1.508255
1434409065.601,4.3830338
1434409065.616,7.1530685
1434409065.632,9.701607
1434409065.648,11.995422
1434409065.663,14.086487
1434409065.679,16.054337
1434409065.695,17.927223
1434409065.71,19.755768
1434409065.726,21.616524
1434409065.741,23.692093
1434409065.757,26.23407
1434409065.773,29.5056
1434409065.788,33.608856
1434409065.804,38.397278
1434409065.82,43.38456
1434409065.835,47.83545
1434409065.851,50.89618
1434409065.866,51.833076
1434409065.882,50.274765
1434409065.898,46.33638
1434409065.913,40.616142
1434409065.929,33.968727
1434409065.945,27.205261
1434409065.96,20.804016
1434409065.976,14.817131
1434409065.992,8.990845
1434409066.007,2.9856796
1434409066.023,-3.3649368
1434409066.038,-9.965065
1434409066.054,-16.47313
1434409066.07,-22.472984
1434409066.085,-27.57309
1434409066.101,-31.530945
1434409066.116,-34.258705
1434409066.132,-35.823463
1434409066.148,-36.436172
1434409066.163,-36.359917
1434409066.179,-35.88266
1434409066.195,-35.24627
1434409066.21,-34.621895
1434409066.226,-34.085823
1434409066.242,-33.638626
1434409066.257,-33.245766
1434409066.273,-32.803337
1434409066.288,-32.201927
1434409066.304,-31.320892
1434409066.32,-30.082031
1434409066.335,-28.450592
1434409066.351,-26.511047
1434409066.367,-24.3956
1434409066.382,-22.276138
1434409066.398,-20.314682
1434409066.413,-18.579826
1434409066.429,-17.036652
1434409066.445,-15.523155
1434409066.46,-13.805725
1434409066.476,-11.679726
1434409066.492,-9.091042
1434409066.507,-6.1577835
1434409066.523,-3.127533
1434409066.538,-0.24091339
1434409066.554,2.3936157
1434409066.57,4.8508606
1434409066.585,7.3086777
1434409066.601,9.917519
1434409066.617,12.7039795
1434409066.632,15.548233
1434409066.648,18.27349
1434409066.663,20.777435
1434409066.679,23.04496
1434409066.695,25.17128
1434409066.71,27.320343
1434409066.726,29.665855
1434409066.742,32.36084
1434409066.757,35.501984
1434409066.773,39.016777
1434409066.788,42.59713
1434409066.804,45.650826
1434409066.82,47.462746
1434409066.835,47.423416
1434409066.851,45.260307
1434409066.867,41.123505
1434409066.882,35.540627
1434409066.898,29.204887
1434409066.913,22.734612
1434409066.929,16.5447
1434409066.945,10.791061
1434409066.96,5.385765
1434409066.976,0.14024353
1434409066.992,-5.1619873
1434409067.007,-10.618431
1434409067.023,-16.109833
1434409067.038,-21.310066
1434409067.054,-25.7817
1434409067.07,-29.118446
1434409067.085,-31.129974
1434409067.101,-31.880638
1434409067.117,-31.658737
1434409067.132,-30.852219
1434409067.148,-29.855888
1434409067.163,-28.941025
1434409067.179,-28.29551
1434409067.195,-27.974075
1434409067.21,-27.903938
1434409067.226,-27.878448
1434409067.242,-27.673317
1434409067.257,-27.097519
1434409067.273,-26.084167
1434409067.288,-24.706047
1434409067.304,-23.094414
1434409067.32,-21.378723
1434409067.335,-19.645657
1434409067.351,-17.913841
1434409067.367,-16.2048
1434409067.382,-14.52211
1434409067.398,-12.810787
1434409067.413,-10.971642
1434409067.429,-8.920414
1434409067.445,-6.6115494
1434409067.46,-4.1654015
1434409067.476,-1.7863464
1434409067.492,0.30923462
1434409067.507,2.0799904
1434409067.523,3.6716232
1434409067.538,5.4033623
1434409067.554,7.5437775
1434409067.57,10.161705
1434409067.585,13.085674
1434409067.601,15.996578
1434409067.617,18.599968
1434409067.632,20.809475
1434409067.648,22.768478
1434409067.663,24.788715
1434409067.679,27.192394
1434409067.695,30.185577
1434409067.71,33.72377
1434409067.726,37.541008
1434409067.742,41.137066
1434409067.757,43.92956
1434409067.773,45.39259
1434409067.788,45.16687
1434409067.804,43.158176
1434409067.82,39.568497
1434409067.835,34.81708
1434409067.851,29.423443
1434409067.867,23.8591
1434409067.882,18.444733
1434409067.898,13.293015
1434409067.913,8.358059
1434409067.929,3.503502
1434409067.945,-1.3778572
1434409067.96,-6.2624855
1434409067.976,-10.967209
1434409067.992,-15.250362
1434409068.007,-18.868221
1434409068.023,-21.710136
1434409068.038,-23.798939
1434409068.054,-25.261951
1434409068.07,-26.238426
1434409068.085,-26.838497
1434409068.101,-27.109627
1434409068.117,-27.08582
1434409068.132,-26.820583
1434409068.148,-26.362347
1434409068.163,-25.775047
1434409068.179,-25.103466
1434409068.195,-24.362389
1434409068.21,-23.552315
1434409068.226,-22.676773
1434409068.242,-21.751
1434409068.257,-20.762173
1434409068.273,-19.68703
1434409068.288,-18.449265
1434409068.304,-16.993145
1434409068.32,-15.312252
1434409068.335,-13.428837
1434409068.351,-11.404268
1434409068.367,-9.317339
1434409068.382,-7.2634335
1434409068.398,-5.3407726
1434409068.413,-3.6122742
1434409068.429,-2.0863018
1434409068.445,-0.67806625
1434409068.46,0.7432537
1434409068.476,2.3329926
1434409068.492,4.1991253
1434409068.507,6.368294
1434409068.523,8.802229
1434409068.538,11.404783
1434409068.554,14.0559025
1434409068.57,16.634003
1434409068.585,19.040302
1434409068.601,21.26618
1434409068.617,23.387804
1434409068.632,25.612398
1434409068.648,28.158308
1434409068.663,31.165903
1434409068.679,34.538834
1434409068.695,37.877785
1434409068.71,40.583694
1434409068.726,41.996914
1434409068.742,41.62168
1434409068.757,39.283024
1434409068.773,35.207787
1434409068.788,29.915165
1434409068.804,24.083035
1434409068.82,18.325668
1434409068.835,12.991039
1434409068.851,8.09774
1434409068.867,3.3594637
1434409068.882,-1.5928383
1434409068.898,-6.9747868
1434409068.914,-12.689769
1434409068.929,-18.345406
1434409068.945,-23.390837
1434409068.96,-27.364216
1434409068.976,-30.07114
1434409068.992,-31.602352
1434409069.007,-32.247818
1434409069.023,-32.330578
1434409069.039,-32.118725
1434409069.054,-31.748621
1434409069.07,-31.269289
1434409069.085,-30.66541
1434409069.101,-29.921684
1434409069.117,-29.03918
1434409069.132,-28.015312
1434409069.148,-26.893387
1434409069.164,-25.692745
1434409069.179,-24.437647
1434409069.195,-23.13563
1434409069.21,-21.80814
1434409069.226,-20.457489
1434409069.242,-19.100174
1434409069.257,-17.764044
1434409069.273,-16.457647
1434409069.289,-15.154062
1434409069.304,-13.830736
1434409069.32,-12.43753
1434409069.335,-10.949501
1434409069.351,-9.316391
1434409069.367,-7.517285
1434409069.382,-5.526056
1434409069.398,-3.368803
1434409069.414,-1.0787783
1434409069.429,1.2552595
1434409069.445,3.5222054
1434409069.46,5.6310577
1434409069.476,7.527439
1434409069.492,9.203474
1434409069.507,10.7480545
1434409069.523,12.3298855
1434409069.539,14.171284
1434409069.554,16.476555
1434409069.57,19.341316
1434409069.585,22.70306
1434409069.601,26.365341
1434409069.617,30.037792
1434409069.632,33.438538
1434409069.648,36.32042
1434409069.664,38.486122
1434409069.679,39.717514
1434409069.695,39.777756
1434409069.71,38.51422
1434409069.726,35.931633
1434409069.742,32.27574
1434409069.757,28.001545
1434409069.773,23.555908
1434409069.789,19.243053
1434409069.804,15.109158
1434409069.82,11.042397
1434409069.835,6.955097
1434409069.851,2.9056854
1434409069.867,-0.9125595
1434409069.882,-4.2801743
1434409069.898,-7.110462
1434409069.914,-9.473366
1434409069.929,-11.536308
1434409069.945,-13.438995
1434409069.96,-15.191574
1434409069.976,-16.645473
1434409069.992,-17.622326
1434409070.007,-18.000023
1434409070.023,-17.78051
1434409070.039,-17.073822
1434409070.054,-16.03387
1434409070.07,-14.83049
1434409070.085,-13.603756
1434409070.101,-12.482273
1434409070.117,-11.563808
1434409070.132,-10.891296
1434409070.148,-10.43082
1434409070.164,-10.037525
1434409070.179,-9.532448
1434409070.195,-8.761021
1434409070.21,-7.593895
1434409070.226,-6.01075
1434409070.242,-4.1087723
1434409070.257,-2.0648308
1434409070.273,-0.10081482
1434409070.289,1.6066551
1434409070.304,3.0021553
1434409070.32,4.189522
1434409070.335,5.379387
1434409070.351,6.816723
1434409070.367,8.655502
1434409070.382,10.900841
1434409070.398,13.415516
1434409070.414,15.970856
1434409070.429,18.340862
1434409070.445,20.382534
1434409070.46,22.040401
1434409070.476,23.415855
1434409070.492,24.714031
1434409070.507,26.213978
1434409070.523,28.14943
1434409070.539,30.598328
1434409070.554,33.363026
1434409070.57,35.9118
1434409070.585,37.548206
1434409070.601,37.633984
1434409070.617,35.844677
1434409070.632,32.288254
1434409070.648,27.477455
1434409070.664,22.092613
1434409070.679,16.691368
1434409070.695,11.583714
1434409070.71,6.7745895
1434409070.726,2.128128
1434409070.742,-2.524067
1434409070.757,-7.2200394
1434409070.773,-11.817265
1434409070.789,-16.057411
1434409070.804,-19.672752
1434409070.82,-22.478443
1434409070.835,-24.406738
1434409070.851,-25.531887
1434409070.867,-26.00196
1434409070.882,-25.982567
1434409070.898,-25.6385
1434409070.914,-25.12371
1434409070.929,-24.619793
1434409070.945,-24.267044
1434409070.96,-24.177532
1434409070.976,-24.3537
1434409070.992,-24.709652
1434409071.007,-25.044758
1434409071.023,-25.144382
1434409071.039,-24.811785
1434409071.054,-23.9367
1434409071.07,-22.50824
1434409071.085,-20.640572
1434409071.101,-18.497578
1434409071.117,-16.272152
1434409071.132,-14.1409855
1434409071.148,-12.192087
1434409071.164,-10.419764
1434409071.179,-8.765144
1434409071.195,-7.1423054
1434409071.21,-5.500042
1434409071.226,-3.8104305
1434409071.242,-2.047495
1434409071.257,-0.15145302
1434409071.273,1.9371243
1434409071.289,4.255949
1434409071.304,6.7467384
1434409071.32,9.287428
1434409071.335,11.772074
1434409071.351,14.178429
1434409071.367,16.549698
1434409071.382,18.973303
1434409071.398,21.51398
1434409071.414,24.200127
1434409071.429,27.027458
1434409071.445,30.02331
1434409071.46,33.16602
1434409071.476,36.312572
1434409071.492,39.097626
1434409071.507,41.002617
1434409071.523,41.50608
1434409071.539,40.318497
1434409071.554,37.477432
1434409071.57,33.383064
1434409071.586,28.567036
1434409071.601,23.519571
1434409071.617,18.530552
1434409071.632,13.675898
1434409071.648,8.862965
1434409071.664,3.9699593
1434409071.679,-1.0904636
1434409071.695,-6.31341
1434409071.711,-11.551317
1434409071.726,-16.512352
1434409071.742,-20.8309
1434409071.757,-24.156422
1434409071.773,-26.275402
1434409071.789,-27.220337
1434409071.804,-27.273594
1434409071.82,-26.82815
1434409071.836,-26.292143
1434409071.851,-25.923422
1434409071.867,-25.808542
1434409071.882,-25.899267
1434409071.898,-26.035175
1434409071.914,-26.049105
1434409071.929,-25.858156
1434409071.945,-25.459658
1434409071.961,-24.904873
1434409071.976,-24.271627
1434409071.992,-23.589657
1434409072.007,-22.813536
1434409072.023,-21.869955
1434409072.039,-20.678799
1434409072.054,-19.234598
1434409072.07,-17.595642
1434409072.086,-15.831047
1434409072.101,-13.971714
1434409072.117,-12.010675
1434409072.132,-9.932617
1434409072.148,-7.75836
1434409072.164,-5.5779743
1434409072.179,-3.499277
1434409072.195,-1.5627403
1434409072.211,0.2824669
1434409072.226,2.179987
1434409072.242,4.305111
1434409072.257,6.7625103
1434409072.273,9.597366
1434409072.289,12.740555
1434409072.304,16.056496
1434409072.32,19.360888
1434409072.336,22.467054
1434409072.351,25.267153
1434409072.367,27.787504
1434409072.382,30.221725
1434409072.398,32.826622
1434409072.414,35.804756
1434409072.429,39.06692
1434409072.445,42.19785
1434409072.461,44.55143
1434409072.476,45.471924
1434409072.492,44.517967
1434409072.507,41.62668
1434409072.523,37.084152
1434409072.539,31.445059
1434409072.554,25.312826
1434409072.57,19.216436
1434409072.586,13.468359
1434409072.601,8.141857
1434409072.617,3.115118
1434409072.632,-1.8397217
1434409072.648,-6.880638
1434409072.664,-11.986767
1434409072.679,-16.964285
1434409072.695,-21.485624
1434409072.711,-25.264084
1434409072.726,-28.157133
1434409072.742,-30.213097
1434409072.757,-31.566261
1434409072.773,-32.385033
1434409072.789,-32.749886
1434409072.804,-32.679462
1434409072.82,-32.170887
1434409072.836,-31.254704
1434409072.851,-30.035332
1434409072.867,-28.718334
1434409072.882,-27.534126
1434409072.898,-26.681232
1434409072.914,-26.195919
1434409072.929,-25.920876
1434409072.945,-25.53154
1434409072.961,-24.730976
1434409072.976,-23.33828
1434409072.992,-21.465229
1434409073.007,-19.382708
1434409073.023,-17.384014
1434409073.039,-15.602953
1434409073.054,-13.995974
1434409073.07,-12.379397
1434409073.086,-10.550602
1434409073.101,-8.377492
1434409073.117,-5.846902
1434409073.132,-3.0583248
1434409073.148,-0.22653008
1434409073.164,2.4095688
1434409073.179,4.625904
1434409073.195,6.3049507
1434409073.211,7.574688
1434409073.226,8.74766
1434409073.242,10.179792
1434409073.257,12.101231
1434409073.273,14.473806
1434409073.289,17.043945
1434409073.304,19.515085
1434409073.32,21.764053
1434409073.336,23.890554
1434409073.351,26.171694
1434409073.367,28.842379
1434409073.382,31.954248
1434409073.398,35.316036
1434409073.414,38.53147
1434409073.429,41.048553
1434409073.445,42.283916
1434409073.461,41.701515
1434409073.476,39.01969
1434409073.492,34.32546
1434409073.507,28.143154
1434409073.523,21.333199
1434409073.539,14.794228
1434409073.554,9.147911
1434409073.57,4.539686
1434409073.586,0.7096691
1434409073.601,-2.812399
1434409073.617,-6.411955
1434409073.632,-10.237047
1434409073.648,-14.192152
1434409073.664,-18.03991
1434409073.679,-21.540953
1434409073.695,-24.517233
1434409073.711,-26.923681
1434409073.726,-28.770182
1434409073.742,-30.1188
1434409073.757,-30.992428
1434409073.773,-31.341246
1434409073.789,-31.088417
1434409073.804,-30.23921
1434409073.82,-28.946903
1434409073.836,-27.555437
1434409073.851,-26.48874
1434409073.867,-26.038378
1434409073.882,-26.206324
1434409073.898,-26.667032
1434409073.914,-26.93309
1434409073.929,-26.621212
1434409073.945,-25.639679
1434409073.961,-24.177177
1434409073.976,-22.561176
1434409073.992,-21.04057
1434409074.007,-19.67757
1434409074.023,-18.344238
1434409074.039,-16.878048
1434409074.054,-15.168854
1434409074.07,-13.203407
1434409074.086,-11.062855
1434409074.101,-8.880749
1434409074.117,-6.796673
1434409074.132,-4.8991203
1434409074.148,-3.1293907
1434409074.164,-1.291729
1434409074.179,0.85702896
1434409074.195,3.5061493
1434409074.211,6.6303177
1434409074.226,9.974979
1434409074.242,13.15406
1434409074.258,15.851662
1434409074.273,17.987053
1434409074.289,19.747875
1434409074.304,21.493153
1434409074.32,23.569317
1434409074.336,26.240276
1434409074.351,29.59153
1434409074.367,33.537514
1434409074.383,37.806305
1434409074.398,41.956184
1434409074.414,45.33764
1434409074.429,47.22419
1434409074.445,47.008698
1434409074.461,44.42337
1434409074.476,39.68818
1434409074.492,33.45659
1434409074.508,26.590202
1434409074.523,19.938942
1434409074.539,14.054153
1434409074.554,9.113617
1434409074.57,4.9596634
1434409074.586,1.2818451
1434409074.601,-2.2355652
1434409074.617,-5.7497787
1434409074.633,-9.209183
1434409074.648,-12.432114
1434409074.664,-15.172615
1434409074.679,-17.250893
1434409074.695,-18.577286
1434409074.711,-19.141647
1434409074.726,-18.997467
1434409074.742,-18.286758
1434409074.758,-17.22673
1434409074.773,-16.122253
1434409074.789,-15.295677
1434409074.804,-14.960976
1434409074.82,-15.125916
1434409074.836,-15.6022415
1434409074.851,-16.034286
1434409074.867,-16.081978
1434409074.883,-15.518433
1434409074.898,-14.266129
1434409074.914,-12.394516
1434409074.929,-10.0774
1434409074.945,-7.5607986
1434409074.961,-5.1114655
1434409074.976,-2.9816437
1434409074.992,-1.3217239
1434409075.008,-0.10434723
1434409075.023,0.81915283
1434409075.039,1.733963
1434409075.054,2.86232
1434409075.07,4.3174133
1434409075.086,6.1567535
1434409075.101,8.343597
1434409075.117,10.791512
1434409075.133,13.389687
1434409075.148,16.015198
1434409075.164,18.60096
1434409075.179,21.160416
1434409075.195,23.80056
1434409075.211,26.62767
1434409075.226,29.693161
1434409075.242,32.924095
1434409075.258,36.139046
1434409075.273,39.082024
1434409075.289,41.45936
1434409075.304,42.919304
1434409075.32,43.078156
1434409075.336,41.584976
1434409075.351,38.31375
1434409075.367,33.477448
1434409075.383,27.653114
1434409075.398,21.58693
1434409075.414,15.904495
1434409075.429,10.890778
1434409075.445,6.413391
1434409075.461,2.150879
1434409075.476,-2.1690063
1434409075.492,-6.569214
1434409075.508,-10.806046
1434409075.523,-14.56588
1434409075.539,-17.55967
1434409075.554,-19.706375
1434409075.57,-21.11496
1434409075.586,-22.001114
1434409075.601,-22.577919
1434409075.617,-22.990166
1434409075.633,-23.258118
1434409075.648,-23.322876
1434409075.664,-23.078808
1434409075.679,-22.474072
1434409075.695,-21.574581
1434409075.711,-20.490845
1434409075.726,-19.417824
1434409075.742,-18.469536
1434409075.758,-17.639713
1434409075.773,-16.824669
1434409075.789,-15.848843
1434409075.804,-14.578602
1434409075.82,-12.918587
1434409075.836,-10.858376
1434409075.851,-8.443188
1434409075.867,-5.8273163
1434409075.883,-3.2397537
1434409075.898,-0.9312668
1434409075.914,0.87456894
1434409075.929,2.1007652
1434409075.945,2.875389
1434409075.961,3.4808388
1434409075.976,4.236614
1434409075.992,5.38995
1434409076.008,7.030075
1434409076.023,9.091846
1434409076.039,11.470531
1434409076.054,14.072559
1434409076.07,16.897003
1434409076.086,20.021381
1434409076.101,23.53965
1434409076.117,27.499832
1434409076.133,31.820972
1434409076.148,36.193993
1434409076.164,40.09906
1434409076.179,42.85336
1434409076.195,43.78085
1434409076.211,42.541893
1434409076.226,39.208603
1434409076.242,34.267467
1434409076.258,28.398266
1434409076.273,22.24504
1434409076.289,16.205961
1434409076.304,10.413298
1434409076.32,4.8588467
1434409076.336,-0.5184498
1434409076.351,-5.7197514
1434409076.367,-10.728882
1434409076.383,-15.506365
1434409076.398,-19.970201
1434409076.414,-23.984823
1434409076.429,-27.367867
1434409076.445,-29.977638
1434409076.461,-31.766792
1434409076.476,-32.85792
1434409076.492,-33.486885
1434409076.508,-33.865185
1434409076.523,-34.128136
1434409076.539,-34.260456
1434409076.554,-34.20515
1434409076.57,-33.91774
1434409076.586,-33.36138
1434409076.601,-32.526165
1434409076.617,-31.410492
1434409076.633,-30.013622
1434409076.648,-28.404009
1434409076.664,-26.709253
1434409076.679,-25.064863
1434409076.695,-23.561346
1434409076.711,-22.161983
1434409076.726,-20.734024
1434409076.742,-19.116735
1434409076.758,-17.249989
1434409076.773,-15.179832
1434409076.789,-13.027853
1434409076.804,-10.946177
1434409076.82,-8.994652
1434409076.836,-7.148953
1434409076.851,-5.3030305
1434409076.867,-3.3330975
1434409076.883,-1.1207123
1434409076.898,1.3527622
1434409076.914,4.047401
1434409076.93,6.844578
1434409076.945,9.627989
1434409076.961,12.332542
1434409076.976,14.997623
1434409076.992,17.700754
1434409077.008,20.51787
1434409077.023,23.500204
1434409077.039,26.663813
1434409077.054,30.041481
1434409077.07,33.668198
1434409077.086,37.49016
1434409077.101,41.222973
1434409077.117,44.30165
1434409077.133,46.01911
1434409077.148,45.78815
1434409077.164,43.3992
1434409077.18,39.106632
1434409077.195,33.53548
1434409077.211,27.419712
1434409077.226,21.30589
1434409077.242,15.46816
1434409077.258,9.9363165
1434409077.273,4.599803
1434409077.289,-0.6499376
1434409077.305,-5.8793
1434409077.32,-11.077475
1434409077.336,-16.102474
1434409077.351,-20.726465
1434409077.367,-24.677372
1434409077.383,-27.727196
1434409077.398,-29.825314
1434409077.414,-31.091305
1434409077.43,-31.790855
1434409077.445,-32.177982
1434409077.461,-32.489285
1434409077.476,-32.802414
1434409077.492,-33.17184
1434409077.508,-33.61495
1434409077.523,-34.05081
1434409077.539,-34.330627
1434409077.555,-34.249855
1434409077.57,-33.616135
1434409077.586,-32.275253
1434409077.601,-30.199203
1434409077.617,-27.501047
1434409077.633,-24.396431
1434409077.648,-21.2317
1434409077.664,-18.358273
1434409077.68,-16.088348
1434409077.695,-14.514416
1434409077.711,-13.420027
1434409077.726,-12.360985
1434409077.742,-10.884763
1434409077.758,-8.734996
1434409077.773,-6.0371246
1434409077.789,-3.1894617
1434409077.805,-0.62279797
1434409077.82,1.4222603
1434409077.836,3.0444803
1434409077.851,4.5905647
1434409077.867,6.419818
1434409077.883,8.743732
1434409077.898,11.486748
1434409077.914,14.39496
1434409077.93,17.10658
1434409077.945,19.355635
1434409077.961,21.03312
1434409077.976,22.304602
1434409077.992,23.520184
1434409078.008,25.128988
1434409078.023,27.47574
1434409078.039,30.678812
1434409078.055,34.518433
1434409078.07,38.48588
1434409078.086,41.981358
1434409078.101,44.41033
1434409078.117,45.275127
1434409078.133,44.2294
1434409078.148,41.127453
1434409078.164,36.103397
1434409078.18,29.58969
1434409078.195,22.301476
1434409078.211,15.0258255
1434409078.226,8.411835
1434409078.242,2.7523172
1434409078.258,-2.0045924
1434409078.273,-6.1210947
1434409078.289,-9.865797
1434409078.305,-13.376027
1434409078.32,-16.669355
1434409078.336,-19.690279
1434409078.351,-22.392324
1434409078.367,-24.78236
1434409078.383,-26.821241
1434409078.398,-28.44671
1434409078.414,-29.575377
1434409078.43,-30.189342
1434409078.445,-30.34234
1434409078.461,-30.121403
1434409078.476,-29.604256
1434409078.492,-28.833817
1434409078.508,-27.847757
1434409078.523,-26.740599
1434409078.539,-25.655458
1434409078.555,-24.735231
1434409078.57,-24.036474
1434409078.586,-23.510843
1434409078.601,-22.995966
1434409078.617,-22.323315
1434409078.633,-21.407887
1434409078.648,-20.242252
1434409078.664,-18.848583
1434409078.68,-17.263622
1434409078.695,-15.523867
1434409078.711,-13.656848
1434409078.726,-11.737539
1434409078.742,-9.875884
1434409078.758,-8.158413
1434409078.773,-6.6095505
1434409078.789,-5.1543255
1434409078.805,-3.6589212
1434409078.82,-1.9540157
1434409078.836,0.12823868
1434409078.851,2.7332535
1434409078.867,5.8642845
1434409078.883,9.368303
1434409078.898,12.94005
1434409078.914,16.216007
1434409078.93,18.880056
1434409078.945,20.850128
1434409078.961,22.24538
1434409078.976,23.347593
1434409078.992,24.479963
1434409079.008,25.927011
1434409079.023,27.911112
1434409079.039,30.53107
1434409079.055,33.678295
1434409079.07,36.96925
1434409079.086,39.696316
1434409079.101,41.01774
1434409079.117,40.21165
1434409079.133,36.99335
1434409079.148,31.627075
1434409079.164,24.904057
1434409079.18,17.79216
1434409079.195,11.098709
1434409079.211,5.270298
1434409079.226,0.37869263
1434409079.242,-3.7663422
1434409079.258,-7.403393
1434409079.273,-10.701595
1434409079.289,-13.711792
1434409079.305,-16.413395
1434409079.32,-18.743172
1434409079.336,-20.708187
1434409079.351,-22.330814
1434409079.367,-23.651512
1434409079.383,-24.682938
1434409079.398,-25.347107
1434409079.414,-25.520817
1434409079.43,-25.149899
1434409079.445,-24.31794
1434409079.461,-23.276432
1434409079.476,-22.352314
1434409079.492,-21.81709
1434409079.508,-21.72892
1434409079.523,-21.96421
1434409079.539,-22.231579
1434409079.555,-22.252163
1434409079.57,-21.802418
1434409079.586,-20.797577
1434409079.601,-19.246826
1434409079.617,-17.277225
1434409079.633,-15.0914345
1434409079.648,-12.919891
1434409079.664,-10.971252
1434409079.68,-9.3476715
1434409079.695,-7.9753036
1434409079.711,-6.720619
1434409079.726,-5.457897
1434409079.742,-4.147171
1434409079.758,-2.802658
1434409079.773,-1.4202805
1434409079.789,0.13961792
1434409079.805,2.0531769
1434409079.82,4.456009
1434409079.836,7.2684402
1434409079.852,10.202858
1434409079.867,12.888145
1434409079.883,15.060707
1434409079.898,16.736824
1434409079.914,18.155876
1434409079.93,19.640701
1434409079.945,21.386703
1434409079.961,23.377426
1434409079.977,25.46151
1434409079.992,27.482483
1434409080.008,29.43592
1434409080.023,31.457573
1434409080.039,33.681717
1434409080.055,36.026276
1434409080.07,38.106865
1434409080.086,39.21659
1434409080.102,38.638664
1434409080.117,35.919724
1434409080.133,31.124763
1434409080.148,24.930222
1434409080.164,18.347404
1434409080.18,12.329033
1434409080.195,7.43029
1434409080.211,3.663704
1434409080.227,0.60085297
1434409080.242,-2.2780304
1434409080.258,-5.290169
1434409080.273,-8.450348
1434409080.289,-11.483788
1434409080.305,-14.069374
1434409080.32,-15.949867
1434409080.336,-17.035294
1434409080.352,-17.358826
1434409080.367,-17.080154
1434409080.383,-16.439232
1434409080.398,-15.678658
1434409080.414,-15.041595
1434409080.43,-14.677971
1434409080.445,-14.626976
1434409080.461,-14.8218
1434409080.477,-15.170082
1434409080.492,-15.5815735
1434409080.508,-15.96183
1434409080.523,-16.125763
1434409080.539,-15.818581
1434409080.555,-14.823128
1434409080.57,-13.084557
1434409080.586,-10.795151
1434409080.602,-8.384811
1434409080.617,-6.309532
1434409080.633,-4.8362885
1434409080.648,-3.9647217
1434409080.664,-3.4237595
1434409080.68,-2.8634949
1434409080.695,-1.9774933
1434409080.711,-0.55226135
1434409080.727,1.5093994
1434409080.742,4.1640167
1434409080.758,7.21994
1434409080.773,10.324722
1434409080.789,13.0467
1434409080.805,15.064796
1434409080.82,16.33496
1434409080.836,17.070724
1434409080.852,17.722473
1434409080.867,18.698235
1434409080.883,20.215126
1434409080.898,22.336815
1434409080.914,25.02472
1434409080.93,28.165764
1434409080.945,31.568146
1434409080.961,34.8556
1434409080.977,37.43299
1434409080.992,38.613358
1434409081.008,37.86226
1434409081.023,35.004234
1434409081.039,30.36
1434409081.055,24.593597
1434409081.07,18.508057
1434409081.086,12.839394
1434409081.102,8.06189
1434409081.117,4.2956085
1434409081.133,1.3995667
1434409081.148,-0.95526886
1434409081.164,-3.1441193
1434409081.18,-5.4374847
1434409081.195,-7.8881836
1434409081.211,-10.367577
1434409081.227,-12.625015
1434409081.242,-14.473686
1434409081.258,-15.840523
1434409081.273,-16.761398
1434409081.289,-17.330345
1434409081.305,-17.626656
1434409081.32,-17.669312
1434409081.336,-17.458275
1434409081.352,-16.99665
1434409081.367,-16.331825
1434409081.383,-15.556259
1434409081.398,-14.792679
1434409081.414,-14.141182
1434409081.43,-13.661118
1434409081.445,-13.285179
1434409081.461,-12.811974
1434409081.477,-11.989082
1434409081.492,-10.625984
1434409081.508,-8.687477
1434409081.523,-6.3080444
1434409081.539,-3.7303848
1434409081.555,-1.1825256
1434409081.57,1.1938019
1434409081.586,3.3616486
1434409081.602,5.3860397
1434409081.617,7.321007
1434409081.633,9.220543
1434409081.648,11.14566
1434409081.664,13.140236
1434409081.68,15.189827
1434409081.695,17.20578
1434409081.711,19.10492
1434409081.727,20.915947
1434409081.742,22.86602
1434409081.758,25.351883
1434409081.773,28.70237
1434409081.789,33.005417
1434409081.805,37.846527
1434409081.82,42.43831
1434409081.836,45.88064
1434409081.852,47.41254
1434409081.867,46.627754
1434409081.883,43.556282
1434409081.898,38.609825
1434409081.914,32.519154
1434409081.93,26.107758
1434409081.945,20.083923
1434409081.961,14.797199
1434409081.977,10.185196
1434409081.992,5.8020744
1434409082.008,1.112812
1434409082.023,-4.1719627
1434409082.039,-9.937592
1434409082.055,-15.687828
1434409082.07,-20.835838
1434409082.086,-24.93856
1434409082.102,-27.87656
1434409082.117,-29.805431
1434409082.133,-30.986036
1434409082.148,-31.66246
1434409082.164,-31.991316
1434409082.18,-32.072758
1434409082.195,-31.96006
1434409082.211,-31.648788
1434409082.227,-31.106815
1434409082.242,-30.299803
1434409082.258,-29.285465
1434409082.273,-28.24441
1434409082.289,-27.356997
1434409082.305,-26.736223
1434409082.32,-26.30997
1434409082.336,-25.825779
1434409082.352,-24.970995
1434409082.367,-23.543112
1434409082.383,-21.473877
1434409082.398,-18.847477
1434409082.414,-15.8051405
1434409082.43,-12.515514
1434409082.445,-9.170544
1434409082.461,-5.998087
1434409082.477,-3.186239
1434409082.492,-0.82927656
1434409082.508,1.1671543
1434409082.524,3.035945
1434409082.539,5.0517554
1434409082.555,7.3429174
1434409082.57,9.845308
1434409082.586,12.435968
1434409082.602,15.031429
1434409082.617,17.700808
1434409082.633,20.666561
1434409082.649,24.148445
1434409082.664,28.235703
1434409082.68,32.783104
1434409082.695,37.42319
1434409082.711,41.61886
1434409082.727,44.781124
1434409082.742,46.33561
1434409082.758,45.836952
1434409082.774,43.13871
1434409082.789,38.42549
1434409082.805,32.237053
1434409082.82,25.322598
1434409082.836,18.402222
1434409082.852,12.003742
1434409082.867,6.343277
1434409082.883,1.3674641
1434409082.899,-3.1780758
1434409082.914,-7.567934
1434409082.93,-12.030315
1434409082.945,-16.617893
1434409082.961,-21.176807
1434409082.977,-25.397385
1434409082.992,-28.931583
1434409083.008,-31.537071
1434409083.024,-33.18733
1434409083.039,-34.06824
1434409083.055,-34.47958
1434409083.07,-34.662518
1434409083.086,-34.736507
1434409083.102,-34.651855
1434409083.117,-34.321194
1434409083.133,-33.671516
1434409083.149,-32.72565
1434409083.164,-31.56934
1434409083.18,-30.309887
1434409083.195,-29.044613
1434409083.211,-27.816238
1434409083.227,-26.619606
1434409083.242,-25.405434
1434409083.258,-24.075893
1434409083.274,-22.542557
1434409083.289,-20.724045
1434409083.305,-18.608814
1434409083.32,-16.222912
1434409083.336,-13.600796
1434409083.352,-10.786575
1434409083.367,-7.848484
1434409083.383,-4.8725624
1434409083.399,-1.9785194
1434409083.414,0.75790405
1434409083.43,3.3268585
1434409083.445,5.8015556
1434409083.461,8.272251
1434409083.477,10.801994
1434409083.492,13.340149
1434409083.508,15.787792
1434409083.524,18.116882
1434409083.539,20.431107
1434409083.555,22.918674
1434409083.57,25.803234
1434409083.586,29.224075
1434409083.602,33.169674
1434409083.617,37.4648
1434409083.633,41.78515
1434409083.649,45.610046
1434409083.664,48.272102
1434409083.68,49.06082
1434409083.695,47.44777
1434409083.711,43.385147
1434409083.727,37.37018
1434409083.742,30.286034
1434409083.758,23.10363
1434409083.774,16.497551
1434409083.789,10.69944
1434409083.805,5.541176
1434409083.82,0.70144653
1434409083.836,-4.119835
1434409083.852,-9.08168
1434409083.867,-14.193672
1434409083.883,-19.34578
1434409083.899,-24.287514
1434409083.914,-28.663406
1434409083.93,-32.110992
1434409083.945,-34.377533
1434409083.961,-35.48693
1434409083.977,-35.71601
1434409083.992,-35.506187
1434409084.008,-35.24369
1434409084.024,-35.11537
1434409084.039,-35.05636
1434409084.055,-34.90779
1434409084.07,-34.534508
1434409084.086,-33.896004
1434409084.102,-33.043762
1434409084.117,-32.05925
1434409084.133,-30.973083
1434409084.149,-29.764534
1434409084.164,-28.377121
1434409084.18,-26.767372
1434409084.195,-24.925781
1434409084.211,-22.891632
1434409084.227,-20.743355
1434409084.242,-18.603592
1434409084.258,-16.560646
1434409084.274,-14.606262
1434409084.289,-12.65625
1434409084.305,-10.599434
1434409084.32,-8.356094
1434409084.336,-5.9501495
1434409084.352,-3.500473
1434409084.367,-1.1183624
1434409084.383,1.1643829
1434409084.399,3.370697
1434409084.414,5.6323166
1434409084.43,8.008858
1434409084.445,10.492767
1434409084.461,13.013939
1434409084.477,15.471558
1434409084.492,17.786491
1434409084.508,19.979065
1434409084.524,22.21521
1434409084.539,24.777344
1434409084.555,27.99144
1434409084.57,32.007042
1434409084.586,36.572968
1434409084.602,40.996155
1434409084.617,44.19493
1434409084.633,45.134064
1434409084.649,43.214916
1434409084.664,38.588493
1434409084.68,32.064064
1434409084.695,24.782185
1434409084.711,17.737728
1434409084.727,11.459541
1434409084.742,5.960781
1434409084.758,0.97467804
1434409084.774,-3.7552109
1434409084.789,-8.291752
1434409084.805,-12.529087
1434409084.82,-16.32082
1434409084.836,-19.57719
1434409084.852,-22.330769
1434409084.867,-24.667652
1434409084.883,-26.639503
1434409084.899,-28.276989
1434409084.914,-29.496838
1434409084.93,-30.24762
1434409084.945,-30.520252
1434409084.961,-30.416183
1434409084.977,-30.084908
1434409084.992,-29.700134
1434409085.008,-29.34761
1434409085.024,-29.006142
1434409085.039,-28.569023
1434409085.055,-27.902203
1434409085.07,-26.946175
1434409085.086,-25.722904
1434409085.102,-24.333435
1434409085.117,-22.895584
1434409085.133,-21.524395
1434409085.149,-20.313446
1434409085.164,-19.288654
1434409085.18,-18.428574
1434409085.196,-17.600067
1434409085.211,-16.581192
1434409085.227,-15.106621
1434409085.242,-13.049679
1434409085.258,-10.506004
1434409085.274,-7.787794
1434409085.289,-5.284693
1434409085.305,-3.2715168
1434409085.321,-1.7431602
1434409085.336,-0.4295578
1434409085.352,1.058464
1434409085.367,3.008686
1434409085.383,5.5029755
1434409085.399,8.393888
1434409085.414,11.415331
1434409085.43,14.2992735
1434409085.446,16.875446
1434409085.461,19.074642
1434409085.477,20.971832
1434409085.492,22.779469
1434409085.508,24.861336
1434409085.524,27.602114
1434409085.539,31.245855
1434409085.555,35.641075
1434409085.571,40.14301
1434409085.586,43.735
1434409085.602,45.347404
1434409085.617,44.300446
1434409085.633,40.569485
1434409085.649,34.801163
1434409085.664,28.061981
1434409085.68,21.392614
1434409085.696,15.462036
1434409085.711,10.420787
1434409085.727,6.0398655
1434409085.742,1.981575
1434409085.758,-1.9371548
1434409085.774,-5.624378
1434409085.789,-8.813961
1434409085.805,-11.274393
1434409085.821,-12.971954
1434409085.836,-14.0704365
1434409085.852,-14.842207
1434409085.867,-15.493563
1434409085.883,-16.04187
1434409085.899,-16.387619
1434409085.914,-16.425287
1434409085.93,-16.161873
1434409085.946,-15.735008
1434409085.961,-15.329807
1434409085.977,-15.048355
1434409085.992,-14.87793
1434409086.008,-14.70396
1434409086.024,-14.417931
1434409086.039,-13.949913
1434409086.055,-13.313755
1434409086.071,-12.530533
1434409086.086,-11.6207695
1434409086.102,-10.555988
1434409086.117,-9.31884
1434409086.133,-7.9272423
1434409086.149,-6.443199
1434409086.164,-4.948883
1434409086.18,-3.492714
1434409086.196,-2.0756721
1434409086.211,-0.61354065
1434409086.227,1.014431
1434409086.242,2.9144173
1434409086.258,5.139511
1434409086.274,7.6445427
1434409086.289,10.304558
1434409086.305,12.934952
1434409086.321,15.405338
1434409086.336,17.74918
1434409086.352,20.144505
1434409086.367,22.830326
1434409086.383,25.968788
1434409086.399,29.528095
1434409086.414,33.26789
1434409086.43,36.78209
1434409086.446,39.628967
1434409086.461,41.341843
1434409086.477,41.530205
1434409086.492,39.913654
1434409086.508,36.458534
1434409086.524,31.45964
1434409086.539,25.562054
1434409086.555,19.55503
1434409086.571,14.136116
1434409086.586,9.647423
1434409086.602,6.008896
1434409086.617,2.837265
1434409086.633,-0.24850845
1434409086.649,-3.4346962
1434409086.664,-6.616253
1434409086.68,-9.540546
1434409086.696,-11.996853
1434409086.711,-13.891235
1434409086.727,-15.261326
1434409086.742,-16.2043
1434409086.758,-16.769073
1434409086.774,-16.996834
1434409086.789,-16.91114
1434409086.805,-16.588474
1434409086.821,-16.127483
1434409086.836,-15.627171
1434409086.852,-15.128666
1434409086.867,-14.609882
1434409086.883,-14.041813
1434409086.899,-13.359047
1434409086.914,-12.506363
1434409086.93,-11.428463
1434409086.946,-10.064739
1434409086.961,-8.390167
1434409086.977,-6.4511147
1434409086.992,-4.40271
1434409087.008,-2.4253883
1434409087.024,-0.708828
1434409087.039,0.7105179
1434409087.055,1.933258
1434409087.071,3.2021103
1434409087.086,4.821186
1434409087.102,7.030674
1434409087.117,9.875446
1434409087.133,13.146038
1434409087.149,16.454082
1434409087.164,19.358791
1434409087.18,21.561745
1434409087.196,23.051777
1434409087.211,24.100986
1434409087.227,25.19379
1434409087.242,26.793709
1434409087.258,29.193874
1434409087.274,32.349056
1434409087.289,35.85252
1434409087.305,38.98229
1434409087.321,40.9114
1434409087.336,40.959213
1434409087.352,38.800697
1434409087.367,34.590054
1434409087.383,28.908936
1434409087.399,22.55199
1434409087.414,16.255993
1434409087.43,10.475693
1434409087.446,5.340477
1434409087.461,0.7784729
1434409087.477,-3.351574
1434409087.492,-7.169857
1434409087.508,-10.749065
1434409087.524,-14.134335
1434409087.539,-17.366785
1434409087.555,-20.43453
1434409087.571,-23.21509
1434409087.586,-25.549162
1434409087.602,-27.275171
1434409087.617,-28.353792
1434409087.633,-28.871372
1434409087.649,-28.95758
1434409087.664,-28.721642
1434409087.68,-28.206022
1434409087.696,-27.428596
1434409087.711,-26.446966
1434409087.727,-25.388977
1434409087.742,-24.40575
1434409087.758,-23.581203
1434409087.774,-22.868382
1434409087.789,-22.110676
1434409087.805,-21.149504
1434409087.821,-19.89437
1434409087.836,-18.314537
1434409087.852,-16.420124
1434409087.868,-14.25159
1434409087.883,-11.8659115
1434409087.899,-9.409043
1434409087.914,-7.0546637
1434409087.93,-4.981758
1434409087.946,-3.2185307
1434409087.961,-1.6231623
1434409087.977,0.08029175
1434409087.992,2.123445
1434409088.008,4.538149
1434409088.024,7.158229
1434409088.039,9.701553
1434409088.055,11.946777
1434409088.071,13.881737
1434409088.086,15.669661
1434409088.102,17.596775
1434409088.118,19.901741
1434409088.133,22.722193
1434409088.149,26.052181
1434409088.164,29.728798
1434409088.18,33.43802
1434409088.196,36.68317
1434409088.211,38.89892
1434409088.227,39.52649
1434409088.243,38.20837
1434409088.258,34.922577
1434409088.274,30.035326
1434409088.289,24.17555
1434409088.305,18.055115
1434409088.321,12.263698
1434409088.336,7.08666
1434409088.352,2.525877
1434409088.368,-1.6351652
1434409088.383,-5.6333094
1434409088.399,-9.618523
1434409088.414,-13.551029
1434409088.43,-17.27973
1434409088.446,-20.609531
1434409088.461,-23.396759
1434409088.477,-25.59302
1434409088.493,-27.222076
1434409088.508,-28.335255
1434409088.524,-29.010128
1434409088.539,-29.3241
1434409088.555,-29.37709
1434409088.571,-29.262392
1434409088.586,-29.029873
1434409088.602,-28.642849
1434409088.618,-28.050985
1434409088.633,-27.215034
1434409088.649,-26.17449
1434409088.664,-25.057745
1434409088.68,-24.002222
1434409088.696,-23.07064
1434409088.711,-22.21016
1434409088.727,-21.279278
1434409088.743,-20.14801
1434409088.758,-18.750597
1434409088.774,-17.043274
1434409088.789,-15.01557
1434409088.805,-12.657028
1434409088.821,-10.002371
1434409088.836,-7.1828403
1434409088.852,-4.4143677
1434409088.868,-1.934164
1434409088.883,0.14995956
1434409088.899,1.91148
1434409088.914,3.5897522
1434409088.93,5.446274
1434409088.946,7.607052
1434409088.961,10.033289
1434409088.977,12.527067
1434409088.993,14.861666
1434409089.008,16.921276
1434409089.024,18.740015
1434409089.039,20.518518
1434409089.055,22.540863
1434409089.071,25.053324
1434409089.086,28.14428
1434409089.102,31.683104
1434409089.118,35.22191
1434409089.133,38.07556
1434409089.149,39.500053
1434409089.164,38.918556
1434409089.18,36.153343
1434409089.196,31.468224
1434409089.211,25.509176
1434409089.227,19.055305
1434409089.243,12.772207
1434409089.258,7.035694
1434409089.274,1.9105511
1434409089.289,-2.7427158
1434409089.305,-7.133856
1434409089.321,-11.367353
1434409089.336,-15.389055
1434409089.352,-19.009907
1434409089.368,-22.049822
1434409089.383,-24.41398
1434409089.399,-26.158758
1434409089.414,-27.435495
1434409089.43,-28.392885
1434409089.446,-29.1259
1434409089.461,-29.671001
1434409089.477,-30.042631
1434409089.493,-30.27737
1434409089.508,-30.408333
1434409089.524,-30.380196
1434409089.539,-30.011204
1434409089.555,-29.101122
1434409089.571,-27.540325
1434409089.586,-25.432335
1434409089.602,-23.0876
1434409089.618,-20.89671
1434409089.633,-19.110573
1434409089.649,-17.80672
1434409089.664,-16.838303
1434409089.68,-16.006777
1434409089.696,-15.156738
1434409089.711,-14.170854
1434409089.727,-12.977828
1434409089.743,-11.5104685
1434409089.758,-9.731144
1434409089.774,-7.6865706
1434409089.789,-5.526514
1434409089.805,-3.4295883
1434409089.821,-1.515691
1434409089.836,0.2037158
1434409089.852,1.8605919
1434409089.868,3.60801
1434409089.883,5.5780396
1434409089.899,7.8413014
1434409089.914,10.382973
1434409089.93,13.104553
1434409089.946,15.802039
1434409089.961,18.226492
1434409089.977,20.17414
1434409089.993,21.620426
1434409090.008,22.806969
1434409090.024,24.138624
1434409090.039,26.013367
1434409090.055,28.562323
1434409090.071,31.505806
1434409090.086,34.241364
1434409090.102,36.045616
1434409090.118,36.316093
1434409090.133,34.776413
1434409090.149,31.492691
1434409090.164,26.846027
1434409090.18,21.375559
1434409090.196,15.65074
1434409090.211,10.118614
1434409090.227,5.0442066
1434409090.243,0.45329475
1434409090.258,-3.7530231
1434409090.274,-7.666977
1434409090.289,-11.305265
1434409090.305,-14.570868
1434409090.321,-17.309608
1434409090.336,-19.437643
1434409090.352,-20.97815
1434409090.368,-22.030115
1434409090.383,-22.731604
1434409090.399,-23.19315
1434409090.414,-23.47208
1434409090.43,-23.603367
1434409090.446,-23.599632
1434409090.461,-23.434261
1434409090.477,-23.07388
1434409090.493,-22.48175
1434409090.508,-21.65131
1434409090.524,-20.634602
1434409090.539,-19.530766
1434409090.555,-18.424442
1434409090.571,-17.34422
1434409090.586,-16.274559
1434409090.602,-15.147064
1434409090.618,-13.907459
1434409090.633,-12.530163
1434409090.649,-10.967236
1434409090.664,-9.1633415
1434409090.68,-7.0856133
1434409090.696,-4.7695885
1434409090.711,-2.3456688
1434409090.727,-0.020915985
1434409090.743,2.0236435
1434409090.758,3.736992
1434409090.774,5.215584
1434409090.79,6.682823
1434409090.805,8.3370285
1434409090.821,10.281288
1434409090.836,12.530697
1434409090.852,15.00227
1434409090.868,17.554508
1434409090.883,20.048927
1434409090.899,22.340286
1434409090.915,24.361816
1434409090.93,26.135155
1434409090.946,27.809975
1434409090.961,29.583221
1434409090.977,31.61203
1434409090.993,33.81356
1434409091.008,35.830093
1434409091.024,37.105957
1434409091.04,37.06597
1434409091.055,35.34498
1434409091.071,31.96872
1434409091.086,27.337463
1434409091.102,22.080223
1434409091.118,16.8237
1434409091.133,12.000755
1434409091.149,7.7307205
1434409091.165,3.9124298
1434409091.18,0.33176422
1434409091.196,-3.1359024
1434409091.211,-6.435898
1434409091.227,-9.342979
1434409091.243,-11.627304
1434409091.258,-13.135895
1434409091.274,-13.914001
1434409091.29,-14.140373
1434409091.305,-14.028442
1434409091.321,-13.758766
1434409091.336,-13.440788
1434409091.352,-13.115173
1434409091.368,-12.835533
1434409091.383,-12.638893
1434409091.399,-12.531868
1434409091.415,-12.448265
1434409091.43,-12.28463
1434409091.446,-11.953125
1434409091.461,-11.422211
1434409091.477,-10.718979
1434409091.493,-9.892334
1434409091.508,-8.949753
1434409091.524,-7.8915405
1434409091.54,-6.684555
1434409091.555,-5.3693085
1434409091.571,-4.0201263
1434409091.586,-2.6983566
1434409091.602,-1.4021988
1434409091.618,-0.07634735
1434409091.633,1.3774643
1434409091.649,3.0239944
1434409091.665,4.8619843
1434409091.68,6.831543
1434409091.696,8.859665
1434409091.711,10.844841
1434409091.727,12.708809
1434409091.743,14.382431
1434409091.758,15.878891
1434409091.774,17.33741
1434409091.79,18.988403
1434409091.805,21.071129
1434409091.821,23.718178
1434409091.836,26.840996
1434409091.852,30.224396
1434409091.868,33.5176
1434409091.883,36.39234
1434409091.899,38.502625
1434409091.915,39.504723
1434409091.93,39.047127
1434409091.946,36.86212
1434409091.961,32.90828
1434409091.977,27.488693
1434409091.993,21.188538
1434409092.008,14.753815
1434409092.024,8.790848
1434409092.04,3.6594772
1434409092.055,-0.6407547
1434409092.071,-4.329712
1434409092.086,-7.7158966
1434409092.102,-10.99762
1434409092.118,-14.25016
1434409092.133,-17.404541
1434409092.149,-20.273895
1434409092.165,-22.652866
1434409092.18,-24.41061
1434409092.196,-25.505657
1434409092.211,-26.000835
1434409092.227,-26.0443
1434409092.243,-25.778591
1434409092.258,-25.312424
1434409092.274,-24.73846
1434409092.29,-24.11142
1434409092.305,-23.514393
1434409092.321,-22.965836
1434409092.336,-22.431019
1434409092.352,-21.770359
1434409092.368,-20.841167
1434409092.383,-19.577644
1434409092.399,-18.03365
1434409092.415,-16.380505
1434409092.43,-14.797783
1434409092.446,-13.35561
1434409092.461,-12.074833
1434409092.477,-10.852379
1434409092.493,-9.642712
1434409092.508,-8.398178
1434409092.524,-7.086113
1434409092.54,-5.655777
1434409092.555,-4.069622
1434409092.571,-2.3176537
1434409092.586,-0.39941788
1434409092.602,1.6893234
1434409092.618,3.998211
1434409092.633,6.5536194
1434409092.649,9.272686
1434409092.665,11.920151
1434409092.68,14.120266
1434409092.696,15.57011
1434409092.711,16.263355
1434409092.727,16.5481
1434409092.743,17.006443
1434409092.758,18.163185
1434409092.774,20.233398
1434409092.79,23.076813
1434409092.805,26.286976
1434409092.821,29.429207
1434409092.836,32.12452
1434409092.852,34.038914
1434409092.868,34.787582
1434409092.883,33.943775
1434409092.899,31.259697
1434409092.915,26.802666
1434409092.93,21.04253
1434409092.946,14.748016
1434409092.961,8.65424
1434409092.977,3.3207512
1434409092.993,-1.0615807
1434409093.008,-4.5944977
1434409093.024,-7.555847
1434409093.04,-10.222137
1434409093.055,-12.804523
1434409093.071,-15.424194
1434409093.086,-18.030067
1434409093.102,-20.464855
1434409093.118,-22.493977
1434409093.133,-23.909512
1434409093.149,-24.597778
1434409093.165,-24.584974
1434409093.18,-24.023289
1434409093.196,-23.098755
1434409093.211,-22.013138
1434409093.227,-20.902105
1434409093.243,-19.893274
1434409093.258,-19.065273
1434409093.274,-18.457687
1434409093.29,-18.020224
1434409093.305,-17.667469
1434409093.321,-17.297039
1434409093.336,-16.816036
1434409093.352,-16.16765
1434409093.368,-15.351091
1434409093.383,-14.402815
1434409093.399,-13.43288
1434409093.415,-12.558813
1434409093.43,-11.876743
1434409093.446,-11.364485
1434409093.462,-10.882935
1434409093.477,-10.214685
1434409093.493,-9.218609
1434409093.508,-7.8544617
1434409093.524,-6.213129
1434409093.54,-4.4016647
1434409093.555,-2.4563007
1434409093.571,-0.3074894
1434409093.587,2.1008854
1434409093.602,4.775467
1434409093.618,7.5572777
1434409093.633,10.217123
1434409093.649,12.602196
1434409093.665,14.736834
1434409093.68,16.742569
1434409093.696,18.748693
1434409093.712,20.78454
1434409093.727,22.78571
1434409093.743,24.730856
1434409093.758,26.775557
1434409093.774,29.183275
1434409093.79,32.14055
1434409093.805,35.517876
1434409093.821,38.769844
1434409093.837,41.11227
1434409093.852,41.824528
1434409093.868,40.488037
1434409093.883,37.14798
1434409093.899,32.216812
1434409093.915,26.299677
1434409093.93,19.963104
1434409093.946,13.66181
1434409093.962,7.658518
1434409093.977,2.126789
1434409093.993,-2.8783073
1434409094.008,-7.3841686
1434409094.024,-11.43968
1434409094.04,-15.108433
1434409094.055,-18.41646
1434409094.071,-21.316408
1434409094.087,-23.719093
1434409094.102,-25.521383
1434409094.118,-26.684624
1434409094.133,-27.243963
1434409094.149,-27.36352
1434409094.165,-27.265074
1434409094.18,-27.169094
1434409094.196,-27.206022
1434409094.212,-27.32124
1434409094.227,-27.339485
1434409094.243,-27.087685
1434409094.258,-26.522135
1434409094.274,-25.760006
1434409094.29,-25.022715
1434409094.305,-24.466515
1434409094.321,-24.059704
1434409094.337,-23.62328
1434409094.352,-22.920498
1434409094.368,-21.81882
1434409094.383,-20.377676
1434409094.399,-18.751871
1434409094.415,-17.059637
1434409094.43,-15.327047
1434409094.446,-13.471254
1434409094.462,-11.43552
1434409094.477,-9.257965
1434409094.493,-7.1303997
1434409094.508,-5.2685757
1434409094.524,-3.8234882
1434409094.54,-2.7491817
1434409094.555,-1.8674145
1434409094.571,-0.9295387
1434409094.587,0.3523922
1434409094.602,2.1910706
1434409094.618,4.676071
1434409094.633,7.7335052
1434409094.649,11.14624
1434409094.665,14.565598
1434409094.68,17.668884
1434409094.696,20.283176
1434409094.712,22.46245
1434409094.727,24.483503
1434409094.743,26.666918
1434409094.758,29.250004
1434409094.774,32.285484
1434409094.79,35.54009
1434409094.805,38.50506
1434409094.821,40.48897
1434409094.837,40.7896
1434409094.852,38.905884
1434409094.868,34.75374
1434409094.883,28.748201
1434409094.899,21.692478
1434409094.915,14.538689
1434409094.93,8.0755005
1434409094.946,2.7147312
1434409094.962,-1.5151978
1434409094.977,-4.860197
1434409094.993,-7.6529045
1434409095.008,-10.1136875
1434409095.024,-12.359533
1434409095.04,-14.340134
1434409095.055,-15.978292
1434409095.071,-17.220716
1434409095.087,-18.101883
1434409095.102,-18.710573
1434409095.118,-19.193277
1434409095.133,-19.68978
1434409095.149,-20.204773
1434409095.165,-20.637825
1434409095.18,-20.792747
1434409095.196,-20.513271
1434409095.212,-19.788013
1434409095.227,-18.773083
1434409095.243,-17.731455
1434409095.258,-16.890837
1434409095.274,-16.350655
1434409095.29,-16.005276
1434409095.305,-15.629295
1434409095.321,-14.952251
1434409095.337,-13.778549
1434409095.352,-12.067467
1434409095.368,-9.994564
1434409095.383,-7.871567
1434409095.399,-6.0052757
1434409095.415,-4.590008
1434409095.43,-3.5730438
1434409095.446,-2.7050476
1434409095.462,-1.6811295
1434409095.477,-0.28520584
1434409095.493,1.4961281
1434409095.508,3.5287018
1434409095.524,5.6180725
1434409095.54,7.6581764
1434409095.555,9.639137
1434409095.571,11.634533
1434409095.587,13.70282
1434409095.602,15.908447
1434409095.618,18.31018
1434409095.633,21.003437
1434409095.649,24.047512
1434409095.665,27.352577
1434409095.68,30.56675
1434409095.696,33.07587
1434409095.712,34.236538
1434409095.727,33.597446
1434409095.743,31.075756
1434409095.758,27.027328
1434409095.774,22.073074
1434409095.79,16.905193
1434409095.805,12.062546
1434409095.821,7.837311
1434409095.837,4.2314568
1434409095.852,1.0743294
1434409095.868,-1.9275932
1434409095.883,-5.0066833
1434409095.899,-8.210903
1434409095.915,-11.373276
1434409095.93,-14.203926
1434409095.946,-16.438282
1434409095.962,-17.972878
1434409095.977,-18.912655
1434409095.993,-19.46331
1434409096.008,-19.774067
1434409096.024,-19.905392
1434409096.04,-19.788815
1434409096.055,-19.396698
1434409096.071,-18.79655
1434409096.087,-18.13353
1434409096.102,-17.517258
1434409096.118,-16.971348
1434409096.134,-16.392265
1434409096.149,-15.637428
1434409096.165,-14.602997
1434409096.18,-13.2597275
1434409096.196,-11.664898
1434409096.212,-9.950802
1434409096.227,-8.242378
1434409096.243,-6.688591
1434409096.259,-5.345295
1434409096.274,-4.123577
1434409096.29,-2.7649956
1434409096.305,-0.9542427
1434409096.321,1.4955025
1434409096.337,4.4645004
1434409096.352,7.541157
1434409096.368,10.1838455
1434409096.384,12.0304985
1434409096.399,13.091969
1434409096.415,13.773533
1434409096.43,14.618301
1434409096.446,16.03447
1434409096.462,18.15384
1434409096.477,20.790058
1434409096.493,23.597187
1434409096.509,26.218697
1434409096.524,28.319351
1434409096.54,29.58342
1434409096.555,29.670578
1434409096.571,28.316341
1434409096.587,25.392933
1434409096.602,21.10545
1434409096.618,15.932304
1434409096.634,10.559151
1434409096.649,5.687023
1434409096.665,1.7671471
1434409096.68,-1.1134605
1434409096.696,-3.2166252
1434409096.712,-5.014942
1434409096.727,-7.007782
1434409096.743,-9.496147
1434409096.759,-12.485149
1434409096.774,-15.743019
1434409096.79,-18.873112
1434409096.805,-21.485748
1434409096.821,-23.278812
1434409096.837,-24.088257
1434409096.852,-23.885036
1434409096.868,-22.812973
1434409096.884,-21.180878
1434409096.899,-19.409386
1434409096.915,-17.950497
1434409096.93,-17.107533
1434409096.946,-16.928886
1434409096.962,-17.224838
1434409096.977,-17.641575
1434409096.993,-17.836433
1434409097.009,-17.605488
1434409097.024,-16.87296
1434409097.04,-15.656269
1434409097.055,-14.053574
1434409097.071,-12.16489
1434409097.087,-10.168636
1434409097.102,-8.262024
1434409097.118,-6.6549644
1434409097.134,-5.48188
1434409097.149,-4.711891
1434409097.165,-4.112892
1434409097.18,-3.3605843
1434409097.196,-2.1911278
1434409097.212,-0.4785347
1434409097.227,1.6485596
1434409097.243,3.9130363
1434409097.259,6.0104523
1434409097.274,7.7869797
1434409097.29,9.297508
1434409097.305,10.800858
1434409097.321,12.626038
1434409097.337,14.967636
1434409097.352,17.825714
1434409097.368,20.916473
1434409097.384,23.808167
1434409097.399,26.063362
1434409097.415,27.324654
1434409097.43,27.350891
1434409097.446,26.029732
1434409097.462,23.390297
1434409097.477,19.620193
1434409097.493,15.131706
1434409097.509,10.488564
1434409097.524,6.2782593
1434409097.54,2.9474182
1434409097.555,0.6074829
1434409097.571,-0.94942474
1434409097.587,-2.147583
1434409097.602,-3.4152985
1434409097.618,-5.0070953
1434409097.634,-6.9398575
1434409097.649,-9.030991
1434409097.665,-10.994881
1434409097.68,-12.605606
1434409097.696,-13.716965
1434409097.712,-14.339989
1434409097.727,-14.591545
1434409097.743,-14.62825
1434409097.759,-14.578278
1434409097.774,-14.429077
1434409097.79,-14.07663
1434409097.805,-13.398155
1434409097.821,-12.376724
1434409097.837,-11.159302
1434409097.852,-9.974594
1434409097.868,-9.025307
1434409097.884,-8.335678
1434409097.899,-7.756073
1434409097.915,-7.0513306
1434409097.93,-6.1150436
1434409097.946,-5.014702
1434409097.962,-3.9365616
1434409097.977,-3.0483093
1434409097.993,-2.3818893
1434409098.009,-1.8025589
1434409098.024,-1.1266785
1434409098.04,-0.1895752
1434409098.055,1.0320892
1434409098.071,2.4719086
1434409098.087,4.003708
1434409098.102,5.524193
1434409098.118,6.9463577
1434409098.134,8.202202
1434409098.149,9.272949
1434409098.165,10.216591
1434409098.18,11.145927
1434409098.196,12.263344
1434409098.212,13.748688
1434409098.227,15.665688
1434409098.243,17.922058
1434409098.259,20.237312
1434409098.274,22.189095
1434409098.29,23.353912
1434409098.305,23.381493
1434409098.321,22.137054
1434409098.337,19.779808
1434409098.352,16.70385
1434409098.368,13.433937
1434409098.384,10.416702
1434409098.399,7.9044266
1434409098.415,5.893936
1434409098.43,4.201927
1434409098.446,2.6001663
1434409098.462,0.8897171
1434409098.477,-1.0054474
1434409098.493,-3.0779114
1434409098.509,-5.227585
1434409098.524,-7.279213
1434409098.54,-8.993134
1434409098.555,-10.167198
1434409098.571,-10.685478
1434409098.587,-10.588676
1434409098.602,-10.098053
1434409098.618,-9.519356
1434409098.634,-9.134674
1434409098.649,-9.0979
1434409098.665,-9.392532
1434409098.68,-9.921188
1434409098.696,-10.517357
1434409098.712,-11.004105
1434409098.727,-11.238731
1434409098.743,-11.135811
1434409098.759,-10.675369
1434409098.774,-9.92057
1434409098.79,-9.002739
1434409098.806,-8.068344
1434409098.821,-7.2098694
1434409098.837,-6.457802
1434409098.852,-5.7664337
1434409098.868,-5.080101
1434409098.884,-4.3590775
1434409098.899,-3.5286179
1434409098.915,-2.5248184
1434409098.93,-1.309967
1434409098.946,0.11162567
1434409098.962,1.6541901
1434409098.977,3.2035446
1434409098.993,4.641327
1434409099.009,5.9414597
1434409099.024,7.128601
1434409099.04,8.279556
1434409099.056,9.440346
1434409099.071,10.633865
1434409099.087,11.923897
1434409099.102,13.415657
1434409099.118,15.246605
1434409099.134,17.50872
1434409099.149,20.16426
1434409099.165,22.987411
1434409099.181,25.608124
1434409099.196,27.606514
1434409099.212,28.584946
1434409099.227,28.343575
1434409099.243,26.80716
1434409099.259,24.126884
1434409099.274,20.649559
1434409099.29,16.807716
1434409099.306,12.99852
1434409099.321,9.507263
1434409099.337,6.4808884
1434409099.352,3.9831543
1434409099.368,2.0158997
1434409099.384,0.5051117
1434409099.399,-0.7611084
1434409099.415,-2.0741959
1434409099.431,-3.7660904
1434409099.446,-6.0162125
1434409099.462,-8.698593
1434409099.477,-11.422699
1434409099.493,-13.722748
1434409099.509,-15.2645035
1434409099.524,-15.999153
1434409099.54,-16.132881
1434409099.556,-15.96891
1434409099.571,-15.723312
1434409099.587,-15.497894
1434409099.602,-15.271812
1434409099.618,-15.0267105
1434409099.634,-14.7882
1434409099.649,-14.546783
1434409099.665,-14.270897
1434409099.681,-13.906563
1434409099.696,-13.413391
1434409099.712,-12.829483
1434409099.727,-12.147537
1434409099.743,-11.357338
1434409099.759,-10.376556
1434409099.774,-9.158249
1434409099.79,-7.7493744
1434409099.806,-6.3154984
1434409099.821,-5.0665283
1434409099.837,-4.078186
1434409099.852,-3.2114563
1434409099.868,-2.1813583
1434409099.884,-0.7155762
1434409099.899,1.257103
1434409099.915,3.5416946
1434409099.931,5.790329
1434409099.946,7.6658707
1434409099.962,9.001488
1434409099.977,9.880394
1434409099.993,10.521385
1434409100.009,11.183701
1434409100.024,12.104919
1434409100.04,13.478409
1434409100.056,15.434364
1434409100.071,18.019806
1434409100.087,21.134758
1434409100.102,24.47837
1434409100.118,27.548286
1434409100.134,29.722778
1434409100.149,30.421722
1434409100.165,29.327194
1434409100.181,26.453674
1434409100.196,22.189613
1434409100.212,17.195183
1434409100.227,12.165398
1434409100.243,7.625702
1434409100.259,3.794487
1434409100.274,0.5958557
1434409100.29,-2.2009354
1434409100.306,-4.830284
1434409100.321,-7.4110184
1434409100.337,-9.931778
1434409100.352,-12.319664
1434409100.368,-14.501358
1434409100.384,-16.41121
1434409100.399,-17.93377
1434409100.415,-18.930351
1434409100.431,-19.279663
1434409100.446,-18.971489
1434409100.462,-18.219406
1434409100.477,-17.36164
1434409100.493,-16.772675
1434409100.509,-16.664558
1434409100.524,-17.021881
1434409100.54,-17.613152
1434409100.556,-18.145737
1434409100.571,-18.41697
1434409100.587,-18.355568
1434409100.602,-17.998589
1434409100.618,-17.419456
1434409100.634,-16.663391
1434409100.649,-15.734428
1434409100.665,-14.635529
1434409100.681,-13.391312
1434409100.696,-12.048302
1434409100.712,-10.65593
1434409100.727,-9.261734
1434409100.743,-7.8604736
1434409100.759,-6.3791885
1434409100.774,-4.66465
1434409100.79,-2.553543
1434409100.806,0.030960083
1434409100.821,2.978279
1434409100.837,5.9939423
1434409100.852,8.680237
1434409100.868,10.700485
1434409100.884,11.963562
1434409100.899,12.614731
1434409100.915,13.004654
1434409100.931,13.471527
1434409100.946,14.255096
1434409100.962,15.424576
1434409100.977,16.945404
1434409100.993,18.731964
1434409101.009,20.71444
1434409101.024,22.830406
1434409101.04,24.950005
1434409101.056,26.822067
1434409101.071,28.08683
1434409101.087,28.290947
1434409101.102,27.071175
1434409101.118,24.303398
1434409101.134,20.201408
1434409101.149,15.37236
1434409101.165,10.597519
1434409101.181,6.522972
1434409101.196,3.3925018
1434409101.212,0.9893799
1434409101.227,-1.2469711
1434409101.243,-3.889885
1434409101.259,-7.20224
1434409101.274,-11.007568
1434409101.29,-14.80117
1434409101.306,-17.97277
1434409101.321,-20.089325
1434409101.337,-20.997818
1434409101.352,-20.83149
1434409101.368,-19.930199
1434409101.384,-18.670647
1434409101.399,-17.415321
1434409101.415,-16.408447
1434409101.431,-15.769615
1434409101.446,-15.505539
1434409101.462,-15.571266
1434409101.478,-15.880173
1434409101.493,-16.365013
1434409101.509,-16.921112
1434409101.524,-17.348892
1434409101.54,-17.37223
1434409101.556,-16.746086
1434409101.571,-15.380363
1434409101.587,-13.420143
1434409101.602,-11.215599
1434409101.618,-9.133202
1434409101.634,-7.412483
1434409101.649,-6.103676
1434409101.665,-5.056549
1434409101.681,-4.105171
1434409101.696,-3.127922
1434409101.712,-2.042389
1434409101.728,-0.7611618
1434409101.743,0.80059814
1434409101.759,2.7227936
1434409101.774,5.0305023
1434409101.79,7.614235
1434409101.806,10.295784
1434409101.821,12.87648
1434409101.837,15.206001
1434409101.853,17.235268
1434409101.868,18.983582
1434409101.884,20.553986
1434409101.899,22.096764
1434409101.915,23.773598
1434409101.931,25.671486
1434409101.946,27.730598
1434409101.962,29.695755
1434409101.978,31.169472
1434409101.993,31.70552
1434409102.009,30.95562
1434409102.024,28.76696
1434409102.04,25.248627
1434409102.056,20.696144
1434409102.071,15.569511
1434409102.087,10.40136
1434409102.103,5.713127
1434409102.118,1.8464966
1434409102.134,-1.097084
1434409102.149,-3.2978134
1434409102.165,-5.0305176
1434409102.181,-6.5674667
1434409102.196,-8.0103
1434409102.212,-9.325012
1434409102.228,-10.414513
1434409102.243,-11.288872
1434409102.259,-12.072632
1434409102.274,-12.905563
1434409102.29,-13.838524
1434409102.306,-14.776466
1434409102.321,-15.534195
1434409102.337,-15.958061
1434409102.353,-16.008194
1434409102.368,-15.7955475
1434409102.384,-15.4530945
1434409102.399,-15.085892
1434409102.415,-14.676903
1434409102.431,-14.118797
1434409102.446,-13.276787
1434409102.462,-12.0482025
1434409102.478,-10.419998
1434409102.493,-8.483124
1434409102.509,-6.4179497
1434409102.524,-4.4380493
1434409102.54,-2.6644058
1434409102.556,-1.0984192
1434409102.571,0.40953827
1434409102.587,2.0401802
1434409102.603,3.9527168
1434409102.618,6.148823
1434409102.634,8.462856
1434409102.649,10.658138
1434409102.665,12.532471
1434409102.681,14.019375
1434409102.696,15.236969
1434409102.712,16.431969
1434409102.728,17.898235
1434409102.743,19.858124
1434409102.759,22.398998
1434409102.774,25.374363
1434409102.79,28.469643
1434409102.806,31.200562
1434409102.821,33.037815
1434409102.837,33.58404
1434409102.853,32.665237
1434409102.868,30.35151
1434409102.884,26.924149
1434409102.899,22.775776
1434409102.915,18.298698
1434409102.931,13.812931
1434409102.946,9.524494
1434409102.962,5.5278053
1434409102.978,1.8146057
1434409102.993,-1.6749268
1434409103.009,-4.9688797
1434409103.024,-8.000572
1434409103.04,-10.593948
1434409103.056,-12.563416
1434409103.071,-13.7877445
1434409103.087,-14.334408
1434409103.103,-14.435596
1434409103.118,-14.418892
1434409103.134,-14.541321
1434409103.149,-14.9175625
1434409103.165,-15.493305
1434409103.181,-16.127026
1434409103.196,-16.692287
1434409103.212,-17.080956
1434409103.228,-17.209621
1434409103.243,-17.007732
1434409103.259,-16.378162
1434409103.274,-15.293174
1434409103.29,-13.7749
1434409103.306,-11.970562
1434409103.321,-10.054735
1434409103.337,-8.208063
1434409103.353,-6.492445
1434409103.368,-4.89957
1434409103.384,-3.3481898
1434409103.399,-1.7325648
1434409103.415,0.03651285
1434409103.431,1.9852374
1434409103.446,4.0847073
1434409103.462,6.270023
1434409103.478,8.473654
1434409103.493,10.65505
1434409103.509,12.831062
1434409103.524,15.064413
1434409103.54,17.481453
1434409103.556,20.18192
1434409103.571,23.218683
1434409103.587,26.538826
1434409103.603,29.91006
1434409103.618,32.886826
1434409103.634,34.877823
1434409103.649,35.299095
1434409103.665,33.772648
1434409103.681,30.283846
1434409103.696,25.21643
1434409103.712,19.198898
1434409103.728,12.915646
1434409103.743,6.8958893
1434409103.759,1.4403915
1434409103.774,-3.3551254
1434409103.79,-7.510002
1434409103.806,-11.119549
1434409103.821,-14.31171
1434409103.837,-17.257908
1434409103.853,-20.09346
1434409103.868,-22.883
1434409103.884,-25.537556
1434409103.899,-27.882168
1434409103.915,-29.69865
1434409103.931,-30.884079
1434409103.946,-31.446095
1434409103.962,-31.510616
1434409103.978,-31.22432
1434409103.993,-30.740997
1434409104.009,-30.199451
1434409104.024,-29.731468
1434409104.04,-29.395481
1434409104.056,-29.144066
1434409104.071,-28.817505
1434409104.087,-28.198692
1434409104.103,-27.093414
1434409104.118,-25.49736
1434409104.134,-23.565987
1434409104.149,-21.508667
1434409104.165,-19.491173
1434409104.181,-17.552612
1434409104.196,-15.6096115
1434409104.212,-13.535484
1434409104.228,-11.237022
1434409104.243,-8.707237
1434409104.259,-5.9855423
1434409104.274,-3.1639023
1434409104.29,-0.3425064
1434409104.306,2.3568954
1434409104.321,4.840866
1434409104.337,7.062454
1434409104.353,9.08371
1434409104.368,11.071281
1434409104.384,13.25753
1434409104.4,15.842201
1434409104.415,18.938782
1434409104.431,22.452507
1434409104.446,26.092041
1434409104.462,29.339798
1434409104.478,31.567154
1434409104.493,32.166016
1434409104.509,30.765144
1434409104.525,27.385368
1434409104.54,22.478035
1434409104.556,16.778168
1434409104.571,11.09449
1434409104.587,6.0061417
1434409104.603,1.8089676
1434409104.618,-1.5801926
1434409104.634,-4.4303284
1434409104.65,-7.085335
1434409104.665,-9.812233
1434409104.681,-12.738457
1434409104.696,-15.836876
1434409104.712,-18.93238
1434409104.728,-21.766663
1434409104.743,-24.090286
1434409104.759,-25.728607
1434409104.775,-26.625496
1434409104.79,-26.850388
1434409104.806,-26.57618
1434409104.821,-25.984947
1434409104.837,-25.26979
1434409104.853,-24.564209
1434409104.868,-23.964317
1434409104.884,-23.50019
1434409104.9,-23.15075
1434409104.915,-22.82949
1434409104.931,-22.417519
1434409104.946,-21.78563
1434409104.962,-20.82177
1434409104.978,-19.468521
1434409104.993,-17.747398
1434409105.009,-15.74987
1434409105.025,-13.633507
1434409105.04,-11.552826
1434409105.056,-9.636948
1434409105.071,-7.888794
1434409105.087,-6.22892
1434409105.103,-4.4760513
1434409105.118,-2.5005188
1434409105.134,-0.2966919
1434409105.15,2.0257034
1434409105.165,4.277588
1434409105.181,6.3097
1434409105.196,8.089699
1434409105.212,9.691185
1434409105.228,11.2487335
1434409105.243,12.901329
1434409105.259,14.790142
1434409105.275,17.055134
1434409105.29,19.820568
1434409105.306,23.099457
1434409105.321,26.671684
1434409105.337,30.03963
1434409105.353,32.511257
1434409105.368,33.408234
1434409105.384,32.33075
1434409105.4,29.30225
1434409105.415,24.799908
1434409105.431,19.545456
1434409105.446,14.264866
1434409105.462,9.467575
1434409105.478,5.362171
1434409105.493,1.850277
1434409105.509,-1.3034325
1434409105.525,-4.3432617
1434409105.54,-7.3816605
1434409105.556,-10.378548
1434409105.571,-13.151295
1434409105.587,-15.526848
1434409105.603,-17.376175
1434409105.618,-18.718685
1434409105.634,-19.678764
1434409105.65,-20.382786
1434409105.665,-20.907013
1434409105.681,-21.262001
1434409105.696,-21.408142
1434409105.712,-21.299892
1434409105.728,-20.92009
1434409105.743,-20.2966
1434409105.759,-19.474045
1434409105.775,-18.549175
1434409105.79,-17.60561
1434409105.806,-16.717129
1434409105.821,-15.89036
1434409105.837,-15.055836
1434409105.853,-14.074514
1434409105.868,-12.826445
1434409105.884,-11.286615
1434409105.9,-9.597452
1434409105.915,-7.989395
1434409105.931,-6.672531
1434409105.946,-5.725855
1434409105.962,-5.0685806
1434409105.978,-4.501169
1434409105.993,-3.8312817
1434409106.009,-2.922471
1434409106.025,-1.7196512
1434409106.04,-0.2086811
1434409106.056,1.5880156
1434409106.071,3.6405592
1434409106.087,5.8503046
1434409106.103,8.127302
1434409106.118,10.383779
1434409106.134,12.603725
1434409106.15,14.815748
1434409106.165,17.131824
1434409106.181,19.610493
1434409106.196,22.2296
1434409106.212,24.83342
1434409106.228,27.128962
1434409106.243,28.739166
1434409106.259,29.303482
1434409106.275,28.568665
1434409106.29,26.521414
1434409106.306,23.365856
1434409106.321,19.526628
1434409106.337,15.479518
1434409106.353,11.601454
1434409106.368,8.070898
1434409106.384,4.8912897
1434409106.4,1.9760685
1434409106.415,-0.7311039
1434409106.431,-3.2304325
1434409106.446,-5.4606133
1434409106.462,-7.378687
1434409106.478,-8.985533
1434409106.493,-10.331366
1434409106.509,-11.456478
1434409106.525,-12.355663
1434409106.54,-12.979549
1434409106.556,-13.27216
1434409106.571,-13.2006855
1434409106.587,-12.798414
1434409106.603,-12.15156
1434409106.618,-11.398069
1434409106.634,-10.673771
1434409106.65,-10.121277
1434409106.665,-9.802898
1434409106.681,-9.7476845
1434409106.696,-9.907452
1434409106.712,-10.204063
1434409106.728,-10.49395
1434409106.743,-10.630043
1434409106.759,-10.465149
1434409106.775,-9.912022
1434409106.79,-8.950539
1434409106.806,-7.6917152
1434409106.821,-6.3019905
1434409106.837,-4.9171867
1434409106.853,-3.5882416
1434409106.868,-2.251583
1434409106.884,-0.77324295
1434409106.9,0.9296875
1434409106.915,2.827034
1434409106.931,4.764309
1434409106.946,6.5676003
1434409106.962,8.1716
1434409106.978,9.678947
1434409106.993,11.292309
1434409107.009,13.1936035
1434409107.025,15.43121
1434409107.04,17.895435
1434409107.056,20.411404
1434409107.072,22.831821
1434409107.087,25.07336
1434409107.103,27.05914
1434409107.118,28.631187
1434409107.134,29.518417
1434409107.15,29.408005
1434409107.165,28.114883
1434409107.181,25.663353
1434409107.197,22.33699
1434409107.212,18.561249
