1426797375.996,0.0
1426797376.012,0.0
1426797376.028,0.0
1426797376.043,0.0
1426797376.059,0.0
1426797376.074,0.0
1426797376.09,0.0
1426797376.106,0.0
1426797376.121,0.0
1426797376.137,0.0022315353
1426797376.153,-0.0045169927
1426797376.168,-0.011265522
1426797376.184,-0.011383951
1426797376.199,0.0011864507
1426797376.215,0.025910312
1426797376.231,0.050634187
1426797376.246,0.051362894
1426797376.262,-0.0014929791
1426797376.278,-0.1302426
1426797376.293,-0.35562757
1426797376.309,-0.6591247
1426797376.324,-1.0095103
1426797376.34,-1.3709826
1426797376.356,-1.7197359
1426797376.371,-2.0551105
1426797376.387,-2.39945
1426797376.403,-2.7866635
1426797376.418,-3.2399073
1426797376.434,-3.796012
1426797376.449,-4.418684
1426797376.465,-5.0592937
1426797376.481,-5.6644096
1426797376.496,-6.2021537
1426797376.512,-6.6808796
1426797376.528,-7.149598
1426797376.543,-7.6782336
1426797376.559,-8.310739
1426797376.574,-9.143657
1426797376.59,-10.089731
1426797376.606,-11.041313
1426797376.621,-11.8842125
1426797376.637,-12.564316
1426797376.653,-13.13563
1426797376.668,-13.760044
1426797376.684,-14.65232
1426797376.699,-15.962056
1426797376.715,-17.914442
1426797376.731,-20.317299
1426797376.746,-22.903854
1426797376.762,-25.37947
1426797376.778,-27.578028
1426797376.793,-29.57246
1426797376.809,-31.675173
1426797376.824,-34.3178
1426797376.84,-37.813618
1426797376.856,-42.541233
1426797376.871,-48.1463
1426797376.887,-54.104755
1426797376.903,-59.83309
1426797376.918,-64.972374
1426797376.934,-69.58293
1426797376.949,-74.14353
1426797376.965,-79.344986
1426797376.981,-85.70726
1426797376.996,-93.76193
1426797377.012,-102.99779
1426797377.028,-112.61757
1426797377.043,-121.73034
1426797377.059,-129.76602
1426797377.074,-136.75102
1426797377.09,-143.30344
1426797377.106,-150.74623
1426797377.121,-157.77356
1426797377.137,-166.64323
1426797377.153,-177.94798
1426797377.168,-191.79102
1426797377.184,-206.96808
1426797377.199,-220.56592
1426797377.215,-228.24644
1426797377.231,-225.36154
1426797377.246,-208.53198
1426797377.262,-176.87024
1426797377.278,-132.76222
1426797377.293,-80.04997
1426797377.309,-23.069275
1426797377.324,34.94339
1426797377.34,92.43695
1426797377.356,149.15695
1426797377.371,205.22772
1426797377.387,260.36963
1426797377.403,313.74133
1426797377.418,363.87396
1426797377.434,409.83353
1426797377.449,450.90775
1426797377.465,486.50244
1426797377.481,515.73865
1426797377.496,537.2274
1426797377.512,549.22
1426797377.528,549.9613
1426797377.543,538.367
1426797377.559,514.2055
1426797377.574,478.674
1426797377.59,433.87952
1426797377.606,382.45126
1426797377.621,327.02106
1426797377.637,269.84186
1426797377.653,212.63379
1426797377.668,156.6594
1426797377.684,102.95233
1426797377.7,52.373596
1426797377.715,5.9046936
1426797377.731,-35.580414
1426797377.746,-71.42584
1426797377.762,-101.35184
1426797377.778,-125.50113
1426797377.793,-144.3797
1426797377.809,-158.69403
1426797377.825,-169.15071
1426797377.84,-176.3711
1426797377.856,-180.75139
1426797377.871,-182.57419
1426797377.887,-182.06863
1426797377.903,-179.5066
1426797377.918,-175.23325
1426797377.934,-169.65286
1426797377.95,-163.17691
1426797377.965,-156.14568
1426797377.981,-148.80681
1426797377.996,-141.29686
1426797378.012,-133.68983
1426797378.028,-126.01962
1426797378.043,-118.33268
1426797378.059,-110.68864
1426797378.075,-103.15572
1426797378.09,-95.80455
1426797378.106,-88.684166
1426797378.121,-81.82744
1426797378.137,-75.24594
1426797378.153,-68.9526
1426797378.168,-62.94901
1426797378.184,-57.247272
1426797378.2,-51.856705
1426797378.215,-46.781998
1426797378.231,-42.026577
1426797378.246,-37.583748
1426797378.262,-33.45033
1426797378.278,-29.613125
1426797378.293,-26.072062
1426797378.309,-22.813389
1426797378.325,-19.835405
1426797378.34,-17.132524
1426797378.356,-14.697835
1426797378.371,-12.526774
1426797378.387,-10.606246
1426797378.403,-8.926079
1426797378.418,-7.4690447
1426797378.434,-6.221851
1426797378.45,-5.1642137
1426797378.465,-4.276801
1426797378.481,-3.5402112
1426797378.496,-2.9382794
1426797378.512,-2.4513812
1426797378.528,-2.0609205
1426797378.543,-1.7562323
1426797378.559,-1.5230113
1426797378.575,-1.3512833
1426797378.59,-1.2279124
1426797378.606,-1.1473919
1426797378.621,-1.1023289
1426797378.637,-1.0849528
1426797378.653,-1.09651
1426797378.668,-1.1277915
1426797378.684,-1.1783442
1426797378.7,-1.2456208
1426797378.715,-1.3322393
1426797378.731,-1.4382806
1426797378.746,-1.5594945
1426797378.762,-1.7001112
1426797378.778,-1.8599305
1426797378.793,-2.0408664
1426797378.809,-2.2451367
1426797378.825,-2.4706132
1426797378.84,-2.7221503
1426797378.856,-2.9973905
1426797378.871,-3.3068652
1426797378.887,-3.6424947
1426797378.903,-4.0127683
1426797378.918,-4.4152923
1426797378.934,-4.856875
1426797378.95,-5.331615
1426797378.965,-5.843851
1426797378.981,-6.3923297
1426797378.996,-6.9841576
1426797379.012,-7.6181087
1426797379.028,-8.295295
1426797379.043,-9.014599
1426797379.059,-9.7778
1426797379.075,-10.58378
1426797379.09,-11.432146
1426797379.106,-12.322682
1426797379.121,-13.250038
1426797379.137,-14.236699
1426797379.153,-15.280177
1426797379.168,-16.385126
1426797379.184,-17.548717
1426797379.2,-18.754425
1426797379.215,-19.992495
1426797379.231,-21.211285
1426797379.246,-22.354307
1426797379.262,-23.323885
1426797379.278,-24.025003
1426797379.293,-24.338797
1426797379.309,-24.143326
1426797379.325,-23.343407
1426797379.34,-21.867695
1426797379.356,-19.682293
1426797379.371,-16.80688
1426797379.387,-13.331417
1426797379.403,-9.333244
1426797379.418,-4.9940567
1426797379.434,-0.5196495
1426797379.45,3.9033546
1426797379.465,8.06324
1426797379.481,11.800663
1426797379.496,14.9781
1426797379.512,17.516216
1426797379.528,19.37907
1426797379.543,20.592003
1426797379.559,21.177414
1426797379.575,21.229687
1426797379.59,20.854069
1426797379.606,20.133358
1426797379.621,19.174202
1426797379.637,18.039219
1426797379.653,16.812645
1426797379.668,15.511246
1426797379.684,14.18116
1426797379.7,12.813644
1426797379.715,11.448143
1426797379.731,10.112045
1426797379.746,8.807121
1426797379.762,7.541481
1426797379.778,6.326874
1426797379.793,5.149925
1426797379.809,3.9991226
1426797379.825,2.8561172
1426797379.84,1.6761322
1426797379.856,0.46032715
1426797379.871,-0.7644272
1426797379.887,-2.0164108
1426797379.903,-3.3058014
1426797379.918,-4.6449738
1426797379.934,-6.061577
1426797379.95,-7.623352
1426797379.965,-9.384346
1426797379.981,-11.482086
1426797379.996,-13.886986
1426797380.012,-16.665771
1426797380.028,-19.879738
1426797380.043,-23.647255
1426797380.059,-28.073212
1426797380.075,-33.287735
1426797380.09,-39.37712
1426797380.106,-46.43019
1426797380.121,-54.522964
1426797380.137,-63.442657
1426797380.153,-72.96486
1426797380.168,-82.86311
1426797380.184,-92.904144
1426797380.2,-102.855774
1426797380.215,-112.4875
1426797380.231,-121.650955
1426797380.246,-130.25204
1426797380.262,-138.32161
1426797380.278,-145.59254
1426797380.293,-151.90746
1426797380.309,-157.19452
1426797380.325,-161.36592
1426797380.34,-164.2538
1426797380.356,-165.61948
1426797380.372,-164.96286
1426797380.387,-161.44016
1426797380.403,-156.32132
1426797380.418,-149.97229
1426797380.434,-142.6846
1426797380.45,-134.72461
1426797380.465,-126.34573
1426797380.481,-117.81055
1426797380.497,-109.31125
1426797380.512,-101.07367
1426797380.528,-93.242096
1426797380.543,-86.010864
1426797380.559,-79.23779
1426797380.575,-72.88376
1426797380.59,-66.94098
1426797380.606,-61.453156
1426797380.622,-56.42743
1426797380.637,-51.855103
1426797380.653,-47.628235
1426797380.668,-43.642395
1426797380.684,-39.824707
1426797380.7,-35.902954
1426797380.715,-31.770813
1426797380.731,-27.478271
1426797380.747,-23.154297
1426797380.762,-18.940979
1426797380.778,-14.876465
1426797380.793,-10.87854
1426797380.809,-6.7245483
1426797380.825,-2.2252808
1426797380.84,2.880188
1426797380.856,8.570435
1426797380.872,14.559509
1426797380.887,20.409058
1426797380.903,25.724487
1426797380.918,30.354858
1426797380.934,34.53479
1426797380.95,38.800537
1426797380.965,43.8114
1426797380.981,50.062256
1426797380.997,57.61151
1426797381.012,65.99982
1426797381.028,74.47095
1426797381.043,82.345825
1426797381.059,89.40552
1426797381.075,96.08716
1426797381.09,103.379395
1426797381.106,112.379395
1426797381.122,123.83069
1426797381.137,137.68628
1426797381.153,153.12
1426797381.168,168.89368
1426797381.184,183.87427
1426797381.2,197.59717
1426797381.215,210.41357
1426797381.231,223.3086
1426797381.247,237.52539
1426797381.262,254.27405
1426797381.278,274.5266
1426797381.293,298.7135
1426797381.309,326.27063
1426797381.325,355.0553
1426797381.34,381.1814
1426797381.356,399.5713
1426797381.372,405.33984
1426797381.387,395.51953
1426797381.403,370.39636
1426797381.418,333.48022
1426797381.434,290.276
1426797381.45,246.24646
1426797381.465,205.03284
1426797381.481,167.7826
1426797381.497,133.87378
1426797381.512,102.21069
1426797381.528,72.54968
1426797381.543,45.86035
1426797381.559,23.607178
1426797381.575,6.7645264
1426797381.59,-5.063965
1426797381.606,-13.640503
1426797381.622,-21.295044
1426797381.637,-29.817749
1426797381.653,-39.498657
1426797381.668,-49.12793
1426797381.684,-56.738647
1426797381.7,-60.908936
1426797381.715,-61.636963
1426797381.731,-60.384277
1426797381.747,-59.290405
1426797381.762,-59.943115
1426797381.778,-62.389893
1426797381.793,-65.14221
1426797381.809,-65.901855
1426797381.825,-62.86035
1426797381.84,-55.709473
1426797381.856,-45.800293
1426797381.872,-35.439697
1426797381.887,-26.768799
1426797381.903,-20.612183
1426797381.918,-16.339355
1426797381.934,-12.24646
1426797381.95,-6.576172
1426797381.965,1.5402832
1426797381.981,11.606934
1426797381.997,22.15039
1426797382.012,31.310425
1426797382.028,37.730103
1426797382.043,40.92151
1426797382.059,41.183716
1426797382.075,39.084534
1426797382.09,34.90497
1426797382.106,28.44336
1426797382.122,19.23114
1426797382.137,7.0184937
1426797382.153,-7.6447144
1426797382.168,-23.354004
1426797382.184,-38.230835
1426797382.2,-50.677795
1426797382.215,-60.01709
1426797382.231,-66.74164
1426797382.247,-72.02533
1426797382.262,-77.06085
1426797382.278,-82.23108
1426797382.293,-86.95172
1426797382.309,-89.98761
1426797382.325,-90.28522
1426797382.34,-87.61786
1426797382.356,-82.816895
1426797382.372,-77.312195
1426797382.387,-72.41266
1426797382.403,-68.56793
1426797382.418,-65.336975
1426797382.434,-61.651123
1426797382.45,-56.576904
1426797382.465,-49.954773
1426797382.481,-42.50348
1426797382.497,-35.38275
1426797382.512,-29.515076
1426797382.528,-25.03711
1426797382.543,-21.087646
1426797382.559,-16.413574
1426797382.575,-9.995483
1426797382.59,-1.8049927
1426797382.606,7.1602783
1426797382.622,15.444763
1426797382.637,21.846924
1426797382.653,26.283081
1426797382.668,29.818481
1426797382.684,34.31476
1426797382.7,41.26111
1426797382.715,51.034058
1426797382.731,62.300537
1426797382.747,72.61304
1426797382.762,79.26398
1426797382.778,80.44617
1426797382.793,75.84137
1426797382.809,66.59033
1426797382.825,54.507263
1426797382.84,41.08075
1426797382.856,26.96106
1426797382.872,11.978394
1426797382.887,-4.258667
1426797382.903,-21.585999
1426797382.918,-38.95819
1426797382.934,-54.64386
1426797382.95,-66.990845
1426797382.965,-75.21008
1426797382.981,-79.70172
1426797382.997,-81.71637
1426797383.012,-82.624695
1426797383.028,-83.08722
1426797383.044,-82.901306
1426797383.059,-81.1911
1426797383.075,-77.1369
1426797383.09,-70.72278
1426797383.106,-62.96924
1426797383.122,-55.50061
1426797383.137,-49.826355
1426797383.153,-46.484863
1426797383.169,-44.888184
1426797383.184,-43.656128
1426797383.2,-41.31964
1426797383.215,-37.137085
1426797383.231,-31.414307
1426797383.247,-25.101807
1426797383.262,-19.240845
1426797383.278,-14.262329
1426797383.294,-9.749451
1426797383.309,-4.766968
1426797383.325,1.6105957
1426797383.34,9.601074
1426797383.356,18.570984
1426797383.372,27.35785
1426797383.387,34.970825
1426797383.403,41.190308
1426797383.419,46.730347
1426797383.434,52.864624
1426797383.45,60.647278
1426797383.465,69.98895
1426797383.481,79.43402
1426797383.497,86.5766
1426797383.512,88.90405
1426797383.528,85.054504
1426797383.544,75.39093
1426797383.559,61.72003
1426797383.575,46.469482
1426797383.59,31.607483
1426797383.606,17.858337
1426797383.622,4.8186646
1426797383.637,-8.428833
1426797383.653,-22.385132
1426797383.669,-36.532043
1426797383.684,-49.467285
1426797383.7,-59.65851
1426797383.715,-66.21008
1426797383.731,-69.39026
1426797383.747,-70.3952
1426797383.762,-70.631836
1426797383.778,-70.95093
1426797383.794,-71.26807
1426797383.809,-70.72333
1426797383.825,-68.270874
1426797383.84,-63.51245
1426797383.856,-57.021362
1426797383.872,-50.139587
1426797383.887,-44.29828
1426797383.903,-40.264038
1426797383.919,-37.733337
1426797383.934,-35.530975
1426797383.95,-32.240112
1426797383.965,-26.991394
1426797383.981,-20.032318
1426797383.997,-12.466858
1426797384.012,-5.732147
1426797384.028,-0.6607971
1426797384.044,2.8972473
1426797384.059,6.034546
1426797384.075,10.100372
1426797384.09,15.865936
1426797384.106,23.186462
1426797384.122,31.078064
1426797384.137,38.513733
1426797384.153,45.071045
1426797384.169,51.264435
1426797384.184,58.16089
1426797384.2,66.49771
1426797384.215,75.93875
1426797384.231,84.68924
1426797384.247,90.1969
1426797384.262,90.088196
1426797384.278,83.40192
1426797384.294,70.900665
1426797384.309,54.79004
1426797384.325,37.674835
1426797384.34,21.439728
1426797384.356,6.7352905
1426797384.372,-6.9979553
1426797384.387,-20.697144
1426797384.403,-34.70697
1426797384.419,-48.368866
1426797384.434,-60.22058
1426797384.45,-68.74902
1426797384.465,-73.18179
1426797384.481,-73.95953
1426797384.497,-72.40268
1426797384.512,-70.121155
1426797384.528,-68.18231
1426797384.544,-66.62265
1426797384.559,-64.651215
1426797384.575,-61.235565
1426797384.59,-55.969086
1426797384.606,-49.327118
1426797384.622,-42.54471
1426797384.637,-37.03543
1426797384.653,-33.491882
1426797384.669,-31.520447
1426797384.684,-29.75888
1426797384.7,-26.678955
1426797384.715,-21.369995
1426797384.731,-14.119141
1426797384.747,-6.1865234
1426797384.762,0.80578613
1426797384.778,5.9013367
1426797384.794,9.252777
1426797384.809,12.1492
1426797384.825,16.18695
1426797384.84,22.28714
1426797384.856,30.3208
1426797384.872,39.22235
1426797384.887,47.58963
1426797384.903,54.548157
1426797384.919,60.155243
1426797384.934,65.029175
1426797384.95,69.65793
1426797384.965,73.74304
1426797384.981,75.927216
1426797384.997,74.46338
1426797385.012,68.057556
1426797385.028,56.695374
1426797385.044,41.736633
1426797385.059,25.527802
1426797385.075,10.380035
1426797385.09,-2.3874207
1426797385.106,-12.798279
1426797385.122,-21.790436
1426797385.137,-30.440277
1426797385.153,-39.207184
1426797385.169,-47.47583
1426797385.184,-53.982574
1426797385.2,-57.43683
1426797385.215,-57.394806
1426797385.231,-54.567413
1426797385.247,-50.49823
1426797385.262,-46.814392
1426797385.278,-44.366516
1426797385.294,-42.88907
1426797385.309,-41.193787
1426797385.325,-38.03308
1426797385.34,-32.875916
1426797385.356,-26.350311
1426797385.372,-19.851135
1426797385.387,-14.775848
1426797385.403,-11.780762
1426797385.419,-10.356567
1426797385.434,-9.107391
1426797385.45,-6.5272827
1426797385.465,-1.8862305
1426797385.481,4.395935
1426797385.497,11.043701
1426797385.512,16.585663
1426797385.528,20.424225
1426797385.544,22.989624
1426797385.559,25.723175
1426797385.575,30.230377
1426797385.59,37.46707
1426797385.606,47.128387
1426797385.622,57.72458
1426797385.637,67.19141
1426797385.653,73.64191
1426797385.669,76.170135
1426797385.684,74.837036
1426797385.7,70.42151
1426797385.716,63.71927
1426797385.731,55.106964
1426797385.747,44.539246
1426797385.762,31.802979
1426797385.778,17.122528
1426797385.794,1.3303833
1426797385.809,-14.043457
1426797385.825,-27.394623
1426797385.84,-37.697876
1426797385.856,-44.935333
1426797385.872,-49.95456
1426797385.887,-53.988373
1426797385.903,-57.766144
1426797385.919,-61.188293
1426797385.934,-63.40811
1426797385.95,-63.30966
1426797385.966,-60.338776
1426797385.981,-54.9657
1426797385.997,-48.49408
1426797386.012,-42.57025
1426797386.028,-38.253357
1426797386.044,-35.625153
1426797386.059,-33.904694
1426797386.075,-31.868866
1426797386.091,-28.665222
1426797386.106,-24.219147
1426797386.122,-19.213074
1426797386.137,-14.557434
1426797386.153,-10.858917
1426797386.169,-7.8834534
1426797386.184,-4.6740723
1426797386.2,-0.16033936
1426797386.216,6.2792664
1426797386.231,14.32782
1426797386.247,23.023163
1426797386.262,31.171997
1426797386.278,38.280457
1426797386.294,44.687805
1426797386.309,51.51178
1426797386.325,59.812744
1426797386.341,69.608154
1426797386.356,79.56839
1426797386.372,87.30765
1426797386.387,90.22037
1426797386.403,86.76047
1426797386.419,77.13553
1426797386.434,63.115265
1426797386.45,47.225006
1426797386.466,31.680359
1426797386.481,17.453827
1426797386.497,4.4237976
1426797386.512,-8.176727
1426797386.528,-20.95102
1426797386.544,-33.644928
1426797386.559,-45.255737
1426797386.575,-54.464417
1426797386.591,-60.434357
1426797386.606,-63.242645
1426797386.622,-63.785645
1426797386.637,-63.344513
1426797386.653,-62.892395
1426797386.669,-62.73636
1426797386.684,-62.29489
1426797386.7,-60.68402
1426797386.716,-57.26648
1426797386.731,-52.19333
1426797386.747,-46.301697
1426797386.762,-40.817596
1426797386.778,-36.592743
1426797386.794,-33.743286
1426797386.809,-31.576202
1426797386.825,-28.915955
1426797386.841,-24.833008
1426797386.856,-19.233948
1426797386.872,-12.7864685
1426797386.887,-6.6148987
1426797386.903,-1.6425781
1426797386.919,2.0409546
1426797386.934,5.2112427
1426797386.95,9.100128
1426797386.966,14.749023
1426797386.981,22.285828
1426797386.997,30.936646
1426797387.012,39.4964
1426797387.028,47.005707
1426797387.044,53.409973
1426797387.059,59.503113
1426797387.075,66.36508
1426797387.091,74.35953
1426797387.106,82.49982
1426797387.122,88.6933
1426797387.137,90.45145
1426797387.153,86.23172
1426797387.169,76.09177
1426797387.184,61.73697
1426797387.2,45.658295
1426797387.216,30.119202
1426797387.231,16.181519
1426797387.247,3.6750183
1426797387.262,-8.266266
1426797387.278,-20.324951
1426797387.294,-32.311615
1426797387.309,-43.23111
1426797387.325,-51.751007
1426797387.341,-57.01831
1426797387.356,-59.118286
1426797387.372,-59.120117
1426797387.387,-58.48477
1426797387.403,-58.239624
1426797387.419,-58.54071
1426797387.434,-58.507446
1426797387.45,-56.932068
1426797387.466,-53.011627
1426797387.481,-46.98642
1426797387.497,-40.015472
1426797387.512,-33.715607
1426797387.528,-29.192108
1426797387.544,-26.38266
1426797387.559,-24.158356
1426797387.575,-20.956116
1426797387.591,-15.578461
1426797387.606,-7.9596252
1426797387.622,0.8050537
1426797387.637,9.101379
1426797387.653,15.529846
1426797387.669,19.638367
1426797387.684,22.144318
1426797387.7,24.345459
1426797387.716,27.51892
1426797387.731,32.230408
1426797387.747,38.29367
1426797387.762,44.91928
1426797387.778,51.438965
1426797387.794,57.484955
1426797387.809,63.03781
1426797387.825,68.19656
1426797387.841,72.522675
1426797387.856,75.01782
1426797387.872,74.24063
1426797387.887,68.94501
1426797387.903,58.69284
1426797387.919,44.3161
1426797387.934,27.650543
1426797387.95,10.967621
1426797387.966,-3.7811584
1426797387.981,-15.834045
1426797387.997,-25.460724
1426797388.012,-33.589325
1426797388.028,-41.086853
1426797388.044,-48.068115
1426797388.059,-53.736053
1426797388.075,-56.92508
1426797388.091,-56.940765
1426797388.106,-54.007965
1426797388.122,-49.499817
1426797388.137,-45.167267
1426797388.153,-42.30847
1426797388.169,-41.12207
1426797388.184,-40.66281
1426797388.2,-39.502228
1426797388.216,-36.61969
1426797388.231,-31.99701
1426797388.247,-26.518097
1426797388.262,-21.527649
1426797388.278,-17.83487
1426797388.294,-15.271057
1426797388.309,-12.806702
1426797388.325,-9.108246
1426797388.341,-3.446869
1426797388.356,3.904602
1426797388.372,11.643463
1426797388.387,18.282684
1426797388.403,22.735779
1426797388.419,25.059357
1426797388.434,26.479675
1426797388.45,28.694244
1426797388.466,33.16925
1426797388.481,40.222504
1426797388.497,48.960358
1426797388.512,57.491302
1426797388.528,63.87314
1426797388.544,66.793
1426797388.559,65.98285
1426797388.575,62.079315
1426797388.591,55.96402
1426797388.606,48.15796
1426797388.622,38.605164
1426797388.638,26.874268
1426797388.653,12.724091
1426797388.669,-3.3658447
1426797388.684,-20.066467
1426797388.7,-35.660065
1426797388.716,-48.702484
1426797388.731,-58.78122
1426797388.747,-66.465
1426797388.763,-73.01068
1426797388.778,-79.53516
1426797388.794,-86.431
1426797388.809,-93.08124
1426797388.825,-98.23767
1426797388.841,-100.82672
1426797388.856,-100.65369
1426797388.872,-98.61981
1426797388.888,-96.25952
1426797388.903,-94.919495
1426797388.919,-95.11139
1426797388.934,-96.20938
1426797388.95,-96.906494
1426797388.966,-95.864136
1426797388.981,-92.51047
1426797388.997,-87.10205
1426797389.013,-80.43863
1426797389.028,-72.97839
1426797389.044,-64.42703
1426797389.059,-53.829437
1426797389.075,-40.15686
1426797389.091,-23.068665
1426797389.106,-3.4482117
1426797389.122,16.80832
1426797389.138,35.596313
1426797389.153,51.464783
1426797389.169,64.33203
1426797389.184,75.41287
1426797389.2,86.532776
1426797389.216,99.22598
1426797389.231,113.698425
1426797389.247,128.70883
1426797389.263,141.98892
1426797389.278,151.25266
1426797389.294,155.10349
1426797389.309,153.48633
1426797389.325,147.40582
1426797389.341,138.2276
1426797389.356,126.95038
1426797389.372,113.80667
1426797389.388,98.6326
1426797389.403,81.26312
1426797389.419,62.133484
1426797389.434,42.38092
1426797389.45,23.474121
1426797389.466,6.796356
1426797389.481,-6.825775
1426797389.497,-17.179565
1426797389.513,-24.623535
1426797389.528,-29.758179
1426797389.544,-33.155457
1426797389.559,-35.222626
1426797389.575,-36.14685
1426797389.591,-35.918213
1426797389.606,-34.588684
1426797389.622,-32.394196
1426797389.638,-29.845276
1426797389.653,-27.652771
1426797389.669,-26.291443
1426797389.684,-25.742096
1426797389.7,-25.42749
1426797389.716,-24.431
1426797389.731,-22.03659
1426797389.747,-18.183472
1426797389.763,-13.404358
1426797389.778,-8.595673
1426797389.794,-4.375458
1426797389.809,-0.68130493
1426797389.825,3.2250366
1426797389.841,8.200623
1426797389.856,14.721802
1426797389.872,22.44873
1426797389.888,30.527557
1426797389.903,38.08658
1426797389.919,44.76828
1426797389.934,50.94812
1426797389.95,57.290955
1426797389.966,64.161255
1426797389.981,70.92044
1426797389.997,76.05841
1426797390.013,77.67764
1426797390.028,74.43201
1426797390.044,66.17764
1426797390.059,54.121704
1426797390.075,40.195282
1426797390.091,26.300446
1426797390.106,13.369934
1426797390.122,1.2782593
1426797390.138,-10.654846
1426797390.153,-23.043182
1426797390.169,-35.797943
1426797390.184,-47.9776
1426797390.2,-58.296448
1426797390.216,-65.8179
1426797390.231,-70.51407
1426797390.247,-73.36636
1426797390.263,-75.743286
1426797390.278,-78.686676
1426797390.294,-82.257935
1426797390.309,-85.46091
1426797390.325,-86.78064
1426797390.341,-85.15149
1426797390.356,-80.72046
1426797390.372,-74.97873
1426797390.388,-70.06409
1426797390.403,-67.77664
1426797390.419,-68.60074
1426797390.434,-71.488464
1426797390.45,-74.409424
1426797390.466,-75.26181
1426797390.481,-72.942505
1426797390.497,-67.750336
1426797390.513,-61.11847
1426797390.528,-54.829742
1426797390.544,-50.23123
1426797390.559,-47.565704
1426797390.575,-45.8891
1426797390.591,-43.229187
1426797390.606,-37.16153
1426797390.622,-25.505035
1426797390.638,-6.966858
1426797390.653,18.390228
1426797390.669,49.12564
1426797390.684,82.6889
1426797390.7,116.04123
1426797390.716,146.16772
1426797390.731,170.60205
1426797390.747,187.6106
1426797390.763,196.31793
1426797390.778,196.67276
1426797390.794,189.54248
1426797390.809,176.6774
1426797390.825,160.62564
1426797390.841,144.38046
1426797390.856,130.67577
1426797390.872,121.44925
1426797390.888,117.477646
1426797390.903,118.40784
1426797390.919,123.32735
1426797390.934,131.51059
1426797390.95,142.62343
1426797390.966,156.80939
1426797390.981,174.1596
1426797390.997,194.1277
1426797391.013,215.56023
1426797391.028,237.34137
1426797391.044,259.21967
1426797391.059,282.18417
1426797391.075,307.8189
1426797391.091,336.66757
1426797391.106,366.85675
1426797391.122,393.7524
1426797391.138,411.45508
1426797391.153,415.0833
1426797391.169,403.1411
1426797391.184,378.00836
1426797391.2,344.8664
1426797391.216,309.3971
1426797391.231,275.581
1426797391.247,244.87752
1426797391.263,216.77776
1426797391.278,190.21399
1426797391.294,164.66763
1426797391.31,140.55136
1426797391.325,118.564514
1426797391.341,99.12396
1426797391.356,81.78308
1426797391.372,65.36896
1426797391.388,48.732117
1426797391.403,31.171906
1426797391.419,12.687866
1426797391.435,-6.0582886
1426797391.45,-24.115662
1426797391.466,-40.769653
1426797391.481,-55.628967
1426797391.497,-68.762085
1426797391.513,-80.61304
1426797391.528,-91.64795
1426797391.544,-102.36847
1426797391.56,-113.19891
1426797391.575,-124.433044
1426797391.591,-136.23358
1426797391.606,-148.66309
1426797391.622,-161.67749
1426797391.638,-175.094
1426797391.653,-188.8252
1426797391.669,-202.7821
1426797391.685,-217.01843
1426797391.7,-231.71875
1426797391.716,-247.09631
1426797391.731,-263.35303
1426797391.747,-280.90735
1426797391.763,-300.5536
1426797391.778,-323.1267
1426797391.794,-348.87354
1426797391.81,-376.4889
1426797391.825,-402.7378
1426797391.841,-422.97522
1426797391.856,-432.62793
1426797391.872,-429.10107
1426797391.888,-412.98486
1426797391.903,-387.68933
1426797391.919,-357.93433
1426797391.935,-327.82996
1426797391.95,-299.39856
1426797391.966,-272.60156
1426797391.981,-246.54529
1426797391.997,-220.75867
1426797392.013,-195.99109
1426797392.028,-173.72144
1426797392.044,-155.06152
1426797392.06,-139.94763
1426797392.075,-127.12305
1426797392.091,-114.93298
1426797392.106,-102.47107
1426797392.122,-90.26538
1426797392.138,-80.012695
1426797392.153,-73.72351
1426797392.169,-72.50098
1426797392.185,-75.781006
1426797392.2,-81.47949
1426797392.216,-86.94092
1426797392.231,-90.08594
1426797392.247,-90.196655
1426797392.263,-88.02515
1426797392.278,-85.09375
1426797392.294,-82.67883
1426797392.31,-81.13611
1426797392.325,-79.809204
1426797392.341,-77.54236
1426797392.356,-73.58191
1426797392.372,-67.97217
1426797392.388,-61.505615
1426797392.403,-55.09436
1426797392.419,-48.978638
1426797392.435,-42.404175
1426797392.45,-33.88806
1426797392.466,-22.170776
1426797392.481,-7.0908203
1426797392.497,10.077026
1426797392.513,27.02539
1426797392.528,41.41516
1426797392.544,51.93396
1426797392.56,58.69812
1426797392.575,62.968384
1426797392.591,66.38379
1426797392.606,69.89795
1426797392.622,73.35071
1426797392.638,75.763306
1426797392.653,75.98303
1426797392.669,73.62988
1426797392.685,69.5448
1426797392.7,65.56311
1426797392.716,63.64685
1426797392.731,64.84204
1426797392.747,68.634766
1426797392.763,73.027954
1426797392.778,75.443726
1426797392.794,73.90405
1426797392.81,67.973755
1426797392.825,58.770508
1426797392.841,48.250854
1426797392.856,38.031616
1426797392.872,28.596558
1426797392.888,19.349243
1426797392.903,9.267212
1426797392.919,-2.090332
1426797392.935,-14.107422
1426797392.95,-25.276978
1426797392.966,-34.017456
1426797392.981,-39.615112
1426797392.997,-42.57019
1426797393.013,-44.33789
1426797393.028,-46.50464
1426797393.044,-49.86963
1426797393.06,-54.00354
1426797393.075,-57.537598
1426797393.091,-58.871704
1426797393.106,-57.221436
1426797393.122,-53.154053
1426797393.138,-48.214233
1426797393.153,-44.31958
1426797393.169,-42.667847
1426797393.185,-43.240723
1426797393.2,-44.848877
1426797393.216,-45.82727
1426797393.231,-44.935425
1426797393.247,-41.97339
1426797393.263,-37.639038
1426797393.278,-32.84265
1426797393.294,-27.927368
1426797393.31,-22.231812
1426797393.325,-14.389526
1426797393.341,-3.166748
1426797393.356,11.722778
1426797393.372,29.230957
1426797393.388,47.348633
1426797393.403,63.87317
1426797393.419,77.207275
1426797393.435,86.87622
1426797393.45,93.2428
1426797393.466,97.05017
1426797393.481,98.70203
1426797393.497,98.005615
1426797393.513,94.326904
1426797393.528,87.142334
1426797393.544,76.54492
1426797393.56,63.49353
1426797393.575,49.556885
1426797393.591,36.340454
1426797393.606,24.849121
1426797393.622,15.064453
1426797393.638,6.224243
1426797393.653,-2.706421
1426797393.669,-12.200806
1426797393.685,-21.80664
1426797393.7,-30.199097
1426797393.716,-35.89502
1426797393.731,-38.044434
1426797393.747,-36.941284
1426797393.763,-33.970825
1426797393.778,-30.897827
1426797393.794,-29.040527
1426797393.81,-28.668457
1426797393.825,-28.994629
1426797393.841,-28.706543
1426797393.856,-26.887451
1426797393.872,-23.497559
1426797393.888,-19.336304
1426797393.903,-15.668945
1426797393.919,-13.343994
1426797393.935,-12.260376
1426797393.95,-11.404907
1426797393.966,-9.388184
1426797393.982,-5.253296
1426797393.997,0.9914551
1426797394.013,8.409546
1426797394.028,15.803467
1426797394.044,22.322815
1426797394.06,28.074036
1426797394.075,33.907104
1426797394.091,40.73938
1426797394.107,48.60315
1426797394.122,56.32898
1426797394.138,61.88611
1426797394.153,63.31128
1426797394.169,59.701538
1426797394.185,51.6687
1426797394.2,41.068237
1426797394.216,30.147705
1426797394.232,20.449524
1426797394.247,12.257751
1426797394.263,4.8275757
1426797394.278,-2.9796143
1426797394.294,-11.620056
1426797394.31,-20.465637
1426797394.325,-28.108826
1426797394.341,-32.978394
1426797394.357,-34.312866
1426797394.372,-32.641846
1426797394.388,-29.419678
1426797394.403,-26.411255
1426797394.419,-24.854431
1426797394.435,-24.904785
1426797394.45,-25.805603
1426797394.466,-26.382263
1426797394.482,-25.836914
1426797394.497,-24.18811
1426797394.513,-22.127625
1426797394.528,-20.48999
1426797394.544,-19.75824
1426797394.56,-19.62561
1426797394.575,-19.192993
1426797394.591,-17.38446
1426797394.607,-13.452087
1426797394.622,-7.5115967
1426797394.638,-0.37835693
1426797394.653,6.8825073
1426797394.669,13.570251
1426797394.685,19.766602
1426797394.7,26.340576
1426797394.716,34.381165
1426797394.732,44.36615
1426797394.747,55.63672
1426797394.763,66.335754
1426797394.778,73.94623
1426797394.794,76.390076
1426797394.81,72.951904
1426797394.825,64.52161
1426797394.841,53.21393
1426797394.857,41.34375
1426797394.872,30.313538
1426797394.888,20.32489
1426797394.903,10.628723
1426797394.919,0.28045654
1426797394.935,-10.92688
1426797394.95,-22.242004
1426797394.966,-32.141174
1426797394.982,-39.123352
1426797394.997,-42.4693
1426797395.013,-42.594788
1426797395.028,-40.625122
1426797395.044,-37.866516
1426797395.06,-34.974854
1426797395.075,-31.682312
1426797395.091,-27.190979
1426797395.107,-20.777893
1426797395.122,-12.56134
1426797395.138,-3.6496582
1426797395.153,4.219116
1426797395.169,9.5269165
1426797395.185,11.674988
1426797395.2,11.206055
1426797395.216,9.665344
1426797395.232,8.558899
1426797395.247,8.713623
1426797395.263,9.96936
1426797395.278,11.461548
1426797395.294,12.41626
1426797395.31,12.869629
1426797395.325,13.805786
1426797395.341,16.756042
1426797395.357,23.083984
1426797395.372,33.01239
1426797395.388,45.309265
1426797395.403,57.7099
1426797395.419,67.71362
1426797395.435,73.5661
1426797395.45,74.83099
1426797395.466,72.25812
1426797395.482,67.11578
1426797395.497,60.37207
1426797395.513,52.173218
1426797395.528,42.055786
1426797395.544,29.507202
1426797395.56,14.685547
1426797395.575,-1.2944946
1426797395.591,-16.570557
1426797395.607,-29.342346
1426797395.622,-38.636658
1426797395.638,-44.624878
1426797395.653,-48.305786
1426797395.669,-50.806152
1426797395.685,-52.54059
1426797395.7,-53.20807
1426797395.716,-51.976685
1426797395.732,-48.2312
1426797395.747,-42.24066
1426797395.763,-35.149292
1426797395.778,-28.547485
1426797395.794,-23.681396
1426797395.81,-20.717651
1426797395.825,-18.674255
1426797395.841,-15.952026
1426797395.857,-11.129395
1426797395.872,-3.7665405
1426797395.888,5.2943726
1426797395.903,14.432312
1426797395.919,22.052612
1426797395.935,27.35608
1426797395.95,30.822388
1426797395.966,33.8006
1426797395.982,37.894897
1426797395.997,43.9859
1426797396.013,51.716858
1426797396.028,59.622437
1426797396.044,65.81
1426797396.06,68.87854
1426797396.075,68.31531
1426797396.091,64.70471
1426797396.107,59.06433
1426797396.122,52.21399
1426797396.138,44.306824
1426797396.153,35.003845
1426797396.169,23.872559
1426797396.185,11.140686
1426797396.2,-2.1473389
1426797396.216,-14.506714
1426797396.232,-24.493591
1426797396.247,-31.623962
1426797396.263,-36.460632
1426797396.278,-40.161194
1426797396.294,-43.880005
1426797396.31,-47.948364
1426797396.325,-51.707703
1426797396.341,-53.936096
1426797396.357,-53.55133
1426797396.372,-50.24829
1426797396.388,-44.83551
1426797396.403,-38.828003
1426797396.419,-33.72882
1426797396.435,-30.35608
1426797396.45,-28.47284
1426797396.466,-27.069641
1426797396.482,-24.946472
1426797396.497,-21.45691
1426797396.513,-16.786743
1426797396.528,-11.851257
1426797396.544,-7.8046265
1426797396.56,-5.272949
1426797396.575,-4.0996704
1426797396.591,-3.4066772
1426797396.607,-2.0563965
1426797396.622,0.64208984
1426797396.638,4.6158447
1426797396.654,9.281372
1426797396.669,13.836426
1426797396.685,17.795105
1426797396.7,21.23877
1426797396.716,24.389893
1426797396.732,27.276123
1426797396.747,29.319946
1426797396.763,29.303467
1426797396.778,26.00531
1426797396.794,18.83435
1426797396.81,8.303284
1426797396.825,-3.987793
1426797396.841,-15.936829
1426797396.857,-25.748901
1426797396.872,-32.69275
1426797396.888,-37.217224
1426797396.904,-40.61615
1426797396.919,-44.290405
1426797396.935,-48.895264
1426797396.95,-53.99817
1426797396.966,-58.35205
1426797396.982,-60.509094
1426797396.997,-59.770325
1426797397.013,-56.5058
1426797397.029,-51.911133
1426797397.044,-47.385315
1426797397.06,-43.69983
1426797397.075,-40.543457
1426797397.091,-36.873474
1426797397.107,-31.563843
1426797397.122,-24.181335
1426797397.138,-15.329041
1426797397.154,-6.300598
1426797397.169,1.6373291
1426797397.185,7.921875
1426797397.2,12.938232
1426797397.216,17.799255
1426797397.232,23.549805
1426797397.247,30.554138
1426797397.263,38.25763
1426797397.279,45.56018
1426797397.294,51.434875
1426797397.31,55.710815
1426797397.325,59.209106
1426797397.341,63.302307
1426797397.357,69.10782
1426797397.372,76.42587
1426797397.388,83.643616
1426797397.404,88.23013
1426797397.419,87.89111
1426797397.435,81.646576
1426797397.45,70.393524
1426797397.466,56.374634
1426797397.482,42.191284
1426797397.497,29.536163
1426797397.513,18.614807
1426797397.529,8.501831
1426797397.544,-2.00177
1426797397.56,-13.408539
1426797397.575,-25.090393
1426797397.591,-35.555817
1426797397.607,-43.27417
1426797397.622,-47.485992
1426797397.638,-48.50174
1426797397.654,-47.491333
1426797397.669,-45.744232
1426797397.685,-43.956635
1426797397.7,-41.979584
1426797397.716,-38.993347
1426797397.732,-34.213074
1426797397.747,-27.528961
1426797397.763,-19.830902
1426797397.779,-12.609833
1426797397.794,-7.30719
1426797397.81,-4.552185
1426797397.825,-3.751892
1426797397.841,-3.4691162
1426797397.857,-2.0358276
1426797397.872,1.5143433
1426797397.888,6.9545593
1426797397.904,13.155731
1426797397.919,18.619751
1426797397.935,22.467163
1426797397.95,24.937256
1426797397.966,27.26532
1426797397.982,30.988403
1426797397.997,37.06662
1426797398.013,45.28534
1426797398.029,54.27008
1426797398.044,62.139008
1426797398.06,67.238525
1426797398.075,68.92313
1426797398.091,67.48132
1426797398.107,63.833923
1426797398.122,58.628693
1426797398.138,51.868134
1426797398.154,43.013245
1426797398.169,31.480286
1426797398.185,17.314117
1426797398.2,1.507019
1426797398.216,-14.219238
1426797398.232,-28.171753
1426797398.247,-39.38968
1426797398.263,-48.079712
1426797398.279,-55.293793
1426797398.294,-62.217377
1426797398.31,-69.47806
1426797398.325,-76.61911
1426797398.341,-82.501526
1426797398.357,-85.888855
1426797398.372,-86.29196
1426797398.388,-84.32721
1426797398.404,-81.3512
1426797398.419,-78.87576
1426797398.435,-77.80975
1426797398.45,-78.2153
1426797398.466,-79.30167
1426797398.482,-80.07083
1426797398.497,-79.85486
1426797398.513,-78.62698
1426797398.529,-76.841095
1426797398.544,-74.85367
1426797398.56,-72.57132
1426797398.575,-69.05087
1426797398.591,-63.100006
1426797398.607,-53.760223
1426797398.622,-41.07486
1426797398.638,-26.334045
1426797398.654,-11.497467
1426797398.669,1.6430054
1426797398.685,12.401855
1426797398.7,21.356903
1426797398.716,30.056885
1426797398.732,39.865173
1426797398.747,51.114532
1426797398.763,62.710754
1426797398.779,72.632416
1426797398.794,78.927216
1426797398.81,80.72426
1426797398.825,78.73807
1426797398.841,74.77409
1426797398.857,70.90123
1426797398.872,68.43594
1426797398.888,67.42972
1426797398.904,66.87166
1426797398.919,65.44449
1426797398.935,62.375732
1426797398.95,57.86801
1426797398.966,53.10019
1426797398.982,49.452896
1426797398.997,47.738922
1426797399.013,47.72679
1426797399.029,48.293304
1426797399.044,48.152313
1426797399.06,46.48633
1426797399.075,43.448257
1426797399.091,39.847733
1426797399.107,36.64247
1426797399.122,34.23253
1426797399.138,32.176666
1426797399.154,29.633774
1426797399.169,25.866776
1426797399.185,20.94815
1426797399.2,15.78508
1426797399.216,11.7314
1426797399.232,9.825714
1426797399.247,10.205948
1426797399.263,12.030502
1426797399.279,13.849976
1426797399.294,14.383789
1426797399.31,13.118378
1426797399.326,10.577286
1426797399.341,8.012878
1426797399.357,6.797104
1426797399.372,7.7884674
1426797399.388,10.8949585
1426797399.404,15.276001
1426797399.419,19.755966
1426797399.435,23.449982
1426797399.45,25.975388
1426797399.466,27.437134
1426797399.482,28.154602
1426797399.497,28.14772
1426797399.513,27.042343
1426797399.529,24.158752
1426797399.544,18.994125
1426797399.56,11.572311
1426797399.576,2.8327484
1426797399.591,-5.755707
1426797399.607,-12.661316
1426797399.622,-16.922867
1426797399.638,-18.771622
1426797399.654,-19.228271
1426797399.669,-19.66713
1426797399.685,-20.98642
1426797399.701,-23.210434
1426797399.716,-25.484512
1426797399.732,-26.710114
1426797399.747,-26.335236
1426797399.763,-24.745224
1426797399.779,-23.191895
1426797399.794,-23.004044
1426797399.81,-24.824554
1426797399.826,-28.157272
1426797399.841,-31.649368
1426797399.857,-33.74994
1426797399.872,-33.599487
1426797399.888,-31.420685
1426797399.904,-28.241898
1426797399.919,-25.308533
1426797399.935,-23.23581
1426797399.951,-21.641403
1426797399.966,-19.439255
1426797399.982,-15.340439
1426797399.997,-8.784607
1426797400.013,-0.21810913
1426797400.029,9.065567
1426797400.044,17.732498
1426797400.06,25.108826
1426797400.076,31.673676
1426797400.091,38.811295
1426797400.107,47.95761
1426797400.122,59.849716
1426797400.138,73.662506
1426797400.154,87.34235
1426797400.169,98.1656
1426797400.185,103.93387
1426797400.201,103.66728
1426797400.216,97.73273
1426797400.232,87.51672
1426797400.247,74.55809
1426797400.263,59.9581
1426797400.279,44.130966
1426797400.294,27.185715
1426797400.31,9.306274
1426797400.326,-8.809448
1426797400.341,-26.022629
1426797400.357,-41.056442
1426797400.372,-53.03659
1426797400.388,-61.93466
1426797400.404,-68.46861
1426797400.419,-73.77173
1426797400.435,-78.73041
1426797400.451,-83.555664
1426797400.466,-87.63806
1426797400.482,-89.792465
1426797400.497,-88.87785
1426797400.513,-84.42389
1426797400.529,-77.07565
1426797400.544,-68.33003
1426797400.56,-59.99298
1426797400.576,-53.253998
1426797400.591,-48.28534
1426797400.607,-44.24614
1426797400.622,-39.86769
1426797400.638,-34.291733
1426797400.654,-27.575027
1426797400.669,-20.582474
1426797400.685,-14.364105
1426797400.701,-9.406738
1426797400.716,-5.2486725
1426797400.732,-0.73742676
1426797400.747,5.213455
1426797400.763,12.870026
1426797400.779,21.448593
1426797400.794,29.56224
1426797400.81,36.0932
1426797400.826,41.0186
1426797400.841,45.331116
1426797400.857,50.489853
1426797400.872,57.468384
1426797400.888,65.84511
1426797400.904,73.820465
1426797400.919,78.981705
1426797400.935,79.44046
1426797400.951,74.74129
1426797400.966,65.96811
1426797400.982,55.11577
1426797400.997,43.947266
1426797401.013,33.284607
1426797401.029,22.824463
1426797401.044,11.705353
1426797401.06,-0.60691833
1426797401.076,-13.733429
1426797401.091,-26.29213
1426797401.107,-36.527405
1426797401.122,-43.20627
1426797401.138,-46.213013
1426797401.154,-46.540894
1426797401.169,-45.773895
1426797401.185,-45.172455
1426797401.201,-45.024612
1426797401.216,-44.677338
1426797401.232,-42.9012
1426797401.247,-38.921722
1426797401.263,-32.969666
1426797401.279,-26.194138
1426797401.294,-20.068756
1426797401.31,-15.644333
1426797401.326,-12.766556
1426797401.341,-10.189362
1426797401.357,-6.3182373
1426797401.372,-0.042160034
1426797401.388,8.471207
1426797401.404,17.800812
1426797401.419,26.029922
1426797401.435,31.542831
1426797401.451,33.8282
1426797401.466,33.565918
1426797401.482,32.224487
1426797401.497,31.212784
1426797401.513,31.305603
1426797401.529,32.44467
1426797401.544,34.02954
1426797401.56,35.601486
1426797401.576,37.17343
1426797401.591,39.26184
1426797401.607,42.382935
1426797401.622,46.44696
1426797401.638,50.31183
1426797401.654,52.108917
1426797401.669,49.849594
1426797401.685,42.32271
1426797401.701,29.722046
1426797401.716,13.533554
1426797401.732,-3.8769836
1426797401.747,-20.323853
1426797401.763,-34.59369
1426797401.779,-46.692688
1426797401.794,-57.31366
1426797401.81,-67.21274
1426797401.826,-76.49417
1426797401.841,-84.41301
1426797401.857,-89.80382
1426797401.872,-91.656006
1426797401.888,-89.9021
1426797401.904,-85.50136
1426797401.919,-80.03934
1426797401.935,-74.97702
1426797401.951,-71.0126
1426797401.966,-67.8893
1426797401.982,-64.73956
1426797401.997,-60.83261
1426797402.013,-56.227585
1426797402.029,-51.788437
1426797402.044,-48.66794
1426797402.06,-47.584885
1426797402.076,-48.182327
1426797402.091,-49.003372
1426797402.107,-48.02446
1426797402.122,-43.611343
1426797402.138,-35.21945
1426797402.154,-23.809357
1426797402.169,-11.3641815
1426797402.185,0.017333984
1426797402.201,9.01297
1426797402.216,15.614456
1426797402.232,21.029938
1426797402.248,26.890137
1426797402.263,34.1884
1426797402.279,42.753815
1426797402.294,51.19873
1426797402.31,57.616806
1426797402.326,60.553574
1426797402.341,59.613564
1426797402.357,55.59285
1426797402.373,49.892754
1426797402.388,43.610977
1426797402.404,37.009712
1426797402.419,29.58406
1426797402.435,20.678604
1426797402.451,10.180458
1426797402.466,-1.0701675
1426797402.482,-11.589928
1426797402.498,-19.730225
1426797402.513,-24.575035
1426797402.529,-26.244942
1426797402.544,-25.618958
1426797402.56,-23.750397
1426797402.576,-21.12825
1426797402.591,-17.421028
1426797402.607,-11.701004
1426797402.623,-3.377655
1426797402.638,7.2604866
1426797402.654,18.726463
1426797402.669,28.944149
1426797402.685,36.11197
1426797402.701,39.571136
1426797402.716,39.95956
1426797402.732,38.782917
1426797402.748,37.52461
1426797402.763,36.818645
1426797402.779,36.33122
1426797402.794,35.15986
1426797402.81,32.631508
1426797402.826,28.949684
1426797402.841,25.135593
1426797402.857,22.622917
1426797402.873,22.409763
1426797402.888,24.511616
1426797402.904,28.075489
1426797402.919,31.864113
1426797402.935,34.97135
1426797402.951,37.388084
1426797402.966,39.793716
1426797402.982,43.03733
1426797402.998,47.50171
1426797403.013,52.495243
1426797403.029,56.318283
1426797403.044,56.919777
1426797403.06,52.73154
1426797403.076,43.31562
1426797403.091,29.585865
1426797403.107,13.393887
1426797403.123,-3.118208
1426797403.138,-18.380108
1426797403.154,-31.716692
1426797403.169,-43.229332
1426797403.185,-53.47622
1426797403.201,-62.761272
1426797403.216,-70.86842
1426797403.232,-77.012665
1426797403.248,-80.28025
1426797403.263,-80.1623
1426797403.279,-76.92569
1426797403.294,-71.59429
1426797403.31,-65.53524
1426797403.326,-59.89762
1426797403.341,-55.0651
1426797403.357,-50.570442
1426797403.373,-45.46066
1426797403.388,-39.00038
1426797403.404,-31.173515
1426797403.419,-22.736044
1426797403.435,-14.937353
1426797403.451,-8.603107
1426797403.466,-3.683077
1426797403.482,0.77719164
1426797403.498,6.151623
1426797403.513,13.268188
1426797403.529,21.934624
1426797403.544,30.894804
1426797403.56,38.570618
1426797403.576,43.909096
1426797403.591,47.14399
1426797403.607,49.57418
1426797403.623,52.88659
1426797403.638,58.206905
1426797403.654,65.29827
1426797403.669,72.79776
1426797403.685,78.89816
1426797403.701,82.17879
1426797403.716,82.19637
1426797403.732,79.42737
1426797403.748,74.61583
1426797403.763,68.149475
1426797403.779,59.865448
1426797403.794,49.272324
1426797403.81,36.15103
1426797403.826,21.07214
1426797403.841,5.4059544
1426797403.857,-9.136206
1426797403.873,-21.08143
1426797403.888,-29.904139
1426797403.904,-36.086082
1426797403.919,-40.665024
1426797403.935,-44.718407
1426797403.951,-48.766106
1426797403.966,-52.419025
1426797403.982,-54.764233
1426797403.998,-54.834545
1426797404.013,-52.338326
1426797404.029,-47.9635
1426797404.044,-43.11991
1426797404.06,-39.28714
1426797404.076,-37.272163
1426797404.091,-36.781155
1426797404.107,-36.547005
1426797404.123,-35.090885
1426797404.138,-31.4212
1426797404.154,-25.470928
1426797404.169,-18.042011
1426797404.185,-10.09733
1426797404.201,-2.1876125
1426797404.216,5.8343906
1426797404.232,14.548851
1426797404.248,24.46783
1426797404.263,35.32133
1426797404.279,45.994034
1426797404.294,55.03585
1426797404.31,61.23219
1426797404.326,64.309044
1426797404.341,65.13693
1426797404.357,65.17347
1426797404.373,65.802505
1426797404.388,67.52342
1426797404.404,69.65677
1426797404.419,70.688416
1426797404.435,69.01347
1426797404.451,63.715202
1426797404.466,54.95448
1426797404.482,43.874275
1426797404.498,31.951233
1426797404.513,20.288979
1426797404.529,9.093784
1426797404.544,-2.1139183
1426797404.56,-13.996515
1426797404.576,-26.632193
1426797404.591,-39.16105
1426797404.607,-50.07559
1426797404.623,-57.81867
1426797404.638,-61.67768
1426797404.654,-62.11847
1426797404.669,-60.630592
1426797404.685,-58.933586
1426797404.701,-58.097923
1426797404.716,-58.085617
1426797404.732,-57.977623
1426797404.748,-56.664562
1426797404.763,-53.596573
1426797404.779,-49.191338
1426797404.794,-44.565117
1426797404.81,-40.818375
1426797404.826,-38.336533
1426797404.841,-36.420128
1426797404.857,-33.721107
1426797404.873,-28.93438
1426797404.888,-21.602516
1426797404.904,-12.469647
1426797404.92,-3.090372
1426797404.935,4.8743677
1426797404.951,10.681673
1426797404.966,14.784268
1426797404.982,18.603827
1426797404.998,23.722088
1426797405.013,31.05505
1426797405.029,40.35836
1426797405.045,50.341213
1426797405.06,59.38308
1426797405.076,66.15885
1426797405.091,70.28017
1426797405.107,72.11496
1426797405.123,72.437004
1426797405.138,71.578865
1426797405.154,69.30802
1426797405.17,64.79523
1426797405.185,57.159405
1426797405.201,46.231968
1426797405.216,32.793243
1426797405.232,18.449245
1426797405.248,4.968219
1426797405.263,-6.4296703
1426797405.279,-15.621841
1426797405.295,-23.218483
1426797405.31,-30.043234
1426797405.326,-36.495438
1426797405.341,-42.05518
1426797405.357,-45.665062
1426797405.373,-46.296425
1426797405.388,-43.683517
1426797405.404,-38.561142
1426797405.42,-32.494682
1426797405.435,-27.093977
1426797405.451,-23.34595
1426797405.466,-21.25305
1426797405.482,-19.931328
1426797405.498,-18.203129
1426797405.513,-15.279474
1426797405.529,-11.089094
1426797405.545,-6.2724915
1426797405.56,-1.7478733
1426797405.576,1.960226
1426797405.591,5.0826483
1426797405.607,8.364788
1426797405.623,12.817495
1426797405.638,18.854368
1426797405.654,26.104118
1426797405.67,33.56359
1426797405.685,40.126076
1426797405.701,45.28714
1426797405.716,49.467407
1426797405.732,53.75992
1426797405.748,59.125164
1426797405.763,65.70435
1426797405.779,72.37294
1426797405.795,77.14156
1426797405.81,78.053314
1426797405.826,74.14238
1426797405.841,65.904
1426797405.857,55.02518
1426797405.873,43.57775
1426797405.888,33.024174
1426797405.904,23.685398
1426797405.92,14.863255
1426797405.935,5.566757
1426797405.951,-4.667698
1426797405.966,-15.253609
1426797405.982,-24.838806
1426797405.998,-31.909744
1426797406.013,-35.74331
1426797406.029,-36.79191
1426797406.045,-36.36693
1426797406.06,-36.017868
1426797406.076,-36.664017
1426797406.091,-38.020782
1426797406.107,-38.913597
1426797406.123,-37.87445
1426797406.138,-34.165062
1426797406.154,-28.146645
1426797406.17,-21.286568
1426797406.185,-15.130005
1426797406.201,-10.50679
1426797406.216,-7.072563
1426797406.232,-3.5648956
1426797406.248,1.4158936
1426797406.263,8.408936
1426797406.279,16.65155
1426797406.295,24.556961
1426797406.31,30.42041
1426797406.326,33.531418
1426797406.341,34.571808
1426797406.357,35.214798
1426797406.373,37.18637
1426797406.388,41.341385
1426797406.404,47.107635
1426797406.42,52.769073
1426797406.435,56.32106
1426797406.451,56.301163
1426797406.466,52.34047
1426797406.482,45.10588
1426797406.498,35.86537
1426797406.513,25.676208
1426797406.529,15.033554
1426797406.545,3.821991
1426797406.56,-8.249939
1426797406.576,-21.129028
1426797406.591,-34.072174
1426797406.607,-45.83014
1426797406.623,-55.066147
1426797406.638,-61.026688
1426797406.654,-63.801117
1426797406.67,-64.38013
1426797406.685,-64.04373
1426797406.701,-63.702225
1426797406.716,-63.481995
1426797406.732,-62.85269
1426797406.748,-60.989
1426797406.763,-57.45862
1426797406.779,-52.56978
1426797406.795,-47.260468
1426797406.81,-42.63263
1426797406.826,-39.33911
1426797406.841,-37.157898
1426797406.857,-35.054535
1426797406.873,-31.753235
1426797406.888,-26.397278
1426797406.904,-19.085266
1426797406.92,-10.823669
1426797406.935,-3.0523071
1426797406.951,3.0959778
1426797406.966,7.471527
1426797406.982,10.826874
1426797406.998,14.5911255
1426797407.013,19.88742
1426797407.029,27.068726
1426797407.045,35.386322
1426797407.06,43.415375
1426797407.076,49.680878
1426797407.091,53.322754
1426797407.107,54.29016
1426797407.123,53.11078
1426797407.138,50.347473
1426797407.154,46.08673
1426797407.17,39.91266
1426797407.185,31.251984
1426797407.201,19.977264
1426797407.216,6.7920837
1426797407.232,-6.871704
1426797407.248,-19.354645
1426797407.263,-29.651154
1426797407.279,-37.849915
1426797407.295,-45.002502
1426797407.31,-52.4393
1426797407.326,-60.81601
1426797407.341,-69.64783
1426797407.357,-77.4093
1426797407.373,-82.26666
1426797407.388,-83.03897
1426797407.404,-79.87363
1426797407.42,-74.06973
1426797407.435,-67.40668
1426797407.451,-61.323456
1426797407.466,-56.230377
1426797407.482,-51.792603
1426797407.498,-47.137268
1426797407.513,-41.82779
1426797407.529,-36.05951
1426797407.545,-30.626862
1426797407.56,-26.327576
1426797407.576,-23.437714
1426797407.592,-21.251587
1426797407.607,-18.487091
1426797407.623,-13.915161
1426797407.638,-6.9494324
1426797407.654,1.8591003
1426797407.67,11.157166
1426797407.685,19.486053
1426797407.701,26.000885
1426797407.716,30.9122
1426797407.732,35.307983
1426797407.748,40.469177
1426797407.763,46.964264
1426797407.779,54.200226
1426797407.795,60.49823
1426797407.81,63.797424
1426797407.826,62.611816
1426797407.842,56.66458
1426797407.857,46.93094
1426797407.873,35.088593
1426797407.888,22.82016
1426797407.904,10.945709
1426797407.92,-0.59732056
1426797407.935,-12.39502
1426797407.951,-24.879242
1426797407.967,-37.610138
1426797407.982,-49.392944
1426797407.998,-58.53409
1426797408.013,-63.88611
1426797408.029,-65.37109
1426797408.045,-64.15317
1426797408.06,-62.016846
1426797408.076,-60.634583
1426797408.092,-60.58438
1426797408.107,-61.265106
1426797408.123,-61.35028
1426797408.138,-59.605255
1426797408.154,-55.740723
1426797408.17,-50.609894
1426797408.185,-45.600403
1426797408.201,-41.838196
1426797408.217,-39.4942
1426797408.232,-37.61554
1426797408.248,-34.67267
1426797408.263,-29.512817
1426797408.279,-22.00473
1426797408.295,-13.246887
1426797408.31,-4.8879547
1426797408.326,1.7278442
1426797408.342,6.309311
1426797408.357,9.668732
1426797408.373,13.204971
1426797408.388,17.983566
1426797408.404,24.243713
1426797408.42,31.295135
1426797408.435,38.196136
1426797408.451,44.395844
1426797408.467,50.210953
1426797408.482,56.3721
1426797408.498,63.44493
1426797408.513,71.06651
1426797408.529,77.65526
1426797408.545,81.05142
1426797408.56,79.45041
1426797408.576,72.27577
1426797408.592,60.585144
1426797408.607,46.583344
1426797408.623,32.69995
1426797408.638,20.653412
1426797408.654,10.975922
1426797408.67,3.1027222
1426797408.685,-3.8759308
1426797408.701,-10.564667
1426797408.717,-16.878952
1426797408.732,-22.128265
1426797408.748,-25.374893
1426797408.763,-26.201538
1426797408.779,-24.934616
1426797408.795,-22.63887
1426797408.81,-20.645966
1426797408.826,-19.891647
1426797408.842,-20.40268
1426797408.857,-21.452087
1426797408.873,-21.821259
1426797408.888,-20.603104
1426797408.904,-17.672852
1426797408.92,-13.8281555
1426797408.935,-10.241287
1426797408.951,-7.891144
1426797408.967,-6.900131
1426797408.982,-6.4797363
1426797408.998,-5.4216156
1426797409.013,-2.7420654
1426797409.029,1.6188812
1426797409.045,6.756256
1426797409.06,11.305679
1426797409.076,14.221527
1426797409.092,15.506989
1426797409.107,16.234756
1426797409.123,18.114777
1426797409.138,22.376587
1426797409.154,29.043564
1426797409.17,36.616425
1426797409.185,42.64714
1426797409.201,44.82229
1426797409.217,42.066498
1426797409.232,34.77437
1426797409.248,24.613136
1426797409.263,13.552666
1426797409.279,2.8457565
1426797409.295,-7.239769
1426797409.31,-17.195541
1426797409.326,-27.564323
1426797409.342,-38.0841
1426797409.357,-47.583206
1426797409.373,-54.409653
1426797409.388,-57.333344
1426797409.404,-56.224983
1426797409.42,-52.286995
1426797409.435,-47.39315
1426797409.451,-43.082306
1426797409.467,-39.84108
1426797409.482,-36.896317
1426797409.498,-32.80871
1426797409.513,-26.424934
1426797409.529,-17.736519
1426797409.545,-7.9356995
1426797409.56,1.0954285
1426797409.576,7.8242264
1426797409.592,11.953018
1426797409.607,14.417488
1426797409.623,16.972351
1426797409.638,21.012245
1426797409.654,26.806381
1426797409.67,33.402428
1426797409.685,39.25804
1426797409.701,43.028038
1426797409.717,44.51668
1426797409.732,44.68868
1426797409.748,45.081303
1426797409.763,47.0382
1426797409.779,50.950817
1426797409.795,56.16361
1426797409.81,61.458534
1426797409.826,65.63719
1426797409.842,68.03787
1426797409.857,68.58664
1426797409.873,67.594246
1426797409.888,65.174484
1426797409.904,61.06634
1426797409.92,54.609737
1426797409.935,45.204304
1426797409.951,32.79536
1426797409.967,18.171612
1426797409.982,2.8960915
1426797409.998,-11.173431
1426797410.013,-22.475975
1426797410.029,-30.398743
1426797410.045,-35.305637
1426797410.06,-38.2507
1426797410.076,-40.293037
1426797410.092,-41.95315
1426797410.107,-43.01691
1426797410.123,-42.74826
1426797410.138,-40.635735
1426797410.154,-36.727608
1426797410.17,-31.948608
1426797410.185,-27.473186
1426797410.201,-24.262299
1426797410.217,-22.443047
1426797410.232,-21.325943
1426797410.248,-19.789188
1426797410.264,-16.874306
1426797410.279,-12.434559
1426797410.295,-7.044037
1426797410.31,-1.6502609
1426797410.326,3.0323372
1426797410.342,7.000225
1426797410.357,10.835587
1426797410.373,15.397106
1426797410.388,21.167126
1426797410.404,27.912582
1426797410.42,34.68956
1426797410.435,40.364544
1426797410.451,44.254787
1426797410.467,46.62244
1426797410.482,48.57891
1426797410.498,51.447823
1426797410.514,55.965496
1426797410.529,61.571095
1426797410.545,66.47002
1426797410.56,68.24486
1426797410.576,65.01181
1426797410.592,56.23411
1426797410.607,42.97452
1426797410.623,27.471409
1426797410.639,11.986176
1426797410.654,-1.9839325
1426797410.67,-14.148087
1426797410.685,-24.992802
1426797410.701,-35.22394
1426797410.717,-44.815086
1426797410.732,-53.0241
1426797410.748,-58.71711
1426797410.764,-61.005707
1426797410.779,-59.954872
1426797410.795,-56.703888
1426797410.81,-52.88105
1426797410.826,-49.92443
1426797410.842,-48.306763
1426797410.857,-47.422966
1426797410.873,-45.934113
1426797410.889,-42.65641
1426797410.904,-37.257004
1426797410.92,-30.453949
1426797410.935,-23.639801
1426797410.951,-18.12149
1426797410.967,-14.2992325
1426797410.982,-11.556465
1426797410.998,-8.687332
1426797411.014,-4.7222214
1426797411.029,0.4577179
1426797411.045,5.9416428
1426797411.06,10.278877
1426797411.076,12.383507
1426797411.092,12.134544
1426797411.107,10.566101
1426797411.123,9.468666
1426797411.139,10.356857
1426797411.154,13.8001175
1426797411.17,19.19455
1426797411.185,25.17102
1426797411.201,30.123444
1426797411.217,33.044205
1426797411.232,33.61438
1426797411.248,32.102654
1426797411.264,28.861763
1426797411.279,23.861168
1426797411.295,16.660149
1426797411.31,6.780266
1426797411.326,-5.7364426
1426797411.342,-19.849808
1426797411.357,-33.596413
1426797411.373,-44.744633
1426797411.389,-51.529415
1426797411.404,-53.434208
1426797411.42,-51.36821
1426797411.435,-47.044132
1426797411.451,-42.28541
1426797411.467,-38.08748
1426797411.482,-34.397205
1426797411.498,-30.2639
1426797411.514,-24.780823
1426797411.529,-17.60728
1426797411.545,-9.339645
1426797411.56,-1.2373428
1426797411.576,5.4841805
1426797411.592,10.228214
1426797411.607,13.140465
1426797411.623,15.019596
1426797411.639,16.75819
1426797411.654,18.54076
1426797411.67,20.048298
1426797411.685,20.66072
1426797411.701,20.022873
1426797411.717,18.638145
1426797411.732,17.623646
1426797411.748,18.317848
1426797411.764,21.616844
1426797411.779,27.476868
1426797411.795,34.782887
1426797411.81,42.077034
1426797411.826,48.185078
1426797411.842,52.86756
1426797411.857,56.865646
1426797411.873,61.267315
1426797411.889,66.71542
1426797411.904,72.78015
1426797411.92,77.74742
1426797411.935,79.35458
1426797411.951,75.830315
1426797411.967,66.754654
1426797411.982,53.264202
1426797411.998,37.68733
1426797412.014,22.304104
1426797412.029,8.557041
1426797412.045,-3.3206825
1426797412.06,-13.978279
1426797412.076,-24.166126
1426797412.092,-33.906532
1426797412.107,-42.42531
1426797412.123,-48.62103
1426797412.139,-51.56375
1426797412.154,-51.39132
1426797412.17,-49.12757
1426797412.185,-46.230087
1426797412.201,-43.93416
1426797412.217,-42.503677
1426797412.232,-41.32251
1426797412.248,-39.222687
1426797412.264,-35.406036
1426797412.279,-29.797523
1426797412.295,-23.41291
1426797412.31,-17.631866
1426797412.326,-13.6201935
1426797412.342,-11.505333
1426797412.357,-10.417229
1426797412.373,-8.866386
1426797412.389,-5.630623
1426797412.404,-0.4456787
1426797412.42,5.9534836
1426797412.435,12.136787
1426797412.451,16.947021
1426797412.467,20.143425
1426797412.482,22.50441
1426797412.498,25.566147
1426797412.514,30.70485
1426797412.529,38.348167
1426797412.545,47.66709
1426797412.56,56.983315
1426797412.576,64.20324
1426797412.592,67.77337
1426797412.607,67.12046
1426797412.623,62.66165
1426797412.639,55.47782
1426797412.654,46.571785
1426797412.67,36.53163
1426797412.685,25.482552
1426797412.701,13.379799
1426797412.717,0.5213165
1426797412.732,-12.283127
1426797412.748,-23.70774
1426797412.764,-32.585106
1426797412.779,-38.345352
1426797412.795,-41.386887
1426797412.81,-42.810623
1426797412.826,-43.910355
1426797412.842,-45.379288
1426797412.857,-47.078857
1426797412.873,-48.159073
1426797412.889,-47.55406
1426797412.904,-44.819
1426797412.92,-40.388565
1426797412.935,-35.466064
1426797412.951,-31.39061
1426797412.967,-28.957626
1426797412.982,-27.9402
1426797412.998,-27.283798
1426797413.014,-25.608017
1426797413.029,-21.943207
1426797413.045,-16.320969
1426797413.06,-9.577774
1426797413.076,-2.9278717
1426797413.092,2.8181763
1426797413.107,7.585495
1426797413.123,12.088257
1426797413.139,17.208832
1426797413.154,23.369614
1426797413.17,30.233994
1426797413.186,36.949997
1426797413.201,42.67476
1426797413.217,47.237152
1426797413.232,51.106857
1426797413.248,55.054855
1426797413.264,59.46283
1426797413.279,63.599167
1426797413.295,65.7115
1426797413.311,63.78401
1426797413.326,56.525406
1426797413.342,44.154846
1426797413.357,28.49408
1426797413.373,12.183212
1426797413.389,-2.3932953
1426797413.404,-14.038162
1426797413.42,-23.085922
1426797413.436,-30.77478
1426797413.451,-38.319366
1426797413.467,-46.063248
1426797413.482,-53.25807
1426797413.498,-58.592102
1426797413.514,-61.036026
1426797413.529,-60.553925
1426797413.545,-58.24048
1426797413.561,-55.7381
1426797413.576,-54.44156
1426797413.592,-54.6474
1426797413.607,-55.53882
1426797413.623,-55.65822
1426797413.639,-53.77487
1426797413.654,-49.631226
1426797413.67,-44.050674
1426797413.686,-38.322342
1426797413.701,-33.562256
1426797413.717,-29.9012
1426797413.732,-26.45111
1426797413.748,-21.815979
1426797413.764,-14.955109
1426797413.779,-5.8032227
1426797413.795,4.5222626
1426797413.811,14.226593
1426797413.826,21.816376
1426797413.842,26.760605
1426797413.857,29.791107
1426797413.873,32.520676
1426797413.889,36.696106
1426797413.904,43.272217
1426797413.92,51.945496
1426797413.936,61.350037
1426797413.951,69.393555
1426797413.967,74.24483
1426797413.982,74.89876
1426797413.998,71.34302
1426797414.014,64.27228
1426797414.029,54.600723
1426797414.045,43.02446
1426797414.061,29.94693
1426797414.076,15.663025
1426797414.092,0.7702484
1426797414.107,-13.672089
1426797414.123,-26.293869
1426797414.139,-35.93976
1426797414.154,-42.209335
1426797414.17,-45.659225
1426797414.186,-47.44165
1426797414.201,-48.795273
1426797414.217,-50.41739
1426797414.232,-52.219803
1426797414.248,-53.40355
1426797414.264,-53.10295
1426797414.279,-50.927475
1426797414.295,-47.205826
1426797414.311,-42.893814
1426797414.326,-38.951797
1426797414.342,-35.858948
1426797414.357,-33.31143
1426797414.373,-30.415771
1426797414.389,-26.093643
1426797414.404,-19.734497
1426797414.42,-11.64534
1426797414.436,-2.7522888
1426797414.451,5.7108765
1426797414.467,12.947418
1426797414.482,18.904114
1426797414.498,24.215439
1426797414.514,29.715103
1426797414.529,35.86386
1426797414.545,42.428864
1426797414.561,48.753326
1426797414.576,54.134964
1426797414.592,58.45073
1426797414.607,62.16922
1426797414.623,66.035065
1426797414.639,70.292206
1426797414.654,74.196686
1426797414.67,76.01892
1426797414.686,73.76277
1426797414.701,66.15274
1426797414.717,53.34642
1426797414.732,37.00493
1426797414.748,19.627289
1426797414.764,3.4880066
1426797414.779,-10.268585
1426797414.795,-21.719849
1426797414.811,-31.760773
1426797414.826,-41.200317
1426797414.842,-50.021637
1426797414.857,-57.3284
1426797414.873,-61.85605
1426797414.889,-62.831635
1426797414.904,-60.41617
1426797414.92,-55.834564
1426797414.936,-50.760742
1426797414.951,-46.606476
1426797414.967,-43.866486
1426797414.982,-42.015533
1426797414.998,-39.997925
1426797415.014,-36.85977
1426797415.029,-32.385284
1426797415.045,-27.19751
1426797415.061,-22.30069
1426797415.076,-18.539948
1426797415.092,-15.9809265
1426797415.107,-13.912262
1426797415.123,-11.142761
1426797415.139,-6.754822
1426797415.154,-0.5625305
1426797415.17,6.712097
1426797415.186,13.890198
1426797415.201,19.972992
1426797415.217,24.758484
1426797415.232,28.906677
1426797415.248,33.733
1426797415.264,40.50659
1426797415.279,49.642883
1426797415.295,60.435455
1426797415.311,71.20926
1426797415.326,79.81491
1426797415.342,84.51102
1426797415.357,84.42001
1426797415.373,79.769104
1426797415.389,71.531494
1426797415.404,60.81183
1426797415.42,48.401794
1426797415.436,34.617035
1426797415.451,19.540222
1426797415.467,3.4580994
1426797415.482,-12.835907
1426797415.498,-28.118195
1426797415.514,-41.02176
1426797415.529,-50.694946
1426797415.545,-57.153656
1426797415.561,-61.16394
1426797415.576,-63.832825
1426797415.592,-65.97815
1426797415.607,-67.70166
1426797415.623,-68.430176
1426797415.639,-67.40048
1426797415.654,-64.184204
1426797415.67,-59.180725
1426797415.686,-53.35672
1426797415.701,-47.869232
1426797415.717,-43.361877
1426797415.732,-39.714996
1426797415.748,-36.09494
1426797415.764,-31.464996
1426797415.779,-25.235931
1426797415.795,-17.551788
1426797415.811,-9.221832
1426797415.826,-1.2797852
1426797415.842,5.5789795
1426797415.858,11.371124
1426797415.873,16.659546
1426797415.889,22.239838
1426797415.904,28.644623
1426797415.92,35.82721
1426797415.936,43.27289
1426797415.951,50.37845
1426797415.967,56.925232
1426797415.983,63.13156
1426797415.998,69.43097
1426797416.014,75.907166
1426797416.029,81.76221
1426797416.045,85.353485
1426797416.061,84.746796
1426797416.076,78.536865
1426797416.092,66.70148
1426797416.108,50.635284
1426797416.123,32.701782
1426797416.139,15.160522
1426797416.154,-0.5660095
1426797416.17,-14.323395
1426797416.186,-26.760315
1426797416.201,-38.64514
1426797416.217,-50.08139
1426797416.233,-60.36377
1426797416.248,-68.2771
1426797416.264,-72.84799
1426797416.279,-73.97101
1426797416.295,-72.51831
1426797416.311,-70.023834
1426797416.326,-67.79727
1426797416.342,-66.38321
1426797416.358,-65.260956
1426797416.373,-63.253998
1426797416.389,-59.302704
1426797416.404,-53.144073
1426797416.42,-45.556427
1426797416.436,-37.939514
1426797416.451,-31.717163
1426797416.467,-27.414825
1426797416.483,-24.456757
1426797416.498,-21.398834
1426797416.514,-16.700256
1426797416.529,-9.557159
1426797416.545,-0.3796997
1426797416.561,9.413422
1426797416.576,18.07489
1426797416.592,24.505646
1426797416.608,28.738617
1426797416.623,32.007935
1426797416.639,35.994324
1426797416.654,41.97589
1426797416.67,50.174133
1426797416.686,59.674652
1426797416.701,68.822876
1426797416.717,76.0423
1426797416.733,80.2991
1426797416.748,81.303314
1426797416.764,79.228516
1426797416.779,74.27231
1426797416.795,66.52252
1426797416.811,55.887543
1426797416.826,42.422638
1426797416.842,26.614746
1426797416.858,9.598358
1426797416.873,-7.2055664
1426797416.889,-22.414795
1426797416.904,-35.152252
1426797416.92,-45.308075
1426797416.936,-53.258087
1426797416.951,-59.579956
1426797416.967,-64.594604
1426797416.983,-68.236115
1426797416.998,-70.01779
1426797417.014,-69.524475
1426797417.029,-66.79236
1426797417.045,-62.46039
1426797417.061,-57.5766
1426797417.076,-53.22397
1426797417.092,-49.97415
1426797417.108,-47.658997
1426797417.123,-45.536896
1426797417.139,-42.6445
1426797417.154,-38.434204
1426797417.17,-33.03833
1426797417.186,-27.096375
1426797417.201,-21.444885
1426797417.217,-16.51892
1426797417.233,-12.098053
1426797417.248,-7.440857
1426797417.264,-1.7477722
1426797417.279,5.241028
1426797417.295,13.02713
1426797417.311,20.611633
1426797417.326,27.072083
1426797417.342,32.09552
1426797417.358,36.34909
1426797417.373,41.17038
1426797417.389,47.822144
1426797417.404,56.68344
1426797417.42,66.64218
1426797417.436,75.41974
1426797417.451,80.32062
1426797417.467,79.44473
1426797417.483,72.46744
1426797417.498,60.671112
1426797417.514,46.375305
1426797417.529,31.748627
1426797417.545,17.924347
1426797417.561,4.869995
1426797417.576,-8.080139
1426797417.592,-21.379211
1426797417.608,-34.533905
1426797417.623,-46.177277
1426797417.639,-54.65851
1426797417.654,-59.058105
1426797417.67,-59.628937
1426797417.686,-57.767303
1426797417.701,-55.227783
1426797417.717,-53.228424
1426797417.733,-51.908936
1426797417.748,-50.434265
1426797417.764,-47.682953
1426797417.779,-42.99344
1426797417.795,-36.795135
1426797417.811,-30.338562
1426797417.826,-25.085236
1426797417.842,-21.895142
1426797417.858,-20.548676
1426797417.873,-19.80603
1426797417.889,-18.066956
1426797417.904,-14.212219
1426797417.92,-8.121704
1426797417.936,-0.6951599
1426797417.951,6.7760925
1426797417.967,13.245483
1426797417.983,18.578796
1426797417.998,23.49356
1426797418.014,29.086578
1426797418.029,36.105865
1426797418.045,44.503326
1426797418.061,53.532898
1426797418.076,62.094482
1426797418.092,69.39511
1426797418.108,75.16388
1426797418.123,79.51688
1426797418.139,82.5159
1426797418.154,83.5925
1426797418.17,81.66684
1426797418.186,75.558014
1426797418.201,64.67728
1426797418.217,49.51657
1426797418.233,31.695862
1426797418.248,13.488739
1426797418.264,-3.0787048
1426797418.279,-16.857513
1426797418.295,-27.847717
1426797418.311,-36.823486
1426797418.326,-44.651733
1426797418.342,-51.696167
1426797418.358,-57.595154
1426797418.373,-61.52118
1426797418.389,-62.720825
1426797418.404,-61.161957
1426797418.42,-57.63733
1426797418.436,-53.462982
1426797418.451,-49.805573
1426797418.467,-47.10013
1426797418.483,-44.958954
1426797418.498,-42.391876
1426797418.514,-38.470917
1426797418.53,-32.980774
1426797418.545,-26.625061
1426797418.561,-20.617828
1426797418.576,-16.039886
1426797418.592,-13.145966
1426797418.608,-11.215973
1426797418.623,-8.932678
1426797418.639,-5.0648804
1426797418.655,0.7704468
1426797418.67,7.92511
1426797418.686,15.098419
1426797418.701,21.079529
1426797418.717,25.505096
1426797418.733,28.99942
1426797418.748,32.8956
1426797418.764,38.486664
1426797418.78,46.346222
1426797418.795,55.98575
1426797418.811,66.01361
1426797418.826,74.6958
1426797418.842,80.528534
1426797418.858,82.64197
1426797418.873,80.90994
1426797418.889,75.75354
1426797418.905,67.81293
1426797418.92,57.587585
1426797418.936,45.38977
1426797418.951,31.286285
1426797418.967,15.594727
1426797418.983,-0.9125061
1426797418.998,-17.004395
1426797419.014,-31.241821
1426797419.03,-42.52478
1426797419.045,-50.59012
1426797419.061,-56.015137
1426797419.076,-59.837982
1426797419.092,-62.97177
1426797419.108,-65.62894
1426797419.123,-67.24255
1426797419.139,-66.91409
1426797419.155,-64.103546
1426797419.17,-59.10031
1426797419.186,-52.891113
1426797419.201,-46.783264
1426797419.217,-41.69879
1426797419.233,-37.79373
1426797419.248,-34.537018
1426797419.264,-31.04715
1426797419.28,-26.747742
1426797419.295,-21.583252
1426797419.311,-16.021667
1426797419.326,-10.699921
1426797419.342,-6.05954
1426797419.358,-1.9861145
1426797419.373,2.0784302
1426797419.389,6.7986145
1426797419.405,12.635712
1426797419.42,19.336609
1426797419.436,26.24997
1426797419.451,32.597748
1426797419.467,38.04477
1426797419.483,42.992706
1426797419.498,48.44629
1426797419.514,55.322357
1426797419.53,63.664795
1426797419.545,72.22473
1426797419.561,78.6882
1426797419.576,80.599
1426797419.592,76.52086
1426797419.608,66.66939
1426797419.623,52.780655
1426797419.639,37.33345
1426797419.655,22.45079
1426797419.67,9.056107
1426797419.686,-3.040512
1426797419.701,-14.615753
1426797419.717,-26.166367
1426797419.733,-37.373016
1426797419.748,-47.110123
1426797419.764,-54.08394
1426797419.78,-57.543182
1426797419.795,-57.82457
1426797419.811,-56.18547
1426797419.826,-54.163742
1426797419.842,-52.831436
1426797419.858,-52.230957
1426797419.873,-51.4505
1426797419.889,-49.256058
1426797419.905,-44.95125
1426797419.92,-38.861023
1426797419.936,-32.247437
1426797419.951,-26.656555
1426797419.967,-23.032837
1426797419.983,-21.238785
1426797419.998,-20.100967
1426797420.014,-18.028336
1426797420.03,-13.849014
1426797420.045,-7.5166016
1426797420.061,0.041671753
1426797420.076,7.3624115
1426797420.092,13.302277
1426797420.108,17.701889
1426797420.123,21.307266
1426797420.139,25.29303
1426797420.155,30.595993
1426797420.17,37.29802
1426797420.186,44.72087
1426797420.201,51.84323
1426797420.217,57.931137
1426797420.233,62.772736
1426797420.248,66.58542
1426797420.264,69.39006
1426797420.28,70.67363
1426797420.295,69.326416
1426797420.311,64.11153
1426797420.326,54.374344
1426797420.342,40.534485
1426797420.358,24.086578
1426797420.373,7.097122
1426797420.389,-8.460236
1426797420.405,-21.442245
1426797420.42,-31.708023
1426797420.436,-39.852356
1426797420.451,-46.668686
1426797420.467,-52.521927
1426797420.483,-57.19252
1426797420.498,-59.950836
1426797420.514,-60.201035
1426797420.53,-57.796112
1426797420.545,-53.414368
1426797420.561,-48.259644
1426797420.576,-43.5838
1426797420.592,-40.150192
1426797420.608,-37.88089
1426797420.623,-36.007202
1426797420.639,-33.561066
1426797420.655,-30.049484
1426797420.67,-25.696548
1426797420.686,-21.241638
1426797420.701,-17.450012
1426797420.717,-14.580292
1426797420.733,-12.116898
1426797420.748,-9.085541
1426797420.764,-4.592499
1426797420.78,1.6105347
1426797420.795,8.862228
1426797420.811,15.9665985
1426797420.826,21.748901
1426797420.842,25.77594
1426797420.858,28.603195
1426797420.873,31.591782
1426797420.889,36.26602
1426797420.905,43.51114
1426797420.92,53.00142
1426797420.936,63.102417
1426797420.951,71.45628
1426797420.967,75.80916
1426797420.983,74.819595
1426797420.998,68.62216
1426797421.014,58.465897
1426797421.03,46.095215
1426797421.045,32.865433
1426797421.061,19.384155
1426797421.076,5.578247
1426797421.092,-8.567688
1426797421.108,-22.612808
1426797421.123,-35.46228
1426797421.139,-45.685852
1426797421.155,-52.221115
1426797421.17,-55.07495
1426797421.186,-55.285995
1426797421.202,-54.461273
1426797421.217,-54.000458
1426797421.233,-54.275864
1426797421.248,-54.713196
1426797421.264,-54.16014
1426797421.28,-51.621292
1426797421.295,-47.016068
1426797421.311,-41.19461
1426797421.326,-35.47432
1426797421.342,-30.942154
1426797421.358,-27.77861
1426797421.373,-25.140518
1426797421.389,-21.710281
1426797421.405,-16.406677
1426797421.42,-9.095367
1426797421.436,-0.6947479
1426797421.452,7.2883606
1426797421.467,13.73645
1426797421.483,18.301392
1426797421.498,21.735794
1426797421.514,25.284561
1426797421.53,30.06784
1426797421.545,36.389465
1426797421.561,43.750427
1426797421.577,51.064156
1426797421.592,57.302742
1426797421.608,61.87526
1426797421.623,64.58259
1426797421.639,65.38057
1426797421.655,64.02269
1426797421.67,59.99269
1426797421.686,52.689606
1426797421.702,41.877556
1426797421.717,28.000465
1426797421.733,12.393028
1426797421.748,-3.1538162
1426797421.764,-16.909103
1426797421.78,-27.744232
1426797421.795,-35.520958
1426797421.811,-40.94703
1426797421.827,-45.045273
1426797421.842,-48.667427
1426797421.858,-52.032448
1426797421.873,-54.604485
1426797421.889,-55.536774
1426797421.905,-54.148415
1426797421.92,-50.49579
1426797421.936,-45.37526
1426797421.952,-40.17189
1426797421.967,-35.937973
1426797421.983,-33.12954
1426797421.998,-31.230217
1426797422.014,-29.136963
1426797422.03,-25.84896
1426797422.045,-21.015823
1426797422.061,-15.127808
1426797422.077,-9.179085
1426797422.092,-4.024971
1426797422.108,0.21302032
1426797422.123,4.066498
1426797422.139,8.413681
1426797422.155,13.842827
1426797422.17,20.134212
1426797422.186,26.463451
1426797422.202,31.801678
1426797422.217,35.62974
1426797422.233,38.366867
1426797422.248,41.09475
1426797422.264,44.919075
1426797422.28,50.211876
1426797422.295,56.04477
1426797422.311,60.405933
1426797422.327,61.070705
1426797422.342,56.561115
1426797422.358,46.917282
1426797422.373,33.758774
1426797422.389,19.480202
1426797422.405,6.275076
1426797422.42,-4.748953
1426797422.436,-13.733929
1426797422.452,-21.66389
1426797422.467,-29.22732
1426797422.483,-36.41387
1426797422.498,-42.364067
1426797422.514,-45.82872
1426797422.53,-46.082344
1426797422.545,-43.40332
1426797422.561,-39.008926
1426797422.577,-34.50349
1426797422.592,-31.115585
1426797422.608,-29.054834
1426797422.623,-27.689472
1426797422.639,-26.022802
1426797422.655,-23.25137
1426797422.67,-19.407906
1426797422.686,-15.22447
1426797422.702,-11.720751
1426797422.717,-9.610451
1426797422.733,-8.775296
1426797422.748,-8.166952
1426797422.764,-6.444916
1426797422.78,-2.5717945
1426797422.795,3.5876637
1426797422.811,11.099558
1426797422.827,18.45475
1426797422.842,24.430677
1426797422.858,28.644083
1426797422.873,31.814194
1426797422.889,35.33157
1426797422.905,40.302124
1426797422.92,46.829105
1426797422.936,53.87909
1426797422.952,59.49941
1426797422.967,61.92017
1426797422.983,60.270676
1426797422.998,54.8606
1426797423.014,46.94571
1426797423.03,38.068527
1426797423.045,29.16705
1426797423.061,20.366657
1426797423.077,11.258423
1426797423.092,1.2801476
1426797423.108,-9.485699
1426797423.123,-20.17678
1426797423.139,-29.443085
1426797423.155,-36.02398
1426797423.17,-39.39098
1426797423.186,-40.024185
1426797423.202,-39.139286
1426797423.217,-37.930832
1426797423.233,-37.19307
1426797423.248,-36.758812
1426797423.264,-35.86721
1426797423.28,-33.697556
1426797423.295,-30.05735
1426797423.311,-25.500359
1426797423.327,-21.209892
1426797423.342,-18.232056
1426797423.358,-16.748459
1426797423.373,-16.087471
1426797423.389,-14.888145
1426797423.405,-11.902237
1426797423.42,-6.7884064
1426797423.436,-0.22312164
1426797423.452,6.444771
1426797423.467,11.933693
1426797423.483,15.7825775
1426797423.498,18.598
1426797423.514,21.563187
1426797423.53,25.908134
1426797423.545,32.150764
1426797423.561,39.88687
1426797423.577,48.057182
1426797423.592,55.507797
1426797423.608,61.40647
1426797423.623,65.38718
1426797423.639,67.34093
1426797423.655,67.11227
1426797423.67,64.32996
1426797423.686,58.515213
1426797423.702,49.394264
1426797423.717,37.27243
1426797423.733,23.181221
1426797423.748,8.695847
1426797423.764,-4.5750275
1426797423.78,-15.479927
1426797423.795,-23.767273
1426797423.811,-29.90828
1426797423.827,-34.802734
1426797423.842,-39.225533
1426797423.858,-43.399902
1426797423.873,-46.90927
1426797423.889,-49.01864
1426797423.905,-49.063637
1426797423.92,-46.976074
1426797423.936,-43.34015
1426797423.952,-39.09011
1426797423.967,-35.11805
1426797423.983,-31.81025
1426797423.998,-28.925308
1426797424.014,-25.804077
1426797424.03,-21.842484
1426797424.045,-16.917229
1426797424.061,-11.430382
1426797424.077,-6.2442703
1426797424.092,-1.9564819
1426797424.108,1.3464355
1426797424.124,4.2506714
1426797424.139,7.6356964
1426797424.155,12.188782
1426797424.17,17.884918
1426797424.186,23.988968
1426797424.202,29.546585
1426797424.217,33.889694
1426797424.233,37.216934
1426797424.249,40.459732
1426797424.264,44.807037
1426797424.28,50.863968
1426797424.295,58.046417
1426797424.311,64.67786
1426797424.327,68.50523
1426797424.342,67.74783
1426797424.358,61.790222
1426797424.374,51.427002
1426797424.389,38.43637
1426797424.405,24.832932
1426797424.42,11.940323
1426797424.436,0.18193054
1426797424.452,-10.813278
1426797424.467,-21.540466
1426797424.483,-32.00992
1426797424.499,-41.584076
1426797424.514,-49.11586
1426797424.53,-53.585953
1426797424.545,-54.73233
1426797424.561,-53.156876
1426797424.577,-50.19998
1426797424.592,-47.247803
1426797424.608,-45.046677
1426797424.624,-43.403046
1426797424.639,-41.458984
1426797424.655,-38.1998
1426797424.67,-33.321533
1426797424.686,-27.387405
1426797424.702,-21.609268
1426797424.717,-17.268341
1426797424.733,-14.796646
1426797424.749,-13.584122
1426797424.764,-12.222076
1426797424.78,-9.302368
1426797424.795,-4.303894
1426797424.811,2.1506958
1426797424.827,8.632172
1426797424.842,13.765793
1426797424.858,16.976852
1426797424.874,18.86795
1426797424.889,20.743683
1426797424.905,24.063751
1426797424.92,29.492996
1426797424.936,36.810547
1426797424.952,44.956223
1426797424.967,52.689606
1426797424.983,59.011124
1426797424.999,63.2977
1426797425.014,65.309006
1426797425.03,64.88919
1426797425.045,61.751587
1426797425.061,55.487717
1426797425.077,45.915863
1426797425.092,33.248978
1426797425.108,18.369095
1426797425.124,2.7371979
1426797425.139,-12.03215
1426797425.155,-24.499176
1426797425.17,-33.97896
1426797425.186,-40.601776
1426797425.202,-45.132004
1426797425.217,-48.510925
1426797425.233,-51.377686
1426797425.249,-53.75432
1426797425.264,-55.135864
1426797425.28,-54.91783
1426797425.295,-52.874588
1426797425.311,-49.40445
1426797425.327,-45.35701
1426797425.342,-41.636444
1426797425.358,-38.74649
1426797425.374,-36.494843
1426797425.389,-34.207
1426797425.405,-31.0652
1426797425.42,-26.733856
1426797425.436,-21.392471
1426797425.452,-15.78804
1426797425.467,-10.67952
1426797425.483,-6.417328
1426797425.499,-2.7286072
1426797425.514,0.9933014
1426797425.53,5.477249
1426797425.545,10.902588
1426797425.561,16.830902
1426797425.577,22.503922
1426797425.592,27.198944
1426797425.608,30.845673
1426797425.624,34.15207
1426797425.639,38.241943
1426797425.655,44.03592
1426797425.67,51.52475
1426797425.686,59.539093
1426797425.702,66.03465
1426797425.717,68.91153
1426797425.733,66.89694
1426797425.749,60.091217
1426797425.764,49.797653
1426797425.78,37.9711
1426797425.795,26.200577
1426797425.811,15.194519
1426797425.827,4.767029
1426797425.842,-5.5645294
1426797425.858,-15.953949
1426797425.874,-25.791412
1426797425.889,-33.825638
1426797425.905,-38.764374
1426797425.92,-40.157547
1426797425.936,-38.625366
1426797425.952,-35.652405
1426797425.967,-32.957275
1426797425.983,-31.627289
1426797425.999,-31.60196
1426797426.014,-31.985977
1426797426.03,-31.446808
1426797426.045,-29.159409
1426797426.061,-25.358887
1426797426.077,-21.077042
1426797426.092,-17.611313
1426797426.108,-15.784821
1426797426.124,-15.328705
1426797426.139,-15.064087
1426797426.155,-13.492844
1426797426.17,-9.6623535
1426797426.186,-3.6902466
1426797426.202,3.262436
1426797426.217,9.706192
1426797426.233,14.618713
1426797426.249,17.964706
1426797426.264,20.717636
1426797426.28,24.20279
1426797426.295,29.234314
1426797426.311,35.652542
1426797426.327,42.430298
1426797426.342,48.33612
1426797426.358,52.610855
1426797426.374,55.248917
1426797426.389,56.713654
1426797426.405,57.459488
1426797426.42,57.24672
1426797426.436,55.1062
1426797426.452,49.853424
1426797426.467,40.80963
1426797426.483,28.35147
1426797426.499,14.099564
1426797426.514,0.11253357
1426797426.53,-11.776749
1426797426.545,-20.69992
1426797426.561,-26.924316
1426797426.577,-31.471695
1426797426.592,-35.293503
1426797426.608,-38.82231
1426797426.624,-41.705307
1426797426.639,-43.101135
1426797426.655,-42.308105
1426797426.67,-39.35411
1426797426.686,-35.01056
1426797426.702,-30.571884
1426797426.717,-27.199066
1426797426.733,-25.281189
1426797426.749,-24.33284
1426797426.764,-23.326065
1426797426.78,-21.240814
1426797426.796,-17.751633
1426797426.811,-13.347916
1426797426.827,-9.062698
1426797426.842,-5.867462
1426797426.858,-4.0015564
1426797426.874,-2.8178864
1426797426.889,-1.1185303
1426797426.905,2.1536865
1426797426.921,7.261978
1426797426.936,13.436829
1426797426.952,19.308548
1426797426.967,23.674072
1426797426.983,26.13379
1426797426.999,27.49582
1426797427.014,29.249786
1426797427.03,32.903778
1426797427.046,39.000427
1426797427.061,46.807495
1426797427.077,54.4599
1426797427.092,59.801086
1426797427.108,61.281876
1426797427.124,58.49713
1426797427.139,52.23355
1426797427.155,43.90529
1426797427.171,34.66011
1426797427.186,25.019165
1426797427.202,14.821579
1426797427.217,3.7318115
1426797427.233,-8.156723
1426797427.249,-19.968414
1426797427.264,-30.348328
1426797427.28,-37.95102
1426797427.296,-42.25737
1426797427.311,-43.755905
1426797427.327,-43.71704
1426797427.342,-43.546524
1426797427.358,-44.012924
1426797427.374,-45.016266
1426797427.389,-45.628754
1426797427.405,-44.75804
1426797427.421,-41.815933
1426797427.436,-37.14444
1426797427.452,-31.823578
1426797427.467,-27.20282
1426797427.483,-24.20108
1426797427.499,-22.717285
1426797427.514,-21.844223
1426797427.53,-20.202515
1426797427.546,-16.786179
1426797427.561,-11.442337
1426797427.577,-4.9957733
1426797427.592,1.348999
1426797427.608,6.595688
1426797427.624,10.564392
1426797427.639,13.880814
1426797427.655,17.539139
1426797427.671,22.158844
1426797427.686,27.58223
1426797427.702,33.082687
1426797427.717,37.766968
1426797427.733,41.362427
1426797427.749,44.37526
1426797427.764,47.750656
1426797427.78,52.2193
1426797427.796,57.400208
1426797427.811,61.840775
1426797427.827,63.38849
1426797427.842,60.28714
1426797427.858,52.01117
1426797427.874,39.63748
1426797427.889,25.340347
1426797427.905,11.4335785
1426797427.921,-0.5715332
1426797427.936,-10.4717865
1426797427.952,-18.955154
1426797427.967,-26.962448
1426797427.983,-34.82103
1426797427.999,-41.978363
1426797428.014,-47.24327
1426797428.03,-49.619934
1426797428.046,-48.996475
1426797428.061,-46.314804
1426797428.077,-43.184097
1426797428.092,-41.035095
1426797428.108,-40.47458
1426797428.124,-40.860626
1426797428.139,-40.825638
1426797428.155,-38.928146
1426797428.171,-34.568436
1426797428.186,-28.32814
1426797428.202,-21.617523
1426797428.217,-16.02275
1426797428.233,-12.429031
1426797428.249,-10.637787
1426797428.264,-9.54245
1426797428.28,-7.7394104
1426797428.296,-4.412857
1426797428.311,0.33665466
1426797428.327,5.4958954
1426797428.342,9.88649
1426797428.358,12.747025
1426797428.374,14.295456
1426797428.389,15.623505
1426797428.405,18.116226
1426797428.421,22.641602
1426797428.436,29.098907
1426797428.452,36.568268
1426797428.467,43.759018
1426797428.483,49.748367
1426797428.499,54.227356
1426797428.514,57.373184
1426797428.53,59.445297
1426797428.546,60.15692
1426797428.561,58.563232
1426797428.577,53.490936
1426797428.592,44.28784
1426797428.608,31.351685
1426797428.624,16.292679
1426797428.639,1.2770233
1426797428.655,-11.779022
1426797428.671,-21.972351
1426797428.686,-29.568207
1426797428.702,-35.555313
1426797428.717,-40.88199
1426797428.733,-45.83969
1426797428.749,-49.951874
1426797428.764,-52.329422
1426797428.78,-52.30974
1426797428.796,-50.03293
1426797428.811,-46.382538
1426797428.827,-42.7556
1426797428.842,-40.211777
1426797428.858,-39.038025
1426797428.874,-38.542633
1426797428.889,-37.509094
1426797428.905,-34.81775
1426797428.921,-30.134003
1426797428.936,-24.069397
1426797428.952,-17.860474
1426797428.967,-12.729752
1426797428.983,-9.199539
1426797428.999,-6.841919
1426797429.014,-4.558899
1426797429.03,-1.1933441
1426797429.046,3.699112
1426797429.061,9.62645
1426797429.077,15.443375
1426797429.092,19.990204
1426797429.108,22.776367
1426797429.124,24.31955
1426797429.139,25.813751
1426797429.155,28.570084
1426797429.171,33.36348
1426797429.186,39.987106
1426797429.202,47.40056
1426797429.217,54.15207
1426797429.233,58.99446
1426797429.249,61.268463
1426797429.264,60.843445
1426797429.28,58.01764
1426797429.296,52.889084
1426797429.311,45.459
1426797429.327,35.524597
1426797429.342,23.138657
1426797429.358,8.873825
1426797429.374,-6.0670624
1426797429.389,-20.050354
1426797429.405,-31.486649
1426797429.421,-39.426743
1426797429.436,-43.904602
1426797429.452,-45.726868
1426797429.468,-46.099274
1426797429.483,-45.944687
1426797429.499,-45.552795
1426797429.514,-44.602005
1426797429.53,-42.52272
1426797429.546,-38.955933
1426797429.561,-34.243378
1426797429.577,-29.262695
1426797429.593,-25.066055
1426797429.608,-22.407623
1426797429.624,-21.18422
1426797429.639,-20.679749
1426797429.655,-19.87529
1426797429.671,-18.093842
1426797429.686,-15.338364
1426797429.702,-12.173447
1426797429.718,-9.301178
1426797429.733,-7.041153
1426797429.749,-5.089966
1426797429.764,-2.639801
1426797429.78,1.1941223
1426797429.796,6.669983
1426797429.811,13.32341
1426797429.827,20.102722
1426797429.843,25.929688
1426797429.858,30.325638
1426797429.874,33.749405
1426797429.889,37.279892
1426797429.905,42.156387
1426797429.921,48.92444
1426797429.936,56.952805
1426797429.952,64.53807
1426797429.968,69.52806
1426797429.983,70.18541
1426797429.999,65.96402
1426797430.014,57.707306
1426797430.03,47.0455
1426797430.046,35.67273
1426797430.061,24.568863
1426797430.077,13.749985
1426797430.093,2.824051
1426797430.108,-8.571442
1426797430.124,-19.991745
1426797430.139,-30.324692
1426797430.155,-38.179367
1426797430.171,-42.726563
1426797430.186,-44.01039
1426797430.202,-43.137985
1426797430.218,-41.61876
1426797430.233,-40.63849
1426797430.249,-40.6454
1426797430.264,-41.195206
1426797430.28,-41.33229
1426797430.296,-40.314926
1426797430.311,-38.033127
1426797430.327,-34.97792
1426797430.343,-32.02513
1426797430.358,-29.869156
1426797430.374,-28.593582
1426797430.389,-27.701874
1426797430.405,-26.319519
1426797430.421,-23.756134
1426797430.436,-19.961365
1426797430.452,-15.50119
1426797430.468,-11.258942
1426797430.483,-7.9743347
1426797430.499,-5.7769775
1426797430.514,-4.0810547
1426797430.53,-1.9136047
1426797430.546,1.4760437
1426797430.561,6.205414
1426797430.577,11.551086
1426797430.593,16.534607
1426797430.608,20.466156
1426797430.624,23.456818
1426797430.639,26.356049
1426797430.655,30.197205
1426797430.671,35.210342
1426797430.686,40.494034
1426797430.702,44.16452
1426797430.718,44.15576
1426797430.733,39.3667
1426797430.749,30.16626
1426797430.764,18.268173
1426797430.78,5.977478
1426797430.796,-4.990204
1426797430.811,-14.10997
1426797430.827,-21.931366
1426797430.843,-29.369919
1426797430.858,-36.87767
1426797430.874,-43.947174
1426797430.889,-49.349915
1426797430.905,-51.748123
1426797430.921,-50.500366
1426797430.936,-46.13109
1426797430.952,-40.09256
1426797430.968,-34.152374
1426797430.983,-29.588303
1426797430.999,-26.70137
1426797431.014,-24.793304
1426797431.03,-22.628128
1426797431.046,-19.241104
1426797431.061,-14.37059
1426797431.077,-8.6754
1426797431.093,-3.3463898
1426797431.108,0.65760803
1426797431.124,3.17453
1426797431.139,4.930771
1426797431.155,7.2625885
1426797431.171,11.224472
1426797431.186,17.02333
1426797431.202,23.937576
1426797431.218,30.71994
1426797431.233,36.266556
1426797431.249,40.296616
1426797431.264,43.335587
1426797431.28,46.4216
1426797431.296,50.325882
1426797431.311,55.120636
1426797431.327,60.143463
1426797431.343,64.50325
1426797431.358,67.71539
1426797431.374,70.0482
1426797431.389,72.39226
1426797431.405,75.66681
1426797431.421,80.09633
1426797431.436,84.73219
1426797431.452,87.75009
1426797431.468,87.07356
1426797431.483,81.32388
1426797431.499,70.4863
1426797431.514,55.888474
1426797431.53,39.708023
1426797431.546,23.890976
1426797431.561,9.556549
1426797431.577,-3.252472
1426797431.593,-15.105225
1426797431.608,-26.50528
1426797431.624,-37.204376
1426797431.639,-46.342087
1426797431.655,-52.725555
1426797431.671,-55.69664
1426797431.686,-55.63144
1426797431.702,-53.806213
1426797431.718,-51.82393
1426797431.733,-50.799942
1426797431.749,-50.829163
1426797431.764,-51.05229
1426797431.78,-50.218185
1426797431.796,-47.467606
1426797431.811,-42.787094
1426797431.827,-37.043854
1426797431.843,-31.460327
1426797431.858,-26.993195
1426797431.874,-23.821991
1426797431.889,-21.337967
1426797431.905,-18.50969
1426797431.921,-14.519409
1426797431.936,-9.320801
1426797431.952,-3.5960693
1426797431.968,1.5676575
1426797431.983,5.3382874
1426797431.999,7.6464996
1426797432.014,9.237579
1426797432.03,11.325333
1426797432.046,14.856873
1426797432.061,20.063644
1426797432.077,26.250366
1426797432.093,32.365753
1426797432.108,37.56659
1426797432.124,41.907257
1426797432.14,46.047592
1426797432.155,50.77031
1426797432.171,56.170486
1426797432.186,61.220703
1426797432.202,64.11459
1426797432.218,63.02957
1426797432.233,57.093338
1426797432.249,46.840378
1426797432.264,34.00856
1426797432.28,20.70581
1426797432.296,8.4153595
1426797432.311,-2.4796753
1426797432.327,-12.655441
1426797432.343,-22.991516
1426797432.358,-33.848
1426797432.374,-44.55684
1426797432.39,-53.709854
1426797432.405,-59.808327
1426797432.421,-62.072815
1426797432.436,-60.895218
1426797432.452,-57.65444
1426797432.468,-54.072098
1426797432.483,-51.449043
1426797432.499,-50.049553
1426797432.515,-49.16838
1426797432.53,-47.666412
1426797432.546,-44.723717
1426797432.561,-40.378708
1426797432.577,-35.562553
1426797432.593,-31.530388
1426797432.608,-29.261574
1426797432.624,-28.642876
1426797432.64,-28.632866
1426797432.655,-27.580658
1426797432.671,-24.169243
1426797432.686,-18.127907
1426797432.702,-10.344856
1426797432.718,-2.4967346
1426797432.733,3.9295044
1426797432.749,8.275909
1426797432.765,11.080963
1426797432.78,13.632797
1426797432.796,17.202362
1426797432.811,22.323685
1426797432.827,28.59391
1426797432.843,35.11499
1426797432.858,41.04088
1426797432.874,46.211235
1426797432.89,50.92385
1426797432.905,55.55623
1426797432.921,59.90722
1426797432.936,62.93042
1426797432.952,62.97191
1426797432.968,58.63394
1426797432.983,49.45838
1426797432.999,36.30558
1426797433.015,21.085213
1426797433.03,6.0072403
1426797433.046,-7.297287
1426797433.061,-18.209091
1426797433.077,-27.059853
1426797433.093,-34.577934
1426797433.108,-41.299973
1426797433.124,-47.062584
1426797433.14,-51.25009
1426797433.155,-53.06373
1426797433.171,-52.204712
1426797433.186,-49.16497
1426797433.202,-45.09546
1426797433.218,-41.321693
1426797433.233,-38.696938
1426797433.249,-37.25199
1426797433.265,-36.21425
1426797433.28,-34.558815
1426797433.296,-31.469048
1426797433.311,-26.909409
1426797433.327,-21.577469
1426797433.343,-16.475662
1426797433.358,-12.334373
1426797433.374,-9.178055
1426797433.39,-6.3522797
1426797433.405,-2.852974
1426797433.421,2.0083008
1426797433.436,8.19368
1426797433.452,14.872047
1426797433.468,20.814896
1426797433.483,25.080872
1426797433.499,27.603935
1426797433.515,29.197586
1426797433.53,31.27703
1426797433.546,35.103584
1426797433.561,41.0813
1426797433.577,48.480953
1426797433.593,55.755054
1426797433.608,61.19271
1426797433.624,63.66801
1426797433.64,62.940983
1426797433.655,59.603313
1426797433.671,54.464375
1426797433.686,47.995533
1426797433.702,40.13123
1426797433.718,30.516521
1426797433.733,18.996002
1426797433.749,6.062168
1426797433.765,-7.090439
1426797433.78,-19.046455
1426797433.796,-28.649963
1426797433.811,-35.542587
1426797433.827,-40.1835
1426797433.843,-43.46364
1426797433.858,-46.177635
1426797433.874,-48.470905
1426797433.89,-50.010475
1426797433.905,-50.111744
1426797433.921,-48.341713
1426797433.936,-44.86719
1426797433.952,-40.458076
1426797433.968,-36.10638
1426797433.983,-32.665783
1426797433.999,-30.331337
1426797434.015,-28.52364
1426797434.03,-26.367054
1426797434.046,-23.09105
1426797434.061,-18.51815
1426797434.077,-13.167252
1426797434.093,-7.965061
1426797434.108,-3.6647797
1426797434.124,-0.37567902
1426797434.14,2.4621887
1426797434.155,5.830765
1426797434.171,10.495739
1426797434.186,16.536015
1426797434.202,23.26632
1426797434.218,29.610378
1426797434.233,34.585384
1426797434.249,37.959625
1426797434.265,40.29775
1426797434.28,42.687614
1426797434.296,46.28283
1426797434.311,51.490326
1426797434.327,57.796524
1426797434.343,63.935074
1426797434.358,68.22612
1426797434.374,69.422386
1426797434.39,67.04411
1426797434.405,61.46837
1426797434.421,53.540607
1426797434.436,44.09146
1426797434.452,33.47046
1426797434.468,21.763252
1426797434.483,8.949828
1426797434.499,-4.6199064
1426797434.515,-18.001446
1426797434.53,-29.86521
1426797434.546,-38.967056
1426797434.561,-44.787663
1426797434.577,-47.71379
1426797434.593,-48.90571
1426797434.608,-49.672546
1426797434.624,-50.910137
1426797434.64,-52.7146
1426797434.655,-54.427532
1426797434.671,-55.087612
1426797434.686,-54.105667
1426797434.702,-51.605953
1426797434.718,-48.237995
1426797434.733,-44.982956
1426797434.749,-42.35634
1426797434.765,-40.179054
1426797434.78,-37.722347
1426797434.796,-34.07206
1426797434.811,-28.795704
1426797434.827,-22.304745
1426797434.843,-15.522857
1426797434.858,-9.3849
1426797434.874,-4.307047
1426797434.89,0.0379982
1426797434.905,4.4952145
1426797434.921,9.836004
1426797434.936,16.190931
1426797434.952,22.88882
1426797434.968,28.923191
1426797434.983,33.39241
1426797434.999,36.236595
1426797435.015,38.295258
1426797435.03,40.93927
1426797435.046,45.463905
1426797435.062,52.372574
1426797435.077,61.056652
1426797435.093,69.884125
1426797435.108,76.89595
1426797435.124,80.38708
1426797435.14,79.57036
1426797435.155,74.603836
1426797435.171,66.36292
1426797435.187,55.84333
1426797435.202,43.769875
1426797435.218,30.555893
1426797435.233,16.334057
1426797435.249,1.4675484
1426797435.265,-13.294342
1426797435.28,-26.793728
1426797435.296,-37.90345
1426797435.312,-45.987457
1426797435.327,-51.258705
1426797435.343,-54.582855
1426797435.358,-57.05406
1426797435.374,-59.310974
1426797435.39,-61.25239
1426797435.405,-62.107655
1426797435.421,-61.025898
1426797435.437,-57.64219
1426797435.452,-52.490837
1426797435.468,-46.699707
1426797435.483,-41.50025
1426797435.499,-37.60279
1426797435.515,-34.86023
1426797435.53,-32.422134
1426797435.546,-29.369118
1426797435.562,-25.24228
1426797435.577,-20.255844
1426797435.593,-15.212769
1426797435.608,-10.887558
1426797435.624,-7.577591
1426797435.64,-4.915413
1426797435.655,-2.053299
1426797435.671,1.8655167
1426797435.687,7.071251
1426797435.702,13.033791
1426797435.718,18.803192
1426797435.733,23.473778
1426797435.749,26.863686
1426797435.765,29.700562
1426797435.78,33.276054
1426797435.796,38.773727
1426797435.812,46.448517
1426797435.827,55.307472
1426797435.843,63.393158
1426797435.858,68.50334
1426797435.874,69.1413
1426797435.89,65.039734
1426797435.905,57.23092
1426797435.921,47.29516
1426797435.937,36.630577
1426797435.952,25.861519
1426797435.968,14.815826
1426797435.983,3.0121994
1426797435.999,-9.71003
1426797436.015,-22.758873
1426797436.03,-34.77346
1426797436.046,-44.20607
1426797436.062,-50.179253
1426797436.077,-52.84321
1426797436.093,-53.251816
1426797436.108,-52.922523
1426797436.124,-52.86165
1426797436.14,-53.23761
1426797436.155,-53.30079
1426797436.171,-51.980164
1426797436.187,-48.672638
1426797436.202,-43.769554
1426797436.218,-38.48123
1426797436.233,-34.269196
1426797436.249,-32.033928
1426797436.265,-31.644997
1426797436.28,-32.015427
1426797436.296,-31.6633
1426797436.312,-29.57415
1426797436.327,-25.64621
1426797436.343,-20.57647
1426797436.358,-15.38105
1426797436.374,-10.695755
1426797436.39,-6.454483
1426797436.405,-1.9673233
1426797436.421,3.530548
1426797436.437,10.313194
1426797436.452,17.8666
1426797436.468,25.202095
1426797436.483,31.386574
1426797436.499,36.139435
1426797436.515,40.043335
1426797436.53,44.1957
1426797436.546,49.53408
1426797436.562,56.07585
1426797436.577,62.574524
1426797436.593,66.9891
1426797436.608,67.24955
1426797436.624,62.398613
1426797436.64,52.853188
1426797436.655,40.359383
1426797436.671,27.006905
1426797436.687,14.455833
1426797436.702,3.2670517
1426797436.718,-6.997711
1426797436.733,-17.085304
1426797436.749,-27.279793
1426797436.765,-36.932465
1426797436.78,-44.727936
1426797436.796,-49.360016
1426797436.812,-50.40721
1426797436.827,-48.58307
1426797436.843,-45.428123
1426797436.858,-42.607285
1426797436.874,-41.023163
1426797436.89,-40.4237
1426797436.905,-39.684044
1426797436.921,-37.514282
1426797436.937,-33.31698
1426797436.952,-27.655159
1426797436.968,-21.813042
1426797436.983,-17.145027
1426797436.999,-14.396362
1426797437.015,-13.222191
1426797437.03,-12.484947
1426797437.046,-10.819748
1426797437.062,-7.433159
1426797437.077,-2.4336243
1426797437.093,3.2658691
1426797437.108,8.441978
1426797437.124,12.3710785
1426797437.14,15.090393
1426797437.155,17.575516
1426797437.171,20.964752
1426797437.187,26.026138
1426797437.202,32.646774
1426797437.218,40.06833
1426797437.233,47.29239
1426797437.249,53.70938
1426797437.265,59.27455
1426797437.28,64.29721
1426797437.296,68.92149
1426797437.312,72.47299
1426797437.327,73.537415
1426797437.343,70.558136
1426797437.358,62.577606
1426797437.374,49.87451
1426797437.39,34.030457
1426797437.405,17.30043
1426797437.421,1.7484283
1426797437.437,-11.42543
1426797437.452,-22.325165
1426797437.468,-31.735489
1426797437.483,-40.451324
1426797437.499,-48.57939
1426797437.515,-55.403793
1426797437.53,-59.750412
1426797437.546,-60.688416
1426797437.562,-58.23442
1426797437.577,-53.473267
1426797437.593,-48.21257
1426797437.608,-44.180054
1426797437.624,-42.186752
1426797437.64,-41.921356
1426797437.655,-42.151886
1426797437.671,-41.55603
1426797437.687,-39.392426
1426797437.702,-35.95691
1426797437.718,-32.255325
1426797437.734,-29.39267
1426797437.749,-27.712402
1426797437.765,-26.579163
1426797437.78,-24.665894
1426797437.796,-20.596802
1426797437.812,-13.802872
1426797437.827,-4.920868
1426797437.843,4.5193634
1426797437.859,12.820541
1426797437.874,18.922348
1426797437.89,22.86853
1426797437.905,25.736359
1426797437.921,28.90738
1426797437.937,33.503372
1426797437.952,39.71875
1426797437.968,47.0571
1426797437.984,54.552704
1426797437.999,61.480453
1426797438.015,67.57118
1426797438.03,72.79651
1426797438.046,77.08675
1426797438.062,79.76518
1426797438.077,79.637955
1426797438.093,75.44084
1426797438.109,66.40782
1426797438.124,52.935547
1426797438.14,36.64003
1426797438.155,19.856537
1426797438.171,4.652664
1426797438.187,-7.8480835
1426797438.202,-17.837418
1426797438.218,-26.375397
1426797438.234,-34.55278
1426797438.249,-42.74916
1426797438.265,-50.35927
1426797438.28,-56.1976
1426797438.296,-59.17871
1426797438.312,-59.15497
1426797438.327,-56.989685
1426797438.343,-54.192352
1426797438.359,-52.1828
1426797438.374,-51.553635
1426797438.39,-51.91629
1426797438.405,-52.074844
1426797438.421,-50.88867
1426797438.437,-47.700943
1426797438.452,-42.944992
1426797438.468,-37.717636
1426797438.484,-33.249023
1426797438.499,-30.20227
1426797438.515,-28.242798
1426797438.53,-26.219818
1426797438.546,-22.71341
1426797438.562,-16.993698
1426797438.577,-9.381012
1426797438.593,-1.1804047
1426797438.609,6.0643463
1426797438.624,11.39035
1426797438.64,15.035355
1426797438.655,18.26564
1426797438.671,22.585037
1426797438.687,28.877167
1426797438.702,36.904633
1426797438.718,45.575027
1426797438.734,53.577286
1426797438.749,60.2043
1426797438.765,65.49068
1426797438.78,69.95146
1426797438.796,73.874054
1426797438.812,76.70175
1426797438.827,77.0856
1426797438.843,73.49309
1426797438.859,65.00044
1426797438.874,51.957336
1426797438.89,35.934708
1426797438.905,19.204193
1426797438.921,3.7229767
1426797438.937,-9.465317
1426797438.952,-20.43193
1426797438.968,-29.993744
1426797438.984,-38.97548
1426797438.999,-47.526703
1426797439.015,-55.024338
1426797439.03,-60.345627
1426797439.046,-62.484756
1426797439.062,-61.32878
1426797439.077,-57.776794
1426797439.093,-53.373276
1426797439.109,-49.67247
1426797439.124,-47.415848
1426797439.14,-46.242966
1426797439.155,-45.025055
1426797439.171,-42.553238
1426797439.187,-38.23526
1426797439.202,-32.632706
1426797439.218,-27.009491
1426797439.234,-22.711899
1426797439.249,-20.355988
1426797439.265,-19.505478
1426797439.28,-18.792862
1426797439.296,-16.668015
1426797439.312,-12.23793
1426797439.327,-5.7489777
1426797439.343,1.64534
1426797439.359,8.396698
1426797439.374,13.4897
1426797439.39,16.90483
1426797439.405,19.586975
1426797439.421,22.897568
1426797439.437,27.823318
1426797439.452,34.463516
1426797439.468,42.076645
1426797439.484,49.51474
1426797439.499,55.881317
1426797439.515,60.866837
1426797439.53,64.64188
1426797439.546,67.36951
1426797439.562,68.74051
1426797439.577,67.79613
1426797439.593,63.351883
1426797439.609,54.566986
1426797439.624,41.610107
1426797439.64,25.802277
1426797439.655,9.280502
1426797439.671,-5.91066
1426797439.687,-18.481674
1426797439.702,-28.333557
1426797439.718,-36.19809
1426797439.734,-43.03322
1426797439.749,-49.28865
1426797439.765,-54.563248
1426797439.78,-57.88884
1426797439.796,-58.307755
1426797439.812,-55.630173
1426797439.827,-50.746094
1426797439.843,-45.23767
1426797439.859,-40.740448
1426797439.874,-38.061386
1426797439.89,-36.96257
1426797439.905,-36.36267
1426797439.921,-35.036484
1426797439.937,-32.305557
1426797439.952,-28.48822
1426797439.968,-24.56604
1426797439.984,-21.6156
1426797439.999,-20.084106
1426797440.015,-19.47116
1426797440.03,-18.54335
1426797440.046,-15.984558
1426797440.062,-11.213165
1426797440.077,-4.6566772
1426797440.093,2.419571
1426797440.109,8.608154
1426797440.124,13.11705
1426797440.14,16.149948
1426797440.155,18.85315
1426797440.171,22.581436
1426797440.187,28.208176
1426797440.202,35.59826
1426797440.218,43.754715
1426797440.234,51.321465
1426797440.249,57.0897
1426797440.265,60.491844
1426797440.28,61.476135
1426797440.296,60.286926
1426797440.312,57.066734
1426797440.327,51.66639
1426797440.343,43.835403
1426797440.359,33.468895
1426797440.374,21.012695
1426797440.39,7.4330673
1426797440.406,-5.84816
1426797440.421,-17.483551
1426797440.437,-26.594597
1426797440.452,-33.08384
1426797440.468,-37.486565
1426797440.484,-40.681915
1426797440.499,-43.303864
1426797440.515,-45.426453
1426797440.531,-46.676773
1426797440.546,-46.38627
1426797440.562,-44.19168
1426797440.577,-40.338135
1426797440.593,-35.765297
1426797440.609,-31.607712
1426797440.624,-28.700111
1426797440.64,-27.180351
1426797440.656,-26.376617
1426797440.671,-25.324875
1426797440.687,-23.22757
1426797440.702,-19.976433
1426797440.718,-16.144775
1426797440.734,-12.572708
1426797440.749,-9.8046875
1426797440.765,-7.6825104
1426797440.781,-5.336708
1426797440.796,-1.730751
1426797440.812,3.6311188
1426797440.827,10.373131
1426797440.843,17.322693
1426797440.859,23.1838
1426797440.874,27.250206
1426797440.89,29.85707
1426797440.906,32.15544
1426797440.921,35.60636
1426797440.937,41.13462
1426797440.952,48.64209
1426797440.968,57.128273
1426797440.984,64.90699
1426797440.999,70.380424
1426797441.015,72.49161
1426797441.031,70.98476
1426797441.046,66.2112
1426797441.062,58.786865
1426797441.077,49.29502
1426797441.093,38.028793
1426797441.109,25.15387
1426797441.124,10.9394455
1426797441.14,-3.9434814
1426797441.156,-18.388702
1426797441.171,-31.048737
1426797441.187,-40.821915
1426797441.202,-47.230614
1426797441.218,-50.591713
1426797441.234,-51.756336
1426797441.249,-51.71182
1426797441.265,-51.116318
1426797441.281,-50.07069
1426797441.296,-48.326004
1426797441.312,-45.604378
1426797441.327,-42.0569
1426797441.343,-38.2011
1426797441.359,-34.859154
1426797441.374,-32.574745
1426797441.39,-31.347431
1426797441.406,-30.55487
1426797441.421,-29.217167
1426797441.437,-26.492447
1426797441.452,-22.226635
1426797441.468,-16.900333
1426797441.484,-11.357925
1426797441.499,-6.326454
1426797441.515,-1.9748688
1426797441.531,2.2235947
1426797441.546,7.093586
1426797441.562,13.238262
1426797441.577,20.559143
1426797441.593,28.18369
1426797441.609,34.868015
1426797441.624,39.649513
1426797441.64,42.499916
1426797441.656,44.360283
1426797441.671,46.780685
1426797441.687,50.99189
1426797441.702,57.19935
1426797441.718,64.239365
1426797441.734,70.08142
1426797441.749,72.66788
1426797441.765,70.75957
1426797441.781,64.46942
1426797441.796,55.006958
1426797441.812,43.9864
1426797441.827,32.52454
1426797441.843,21.048126
1426797441.859,9.214985
1426797441.874,-3.2530365
1426797441.89,-16.091644
1426797441.906,-28.297325
1426797441.921,-38.4249
1426797441.937,-45.236843
1426797441.952,-48.446762
1426797441.968,-48.867615
1426797441.984,-48.006233
1426797441.999,-47.47524
1426797442.015,-48.1342
1426797442.031,-49.74734
1426797442.046,-51.249596
1426797442.062,-51.40251
1426797442.077,-49.497498
1426797442.093,-45.725132
1426797442.109,-41.020683
1426797442.124,-36.457314
1426797442.14,-32.62888
1426797442.156,-29.336819
1426797442.171,-25.713102
1426797442.187,-20.909706
1426797442.202,-14.700302
1426797442.218,-7.6338577
1426797442.234,-0.79883957
1426797442.249,4.826847
1426797442.265,8.937162
1426797442.281,12.02656
1426797442.296,15.100611
1426797442.312,19.089708
1426797442.327,24.13704
1426797442.343,29.642965
1426797442.359,34.528946
1426797442.374,37.946518
1426797442.39,39.8529
1426797442.406,41.208107
1426797442.421,43.4534
1426797442.437,47.73671
1426797442.452,54.019806
1426797442.468,60.82075
1426797442.484,65.86636
1426797442.499,66.87623
1426797442.515,62.811035
1426797442.531,54.200016
1426797442.546,42.862946
1426797442.562,30.908289
1426797442.577,19.71759
1426797442.593,9.496632
1426797442.609,-0.45860672
1426797442.624,-10.918968
1426797442.64,-21.977474
1426797442.656,-32.73152
1426797442.671,-41.694042
1426797442.687,-47.542133
1426797442.702,-49.952427
1426797442.718,-49.749977
1426797442.734,-48.403885
1426797442.749,-47.35407
1426797442.765,-47.206223
1426797442.781,-47.55611
1426797442.796,-47.330482
1426797442.812,-45.45524
1426797442.827,-41.59346
1426797442.843,-36.35492
1426797442.859,-31.062023
1426797442.874,-26.921873
1426797442.89,-24.587742
1426797442.906,-23.558868
1426797442.921,-22.716036
1426797442.937,-20.798111
1426797442.952,-17.178148
1426797442.968,-12.107466
1426797442.984,-6.5001497
1426797442.999,-1.4235411
1426797443.015,2.6058197
1426797443.031,5.82121
1426797443.046,9.094445
1426797443.062,13.342468
1426797443.078,18.857803
1426797443.093,25.277794
1426797443.109,31.743122
1426797443.124,37.5037
1426797443.14,42.34743
1426797443.156,46.782776
1426797443.171,51.604862
1426797443.187,57.24693
1426797443.202,63.204235
1426797443.218,67.86354
1426797443.234,69.238525
1426797443.249,65.74746
1426797443.265,57.052452
1426797443.281,44.26787
1426797443.296,29.560743
1426797443.312,15.174221
1426797443.328,2.4564047
1426797443.343,-8.405191
1426797443.359,-18.228603
1426797443.374,-27.823425
1426797443.39,-37.3741
1426797443.406,-46.09471
1426797443.421,-52.625305
1426797443.437,-55.8023
1426797443.453,-55.48242
1426797443.468,-52.630444
1426797443.484,-48.88944
1426797443.499,-45.775932
1426797443.515,-43.974213
1426797443.531,-43.08389
1426797443.546,-42.01246
1426797443.562,-39.631992
1426797443.578,-35.519913
1426797443.593,-30.14552
1426797443.609,-24.630417
1426797443.624,-20.090914
1426797443.64,-16.954655
1426797443.656,-14.760622
1426797443.671,-12.376963
1426797443.687,-8.686167
1426797443.703,-3.2700443
1426797443.718,3.3340435
1426797443.734,9.846193
1426797443.749,14.928293
1426797443.765,17.904306
1426797443.781,19.170132
1426797443.796,19.918379
1426797443.812,21.611032
1426797443.828,25.026115
1426797443.843,30.072945
1426797443.859,35.896652
1426797443.874,41.368904
1426797443.89,45.830605
1426797443.906,49.17685
1426797443.921,51.64339
1426797443.937,53.314064
1426797443.953,53.754242
1426797443.968,52.007713
1426797443.984,47.089493
1426797443.999,38.64322
1426797444.015,27.247276
1426797444.031,14.408558
1426797444.046,2.0102577
1426797444.062,-8.400562
1426797444.078,-16.268791
1426797444.093,-21.928696
1426797444.109,-26.28484
1426797444.124,-30.213924
1426797444.14,-33.949932
1426797444.156,-37.028713
1426797444.171,-38.540157
1426797444.187,-37.77046
1426797444.203,-34.812675
1426797444.218,-30.652168
1426797444.234,-26.803616
1426797444.249,-24.479313
1426797444.265,-24.155094
1426797444.281,-25.127148
1426797444.296,-26.069511
1426797444.312,-25.61547
1426797444.328,-23.271683
1426797444.343,-19.499794
1426797444.359,-15.476742
1426797444.374,-12.257313
1426797444.39,-10.0491905
1426797444.406,-8.153038
1426797444.421,-5.2066116
1426797444.437,-0.16081238
1426797444.453,7.0548477
1426797444.468,15.380783
1426797444.484,23.13181
1426797444.499,28.812866
1426797444.515,31.928288
1426797444.531,33.165833
1426797444.546,34.057632
1426797444.562,36.23099
1426797444.578,40.515514
1426797444.593,46.71752
1426797444.609,53.687637
1426797444.624,59.841297
1426797444.64,63.8275
1426797444.656,64.89111
1426797444.671,63.067932
1426797444.687,58.836266
1426797444.703,52.70643
1426797444.718,44.925358
1426797444.734,35.459263
1426797444.749,24.286705
1426797444.765,11.705261
1426797444.781,-1.377655
1426797444.796,-13.667686
1426797444.812,-23.753052
1426797444.828,-30.867584
1426797444.843,-35.01657
1426797444.859,-37.075066
1426797444.874,-38.26334
1426797444.89,-39.476185
1426797444.906,-40.933475
1426797444.921,-42.14832
1426797444.937,-42.34393
1426797444.953,-41.054672
1426797444.968,-38.524006
1426797444.984,-35.543613
1426797444.999,-33.094215
1426797445.015,-31.69394
1426797445.031,-31.15966
1426797445.046,-30.648945
1426797445.062,-29.15055
1426797445.078,-26.218552
1426797445.093,-22.104832
1426797445.109,-17.681915
1426797445.124,-13.869049
1426797445.14,-11.042614
1426797445.156,-8.769127
1426797445.171,-6.1472282
1426797445.187,-2.228138
1426797445.203,3.337387
1426797445.218,10.021969
1426797445.234,16.814163
1426797445.249,22.77166
1426797445.265,27.59476
1426797445.281,31.907986
1426797445.296,36.92371
1426797445.312,43.777824
1426797445.328,52.798546
1426797445.343,63.09797
1426797445.359,72.7667
1426797445.374,79.60486
1426797445.39,81.87906
1426797445.406,79.0564
1426797445.421,71.83456
1426797445.437,61.77249
1426797445.453,50.363373
1426797445.468,38.488766
1426797445.484,26.223358
1426797445.499,13.172382
1426797445.515,-0.73757935
1426797445.531,-14.9030075
1426797445.546,-28.043037
1426797445.562,-38.675735
1426797445.578,-45.9256
1426797445.593,-49.91645
1426797445.609,-51.701786
1426797445.624,-52.65262
1426797445.64,-53.774483
1426797445.656,-55.082596
1426797445.671,-55.877243
1426797445.687,-55.180916
1426797445.703,-52.435013
1426797445.718,-47.93918
1426797445.734,-42.727757
1426797445.75,-38.056114
1426797445.765,-34.69015
1426797445.781,-32.58693
1426797445.796,-30.74768
1426797445.812,-27.938341
1426797445.828,-23.307697
1426797445.843,-16.872292
1426797445.859,-9.565615
1426797445.874,-2.6219883
1426797445.89,3.072197
1426797445.906,7.5219736
1426797445.921,11.473537
1426797445.937,16.078342
1426797445.953,21.942688
1426797445.968,28.89217
1426797445.984,36.06569
1426797446,42.41158
1426797446.015,47.47798
1426797446.031,51.66199
1426797446.046,55.928947
1426797446.062,61.060074
1426797446.078,66.98628
1426797446.093,72.4919
1426797446.109,75.57835
1426797446.125,74.37812
1426797446.14,67.97937
1426797446.156,56.946136
1426797446.171,43.02015
1426797446.187,28.420069
1426797446.203,14.706179
1426797446.218,2.3867993
1426797446.234,-8.92696
1426797446.25,-20.039362
1426797446.265,-31.243269
1426797446.281,-42.050476
1426797446.296,-51.266373
1426797446.312,-57.613976
1426797446.328,-60.52427
1426797446.343,-60.452602
1426797446.359,-58.742966
1426797446.375,-56.896027
1426797446.39,-55.862976
1426797446.406,-55.502
1426797446.421,-54.87008
1426797446.437,-52.782394
1426797446.453,-48.68478
1426797446.468,-43.027397
1426797446.484,-37.02229
1426797446.5,-32.065907
1426797446.515,-28.924507
1426797446.531,-27.280178
1426797446.546,-25.873125
1426797446.562,-23.192272
1426797446.578,-18.36412
1426797446.593,-11.57659
1426797446.609,-3.9979305
1426797446.625,2.9832134
1426797446.64,8.440939
1426797446.656,12.46348
1426797446.671,15.886713
1426797446.687,19.894085
1426797446.703,25.205679
1426797446.718,31.680828
1426797446.734,38.603424
1426797446.75,45.142567
1426797446.765,50.89321
1426797446.781,56.097275
1426797446.796,61.246105
1426797446.812,66.483376
1426797446.828,71.03055
1426797446.843,73.34476
1426797446.859,71.64481
1426797446.875,64.82603
1426797446.89,53.042336
1426797446.906,37.803547
1426797446.921,21.357512
1426797446.937,5.860689
1426797446.953,-7.4590435
1426797446.968,-18.522526
1426797446.984,-27.98932
1426797447,-36.634506
1426797447.015,-44.710014
1426797447.031,-51.697792
1426797447.046,-56.625412
1426797447.062,-58.66815
1426797447.078,-57.672943
1426797447.093,-54.43748
1426797447.109,-50.388588
1426797447.125,-46.851715
1426797447.14,-44.536385
1426797447.156,-43.07695
1426797447.171,-41.42048
1426797447.187,-38.460274
1426797447.203,-33.876488
1426797447.218,-28.324265
1426797447.234,-23.09169
1426797447.25,-19.34462
1426797447.265,-17.363953
1426797447.281,-16.359787
1426797447.296,-14.814331
1426797447.312,-11.294941
1426797447.328,-5.342716
1426797447.343,2.3502464
1426797447.359,10.181454
1426797447.375,16.618385
1426797447.39,20.805809
1426797447.406,23.131527
1426797447.421,24.924595
1426797447.437,27.90778
1426797447.453,33.2612
1426797447.468,41.02239
1426797447.484,50.133266
1426797447.5,58.840324
1426797447.515,65.44468
1426797447.531,68.83918
1426797447.546,68.82581
1426797447.562,65.82248
1426797447.578,60.44063
1426797447.593,53.050686
1426797447.609,43.65562
1426797447.625,32.244415
1426797447.64,19.017784
1426797447.656,4.8350754
1426797447.671,-9.056606
1426797447.687,-21.312988
1426797447.703,-31.118496
1426797447.718,-38.428185
1426797447.734,-43.844868
1426797447.75,-48.13769
1426797447.765,-51.648415
1426797447.781,-54.17333
1426797447.796,-55.09517
1426797447.812,-53.871357
1426797447.828,-50.52038
1426797447.843,-45.737774
1426797447.859,-40.72354
1426797447.875,-36.525173
1426797447.89,-33.648865
1426797447.906,-31.76865
1426797447.921,-30.068558
1426797447.937,-27.678001
1426797447.953,-24.146595
1426797447.968,-19.664478
1426797447.984,-14.89296
1426797448,-10.553329
1426797448.015,-6.8965683
1426797448.031,-3.5812569
1426797448.046,0.23978043
1426797448.062,5.441677
1426797448.078,12.241261
1426797448.093,20.146786
1426797448.109,28.028664
1426797448.125,34.727726
1426797448.14,39.680325
1426797448.156,43.305622
1426797448.171,46.786453
1426797448.187,51.43852
1426797448.203,57.818863
1426797448.218,65.19876
1426797448.234,71.7774
1426797448.25,75.35329
1426797448.265,74.27388
1426797448.281,68.2399
1426797448.296,58.32987
1426797448.312,46.442398
1426797448.328,34.301704
1426797448.343,22.753403
1426797448.359,11.6070175
1426797448.375,0.19665909
1426797448.39,-11.957329
1426797448.406,-24.49223
1426797448.421,-36.159355
1426797448.437,-45.398823
1426797448.453,-51.195297
1426797448.468,-53.57438
1426797448.484,-53.605125
1426797448.5,-52.843052
1426797448.515,-52.400787
1426797448.531,-52.53341
1426797448.546,-52.5271
1426797448.562,-51.246136
1426797448.578,-48.04367
1426797448.593,-43.20432
1426797448.609,-37.798172
1426797448.625,-33.190098
1426797448.64,-30.253502
1426797448.656,-28.768402
1426797448.672,-27.663948
1426797448.687,-25.494316
1426797448.703,-21.216377
1426797448.718,-14.838814
1426797448.734,-7.3414
1426797448.75,-0.04711914
1426797448.765,6.030983
1426797448.781,10.728752
1426797448.797,14.692009
1426797448.812,18.908974
1426797448.828,24.051086
1426797448.843,30.103561
1426797448.859,36.366165
1426797448.875,42.074562
1426797448.89,46.88292
1426797448.906,51.10077
1426797448.922,55.462837
1426797448.937,60.45662
1426797448.953,65.57305
1426797448.968,69.33365
1426797448.984,69.75758
1426797449,65.258736
1426797449.015,55.57998
1426797449.031,41.952995
1426797449.047,26.546898
1426797449.062,11.627602
1426797449.078,-1.4588928
1426797449.093,-12.66909
1426797449.109,-22.783302
1426797449.125,-32.69789
1426797449.14,-42.643234
1426797449.156,-51.82933
1426797449.172,-58.832573
1426797449.187,-62.4441
1426797449.203,-62.319664
1426797449.218,-59.316185
1426797449.234,-55.103477
1426797449.25,-51.396782
1426797449.265,-49.159447
1426797449.281,-48.18242
1426797449.297,-47.342995
1426797449.312,-45.21801
1426797449.328,-41.025543
1426797449.343,-35.047165
1426797449.359,-28.555779
1426797449.375,-22.970787
1426797449.39,-19.097084
1426797449.406,-16.647476
1426797449.422,-14.455681
1426797449.437,-11.066826
1426797449.453,-5.6951065
1426797449.468,1.3396225
1426797449.484,8.821274
1426797449.5,15.27739
1426797449.515,19.784943
1426797449.531,22.527573
1426797449.547,24.566994
1426797449.562,27.268684
1426797449.578,31.583694
1426797449.593,37.62014
1426797449.609,44.752213
1426797449.625,52.023865
1426797449.64,58.690598
1426797449.656,64.334496
1426797449.672,68.836685
1426797449.687,72.0696
1426797449.703,73.52199
1426797449.718,72.26436
1426797449.734,67.34109
1426797449.75,58.179054
1426797449.765,45.032883
1426797449.781,29.195442
1426797449.797,12.405243
1426797449.812,-3.5169754
1426797449.828,-17.434517
1426797449.843,-29.056633
1426797449.859,-38.84665
1426797449.875,-47.498726
1426797449.89,-55.42665
1426797449.906,-62.39303
1426797449.922,-67.62711
1426797449.937,-70.25627
1426797449.953,-69.851364
1426797449.968,-66.85023
1426797449.984,-62.36074
1426797450,-57.69021
1426797450.015,-53.703255
1426797450.031,-50.43579
1426797450.047,-47.154694
1426797450.062,-42.884293
1426797450.078,-37.161316
1426797450.093,-30.371498
1426797450.109,-23.721992
1426797450.125,-18.5503
1426797450.14,-15.548042
1426797450.156,-14.199455
1426797450.172,-13.130409
1426797450.187,-10.717072
1426797450.203,-6.0224533
1426797450.218,0.6480408
1426797450.234,8.007202
1426797450.25,14.441605
1426797450.265,18.989014
1426797450.281,21.861282
1426797450.297,24.24067
1426797450.312,27.628258
1426797450.328,32.971573
1426797450.343,40.136642
1426797450.359,48.126747
1426797450.375,55.606026
1426797450.39,61.530746
1426797450.406,65.48705
1426797450.422,67.483864
1426797450.437,67.71417
1426797450.453,66.0688
1426797450.468,62.067368
1426797450.484,55.048157
1426797450.5,44.636856
1426797450.515,31.2006
1426797450.531,15.886284
1426797450.547,0.32099915
1426797450.562,-13.896095
1426797450.578,-25.789993
1426797450.593,-35.16783
1426797450.609,-42.488457
1426797450.625,-48.39191
1426797450.64,-53.286594
1426797450.656,-56.994858
1426797450.672,-58.989185
1426797450.687,-58.724068
1426797450.703,-56.17005
1426797450.718,-52.00612
1426797450.734,-47.332497
1426797450.75,-43.293198
1426797450.765,-40.487003
1426797450.781,-38.804447
1426797450.797,-37.51275
1426797450.812,-35.680508
1426797450.828,-32.68454
1426797450.843,-28.57845
1426797450.859,-24.030895
1426797450.875,-19.936813
