1435619282.18,0.0
1435619282.196,0.0
1435619282.212,0.0
1435619282.227,0.0
1435619282.243,0.0
1435619282.259,0.0
1435619282.274,0.0
1435619282.29,0.0
1435619282.306,0.0
1435619282.321,-0.0034471431
1435619282.337,-0.0032747358
1435619282.352,0.001131214
1435619282.368,0.009627182
1435619282.384,0.017972743
1435619282.399,0.018442988
1435619282.415,0.0038013044
1435619282.431,-0.026942367
1435619282.446,-0.064803846
1435619282.462,-0.096312314
1435619282.477,-0.09806036
1435619282.493,-0.06496136
1435619282.509,-0.012153486
1435619282.524,0.023115594
1435619282.54,-0.0067978464
1435619282.556,-0.14024004
1435619282.571,-0.38806617
1435619282.587,-0.7269102
1435619282.602,-1.1169438
1435619282.618,-1.4892579
1435619282.634,-1.8103116
1435619282.649,-2.0808449
1435619282.665,-2.340532
1435619282.681,-2.6491823
1435619282.696,-3.0553842
1435619282.712,-3.5672836
1435619282.727,-4.14117
1435619282.743,-4.718876
1435619282.759,-5.1716986
1435619282.774,-5.4540873
1435619282.79,-5.589711
1435619282.806,-5.6879044
1435619282.821,-5.9056835
1435619282.837,-6.375448
1435619282.852,-7.1327677
1435619282.868,-8.083832
1435619282.884,-9.085878
1435619282.899,-9.846973
1435619282.915,-10.264868
1435619282.931,-10.412775
1435619282.946,-10.570248
1435619282.962,-11.124416
1435619282.977,-12.393709
1435619282.993,-14.457795
1435619283.009,-17.086922
1435619283.024,-19.899208
1435619283.04,-22.268341
1435619283.056,-23.931675
1435619283.071,-25.006681
1435619283.087,-26.029518
1435619283.102,-27.74532
1435619283.118,-30.761024
1435619283.134,-35.228065
1435619283.149,-40.721767
1435619283.165,-46.49695
1435619283.181,-51.482334
1435619283.196,-55.175663
1435619283.212,-57.7244
1435619283.227,-59.95787
1435619283.243,-63.036777
1435619283.259,-67.90433
1435619283.274,-74.80894
1435619283.29,-82.51509
1435619283.306,-91.16729
1435619283.321,-99.38145
1435619283.337,-106.37886
1435619283.352,-111.54767
1435619283.368,-114.56446
1435619283.384,-115.63118
1435619283.399,-115.794266
1435619283.415,-117.0191
1435619283.431,-121.62565
1435619283.446,-131.15958
1435619283.462,-144.67856
1435619283.477,-158.55359
1435619283.493,-166.96632
1435619283.509,-163.89224
1435619283.524,-145.38403
1435619283.54,-111.01684
1435619283.556,-63.795906
1435619283.571,-8.646576
1435619283.587,49.522354
1435619283.602,107.478195
1435619283.618,163.54773
1435619283.634,216.97661
1435619283.649,266.85464
1435619283.665,311.58337
1435619283.681,349.1374
1435619283.696,377.76215
1435619283.712,396.48337
1435619283.727,405.5066
1435619283.743,405.76523
1435619283.759,398.21393
1435619283.774,383.4955
1435619283.79,361.90152
1435619283.806,333.59592
1435619283.821,299.15656
1435619283.837,259.86426
1435619283.852,217.70024
1435619283.868,174.99857
1435619283.884,133.97966
1435619283.899,96.20035
1435619283.915,62.358566
1435619283.931,32.36586
1435619283.946,5.6778564
1435619283.962,-18.270157
1435619283.977,-39.760376
1435619283.993,-58.691208
1435619284.009,-74.70322
1435619284.024,-87.438126
1435619284.04,-96.79976
1435619284.056,-103.0533
1435619284.071,-106.78197
1435619284.087,-108.70274
1435619284.102,-109.446
1435619284.118,-109.411865
1435619284.134,-108.732635
1435619284.149,-107.348236
1435619284.165,-105.15881
1435619284.181,-102.136154
1435619284.196,-98.38414
1435619284.212,-94.11923
1435619284.227,-89.60272
1435619284.243,-85.05654
1435619284.259,-80.609634
1435619284.274,-76.29519
1435619284.29,-72.07804
1435619284.306,-67.907104
1435619284.321,-63.75286
1435619284.337,-59.61579
1435619284.352,-55.52456
1435619284.368,-51.52069
1435619284.384,-47.641083
1435619284.399,-43.912518
1435619284.415,-40.344425
1435619284.431,-36.945625
1435619284.446,-33.689636
1435619284.462,-30.590542
1435619284.477,-27.65654
1435619284.493,-24.89256
1435619284.509,-22.306606
1435619284.524,-19.90311
1435619284.54,-17.681284
1435619284.556,-15.643341
1435619284.571,-13.789625
1435619284.587,-12.112455
1435619284.602,-10.610907
1435619284.618,-9.2775
1435619284.634,-8.098457
1435619284.649,-7.065384
1435619284.665,-6.1618614
1435619284.681,-5.3775997
1435619284.696,-4.697098
1435619284.712,-4.112545
1435619284.727,-3.6077557
1435619284.743,-3.179123
1435619284.759,-2.8162117
1435619284.774,-2.5058556
1435619284.79,-2.2418194
1435619284.806,-2.0185556
1435619284.821,-1.8242178
1435619284.837,-1.6577225
1435619284.852,-1.5157394
1435619284.868,-1.3913774
1435619284.884,-1.2829762
1435619284.899,-1.1928234
1435619284.915,-1.1091871
1435619284.931,-1.0375748
1435619284.946,-0.97520304
1435619284.962,-0.9157691
1435619284.978,-0.86342144
1435619284.993,-0.81545925
1435619285.009,-0.7719369
1435619285.024,-0.7313347
1435619285.04,-0.6957078
1435619285.056,-0.66230536
1435619285.071,-0.6302428
1435619285.087,-0.6041007
1435619285.103,-0.57586956
1435619285.118,-0.55099726
1435619285.134,-0.52758217
1435619285.149,-0.50458336
1435619285.165,-0.4841318
1435619285.181,-0.4667859
1435619285.196,-0.45181274
1435619285.212,-0.435699
1435619285.228,-0.43128824
1435619285.243,-0.42300272
1435619285.259,-0.42130375
1435619285.274,-0.4234848
1435619285.29,-0.4312334
1435619285.306,-0.44223642
1435619285.321,-0.457438
1435619285.337,-0.47649622
1435619285.353,-0.49841404
1435619285.368,-0.5228934
1435619285.384,-0.54922533
1435619285.399,-0.5784426
1435619285.415,-0.6065192
1435619285.431,-0.64135647
1435619285.446,-0.67007446
1435619285.462,-0.7060399
1435619285.478,-0.7436762
1435619285.493,-0.78407
1435619285.509,-0.8262882
1435619285.524,-0.8730068
1435619285.54,-0.927341
1435619285.556,-0.9837742
1435619285.571,-1.0494885
1435619285.587,-1.1201973
1435619285.603,-1.2004938
1435619285.618,-1.2924676
1435619285.634,-1.3980417
1435619285.649,-1.5128112
1435619285.665,-1.639998
1435619285.681,-1.791585
1435619285.696,-1.9527302
1435619285.712,-2.1379151
1435619285.728,-2.3421292
1435619285.743,-2.5632238
1435619285.759,-2.812316
1435619285.774,-3.0811076
1435619285.79,-3.3802466
1435619285.806,-3.7137628
1435619285.821,-4.0818543
1435619285.837,-4.480517
1435619285.853,-4.916751
1435619285.868,-5.349596
1435619285.884,-5.7952003
1435619285.899,-6.240981
1435619285.915,-6.6967573
1435619285.931,-7.1883745
1435619285.946,-7.7334557
1435619285.962,-8.349901
1435619285.978,-9.022886
1435619285.993,-9.748679
1435619286.009,-10.488687
1435619286.024,-11.236729
1435619286.04,-11.996924
1435619286.056,-12.774074
1435619286.071,-13.61755
1435619286.087,-14.544058
1435619286.103,-15.553753
1435619286.118,-16.602266
1435619286.134,-17.607098
1435619286.149,-18.441145
1435619286.165,-18.990164
1435619286.181,-19.133726
1435619286.196,-18.817556
1435619286.212,-18.013138
1435619286.228,-16.71512
1435619286.243,-14.936283
1435619286.259,-12.646366
1435619286.274,-9.821915
1435619286.29,-6.377388
1435619286.306,-2.3689823
1435619286.321,2.0535202
1435619286.337,6.626911
1435619286.353,10.998959
1435619286.368,14.812599
1435619286.384,17.862911
1435619286.399,20.113274
1435619286.415,21.755367
1435619286.431,23.070518
1435619286.446,24.351883
1435619286.462,25.691174
1435619286.478,26.99736
1435619286.493,28.005795
1435619286.509,28.440552
1435619286.524,28.152664
1435619286.54,27.308262
1435619286.556,26.309818
1435619286.571,25.67545
1435619286.587,25.79654
1435619286.603,26.76323
1435619286.618,28.286892
1435619286.634,29.821255
1435619286.649,30.85231
1435619286.665,31.137756
1435619286.681,30.794052
1435619286.696,30.287247
1435619286.712,30.169937
1435619286.728,30.863495
1435619286.743,32.603218
1435619286.759,35.486156
1435619286.774,39.408337
1435619286.79,43.921562
1435619286.806,47.97082
1435619286.821,49.946857
1435619286.837,48.09291
1435619286.853,41.33894
1435619286.868,29.98394
1435619286.884,15.848169
1435619286.899,1.6475391
1435619286.915,-10.217794
1435619286.931,-18.73091
1435619286.946,-24.523401
1435619286.962,-29.207605
1435619286.978,-34.232933
1435619286.993,-39.95498
1435619287.009,-45.507965
1435619287.024,-49.547012
1435619287.04,-51.134453
1435619287.056,-50.28882
1435619287.071,-47.83658
1435619287.087,-44.77282
1435619287.103,-41.603603
1435619287.118,-38.247417
1435619287.134,-34.324234
1435619287.149,-29.582096
1435619287.165,-24.317299
1435619287.181,-19.200829
1435619287.196,-15.035356
1435619287.212,-12.288219
1435619287.228,-11.027029
1435619287.243,-10.878191
1435619287.259,-11.296762
1435619287.274,-11.783294
1435619287.29,-11.8306675
1435619287.306,-11.306421
1435619287.321,-10.265277
1435619287.337,-8.911189
1435619287.353,-7.385346
1435619287.368,-5.7883506
1435619287.384,-4.0511026
1435619287.399,-2.01301
1435619287.415,0.52887607
1435619287.431,3.668747
1435619287.446,7.299357
1435619287.462,11.366222
1435619287.478,15.859563
1435619287.493,20.921665
1435619287.509,26.689651
1435619287.524,33.18795
1435619287.54,40.23573
1435619287.556,47.532825
1435619287.571,54.82429
1435619287.587,61.88022
1435619287.603,68.44257
1435619287.618,73.915184
1435619287.634,77.23276
1435619287.65,77.032364
1435619287.665,72.15542
1435619287.681,62.169785
1435619287.696,47.745167
1435619287.712,30.499006
1435619287.728,12.402895
1435619287.743,-4.760723
1435619287.759,-19.881817
1435619287.775,-32.48696
1435619287.79,-42.529587
1435619287.806,-50.01722
1435619287.821,-54.9451
1435619287.837,-57.354713
1435619287.853,-57.410484
1435619287.868,-55.620697
1435619287.884,-52.730545
1435619287.9,-49.566895
1435619287.915,-46.808643
1435619287.931,-44.78272
1435619287.946,-43.45895
1435619287.962,-42.55068
1435619287.978,-41.66659
1435619287.993,-40.46735
1435619288.009,-38.841846
1435619288.025,-36.823654
1435619288.04,-34.5626
1435619288.056,-32.19123
1435619288.071,-29.689465
1435619288.087,-26.842224
1435619288.103,-23.31203
1435619288.118,-18.751053
1435619288.134,-12.996738
1435619288.15,-6.1812286
1435619288.165,1.2780876
1435619288.181,8.826611
1435619288.196,15.955669
1435619288.212,22.386368
1435619288.228,28.10456
1435619288.243,33.358227
1435619288.259,38.52121
1435619288.275,44.02615
1435619288.29,50.228306
1435619288.306,57.25279
1435619288.321,64.7447
1435619288.337,71.73071
1435619288.353,76.693985
1435619288.368,77.954735
1435619288.384,74.19731
1435619288.4,65.02907
1435619288.415,51.14946
1435619288.431,34.16823
1435619288.446,16.037296
1435619288.462,-1.4965706
1435619288.478,-17.26601
1435619288.493,-30.684082
1435619288.509,-41.58698
1435619288.525,-49.942585
1435619288.54,-55.723473
1435619288.556,-59.01924
1435619288.571,-60.07458
1435619288.587,-59.406227
1435619288.603,-57.761314
1435619288.618,-55.92149
1435619288.634,-54.495766
1435619288.65,-53.746166
1435619288.665,-53.552296
1435619288.681,-53.435238
1435619288.696,-52.82557
1435619288.712,-51.254448
1435619288.728,-48.635136
1435619288.743,-45.254894
1435619288.759,-41.65449
1435619288.775,-38.317303
1435619288.79,-35.46108
1435619288.806,-32.87544
1435619288.821,-30.103535
1435619288.837,-26.67686
1435619288.853,-22.364548
1435619288.868,-17.287441
1435619288.884,-11.813499
1435619288.9,-6.300953
1435619288.915,-0.9628067
1435619288.931,4.194515
1435619288.946,9.273941
1435619288.962,14.341206
1435619288.978,19.346222
1435619288.993,24.258701
1435619289.009,29.169777
1435619289.025,34.39303
1435619289.04,40.365223
1435619289.056,47.353313
1435619289.071,55.192265
1435619289.087,63.052425
1435619289.103,69.50122
1435619289.118,72.897934
1435619289.134,71.86218
1435619289.15,65.7999
1435619289.165,55.0539
1435619289.181,40.80021
1435619289.196,24.629995
1435619289.212,8.181641
1435619289.228,-7.2377777
1435619289.243,-20.709614
1435619289.259,-31.647903
1435619289.275,-39.707336
1435619289.29,-44.730133
1435619289.306,-46.79293
1435619289.321,-46.26627
1435619289.337,-43.838757
1435619289.353,-40.397446
1435619289.368,-36.8583
1435619289.384,-34.01931
1435619289.4,-32.296787
1435619289.415,-31.760254
1435619289.431,-32.101074
1435619289.446,-32.761295
1435619289.462,-33.136547
1435619289.478,-32.75618
1435619289.493,-31.433243
1435619289.509,-29.24008
1435619289.525,-26.379547
1435619289.54,-23.076443
1435619289.556,-19.467754
1435619289.571,-15.624927
1435619289.587,-11.593
1435619289.603,-7.4274063
1435619289.618,-3.1867409
1435619289.634,1.0640297
1435619289.65,5.2894554
1435619289.665,9.434528
1435619289.681,13.476734
1435619289.696,17.380249
1435619289.712,21.226912
1435619289.728,25.175295
1435619289.743,29.506351
1435619289.759,34.54784
1435619289.775,40.537506
1435619289.79,47.58422
1435619289.806,55.4253
1435619289.821,63.45791
1435619289.837,70.681885
1435619289.853,75.822205
1435619289.868,77.57675
1435619289.884,74.92944
1435619289.9,67.668884
1435619289.915,56.462017
1435619289.931,42.737465
1435619289.946,28.177448
1435619289.962,14.144951
1435619289.978,1.3198509
1435619289.993,-10.160599
1435619290.009,-20.413235
1435619290.025,-29.333763
1435619290.04,-36.463074
1435619290.056,-41.17431
1435619290.071,-43.07788
1435619290.087,-42.365112
1435619290.103,-39.835762
1435619290.118,-36.644382
1435619290.134,-33.87105
1435619290.15,-32.11606
1435619290.165,-31.4445
1435619290.181,-31.44151
1435619290.196,-31.625927
1435619290.212,-31.628834
1435619290.228,-31.309685
1435619290.243,-30.710354
1435619290.259,-29.923782
1435619290.275,-28.96954
1435619290.29,-27.668705
1435619290.306,-25.713852
1435619290.322,-22.839226
1435619290.337,-18.898602
1435619290.353,-14.033352
1435619290.368,-8.5829315
1435619290.384,-3.002533
1435619290.4,2.3356285
1435619290.415,7.2795715
1435619290.431,11.890335
1435619290.447,16.374008
1435619290.462,20.987625
1435619290.478,25.920067
1435619290.493,31.301125
1435619290.509,37.228172
1435619290.525,43.852554
1435619290.54,51.30555
1435619290.556,59.49166
1435619290.572,67.918816
1435619290.587,75.52385
1435619290.603,80.731926
1435619290.618,81.98448
1435619290.634,78.1339
1435619290.65,69.01872
1435619290.665,55.493324
1435619290.681,39.251022
1435619290.697,22.243057
1435619290.712,6.1469116
1435619290.728,-7.895775
1435619290.743,-19.310822
1435619290.759,-27.893295
1435619290.775,-33.732788
1435619290.79,-37.106583
1435619290.806,-38.520935
1435619290.822,-38.67502
1435619290.837,-38.297478
1435619290.853,-37.989952
1435619290.868,-38.03856
1435619290.884,-38.47403
1435619290.9,-39.135826
1435619290.915,-39.869537
1435619290.931,-40.518364
1435619290.947,-41.009056
1435619290.962,-41.175316
1435619290.978,-40.786446
1435619290.993,-39.59291
1435619291.009,-37.428795
1435619291.025,-34.338707
1435619291.04,-30.511368
1435619291.056,-26.30989
1435619291.072,-21.991127
1435619291.087,-17.672592
1435619291.103,-13.317764
1435619291.118,-8.698273
1435619291.134,-3.6245651
1435619291.15,1.9695358
1435619291.165,7.944359
1435619291.181,13.98259
1435619291.197,19.705734
1435619291.212,24.867256
1435619291.228,29.4347
1435619291.243,33.64055
1435619291.259,37.915405
1435619291.275,42.79338
1435619291.29,48.68702
1435619291.306,55.73642
1435619291.322,63.596878
1435619291.337,71.37418
1435619291.353,77.719086
1435619291.368,81.11852
1435619291.384,80.29619
1435619291.4,74.58126
1435619291.415,64.089096
1435619291.431,49.75585
1435619291.447,33.04583
1435619291.462,15.630074
1435619291.478,-0.989357
1435619291.493,-15.69928
1435619291.509,-27.816887
1435619291.525,-37.089226
1435619291.54,-43.569168
1435619291.556,-47.497017
1435619291.572,-49.2723
1435619291.587,-49.386024
1435619291.603,-48.38054
1435619291.618,-46.80889
1435619291.634,-45.135963
1435619291.65,-43.693893
1435619291.665,-42.603996
1435619291.681,-41.821632
1435619291.697,-41.237762
1435619291.712,-40.721886
1435619291.728,-40.208466
1435619291.743,-39.615196
1435619291.759,-38.863823
1435619291.775,-37.785217
1435619291.79,-36.19165
1435619291.806,-33.93515
1435619291.822,-31.049652
1435619291.837,-27.618385
1435619291.853,-23.875267
1435619291.868,-20.005005
1435619291.884,-16.092186
1435619291.9,-12.057671
1435619291.915,-7.794075
1435619291.931,-3.2368011
1435619291.947,1.6370544
1435619291.962,6.793251
1435619291.978,12.206306
1435619291.993,17.843987
1435619292.009,23.654076
1435619292.025,29.57164
1435619292.04,35.519363
1435619292.056,41.55229
1435619292.072,47.857758
1435619292.087,54.695045
1435619292.103,62.052406
1435619292.118,69.39359
1435619292.134,75.55486
1435619292.15,78.98466
1435619292.165,78.225555
1435619292.181,72.538925
1435619292.197,62.17617
1435619292.212,48.300224
1435619292.228,32.590324
1435619292.243,16.699036
1435619292.259,1.9080505
1435619292.275,-10.98896
1435619292.29,-21.558235
1435619292.306,-29.564766
1435619292.322,-34.926506
1435619292.337,-37.603058
1435619292.353,-37.7602
1435619292.368,-35.811058
1435619292.384,-32.486206
1435619292.4,-28.68663
1435619292.415,-25.32138
1435619292.431,-23.023788
1435619292.447,-22.01287
1435619292.462,-22.035301
1435619292.478,-22.534225
1435619292.493,-22.875046
1435619292.509,-22.666588
1435619292.525,-21.824486
1435619292.54,-20.507057
1435619292.556,-18.97239
1435619292.572,-17.374733
1435619292.587,-15.660439
1435619292.603,-13.671501
1435619292.618,-11.203209
1435619292.634,-8.19384
1435619292.65,-4.6892014
1435619292.665,-0.8330078
1435619292.681,3.2284927
1435619292.697,7.376831
1435619292.712,11.550468
1435619292.728,15.806389
1435619292.743,20.22232
1435619292.759,24.890526
1435619292.775,29.878021
1435619292.79,35.21694
1435619292.806,40.981796
1435619292.822,47.256805
1435619292.837,54.13241
1435619292.853,61.48948
1435619292.868,68.84793
1435619292.884,75.22871
1435619292.9,79.286865
1435619292.915,79.621925
1435619292.931,75.254364
1435619292.947,66.0148
1435619292.962,52.663597
1435619292.978,36.705597
1435619292.994,19.93142
1435619293.009,3.9166641
1435619293.025,-10.256355
1435619293.04,-22.068024
1435619293.056,-31.327637
1435619293.072,-38.075005
1435619293.087,-42.330925
1435619293.103,-44.269333
1435619293.118,-44.228065
1435619293.134,-42.82843
1435619293.15,-40.860847
1435619293.165,-39.042465
1435619293.181,-37.778214
1435619293.197,-37.0495
1435619293.212,-36.548004
1435619293.228,-35.928963
1435619293.244,-35.00672
1435619293.259,-33.85666
1435619293.275,-32.661064
1435619293.29,-31.557922
1435619293.306,-30.462273
1435619293.322,-29.126495
1435619293.337,-27.265457
1435619293.353,-24.683807
1435619293.369,-21.310104
1435619293.384,-17.213547
1435619293.4,-12.46048
1435619293.415,-7.1567383
1435619293.431,-1.4668808
1435619293.447,4.3682747
1435619293.462,10.023773
1435619293.478,15.246002
1435619293.494,19.993252
1435619293.509,24.46024
1435619293.525,29.063358
1435619293.54,34.216248
1435619293.556,40.365643
1435619293.572,47.737877
1435619293.587,56.33469
1435619293.603,65.703705
1435619293.619,74.89711
1435619293.634,82.43869
1435619293.65,86.68794
1435619293.665,86.24049
1435619293.681,80.41139
1435619293.697,69.50821
1435619293.712,54.72426
1435619293.728,37.723495
1435619293.744,20.221558
1435619293.759,3.5593586
1435619293.775,-11.349125
1435619293.79,-23.965017
1435619293.806,-33.95305
1435619293.822,-41.17089
1435619293.837,-45.645325
1435619293.853,-47.685043
1435619293.869,-47.869514
1435619293.884,-46.970222
1435619293.9,-45.749992
1435619293.915,-44.812542
1435619293.931,-44.44873
1435619293.947,-44.587128
1435619293.962,-44.883736
1435619293.978,-44.909817
1435619293.994,-44.317127
1435619294.009,-43.03568
1435619294.025,-41.217716
1435619294.04,-39.18275
1435619294.056,-37.162075
1435619294.072,-35.208836
1435619294.087,-33.09522
1435619294.103,-30.477869
1435619294.119,-27.03006
1435619294.134,-22.65511
1435619294.15,-17.470901
1435619294.165,-11.796331
1435619294.181,-5.9195385
1435619294.197,-0.0030813217
1435619294.212,5.9339476
1435619294.228,11.992804
1435619294.244,18.271488
1435619294.259,24.791262
1435619294.275,31.611027
1435619294.29,38.788136
1435619294.306,46.469624
1435619294.322,54.651436
1435619294.337,63.024303
1435619294.353,70.73587
1435619294.369,76.42923
1435619294.384,78.59508
1435619294.4,76.048744
1435619294.415,68.32765
1435619294.431,55.897552
1435619294.447,39.965813
1435619294.462,22.149689
1435619294.478,4.039463
1435619294.494,-13.007397
1435619294.509,-28.014446
1435619294.525,-40.311462
1435619294.54,-49.53352
1435619294.556,-55.57074
1435619294.572,-58.585033
1435619294.587,-58.992493
1435619294.603,-57.501595
1435619294.619,-54.951813
1435619294.634,-52.209717
1435619294.65,-50.00384
1435619294.665,-48.713806
1435619294.681,-48.339592
1435619294.697,-48.522957
1435619294.712,-48.77614
1435619294.728,-48.696087
1435619294.744,-48.13587
1435619294.759,-47.254345
1435619294.775,-46.192265
1435619294.79,-44.985065
1435619294.806,-43.344437
1435619294.822,-40.83393
1435619294.837,-37.06615
1435619294.853,-31.95338
1435619294.869,-25.78019
1435619294.884,-19.100407
1435619294.9,-12.461197
1435619294.915,-6.199394
1435619294.931,-0.38238144
1435619294.947,5.12484
1435619294.962,10.534603
1435619294.978,16.04094
1435619294.994,21.846897
1435619295.009,28.258835
1435619295.025,35.631905
1435619295.04,44.18373
1435619295.056,53.75336
1435619295.072,63.548546
1435619295.087,72.222725
1435619295.103,78.11304
1435619295.119,79.759
1435619295.134,76.32921
1435619295.15,67.83029
1435619295.165,55.166073
1435619295.181,39.788933
1435619295.197,23.325294
1435619295.212,7.2362785
1435619295.228,-7.445034
1435619295.244,-20.077572
1435619295.259,-30.306358
1435619295.275,-37.932453
1435619295.29,-42.87917
1435619295.306,-45.19707
1435619295.322,-45.198536
1435619295.337,-43.481876
1435619295.353,-40.838043
1435619295.369,-38.02333
1435619295.384,-35.572914
1435619295.4,-33.62802
1435619295.415,-32.0036
1435619295.431,-30.395119
1435619295.447,-28.541977
1435619295.462,-26.344189
1435619295.478,-23.85849
1435619295.494,-21.124996
1435619295.509,-18.144318
1435619295.525,-14.7968025
1435619295.54,-10.940323
1435619295.556,-6.393154
1435619295.572,-1.1130753
1435619295.587,4.8152275
1435619295.603,11.157444
1435619295.619,17.569378
1435619295.634,23.723545
1435619295.65,29.38564
1435619295.665,34.497795
1435619295.681,39.226162
1435619295.697,43.925907
1435619295.712,49.034805
1435619295.728,54.88961
1435619295.744,61.518406
1435619295.759,68.4315
1435619295.775,74.624695
1435619295.79,78.703445
1435619295.806,79.281296
1435619295.822,75.43088
1435619295.837,66.98895
1435619295.853,54.651382
1435619295.869,39.722897
1435619295.884,23.737396
1435619295.9,8.070599
1435619295.916,-6.255459
1435619295.931,-18.590137
1435619295.947,-28.527096
1435619295.962,-35.850426
1435619295.978,-40.529293
1435619295.994,-42.673286
1435619296.009,-42.67327
1435619296.025,-41.119095
1435619296.041,-38.756325
1435619296.056,-36.33879
1435619296.072,-34.457733
1435619296.087,-33.406673
1435619296.103,-33.151215
1435619296.119,-33.388653
1435619296.134,-33.683357
1435619296.15,-33.691345
1435619296.166,-33.239655
1435619296.181,-32.33313
1435619296.197,-30.996902
1435619296.212,-29.16063
1435619296.228,-26.614342
1435619296.244,-23.099083
1435619296.259,-18.48954
1435619296.275,-12.879478
1435619296.291,-6.6000366
1435619296.306,-0.068573
1435619296.322,6.3791428
1435619296.337,12.6254425
1435619296.353,18.729546
1435619296.369,24.938225
1435619296.384,31.590645
1435619296.4,39.043633
1435619296.416,47.484253
1435619296.431,56.72075
1435619296.447,65.96046
1435619296.462,73.82991
1435619296.478,78.63212
1435619296.494,78.83778
1435619296.509,73.63834
1435619296.525,63.235764
1435619296.541,48.763763
1435619296.556,31.93589
1435619296.572,14.49929
1435619296.587,-2.0828629
1435619296.603,-16.866676
1435619296.619,-29.278389
1435619296.634,-39.05687
1435619296.65,-46.151573
1435619296.666,-50.61405
1435619296.681,-52.74543
1435619296.697,-53.015892
1435619296.712,-52.046448
1435619296.728,-50.561188
1435619296.744,-49.190178
1435619296.759,-48.36268
1435619296.775,-48.13452
1435619296.791,-48.19467
1435619296.806,-47.962135
1435619296.822,-46.86383
1435619296.837,-44.569366
1435619296.853,-41.20916
1435619296.869,-37.280746
1435619296.884,-33.419365
1435619296.9,-30.088982
1435619296.916,-27.349495
1435619296.931,-24.835365
1435619296.947,-21.985825
1435619296.962,-18.267593
1435619296.978,-13.464973
1435619296.994,-7.708557
1435619297.009,-1.3870316
1435619297.025,5.03154
1435619297.041,11.183182
1435619297.056,16.929367
1435619297.072,22.312988
1435619297.087,27.544785
1435619297.103,32.955887
1435619297.119,38.868233
1435619297.134,45.54663
1435619297.15,52.94731
1435619297.166,60.57682
1435619297.181,67.42032
1435619297.197,72.0761
1435619297.212,73.20446
1435619297.228,69.89613
1435619297.244,62.021957
1435619297.259,50.188026
1435619297.275,35.530006
1435619297.291,19.32457
1435619297.306,2.801117
1435619297.322,-13.016945
1435619297.337,-27.226585
1435619297.353,-39.121696
1435619297.369,-48.21572
1435619297.384,-54.368675
1435619297.4,-57.81803
1435619297.416,-59.120766
1435619297.431,-58.976295
1435619297.447,-58.0466
1435619297.462,-56.802963
1435619297.478,-55.57415
1435619297.494,-54.46985
1435619297.509,-53.532562
1435619297.525,-52.654625
1435619297.541,-51.698784
1435619297.556,-50.49417
1435619297.572,-48.931442
1435619297.587,-47.0103
1435619297.603,-44.691444
1435619297.619,-41.91181
1435619297.634,-38.571823
1435619297.65,-34.617874
1435619297.666,-30.154564
1435619297.681,-25.384232
1435619297.697,-20.544601
1435619297.712,-15.718269
1435619297.728,-10.808769
1435619297.744,-5.592865
1435619297.759,0.07095337
1435619297.775,6.1458435
1435619297.791,12.387947
1435619297.806,18.514328
1435619297.822,24.38913
1435619297.837,30.215424
1435619297.853,36.45253
1435619297.869,43.613823
1435619297.884,51.953644
1435619297.9,61.153175
1435619297.916,70.21199
1435619297.931,77.62505
1435619297.947,81.69274
1435619297.962,81.12107
1435619297.978,75.322365
1435619297.994,64.77331
1435619298.009,50.742607
1435619298.025,34.920692
1435619298.041,18.935196
1435619298.056,3.9637985
1435619298.072,-9.302673
1435619298.087,-20.518105
1435619298.103,-29.522957
1435619298.119,-36.218857
1435619298.134,-40.62052
1435619298.15,-42.937466
1435619298.166,-43.661667
1435619298.181,-43.407944
1435619298.197,-42.829155
1435619298.212,-42.372406
1435619298.228,-42.192837
1435619298.244,-42.126602
1435619298.259,-41.863564
1435619298.275,-41.061825
1435619298.291,-39.560043
1435619298.306,-37.421364
1435619298.322,-34.868572
1435619298.337,-32.13891
1435619298.353,-29.32544
1435619298.369,-26.32383
1435619298.384,-22.883865
1435619298.4,-18.730827
1435619298.416,-13.7575
1435619298.431,-7.991581
1435619298.447,-1.6461773
1435619298.462,5.0116386
1435619298.478,11.712645
1435619298.494,18.219292
1435619298.509,24.345285
1435619298.525,29.975298
1435619298.541,35.15998
1435619298.556,40.162727
1435619298.572,45.450035
1435619298.588,51.5614
1435619298.603,58.800667
1435619298.619,66.9971
1435619298.634,75.271324
1435619298.65,82.2318
1435619298.666,86.29436
1435619298.681,86.19386
1435619298.697,81.375946
1435619298.713,72.19264
1435619298.728,59.683594
1435619298.744,45.278908
1435619298.759,30.342945
1435619298.775,15.949267
1435619298.791,2.7721043
1435619298.806,-8.749428
1435619298.822,-18.256016
1435619298.838,-25.378017
1435619298.853,-29.868874
1435619298.869,-31.756275
1435619298.884,-31.568657
1435619298.9,-30.253056
1435619298.916,-28.955235
1435619298.931,-28.590929
1435619298.947,-29.558773
1435619298.963,-31.603
1435619298.978,-33.988144
1435619298.994,-35.799007
1435619299.009,-36.378532
1435619299.025,-35.53167
1435619299.041,-33.57979
1435619299.056,-31.102625
1435619299.072,-28.642506
1435619299.088,-26.406229
1435619299.103,-24.196394
1435619299.119,-21.540668
1435619299.134,-17.99621
1435619299.15,-13.366505
1435619299.166,-7.815053
1435619299.181,-1.7651644
1435619299.197,4.32335
1435619299.213,10.21122
1435619299.228,15.897275
1435619299.244,21.626686
1435619299.259,27.672485
1435619299.275,34.28135
1435619299.291,41.541916
1435619299.306,49.356236
1435619299.322,57.317886
1435619299.338,64.68362
1435619299.353,70.34415
1435619299.369,73.07065
1435619299.384,71.78511
1435619299.4,65.91472
1435619299.416,55.58683
1435619299.431,41.653576
1435619299.447,25.459682
1435619299.463,8.5617895
1435619299.478,-7.607774
1435619299.494,-21.872604
1435619299.509,-33.48725
1435619299.525,-42.099274
1435619299.541,-47.714066
1435619299.556,-50.622906
1435619299.572,-51.32977
1435619299.588,-50.46688
1435619299.603,-48.733982
1435619299.619,-46.78755
1435619299.634,-45.170418
1435619299.65,-44.151913
1435619299.666,-43.678665
1435619299.681,-43.418873
1435619299.697,-42.94224
1435619299.713,-41.927975
1435619299.728,-40.339523
1435619299.744,-38.365753
1435619299.759,-36.312992
1435619299.775,-34.38158
1435619299.791,-32.549683
1435619299.806,-30.578983
1435619299.822,-28.134659
1435619299.838,-24.894243
1435619299.853,-20.708895
1435619299.869,-15.604815
1435619299.884,-9.742301
1435619299.9,-3.360466
1435619299.916,3.2444415
1435619299.931,9.835844
1435619299.947,16.176655
1435619299.963,22.177944
1435619299.978,27.859785
1435619299.994,33.430935
1435619300.009,39.20786
1435619300.025,45.560204
1435619300.041,52.80885
1435619300.056,61.023453
1435619300.072,69.81556
1435619300.088,78.2202
1435619300.103,84.67929
1435619300.119,87.46075
1435619300.134,85.13112
1435619300.15,77.12611
1435619300.166,63.971966
1435619300.181,47.228615
1435619300.197,28.922676
1435619300.213,10.983229
1435619300.228,-5.2757726
1435619300.244,-19.205301
1435619300.259,-30.72197
1435619300.275,-39.918118
1435619300.291,-46.879417
1435619300.306,-51.61909
1435619300.322,-54.236042
1435619300.338,-55.050552
1435619300.353,-54.64089
1435619300.369,-53.674526
1435619300.384,-52.72516
1435619300.4,-52.05758
1435619300.416,-51.658585
1435619300.431,-51.25302
1435619300.447,-50.58751
1435619300.463,-49.534027
1435619300.478,-48.10379
1435619300.494,-46.39913
1435619300.509,-44.490623
1435619300.525,-42.355568
1435619300.541,-39.882576
1435619300.556,-36.96866
1435619300.572,-33.570457
1435619300.588,-29.72023
1435619300.603,-25.523623
1435619300.619,-21.094666
1435619300.634,-16.531105
1435619300.65,-11.8348465
1435619300.666,-6.9927063
1435619300.681,-1.9404984
1435619300.697,3.359562
1435619300.713,8.931576
1435619300.728,14.671623
1435619300.744,20.396984
1435619300.759,25.921574
1435619300.775,31.1269
1435619300.791,36.087646
1435619300.806,41.13763
1435619300.822,46.761677
1435619300.838,53.358086
1435619300.853,60.891735
1435619300.869,68.801025
1435619300.884,75.91792
1435619300.9,80.77847
1435619300.916,81.95935
1435619300.931,78.51149
1435619300.947,70.21004
1435619300.963,57.639633
1435619300.978,42.042976
1435619300.994,25.055305
1435619301.009,8.323769
1435619301.025,-6.826004
1435619301.041,-19.553131
1435619301.056,-29.52932
1435619301.072,-36.842567
1435619301.088,-41.784904
1435619301.103,-44.72902
1435619301.119,-46.062416
1435619301.134,-46.23294
1435619301.15,-45.721268
1435619301.166,-45.06591
1435619301.181,-44.697487
1435619301.197,-44.839706
1435619301.213,-45.397415
1435619301.228,-46.066795
1435619301.244,-46.463272
1435619301.26,-46.28018
1435619301.275,-45.381866
1435619301.291,-43.835342
1435619301.306,-41.80906
1435619301.322,-39.5029
1435619301.338,-37.049286
1435619301.353,-34.479256
1435619301.369,-31.701897
1435619301.385,-28.615967
1435619301.4,-25.117462
1435619301.416,-21.202019
1435619301.431,-16.952255
1435619301.447,-12.502571
1435619301.463,-7.9025726
1435619301.478,-3.1414185
1435619301.494,1.8710022
1435619301.51,7.2003174
1435619301.525,12.812775
1435619301.541,18.565979
1435619301.556,24.263916
1435619301.572,29.7388
1435619301.588,35.00833
1435619301.603,40.27858
1435619301.619,45.901062
1435619301.635,52.167862
1435619301.65,59.1149
1435619301.666,66.28006
1435619301.681,72.715836
1435619301.697,77.14984
1435619301.713,78.348206
1435619301.728,75.47583
1435619301.744,68.38602
1435619301.76,57.63562
1435619301.775,44.33052
1435619301.791,29.823593
1435619301.806,15.403854
1435619301.822,2.1228333
1435619301.838,-9.297653
1435619301.853,-18.48346
1435619301.869,-25.274094
1435619301.885,-29.77333
1435619301.9,-32.221924
1435619301.916,-33.00563
1435619301.931,-32.548477
1435619301.947,-31.345612
1435619301.963,-29.878922
1435619301.978,-28.528946
1435619301.994,-27.547546
1435619302.01,-26.976059
1435619302.025,-26.677399
1435619302.041,-26.414886
1435619302.056,-25.962463
1435619302.072,-25.220428
1435619302.088,-24.093475
1435619302.103,-22.534561
1435619302.119,-20.448257
1435619302.135,-17.747986
1435619302.15,-14.443039
1435619302.166,-10.67482
1435619302.181,-6.6700134
1435619302.197,-2.6283875
1435619302.213,1.412323
1435619302.228,5.514862
1435619302.244,9.826782
1435619302.26,14.415009
1435619302.275,19.25499
1435619302.291,24.21701
1435619302.306,29.25917
1435619302.322,34.450256
1435619302.338,40.033173
1435619302.353,46.23381
1435619302.369,53.236786
1435619302.385,60.919662
1435619302.4,68.86299
1435619302.416,76.27939
1435619302.431,82.14821
1435619302.447,85.36743
1435619302.463,85.0231
1435619302.478,80.742386
1435619302.494,72.81117
1435619302.51,62.082855
1435619302.525,49.708435
1435619302.541,36.75963
1435619302.556,24.016678
1435619302.572,11.942047
1435619302.588,0.9058533
1435619302.603,-8.711182
1435619302.619,-16.429657
1435619302.635,-21.886139
1435619302.65,-25.015182
1435619302.666,-26.179031
1435619302.681,-26.062347
1435619302.697,-25.445206
1435619302.713,-24.86789
1435619302.728,-24.597107
1435619302.744,-24.593918
1435619302.76,-24.689957
1435619302.775,-24.74202
1435619302.791,-24.73703
1435619302.806,-24.679474
1435619302.822,-24.525635
1435619302.838,-24.106873
1435619302.853,-23.164032
1435619302.869,-21.388458
1435619302.885,-18.657913
1435619302.9,-15.013824
1435619302.916,-10.736618
1435619302.931,-6.1800995
1435619302.947,-1.6604156
1435619302.963,2.683792
1435619302.978,6.951935
1435619302.994,11.457336
1435619303.01,16.572311
1435619303.025,22.56546
1435619303.041,29.504974
1435619303.056,37.27101
1435619303.072,45.643738
1435619303.088,54.412064
1435619303.103,63.373596
1435619303.119,72.20824
1435619303.135,80.24455
1435619303.15,86.443634
1435619303.166,89.48201
1435619303.181,88.12248
1435619303.197,81.69714
1435619303.213,70.38718
1435619303.228,55.259293
1435619303.244,37.90995
1435619303.26,20.055656
1435619303.275,3.084671
1435619303.291,-12.118408
1435619303.306,-25.019257
1435619303.322,-35.223335
1435619303.338,-42.37948
1435619303.353,-46.294342
1435619303.369,-47.163467
1435619303.385,-45.810654
1435619303.4,-43.522842
1435619303.416,-41.707954
1435619303.431,-41.287704
1435619303.447,-42.369408
1435619303.463,-44.248497
1435619303.478,-45.82727
1435619303.494,-46.18139
1435619303.51,-45.027046
1435619303.525,-42.71444
1435619303.541,-39.933685
1435619303.556,-37.257095
1435619303.572,-34.84092
1435619303.588,-32.36544
1435619303.603,-29.342804
1435619303.619,-25.350807
1435619303.635,-20.307926
1435619303.65,-14.4362335
1435619303.666,-8.173111
1435619303.681,-1.9708595
1435619303.697,3.901989
1435619303.713,9.463642
1435619303.728,14.950504
1435619303.744,20.684513
1435619303.76,26.991451
1435619303.775,34.142075
1435619303.791,42.34375
1435619303.806,51.6455
1435619303.822,61.813034
1435619303.838,72.14002
1435619303.853,81.34982
1435619303.869,87.79367
1435619303.885,89.84067
1435619303.9,86.373474
1435619303.916,77.21752
1435619303.932,63.15154
1435619303.947,45.649548
1435619303.963,26.465698
1435619303.978,7.211685
1435619303.994,-10.78471
1435619304.01,-26.547285
1435619304.025,-39.39998
1435619304.041,-48.958515
1435619304.056,-55.165733
1435619304.072,-58.40943
1435619304.088,-59.39342
1435619304.103,-59.036903
1435619304.119,-58.207657
1435619304.135,-57.56533
1435619304.15,-57.362503
1435619304.166,-57.51368
1435619304.182,-57.707424
1435619304.197,-57.614906
1435619304.213,-57.061874
1435619304.228,-56.056232
1435619304.244,-54.73056
1435619304.26,-53.207443
1435619304.275,-51.45674
1435619304.291,-49.296753
1435619304.307,-46.4442
1435619304.322,-42.627007
1435619304.338,-37.691925
1435619304.353,-31.655525
1435619304.369,-24.714119
1435619304.385,-17.217628
1435619304.4,-9.578812
1435619304.416,-2.1490784
1435619304.432,4.855934
1435619304.447,11.495682
1435619304.463,18.122772
1435619304.478,25.285225
1435619304.494,33.57804
1435619304.51,43.29959
1435619304.525,54.233894
1435619304.541,65.42631
1435619304.557,75.266884
1435619304.572,81.82118
1435619304.588,83.36476
1435619304.603,78.876854
1435619304.619,68.399
1435619304.635,52.978798
1435619304.65,34.35491
1435619304.666,14.465019
1435619304.682,-4.995674
1435619304.697,-22.772942
1435619304.713,-37.97159
1435619304.728,-49.986824
1435619304.744,-58.417793
1435619304.76,-63.170753
1435619304.775,-64.54017
1435619304.791,-63.331177
1435619304.807,-60.668556
1435619304.822,-57.70665
1435619304.838,-55.25534
1435619304.853,-53.62468
1435619304.869,-52.59581
1435619304.885,-51.70433
1435619304.9,-50.488174
1435619304.916,-48.74713
1435619304.932,-46.5755
1435619304.947,-44.25157
1435619304.963,-42.02565
1435619304.978,-39.921204
1435619304.994,-37.693993
1435619305.01,-34.9265
1435619305.025,-31.204063
1435619305.041,-26.33889
1435619305.057,-20.424072
1435619305.072,-13.843246
1435619305.088,-7.020218
1435619305.103,-0.31214905
1435619305.119,6.1627197
1435619305.135,12.485336
1435619305.15,18.864075
1435619305.166,25.546997
1435619305.182,32.82126
1435619305.197,40.86403
1435619305.213,49.7023
1435619305.228,59.01764
1435619305.244,67.98484
1435619305.26,75.275116
1435619305.275,79.384026
1435619305.291,78.95822
1435619305.307,73.34239
1435619305.322,62.749123
1435619305.338,48.300865
1435619305.353,31.665009
1435619305.369,14.611847
1435619305.385,-1.3510208
1435619305.4,-15.164169
1435619305.416,-26.196556
1435619305.432,-34.16913
1435619305.447,-39.064125
1435619305.463,-41.067543
1435619305.478,-40.623276
1435619305.494,-38.39045
1435619305.51,-35.18638
1435619305.525,-31.780952
1435619305.541,-28.783539
1435619305.557,-26.500664
1435619305.572,-24.965477
1435619305.588,-24.01059
1435619305.603,-23.429077
1435619305.619,-23.044647
1435619305.635,-22.713165
1435619305.65,-22.216461
1435619305.666,-21.275398
1435619305.682,-19.561798
1435619305.697,-16.829918
1435619305.713,-13.024498
1435619305.728,-8.270447
1435619305.744,-2.867241
1435619305.76,2.8537903
1435619305.775,8.646599
1435619305.791,14.383743
1435619305.807,20.161766
1435619305.822,26.18737
1435619305.838,32.83567
1435619305.853,40.42163
1435619305.869,49.089676
1435619305.885,58.505447
1435619305.9,67.742035
1435619305.916,75.33771
1435619305.932,79.59541
1435619305.947,79.03662
1435619305.963,72.91576
1435619305.978,61.49652
1435619305.994,45.980927
1435619306.01,28.148605
1435619306.025,9.937225
1435619306.041,-7.0549927
1435619306.057,-21.730545
1435619306.072,-33.525345
1435619306.088,-42.221695
1435619306.103,-47.82376
1435619306.119,-50.448303
1435619306.135,-50.427628
1435619306.15,-48.353104
1435619306.166,-45.08185
1435619306.182,-41.576294
1435619306.197,-38.629272
1435619306.213,-36.603333
1435619306.228,-35.35553
1435619306.244,-34.409637
1435619306.26,-33.26349
1435619306.275,-31.658554
1435619306.291,-29.71379
1435619306.307,-27.691391
1435619306.322,-25.77713
1435619306.338,-23.856476
1435619306.353,-21.557297
1435619306.369,-18.426086
1435619306.385,-14.183792
1435619306.4,-8.854965
1435619306.416,-2.766632
1435619306.432,3.6537933
1435619306.447,10.02977
1435619306.463,16.217682
1435619306.478,22.303741
1435619306.494,28.606476
1435619306.51,35.52327
1435619306.525,43.344864
1435619306.541,52.02289
1435619306.557,61.015915
1435619306.572,69.21449
1435619306.588,75.19722
1435619306.604,77.514786
1435619306.619,75.13379
1435619306.635,67.70651
1435619306.65,55.656418
1435619306.666,40.07437
1435619306.682,22.472992
1435619306.697,4.482147
1435619306.713,-12.386536
1435619306.728,-26.945847
1435619306.744,-38.430145
1435619306.76,-46.539444
1435619306.775,-51.35849
1435619306.791,-53.34636
1435619306.807,-53.151688
1435619306.822,-51.56703
1435619306.838,-49.34134
1435619306.854,-47.106598
1435619306.869,-45.25009
1435619306.885,-43.883347
1435619306.9,-42.886795
1435619306.916,-42.04323
1435619306.932,-41.177185
1435619306.947,-40.273758
1435619306.963,-39.336456
1435619306.979,-38.30313
1435619306.994,-36.95108
1435619307.01,-34.83812
1435619307.025,-31.521439
1435619307.041,-26.786057
1435619307.057,-20.758514
1435619307.072,-13.887634
1435619307.088,-6.759445
1435619307.104,0.13496399
1435619307.119,6.5390015
1435619307.135,12.419418
1435619307.15,17.965256
1435619307.166,23.426437
1435619307.182,29.15709
1435619307.197,35.534378
1435619307.213,42.900192
1435619307.229,51.347794
1435619307.244,60.463623
1435619307.26,69.17384
1435619307.275,75.83792
1435619307.291,78.648575
1435619307.307,76.23865
1435619307.322,68.156265
1435619307.338,55.124466
1435619307.354,38.775436
1435619307.369,21.148346
1435619307.385,4.036682
1435619307.4,-11.3638
1435619307.416,-24.558563
1435619307.432,-35.524765
1435619307.447,-44.368744
1435619307.463,-51.119843
1435619307.479,-55.696594
1435619307.494,-58.0739
1435619307.51,-58.40088
1435619307.525,-57.122772
1435619307.541,-54.88492
1435619307.557,-52.376724
1435619307.572,-50.13051
1435619307.588,-48.43991
1435619307.604,-47.31079
1435619307.619,-46.5605
1435619307.635,-45.941544
1435619307.65,-45.21759
1435619307.666,-44.277344
1435619307.682,-43.0728
1435619307.697,-41.56436
1435619307.713,-39.630432
1435619307.729,-37.034454
1435619307.744,-33.494827
1435619307.76,-28.791702
1435619307.775,-22.93016
1435619307.791,-16.1707
1435619307.807,-8.980133
1435619307.822,-1.8232193
1435619307.838,4.955429
1435619307.854,11.217308
1435619307.869,17.065628
1435619307.885,22.724632
1435619307.9,28.574142
1435619307.916,34.99621
1435619307.932,42.34398
1435619307.947,50.71398
1435619307.963,59.857384
1435619307.979,69.002335
1435619307.994,76.91718
1435619308.01,82.1067
1435619308.025,83.194214
1435619308.041,79.333595
1435619308.057,70.42642
1435619308.072,57.225143
1435619308.088,41.09774
1435619308.104,23.698212
1435619308.119,6.6366425
1435619308.135,-8.824623
1435619308.15,-21.8722
1435619308.166,-32.09751
1435619308.182,-39.41178
1435619308.197,-43.967888
1435619308.213,-46.056297
1435619308.229,-46.13817
1435619308.244,-44.79509
1435619308.26,-42.691772
1435619308.275,-40.40876
1435619308.291,-38.33983
1435619308.307,-36.62903
1435619308.322,-35.151604
1435619308.338,-33.625877
1435619308.354,-31.792755
1435619308.369,-29.530624
1435619308.385,-26.95536
1435619308.4,-24.366867
1435619308.416,-22.09616
1435619308.432,-20.308155
1435619308.447,-18.86382
1435619308.463,-17.313171
1435619308.479,-15.0971985
1435619308.494,-11.737247
1435619308.51,-7.093239
1435619308.525,-1.3901596
1435619308.541,4.8698425
1435619308.557,11.125942
1435619308.572,16.96428
1435619308.588,22.219833
1435619308.604,26.988232
1435619308.619,31.58165
1435619308.635,36.45268
1435619308.65,42.109737
1435619308.666,48.896492
1435619308.682,56.807587
1435619308.697,65.1922
1435619308.713,72.83089
1435619308.729,78.11934
1435619308.744,79.57568
1435619308.76,76.29945
1435619308.775,68.26383
1435619308.791,56.281326
1435619308.807,41.708523
1435619308.822,26.049448
1435619308.838,10.711781
1435619308.854,-3.1881657
1435619308.869,-14.81102
1435619308.885,-23.613365
1435619308.9,-29.427668
1435619308.916,-32.474304
1435619308.932,-33.322395
1435619308.947,-32.760475
1435619308.963,-31.569986
1435619308.979,-30.303677
1435619308.994,-29.187576
1435619309.01,-28.206835
1435619309.025,-27.15879
1435619309.041,-25.889048
1435619309.057,-24.360037
1435619309.072,-22.743387
1435619309.088,-21.2813
1435619309.104,-20.210192
1435619309.119,-19.542992
1435619309.135,-19.027807
1435619309.15,-18.188547
1435619309.166,-16.502224
1435619309.182,-13.604288
1435619309.197,-9.402365
1435619309.213,-4.057619
1435619309.229,2.0634174
1435619309.244,8.51988
1435619309.26,14.924908
1435619309.275,21.00415
1435619309.291,26.653852
1435619309.307,32.05092
1435619309.322,37.57646
1435619309.338,43.736214
1435619309.354,50.847923
1435619309.369,58.77836
1435619309.385,66.688095
1435619309.4,73.16727
1435619309.416,76.55342
1435619309.432,75.45476
1435619309.447,69.20452
1435619309.463,58.118454
1435619309.479,43.39874
1435619309.494,26.788784
1435619309.51,10.067053
1435619309.526,-5.3575287
1435619309.541,-18.649881
1435619309.557,-29.474901
1435619309.572,-37.80307
1435619309.588,-43.624443
1435619309.604,-46.956734
1435619309.619,-47.92188
1435619309.635,-46.9506
1435619309.651,-44.795097
1435619309.666,-42.398888
1435619309.682,-40.591553
1435619309.697,-39.767555
1435619309.713,-39.75487
1435619309.729,-39.947018
1435619309.744,-39.660515
1435619309.76,-38.47147
1435619309.776,-36.42346
1435619309.791,-33.942665
1435619309.807,-31.576511
1435619309.822,-29.628546
1435619309.838,-27.953793
1435619309.854,-26.003832
1435619309.869,-23.05678
1435619309.885,-18.623749
1435619309.901,-12.664959
1435619309.916,-5.682892
1435619309.932,1.5564632
1435619309.947,8.339197
1435619309.963,14.383177
1435619309.979,19.884829
1435619309.994,25.41949
1435619310.01,31.64828
1435619310.026,39.04416
1435619310.041,47.69664
1435619310.057,57.246853
1435619310.072,66.88992
1435619310.088,75.452286
1435619310.104,81.567535
1435619310.119,83.9283
1435619310.135,81.580215
1435619310.151,74.218506
1435619310.166,62.294754
1435619310.182,46.967346
1435619310.197,29.773172
1435619310.213,12.296518
1435619310.229,-4.130274
1435619310.244,-18.536999
1435619310.26,-30.360062
1435619310.276,-39.348763
1435619310.291,-45.51088
1435619310.307,-49.08201
1435619310.322,-50.50801
1435619310.338,-50.342888
1435619310.354,-49.210976
1435619310.369,-47.65673
1435619310.385,-46.129547
1435619310.401,-44.8469
1435619310.416,-43.863533
1435619310.432,-43.07773
1435619310.447,-42.354965
1435619310.463,-41.524773
1435619310.479,-40.50853
1435619310.494,-39.243965
1435619310.51,-37.69683
1435619310.526,-35.76472
1435619310.541,-33.27542
1435619310.557,-30.02162
1435619310.572,-25.854746
1435619310.588,-20.748928
1435619310.604,-14.912712
1435619310.619,-8.660236
1435619310.635,-2.3842888
1435619310.651,3.575941
1435619310.666,8.995312
1435619310.682,13.818922
1435619310.697,18.14577
1435619310.713,22.324036
1435619310.729,26.83962
1435619310.744,32.334507
1435619310.76,39.291504
1435619310.776,47.81676
1435619310.791,57.33078
1435619310.807,66.56465
1435619310.822,73.72517
1435619310.838,77.055244
1435619310.854,75.31706
1435619310.869,68.21579
1435619310.885,56.433594
1435619310.901,41.41765
1435619310.916,24.851799
1435619310.932,8.254909
1435619310.947,-7.326313
1435619310.963,-21.257141
1435619310.979,-33.203297
1435619310.994,-42.858257
1435619311.01,-49.934387
1435619311.026,-54.226357
1435619311.041,-55.824974
1435619311.057,-55.242653
1435619311.072,-53.356598
1435619311.088,-51.11577
1435619311.104,-49.27809
1435619311.119,-48.113
1435619311.135,-47.444767
1435619311.151,-46.82931
1435619311.166,-45.856792
1435619311.182,-44.371128
1435619311.197,-42.49507
1435619311.213,-40.510418
1435619311.229,-38.654427
1435619311.244,-36.897568
1435619311.26,-35.019974
1435619311.276,-32.58656
1435619311.291,-29.222286
1435619311.307,-24.687323
1435619311.322,-19.01233
1435619311.338,-12.429951
1435619311.354,-5.317724
1435619311.369,1.9336014
1435619311.385,9.00923
1435619311.401,15.702322
1435619311.416,21.953629
1435619311.432,27.844267
1435619311.447,33.594376
1435619311.463,39.57242
1435619311.479,46.185646
1435619311.494,53.70128
1435619311.51,61.97936
1435619311.526,70.29091
1435619311.541,77.31583
1435619311.557,81.469284
1435619311.572,81.34389
1435619311.588,76.22493
1435619311.604,66.31517
1435619311.619,52.678764
1435619311.635,36.861286
1435619311.651,20.4963
1435619311.666,4.8895836
1435619311.682,-9.041668
1435619311.697,-20.749458
1435619311.713,-29.892086
1435619311.729,-36.303318
1435619311.744,-39.972378
1435619311.76,-41.148926
1435619311.776,-40.357178
1435619311.791,-38.318974
1435619311.807,-35.780083
1435619311.822,-33.354065
1435619311.838,-31.335972
1435619311.854,-29.775341
1435619311.869,-28.497536
1435619311.885,-27.289566
1435619311.901,-25.977566
1435619311.916,-24.479385
1435619311.932,-22.787945
1435619311.947,-20.880692
1435619311.963,-18.645058
1435619311.979,-15.857933
1435619311.994,-12.240952
1435619312.01,-7.621071
1435619312.026,-2.0341568
1435619312.041,4.223343
1435619312.057,10.67218
1435619312.072,16.874191
1435619312.088,22.632202
1435619312.104,28.09581
1435619312.119,33.68656
1435619312.135,39.86425
1435619312.151,46.950882
1435619312.166,54.95096
1435619312.182,63.48813
1435619312.198,71.81041
1435619312.213,78.85777
1435619312.229,83.359795
1435619312.244,84.10667
1435619312.26,80.2487
1435619312.276,71.622986
1435619312.291,58.932938
1435619312.307,43.58972
1435619312.323,27.354317
1435619312.338,11.877342
1435619312.354,-1.6781464
1435619312.369,-12.716408
1435619312.385,-21.10225
1435619312.401,-26.954735
1435619312.416,-30.50747
1435619312.432,-32.022354
1435619312.448,-31.858353
1435619312.463,-30.456322
1435619312.479,-28.311985
1435619312.494,-25.895947
1435619312.51,-23.583855
1435619312.526,-21.639412
1435619312.541,-20.199444
1435619312.557,-19.299923
1435619312.573,-18.883678
1435619312.588,-18.776886
1435619312.604,-18.713047
1435619312.619,-18.30384
1435619312.635,-17.206074
1435619312.651,-15.180008
1435619312.666,-12.139622
1435619312.682,-8.221527
1435619312.698,-3.6617546
1435619312.713,1.2596779
1435619312.729,6.3194504
1435619312.744,11.4496155
1435619312.76,16.802856
1435619312.776,22.739246
1435619312.791,29.698093
1435619312.807,38.00316
1435619312.823,47.53926
1435619312.838,57.580597
1435619312.854,66.76093
1435619312.869,73.35965
1435619312.885,75.809456
1435619312.901,73.14419
1435619312.916,65.28034
1435619312.932,53.01562
1435619312.948,37.722176
1435619312.963,20.982412
1435619312.979,4.246952
1435619312.994,-11.324583
1435619313.01,-24.90991
1435619313.026,-35.95687
1435619313.041,-44.198017
1435619313.057,-49.61444
1435619313.073,-52.44119
1435619313.088,-53.13317
1435619313.104,-52.315987
1435619313.119,-50.624615
1435619313.135,-48.618282
1435619313.151,-46.66721
1435619313.166,-44.887814
1435619313.182,-43.210518
1435619313.198,-41.45191
1435619313.213,-39.460808
1435619313.229,-37.1772
1435619313.244,-34.653023
1435619313.26,-31.952618
1435619313.276,-29.051716
1435619313.291,-25.794218
1435619313.307,-21.921726
1435619313.323,-17.226402
1435619313.338,-11.644734
1435619313.354,-5.390545
1435619313.369,1.1818619
1435619313.385,7.681452
1435619313.401,13.880291
1435619313.416,19.774038
1435619313.432,25.61903
1435619313.448,31.828426
1435619313.463,38.7824
1435619313.479,46.75004
1435619313.494,55.603325
1435619313.51,64.71492
1435619313.526,72.92503
1435619313.541,78.68922
1435619313.557,80.439804
1435619313.573,77.05507
1435619313.588,68.26332
1435619313.604,54.765034
1435619313.619,38.04734
1435619313.635,19.920708
1435619313.651,2.0784645
1435619313.666,-14.236202
1435619313.682,-28.264755
1435619313.698,-39.633236
1435619313.713,-48.205246
1435619313.729,-54.012733
1435619313.744,-57.252453
1435619313.76,-58.321648
1435619313.776,-57.793762
1435619313.791,-56.305317
1435619313.807,-54.381958
1435619313.823,-52.4007
1435619313.838,-50.504326
1435619313.854,-48.70598
1435619313.869,-46.93854
1435619313.885,-45.16065
1435619313.901,-43.34735
1435619313.916,-41.49161
1435619313.932,-39.571426
1435619313.948,-37.47482
1435619313.963,-35.024403
1435619313.979,-31.960316
1435619313.994,-28.00129
1435619314.01,-23.00536
1435619314.026,-17.025032
1435619314.041,-10.357758
1435619314.057,-3.475029
1435619314.073,3.139019
1435619314.088,9.225922
1435619314.104,14.840664
1435619314.119,20.424152
1435619314.135,26.582035
1435619314.151,33.882866
1435619314.166,42.437595
1435619314.182,51.683113
1435619314.198,60.331158
1435619314.213,66.65161
1435619314.229,68.90723
1435619314.244,65.945526
1435619314.26,57.568886
1435619314.276,44.65611
1435619314.291,28.847538
1435619314.307,12.057209
1435619314.323,-4.011383
1435619314.338,-18.175037
1435619314.354,-29.838173
1435619314.369,-38.79211
1435619314.385,-45.03859
1435619314.401,-48.705822
1435619314.416,-50.05137
1435619314.432,-49.54392
1435619314.448,-47.865807
1435619314.463,-45.779793
1435619314.479,-43.879894
1435619314.494,-42.414646
1435619314.51,-41.24592
1435619314.526,-40.01068
1435619314.541,-38.35249
1435619314.557,-36.13641
1435619314.573,-33.50016
1435619314.588,-30.72784
1435619314.604,-28.002445
1435619314.619,-25.232407
1435619314.635,-22.081059
1435619314.651,-18.133553
1435619314.666,-13.156033
1435619314.682,-7.2321854
1435619314.698,-0.7380829
1435619314.713,5.8624344
1435619314.729,12.249573
1435619314.744,18.392086
1435619314.76,24.545101
1435619314.776,31.127419
1435619314.791,38.475662
1435619314.807,46.70321
1435619314.823,55.486904
1435619314.838,64.056885
1435619314.854,71.226944
1435619314.87,75.611015
1435619314.885,75.96127
1435619314.901,71.5258
1435619314.916,62.33007
1435619314.932,49.21792
1435619314.948,33.66745
1435619314.963,17.410385
1435619314.979,2.0574493
1435619314.994,-11.131741
1435619315.01,-21.381256
1435619315.026,-28.337776
1435619315.041,-32.083668
1435619315.057,-33.031174
1435619315.073,-31.890705
1435619315.088,-29.5308
1435619315.104,-26.795818
1435619315.12,-24.321167
1435619315.135,-22.426685
1435619315.151,-21.162502
1435619315.166,-20.40733
1435619315.182,-20.034779
1435619315.198,-19.93899
1435619315.213,-19.992325
1435619315.229,-19.975065
1435619315.245,-19.529522
1435619315.26,-18.260462
1435619315.276,-15.85939
1435619315.291,-12.327057
1435619315.307,-7.928154
1435619315.323,-3.1228561
1435619315.338,1.6490288
1435619315.354,6.1595726
1435619315.37,10.47966
1435619315.385,14.881241
1435619315.401,19.72277
1435619315.416,25.305363
1435619315.432,31.761387
1435619315.448,38.960934
1435619315.463,46.48367
1435619315.479,53.57193
1435619315.495,59.194748
1435619315.51,62.185684
1435619315.526,61.540127
1435619315.541,56.695248
1435619315.557,47.791534
1435619315.573,35.65361
1435619315.588,21.601925
1435619315.604,7.111988
1435619315.62,-6.5130005
1435619315.635,-18.350464
1435619315.651,-27.870972
1435619315.666,-34.882862
1435619315.682,-39.410046
1435619315.698,-41.681183
1435619315.713,-42.04887
1435619315.729,-41.023155
1435619315.745,-39.16936
1435619315.76,-37.035744
1435619315.776,-35.021725
1435619315.791,-33.335785
1435619315.807,-32.018173
1435619315.823,-30.970325
1435619315.838,-30.023857
1435619315.854,-28.973488
1435619315.87,-27.573753
1435619315.885,-25.592278
1435619315.901,-22.866325
1435619315.916,-19.344425
1435619315.932,-15.118103
1435619315.948,-10.378529
1435619315.963,-5.3173714
1435619315.979,-0.093063354
1435619315.995,5.23312
1435619316.01,10.694977
1435619316.026,16.392265
1435619316.041,22.466969
1435619316.057,29.146347
1435619316.073,36.62349
1435619316.088,44.922386
1435619316.104,53.736732
1435619316.12,62.282177
1435619316.135,69.31929
1435619316.151,73.43765
1435619316.166,73.40338
1435619316.182,68.580795
1435619316.198,59.104618
1435619316.213,45.8433
1435619316.229,30.142582
1435619316.245,13.528011
1435619316.26,-2.6340408
1435619316.276,-17.277733
1435619316.291,-29.67725
1435619316.307,-39.422966
1435619316.323,-46.412777
1435619316.338,-50.764435
1435619316.354,-52.846832
1435619316.37,-53.15597
1435619316.385,-52.255455
1435619316.401,-50.692764
1435619316.416,-48.881565
1435619316.432,-47.078342
1435619316.448,-45.37175
1435619316.463,-43.75574
1435619316.479,-42.147278
1435619316.495,-40.49976
1435619316.51,-38.79484
1435619316.526,-37.071327
1435619316.541,-35.345505
1435619316.557,-33.534943
1435619316.573,-31.425758
1435619316.588,-28.714237
1435619316.604,-25.11103
1435619316.62,-20.47121
1435619316.635,-14.94648
1435619316.651,-8.898853
1435619316.666,-2.8394203
1435619316.682,2.8286285
1435619316.698,7.94281
1435619316.713,12.615948
1435619316.729,17.205826
1435619316.745,22.205273
1435619316.76,28.069256
1435619316.776,35.089222
1435619316.791,43.231613
1435619316.807,52.01177
1435619316.823,60.409115
1435619316.838,67.03494
1435619316.854,70.36281
1435619316.87,69.18271
1435619316.885,62.994644
1435619316.901,52.184677
1435619316.916,37.91719
1435619316.932,21.79127
1435619316.948,5.3696194
1435619316.963,-10.11545
1435619316.979,-23.90737
1435619316.995,-35.589386
1435619317.01,-44.904694
1435619317.026,-51.638885
1435619317.041,-55.6913
1435619317.057,-57.200356
1435619317.073,-56.637676
1435619317.088,-54.77419
1435619317.104,-52.510113
1435619317.12,-50.52564
1435619317.135,-49.141014
1435619317.151,-48.18881
1435619317.166,-47.276676
1435619317.182,-46.003586
1435619317.198,-44.191692
1435619317.213,-41.91082
1435619317.229,-39.425694
1435619317.245,-36.953156
1435619317.26,-34.54723
1435619317.276,-32.05225
1435619317.291,-29.193438
1435619317.307,-25.664139
1435619317.323,-21.281654
1435619317.338,-16.044172
1435619317.354,-10.151344
1435619317.37,-3.934969
1435619317.385,2.2468739
1435619317.401,8.131157
1435619317.416,13.608944
1435619317.432,18.777958
1435619317.448,23.842247
1435619317.463,29.086441
1435619317.479,34.731724
1435619317.495,40.967323
1435619317.51,47.851734
1435619317.526,55.25397
1435619317.542,62.73292
1435619317.557,69.44184
1435619317.573,74.1861
1435619317.588,75.69795
1435619317.604,73.03197
1435619317.62,65.89464
1435619317.635,54.796177
1435619317.651,40.899868
1435619317.666,25.671558
1435619317.682,10.518162
1435619317.698,-3.4625168
1435619317.713,-15.469879
1435619317.729,-25.015198
1435619317.745,-31.781433
1435619317.76,-35.68406
1435619317.776,-36.9321
1435619317.792,-36.044563
1435619317.807,-33.787117
1435619317.823,-31.004448
1435619317.838,-28.380135
1435619317.854,-26.333626
1435619317.87,-24.922188
1435619317.885,-23.934639
1435619317.901,-23.003136
1435619317.917,-21.773872
1435619317.932,-20.006409
1435619317.948,-17.66401
1435619317.963,-14.862473
1435619317.979,-11.778557
1435619317.995,-8.495583
1435619318.01,-4.926491
1435619318.026,-0.84025574
1435619318.042,3.9741669
1435619318.057,9.578697
1435619318.073,15.737686
1435619318.088,22.05178
1435619318.104,28.114792
1435619318.12,33.686607
1435619318.135,38.814568
1435619318.151,43.732986
1435619318.167,48.757965
1435619318.182,54.194824
1435619318.198,60.193085
1435619318.213,66.69801
1435619318.229,73.281586
1435619318.245,79.111
1435619318.26,82.97106
1435619318.276,83.617455
1435619318.292,80.08913
1435619318.307,72.131134
1435619318.323,60.262733
1435619318.338,45.647087
1435619318.354,29.723213
1435619318.37,13.852501
1435619318.385,-0.8979111
1435619318.401,-13.780914
1435619318.417,-24.29889
1435619318.432,-32.16664
1435619318.448,-37.306213
1435619318.463,-39.92269
1435619318.479,-40.46827
1435619318.495,-39.566093
1435619318.51,-37.856667
1435619318.526,-35.845787
1435619318.542,-33.84597
1435619318.557,-31.946014
1435619318.573,-30.087952
1435619318.588,-28.175697
1435619318.604,-26.203674
1435619318.62,-24.229294
1435619318.635,-22.36628
1435619318.651,-20.668037
1435619318.667,-19.027664
1435619318.682,-17.162933
1435619318.698,-14.718086
1435619318.713,-11.418747
1435619318.729,-7.2174683
1435619318.745,-2.3267746
1435619318.76,2.8515396
1435619318.776,7.9263306
1435619318.792,12.673317
1435619318.807,17.151962
1435619318.823,21.679993
1435619318.838,26.754196
1435619318.854,32.86818
1435619318.87,40.31772
1435619318.885,48.946045
1435619318.901,58.043297
1435619318.917,66.30797
1435619318.932,72.16342
1435619318.948,74.08553
1435619318.963,71.13497
1435619318.979,63.24269
1435619318.995,51.27279
1435619319.01,36.71573
1435619319.026,21.245415
1435619319.042,6.307289
1435619319.057,-7.1598015
1435619319.073,-18.664642
1435619319.088,-28.043762
1435619319.104,-35.276295
1435619319.12,-40.42244
1435619319.135,-43.64208
1435619319.151,-45.205086
1435619319.167,-45.5521
1435619319.182,-45.1046
1435619319.198,-44.23255
1435619319.213,-43.128807
1435619319.229,-41.854736
1435619319.245,-40.406673
1435619319.26,-38.82938
1435619319.276,-37.234043
1435619319.292,-35.723526
1435619319.307,-34.29719
1435619319.323,-32.7786
1435619319.338,-30.889
1435619319.354,-28.342674
1435619319.37,-24.957565
1435619319.385,-20.762417
1435619319.401,-15.950325
1435619319.417,-10.823639
1435619319.432,-5.689724
1435619319.448,-0.8074608
1435619319.463,3.7141953
1435619319.479,7.9187737
1435619319.495,12.121784
1435619319.51,16.80877
1435619319.526,22.552822
1435619319.542,29.697338
1435619319.557,38.099358
1435619319.573,46.953728
1435619319.588,54.86283
1435619319.604,60.16188
1435619319.62,61.40177
1435619319.635,57.777435
1435619319.651,49.354164
1435619319.667,37.04542
1435619319.682,22.350567
1435619319.698,6.913271
1435619319.713,-7.7825527
1435619319.729,-20.70719
1435619319.745,-31.256355
1435619319.76,-39.25781
1435619319.776,-44.78459
1435619319.792,-48.081837
1435619319.807,-49.440334
1435619319.823,-49.233524
1435619319.838,-47.859413
1435619319.854,-45.811737
1435619319.87,-43.55637
1435619319.885,-41.508286
1435619319.901,-39.89588
1435619319.917,-38.7194
1435619319.932,-37.80828
1435619319.948,-36.902195
1435619319.963,-35.74093
1435619319.979,-34.13244
1435619319.995,-31.918116
1435619320.01,-29.043674
1435619320.026,-25.465729
1435619320.042,-21.210997
1435619320.057,-16.392435
1435619320.073,-11.158558
1435619320.088,-5.659527
1435619320.104,-0.021522522
1435619320.12,5.7314873
1435619320.135,11.7056675
1435619320.151,18.125635
1435619320.167,25.278534
1435619320.182,33.38877
1435619320.198,42.40161
1435619320.213,51.785286
1435619320.229,60.463707
1435619320.245,66.960144
1435619320.26,69.78906
1435619320.276,67.940765
1435619320.292,61.20763
1435619320.307,50.320053
1435619320.323,36.6828
1435619320.338,21.977352
1435619320.354,7.7325974
1435619320.37,-4.936611
1435619320.385,-15.3889885
1435619320.401,-23.331684
1435619320.417,-28.702583
1435619320.432,-31.60064
1435619320.448,-32.31033
1435619320.464,-31.320728
1435619320.479,-29.33865
1435619320.495,-27.093246
1435619320.51,-25.222187
1435619320.526,-24.03347
1435619320.542,-23.412502
1435619320.557,-22.94439
1435619320.573,-22.088017
1435619320.589,-20.4454
1435619320.604,-17.922459
1435619320.62,-14.735775
1435619320.635,-11.266277
1435619320.651,-7.8217506
1435619320.667,-4.56649
1435619320.682,-1.4120903
1435619320.698,1.8436623
1435619320.714,5.4379196
1435619320.729,9.576553
1435619320.745,14.417938
1435619320.76,20.069561
1435619320.776,26.65157
1435619320.792,34.15734
1435619320.807,42.347694
1435619320.823,50.600723
1435619320.839,57.877777
1435619320.854,62.915905
1435619320.87,64.50014
1435619320.885,61.84596
1435619320.901,54.879818
1435619320.917,44.298523
1435619320.932,31.331806
1435619320.948,17.442696
1435619320.964,3.950838
1435619320.979,-8.222588
1435619320.995,-18.529684
1435619321.01,-26.679886
1435619321.026,-32.48446
1435619321.042,-35.809364
1435619321.057,-36.659126
1435619321.073,-35.311237
1435619321.089,-32.40367
1435619321.104,-28.83095
1435619321.12,-25.495977
1435619321.135,-23.041107
1435619321.151,-21.630735
1435619321.167,-20.947891
1435619321.182,-20.392778
1435619321.198,-19.385326
1435619321.214,-17.628689
1435619321.229,-15.141146
1435619321.245,-12.16979
1435619321.26,-9.016628
1435619321.276,-5.8371754
1435619321.292,-2.6320038
1435619321.307,0.7801037
1435619321.323,4.6323185
1435619321.339,9.197662
1435619321.354,14.7442255
1435619321.37,21.467148
1435619321.385,29.302479
1435619321.401,37.764313
1435619321.417,45.904587
1435619321.432,52.350773
1435619321.448,55.662064
1435619321.464,54.74756
1435619321.479,49.21595
1435619321.495,39.54426
1435619321.51,26.913921
1435619321.526,12.903377
1435619321.542,-0.9742403
1435619321.557,-13.524594
1435619321.573,-24.03701
1435619321.589,-32.177864
1435619321.604,-37.888546
1435619321.62,-41.26524
1435619321.635,-42.536953
1435619321.651,-42.085964
1435619321.667,-40.42822
1435619321.682,-38.175335
1435619321.698,-35.88572
1435619321.714,-33.97281
1435619321.729,-32.620506
1435619321.745,-31.705368
1435619321.76,-30.924088
1435619321.776,-29.8738
1435619321.792,-28.229668
1435619321.807,-25.808376
1435619321.823,-22.637539
1435619321.839,-18.893612
1435619321.854,-14.853231
1435619321.87,-10.7278185
1435619321.885,-6.627464
1435619321.901,-2.4817576
1435619321.917,1.9114459
1435619321.932,6.872139
1435619321.948,12.70311
1435619321.964,19.592989
1435619321.979,27.422394
1435619321.995,35.6915
1435619322.01,43.47509
1435619322.026,49.57369
1435619322.042,52.808067
1435619322.057,52.297375
1435619322.073,47.708813
1435619322.089,39.33797
1435619322.104,27.995016
1435619322.12,14.81855
1435619322.135,1.0193768
1435619322.151,-12.241998
1435619322.167,-24.03777
1435619322.182,-33.689674
1435619322.198,-40.839348
1435619322.214,-45.434185
1435619322.229,-47.739723
1435619322.245,-48.19676
1435619322.26,-47.386284
1435619322.276,-45.848858
1435619322.292,-44.024303
1435619322.307,-42.18026
1435619322.323,-40.412476
1435619322.339,-38.67881
1435619322.354,-36.89962
1435619322.37,-34.998573
1435619322.385,-33.007904
1435619322.401,-30.95562
1435619322.417,-28.865366
1435619322.432,-26.64379
1435619322.448,-24.124557
1435619322.464,-21.096085
1435619322.479,-17.453608
1435619322.495,-13.203718
1435619322.51,-8.516821
1435619322.526,-3.6259727
1435619322.542,1.2336903
1435619322.557,5.9046135
1435619322.573,10.353041
1435619322.589,14.690432
1435619322.604,19.188667
1435619322.62,24.211597
1435619322.635,30.055023
1435619322.651,36.766666
1435619322.667,43.937965
1435619322.682,50.66207
1435619322.698,55.637554
1435619322.714,57.515236
1435619322.729,55.31163
1435619322.745,48.737083
1435619322.76,38.279823
1435619322.776,25.119072
1435619322.792,10.722126
1435619322.807,-3.447567
1435619322.823,-16.281918
1435619322.839,-27.124355
1435619322.854,-35.74018
1435619322.87,-42.146732
1435619322.885,-46.555893
1435619322.901,-49.21366
1435619322.917,-50.44374
1435619322.932,-50.58712
1435619322.948,-50.04001
1435619322.964,-49.13127
1435619322.979,-48.04921
1435619322.995,-46.776337
1435619323.01,-45.139687
1435619323.026,-42.928352
1435619323.042,-40.10012
1435619323.057,-36.863617
1435619323.073,-33.64778
1435619323.089,-30.892616
1435619323.104,-28.809563
1435619323.12,-27.26194
1435619323.136,-25.82315
1435619323.151,-23.933975
1435619323.167,-21.165932
1435619323.182,-17.354202
1435619323.198,-12.606331
1435619323.214,-7.1715546
1435619323.229,-1.3805771
1435619323.245,4.507843
1435619323.261,10.268585
1435619323.276,15.784409
1435619323.292,21.051102
1435619323.307,26.23944
1435619323.323,31.628479
1435619323.339,37.555023
1435619323.354,44.223145
1435619323.37,51.526337
1435619323.386,58.969666
1435619323.401,65.66231
1435619323.417,70.485275
1435619323.432,72.42166
1435619323.448,70.766266
1435619323.464,65.38875
1435619323.479,56.696686
1435619323.495,45.594254
1435619323.511,33.168564
1435619323.526,20.500854
1435619323.542,8.5061035
1435619323.557,-2.1495209
1435619323.573,-11.004379
1435619323.589,-17.783539
1435619323.604,-22.363968
1435619323.62,-24.784195
1435619323.636,-25.275742
1435619323.651,-24.240982
1435619323.667,-22.233368
1435619323.682,-19.867508
1435619323.698,-17.70256
1435619323.714,-16.104874
1435619323.729,-15.1879425
1435619323.745,-14.750687
1435619323.761,-14.4653015
1435619323.776,-13.974899
1435619323.792,-13.036514
1435619323.807,-11.591629
1435619323.823,-9.711914
1435619323.839,-7.440323
1435619323.854,-4.781906
1435619323.87,-1.6584015
1435619323.886,2.0126038
1435619323.901,6.2253723
1435619323.917,10.900925
1435619323.932,15.898727
1435619323.948,21.007492
1435619323.964,26.048325
1435619323.979,30.850235
1435619323.995,35.368973
1435619324.011,39.704926
1435619324.026,44.198135
1435619324.042,49.230408
1435619324.057,55.087692
1435619324.073,61.61934
1435619324.089,68.11247
1435619324.104,73.3589
1435619324.12,76.00249
1435619324.136,74.975494
1435619324.151,69.834885
1435619324.167,60.90532
1435619324.182,49.13652
1435619324.198,35.79062
1435619324.214,22.154343
1435619324.229,9.278305
1435619324.245,-2.045761
1435619324.261,-11.348404
1435619324.276,-18.383255
1435619324.292,-23.08728
1435619324.307,-25.566055
1435619324.323,-26.134842
1435619324.339,-25.2753
1435619324.354,-23.562103
1435619324.37,-21.57814
1435619324.386,-19.8087
1435619324.401,-18.524231
1435619324.417,-17.766418
1435619324.432,-17.388855
1435619324.448,-17.161804
1435619324.464,-16.830154
1435619324.479,-16.176865
1435619324.495,-15.011673
1435619324.511,-13.232681
1435619324.526,-10.761124
1435619324.542,-7.5974274
1435619324.557,-3.8237152
1435619324.573,0.40065002
1435619324.589,4.890564
1435619324.604,9.422501
1435619324.62,13.862762
1435619324.636,18.165482
1435619324.651,22.47432
1435619324.667,27.112335
1435619324.682,32.5121
1435619324.698,39.01146
1435619324.714,46.59372
1435619324.729,54.725494
1435619324.745,62.348465
1435619324.761,68.0502
1435619324.776,70.504745
1435619324.792,68.82034
1435619324.807,62.82463
1435619324.823,53.059906
1435619324.839,40.61235
1435619324.854,26.790512
1435619324.87,12.865524
1435619324.886,-0.14859009
1435619324.901,-11.572433
1435619324.917,-21.031555
1435619324.932,-28.430557
1435619324.948,-33.85585
1435619324.964,-37.53325
1435619324.979,-39.79866
1435619324.995,-40.97322
1435619325.011,-41.441055
1435619325.026,-41.50824
1435619325.042,-41.380234
1435619325.057,-41.101273
1435619325.073,-40.602783
1435619325.089,-39.74257
1435619325.104,-38.47026
1435619325.12,-36.836624
1435619325.136,-34.992966
1435619325.151,-33.06314
1435619325.167,-31.054672
1435619325.182,-28.786621
1435619325.198,-25.990616
1435619325.214,-22.390656
1435619325.229,-17.83957
1435619325.245,-12.359558
1435619325.261,-6.1796417
1435619325.276,0.37094116
1435619325.292,6.9470367
1435619325.307,13.328232
1435619325.323,19.515411
1435619325.339,25.757828
1435619325.354,32.47075
1435619325.37,40.063736
1435619325.386,48.699722
1435619325.401,58.043198
1435619325.417,67.258545
1435619325.432,75.089035
1435619325.448,80.1246
1435619325.464,81.23576
1435619325.479,77.79641
1435619325.495,69.89511
1435619325.511,58.22026
1435619325.526,43.87098
1435619325.542,28.112396
1435619325.557,12.159447
1435619325.573,-2.950142
1435619325.589,-16.394371
1435619325.604,-27.615906
1435619325.62,-36.33438
1435619325.636,-42.542664
1435619325.651,-46.527916
1435619325.667,-48.78051
1435619325.682,-49.867256
1435619325.698,-50.320694
1435619325.714,-50.50747
1435619325.729,-50.63286
1435619325.745,-50.723145
1435619325.761,-50.68293
1435619325.776,-50.366074
1435619325.792,-49.611702
1435619325.808,-48.303925
1435619325.823,-46.41188
1435619325.839,-44.001953
1435619325.854,-41.221706
1435619325.87,-38.211887
1435619325.886,-35.037537
1435619325.901,-31.65718
1435619325.917,-27.914154
1435619325.933,-23.643887
1435619325.948,-18.758614
1435619325.964,-13.291393
1435619325.979,-7.400585
1435619325.995,-1.28965
1435619326.011,4.8983765
1435619326.026,11.144558
1435619326.042,17.539875
1435619326.058,24.24121
1435619326.073,31.424942
1435619326.089,39.27821
1435619326.104,47.842995
1435619326.12,56.96337
1435619326.136,66.07239
1435619326.151,74.19063
1435619326.167,79.983635
1435619326.183,82.09224
1435619326.198,79.46804
1435619326.214,71.73805
1435619326.229,59.337845
1435619326.245,43.389828
1435619326.261,25.390642
1435619326.276,6.879505
1435619326.292,-10.842827
1435619326.308,-26.782331
1435619326.323,-40.221756
1435619326.339,-50.649292
1435619326.354,-57.812466
1435619326.37,-61.785683
1435619326.386,-63.083084
1435619326.401,-62.539658
1435619326.417,-61.159534
1435619326.433,-59.78817
1435619326.448,-58.92559
1435619326.464,-58.633217
1435619326.479,-58.63913
1435619326.495,-58.537144
1435619326.511,-58.012245
1435619326.526,-56.898533
1435619326.542,-55.181427
1435619326.558,-52.960354
1435619326.573,-50.34437
1435619326.589,-47.4369
1435619326.604,-44.27403
1435619326.62,-40.822308
1435619326.636,-36.977978
1435619326.651,-32.614067
1435619326.667,-27.655087
1435619326.683,-22.098753
1435619326.698,-16.083681
1435619326.714,-9.782774
1435619326.729,-3.3498964
1435619326.745,3.12816
1435619326.761,9.608274
1435619326.776,16.110369
1435619326.792,22.670795
1435619326.808,29.404331
1435619326.823,36.547585
1435619326.839,44.37323
1435619326.854,53.04068
1435619326.87,62.293327
1435619326.886,71.28432
1435619326.901,78.63508
1435619326.917,82.747856
1435619326.933,82.28
1435619326.948,76.599075
1435619326.964,66.036644
1435619326.979,51.75836
1435619326.995,35.4721
1435619327.011,18.929886
1435619327.026,3.5909014
1435619327.042,-9.626325
1435619327.058,-20.2723
1435619327.073,-28.285883
1435619327.089,-33.79126
1435619327.104,-37.02369
1435619327.12,-38.299847
1435619327.136,-38.03854
1435619327.151,-36.759422
1435619327.167,-35.03025
1435619327.183,-33.308548
1435619327.198,-31.83437
1435619327.214,-30.57215
1435619327.229,-29.27709
1435619327.245,-27.71672
1435619327.261,-25.834671
1435619327.276,-23.730762
1435619327.292,-21.627155
1435619327.308,-19.617474
1435619327.323,-17.558973
1435619327.339,-15.0787945
1435619327.354,-11.736753
1435619327.37,-7.215334
1435619327.386,-1.522645
1435619327.401,5.005018
1435619327.417,11.809449
1435619327.433,18.313612
1435619327.448,24.14915
1435619327.464,29.266434
1435619327.479,33.985847
1435619327.495,38.924038
1435619327.511,44.707397
1435619327.526,51.81275
1435619327.542,60.152946
1435619327.558,69.02198
1435619327.573,77.08424
1435619327.589,82.67963
1435619327.604,84.2495
1435619327.62,80.83535
1435619327.636,72.3045
1435619327.651,59.43676
1435619327.667,43.64542
1435619327.683,26.632395
1435619327.698,9.974005
1435619327.714,-5.094532
1435619327.729,-17.78123
1435619327.745,-27.659267
1435619327.761,-34.644157
1435619327.776,-38.825123
1435619327.792,-40.496696
1435619327.808,-40.1235
1435619327.823,-38.3228
1435619327.839,-35.740326
1435619327.854,-32.960457
1435619327.87,-30.362087
1435619327.886,-28.124722
1435619327.901,-26.276693
1435619327.917,-24.747972
1435619327.933,-23.445385
1435619327.948,-22.220156
1435619327.964,-20.824936
1435619327.979,-18.967339
1435619327.995,-16.352753
1435619328.011,-12.830257
1435619328.026,-8.457642
1435619328.042,-3.4890633
1435619328.058,1.767601
1435619328.073,7.049347
1435619328.089,12.266014
1435619328.104,17.497143
1435619328.12,22.975872
1435619328.136,28.981754
1435619328.151,35.82937
1435619328.167,43.659397
1435619328.183,52.289066
1435619328.198,60.98368
1435619328.214,68.4708
1435619328.229,73.15459
1435619328.245,73.57824
1435619328.261,68.89655
1435619328.276,59.1782
1435619328.292,45.39109
1435619328.308,29.090073
1435619328.323,11.989456
1435619328.339,-4.4082794
1435619328.354,-19.012314
1435619328.37,-31.150215
1435619328.386,-40.45809
1435619328.401,-46.847794
1435619328.417,-50.417336
1435619328.433,-51.486588
1435619328.448,-50.57437
1435619328.464,-48.30957
1435619328.48,-45.356316
1435619328.495,-42.28206
1435619328.511,-39.490326
1435619328.526,-37.18548
1435619328.542,-35.362328
1435619328.558,-33.848938
1435619328.573,-32.364273
1435619328.589,-30.610008
1435619328.604,-28.334282
1435619328.62,-25.386337
1435619328.636,-21.777237
1435619328.651,-17.625137
1435619328.667,-13.132538
1435619328.683,-8.470734
1435619328.698,-3.7181396
1435619328.714,1.1988068
1435619328.73,6.517151
1435619328.745,12.583618
1435619328.761,19.77475
1435619328.776,28.32277
1435619328.792,38.11252
1435619328.808,48.479736
1435619328.823,58.15558
1435619328.839,65.4444
1435619328.855,68.61153
1435619328.87,66.42821
1435619328.886,58.555573
1435619328.901,45.71527
1435619328.917,29.4086
1435619328.933,11.484192
1435619328.948,-6.320709
1435619328.964,-22.678955
1435619328.98,-36.681854
1435619328.995,-47.776352
1435619329.011,-55.66945
1435619329.026,-60.368317
1435619329.042,-62.19301
1435619329.058,-61.8105
1435619329.073,-60.06935
1435619329.089,-57.747345
1435619329.105,-55.385498
1435619329.12,-53.19069
1435619329.136,-51.1848
1435619329.151,-49.30217
1435619329.167,-47.531967
1435619329.183,-45.895844
1435619329.198,-44.38292
1435619329.214,-42.815063
1435619329.23,-40.923523
1435619329.245,-38.354294
1435619329.261,-34.891907
1435619329.276,-30.499466
1435619329.292,-25.367798
1435619329.308,-19.786484
1435619329.323,-14.068481
1435619329.339,-8.372925
1435619329.355,-2.667328
1435619329.37,3.292984
1435619329.386,9.887451
1435619329.401,17.504395
1435619329.417,26.300934
1435619329.433,35.983383
1435619329.448,45.66304
1435619329.464,53.905853
1435619329.48,59.073166
1435619329.495,59.785324
1435619329.511,55.328033
1435619329.526,45.90364
1435619329.542,32.522156
1435619329.558,16.748413
1435619329.573,0.27235413
1435619329.589,-15.357758
1435619329.605,-28.981995
1435619329.62,-39.828903
1435619329.636,-47.568954
1435619329.651,-52.225586
1435619329.667,-54.149185
1435619329.683,-53.906174
1435619329.698,-52.20854
1435619329.714,-49.75554
1435619329.73,-47.185593
1435619329.745,-44.986145
1435619329.761,-43.43213
1435619329.776,-42.501755
1435619329.792,-41.916306
1435619329.808,-41.14093
1435619329.823,-39.629852
1435619329.839,-36.943924
1435619329.855,-32.94586
1435619329.87,-27.740677
1435619329.886,-21.600983
1435619329.901,-14.839706
1435619329.917,-7.768692
1435619329.933,-0.61764526
1435619329.948,6.430374
1435619329.964,13.24736
1435619329.98,19.84552
1435619329.995,26.414322
1435619330.011,33.293518
1435619330.026,40.84572
1435619330.042,49.22908
1435619330.058,58.2072
1435619330.073,67.03253
1435619330.089,74.5297
1435619330.105,79.35066
1435619330.12,80.315216
1435619330.136,76.6935
1435619330.151,68.4439
1435619330.167,56.241257
1435619330.183,41.323944
1435619330.198,25.217995
1435619330.214,9.46373
1435619330.23,-4.668144
1435619330.245,-16.274742
1435619330.261,-24.903282
1435619330.276,-30.46566
1435619330.292,-33.19902
1435619330.308,-33.534386
1435619330.323,-32.093773
1435619330.339,-29.54609
1435619330.355,-26.536865
1435619330.37,-23.634537
1435619330.386,-21.227898
1435619330.401,-19.496391
1435619330.417,-18.418098
1435619330.433,-17.772202
1435619330.448,-17.21904
1435619330.464,-16.315346
1435619330.48,-14.672028
1435619330.495,-11.991623
1435619330.511,-8.239853
1435619330.526,-3.615776
1435619330.542,1.4624329
1435619330.558,6.5692596
1435619330.573,11.431656
1435619330.589,16.04686
1435619330.605,20.697525
1435619330.62,25.803535
1435619330.636,31.780563
1435619330.651,38.794792
1435619330.667,46.655045
1435619330.683,54.67929
1435619330.698,61.758934
1435619330.714,66.527306
1435619330.73,67.66053
1435619330.745,64.251114
1435619330.761,56.137787
1435619330.776,43.993652
1435619330.792,29.14161
1435619330.808,13.250404
1435619330.823,-2.109436
1435619330.839,-15.708466
1435619330.855,-26.722282
1435619330.87,-34.726547
1435619330.886,-39.62258
1435619330.901,-41.62491
1435619330.917,-41.224648
1435619330.933,-39.182922
1435619330.948,-36.405083
1435619330.964,-33.65165
1435619330.98,-31.435852
1435619330.995,-29.798103
1435619331.011,-28.463089
1435619331.026,-26.993134
1435619331.042,-25.039703
1435619331.058,-22.481956
1435619331.073,-19.45942
1435619331.089,-16.236137
1435619331.105,-13.046776
1435619331.12,-9.963936
1435619331.136,-6.853264
1435619331.151,-3.4915237
1435619331.167,0.28607178
1435619331.183,4.4951935
1435619331.198,9.026146
1435619331.214,13.807396
1435619331.23,18.925125
1435619331.245,24.695839
1435619331.261,31.502953
1435619331.276,39.513634
1435619331.292,48.339844
1435619331.308,56.958664
1435619331.323,63.837173
1435619331.339,67.390076
1435619331.355,66.445526
1435619331.37,60.621384
1435619331.386,50.41414
1435619331.402,36.950874
1435619331.417,21.671051
1435619331.433,5.9793015
1435619331.448,-8.944786
1435619331.464,-22.146759
1435619331.48,-32.93789
1435619331.495,-40.828056
1435619331.511,-45.679153
1435619331.527,-47.66823
1435619331.542,-47.374702
1435619331.558,-45.568336
1435619331.573,-43.057945
1435619331.589,-40.471947
1435619331.605,-38.190887
1435619331.62,-36.340927
1435619331.636,-34.90416
1435619331.652,-33.796257
1435619331.667,-32.915344
1435619331.683,-32.126106
1435619331.698,-31.226189
1435619331.714,-29.912125
1435619331.73,-27.883492
1435619331.745,-24.879166
1435619331.761,-20.840828
1435619331.777,-15.898209
1435619331.792,-10.360672
1435619331.808,-4.5744705
1435619331.823,1.123497
1435619331.839,6.5819626
1435619331.855,11.836868
1435619331.87,17.132935
1435619331.886,22.852768
1435619331.902,29.378944
1435619331.917,36.855217
1435619331.933,44.972473
1435619331.948,52.86515
1435619331.964,59.228813
1435619331.98,62.607574
1435619331.995,61.834602
1435619332.011,56.351845
1435619332.027,46.445335
1435619332.042,33.112587
1435619332.058,17.853615
1435619332.073,2.2118149
1435619332.089,-12.427734
1435619332.105,-25.151375
1435619332.12,-35.41948
1435619332.136,-43.05066
1435619332.152,-48.079468
1435619332.167,-50.744774
1435619332.183,-51.423523
1435619332.198,-50.669342
1435619332.214,-49.141502
1435619332.23,-47.507385
1435619332.245,-46.254738
1435619332.261,-45.586456
1435619332.277,-45.342796
1435619332.292,-45.194508
1435619332.308,-44.77627
1435619332.323,-43.90996
1435619332.339,-42.60722
1435619332.355,-40.987152
1435619332.37,-39.098232
1435619332.386,-36.833527
1435619332.402,-33.97129
1435619332.417,-30.282944
1435619332.433,-25.685284
1435619332.448,-20.290634
1435619332.464,-14.372284
1435619332.48,-8.248844
1435619332.495,-2.157978
1435619332.511,3.826355
1435619332.527,9.759811
1435619332.542,15.8245125
1435619332.558,22.263775
1435619332.573,29.279953
1435619332.589,36.980682
1435619332.605,45.209236
1435619332.62,53.465515
1435619332.636,60.815674
1435619332.652,66.031784
1435619332.667,67.85671
1435619332.683,65.36268
1435619332.698,58.289318
1435619332.714,47.16587
1435619332.73,33.259354
1435619332.745,18.192402
1435619332.761,3.5572147
1435619332.777,-9.384712
1435619332.792,-19.899616
1435619332.808,-27.697979
1435619332.823,-32.845203
1435619332.839,-35.577217
1435619332.855,-36.285095
1435619332.87,-35.424793
1435619332.886,-33.539894
1435619332.902,-31.195765
1435619332.917,-28.883457
1435619332.933,-26.932785
1435619332.948,-25.48185
1435619332.964,-24.49287
1435619332.98,-23.82563
1435619332.995,-23.2998
1435619333.011,-22.735012
1435619333.027,-21.978508
1435619333.042,-20.906895
1435619333.058,-19.410099
1435619333.073,-17.36855
1435619333.089,-14.621998
1435619333.105,-11.025421
1435619333.12,-6.4810677
1435619333.136,-1.0225258
1435619333.152,5.127651
1435619333.167,11.602135
1435619333.183,18.025898
1435619333.198,24.116066
1435619333.214,29.837502
1435619333.23,35.464386
1435619333.245,41.44648
1435619333.261,48.271385
1435619333.277,56.171303
1435619333.292,64.931625
1435619333.308,73.76455
1435619333.323,81.33145
1435619333.339,86.12862
1435619333.355,86.7972
1435619333.37,82.64279
1435619333.386,73.78686
1435619333.402,61.243546
1435619333.417,46.549866
1435619333.433,31.397316
1435619333.448,17.201561
1435619333.464,4.9162216
1435619333.48,-4.9895477
1435619333.495,-12.450378
1435619333.511,-17.588219
1435619333.527,-20.666542
1435619333.542,-22.027634
1435619333.558,-22.102974
1435619333.573,-21.344154
1435619333.589,-20.218536
1435619333.605,-19.105888
1435619333.62,-18.21241
1435619333.636,-17.596458
1435619333.652,-17.1288
1435619333.667,-16.628868
1435619333.683,-15.885628
1435619333.698,-14.789848
1435619333.714,-13.296494
1435619333.73,-11.405701
1435619333.745,-9.085808
1435619333.761,-6.2529907
1435619333.777,-2.8242188
1435619333.792,1.2180252
1435619333.808,5.7908325
1435619333.823,10.648735
1435619333.839,15.519058
1435619333.855,20.21798
1435619333.87,24.756226
1435619333.886,29.384666
1435619333.902,34.54989
1435619333.917,40.64984
1435619333.933,47.82206
1435619333.948,55.689224
1435619333.964,63.322174
1435619333.98,69.36635
1435619333.995,72.372375
1435619334.011,71.20338
1435619334.027,65.39229
1435619334.042,55.254593
1435619334.058,41.811676
1435619334.074,26.464668
1435619334.089,10.679359
1435619334.105,-4.3136826
1435619334.12,-17.563778
1435619334.136,-28.437595
1435619334.152,-36.557476
1435619334.167,-41.832607
1435619334.183,-44.47748
1435619334.199,-44.9859
1435619334.214,-44.05387
1435619334.23,-42.416294
1435619334.245,-40.631935
1435619334.261,-39.015984
1435619334.277,-37.61859
1435619334.292,-36.312565
1435619334.308,-34.936516
1435619334.324,-33.40836
1435619334.339,-31.71117
1435619334.355,-29.922112
1435619334.37,-28.054966
1435619334.386,-26.004536
1435619334.402,-23.499767
1435619334.417,-20.206528
1435619334.433,-15.871664
1435619334.449,-10.517851
1435619334.464,-4.467001
1435619334.48,1.7512207
1435619334.495,7.6586037
1435619334.511,13.015984
1435619334.527,18.013447
1435619334.542,23.179075
1435619334.558,29.16762
1435619334.574,36.44615
1435619334.589,45.094734
1435619334.605,54.643673
1435619334.62,64.12577
1435619334.636,72.17598
1435619334.652,77.324295
1435619334.667,78.28725
1435619334.683,74.28696
1435619334.699,65.249504
1435619334.714,51.868343
1435619334.73,35.39783
1435619334.745,17.383286
1435619334.761,-0.6283345
1435619334.777,-17.271145
1435619334.792,-31.49358
1435619334.808,-42.56388
1435619334.824,-50.17301
1435619334.839,-54.44467
1435619334.855,-55.911648
1435619334.87,-55.470573
1435619334.886,-54.08529
1435619334.902,-52.556328
1435619334.917,-51.38131
1435619334.933,-50.693695
1435619334.949,-50.38569
1435619334.964,-50.197906
1435619334.98,-49.798393
1435619334.995,-48.813087
1435619335.011,-46.941715
1435619335.027,-44.01304
1435619335.042,-40.123665
1435619335.058,-35.56732
1435619335.074,-30.735184
1435619335.089,-25.906023
1435619335.105,-21.11037
1435619335.12,-16.171917
1435619335.136,-10.8257065
1435619335.152,-4.9514046
1435619335.167,1.3330231
1435619335.183,7.7286606
1435619335.199,13.963337
1435619335.214,20.01756
1435619335.23,26.21
1435619335.245,33.071693
1435619335.261,40.98705
1435619335.277,49.875027
1435619335.292,58.902153
1435619335.308,66.61769
1435619335.324,71.235245
1435619335.339,71.21138
1435619335.355,65.77972
1435619335.37,55.171146
1435619335.386,40.535187
1435619335.402,23.532295
1435619335.417,5.8256187
1435619335.433,-11.260799
1435619335.449,-26.831646
1435619335.464,-40.282543
1435619335.48,-51.1674
1435619335.495,-59.080635
1435619335.511,-63.796146
1435619335.527,-65.42063
1435619335.542,-64.483154
1435619335.558,-61.884052
1435619335.574,-58.678276
1435619335.589,-55.76857
1435619335.605,-53.66548
1435619335.62,-52.39724
1435619335.636,-51.618202
1435619335.652,-50.798603
1435619335.667,-49.510223
1435619335.683,-47.559544
1435619335.699,-45.048897
1435619335.714,-42.237236
1435619335.73,-39.345825
1435619335.745,-36.365936
1435619335.761,-33.04561
1435619335.777,-29.015528
1435619335.792,-23.95699
1435619335.808,-17.78797
1435619335.824,-10.738165
1435619335.839,-3.180376
1435619335.855,4.4202023
1435619335.87,11.729607
1435619335.886,18.548979
1435619335.902,24.834827
1435619335.917,30.669918
1435619335.933,36.252136
1435619335.949,41.877975
1435619335.964,47.908707
1435619335.98,54.635826
1435619335.995,62.076653
1435619336.011,69.79059
1435619336.027,76.81619
1435619336.042,81.75783
1435619336.058,83.151474
1435619336.074,79.89194
1435619336.089,71.59211
1435619336.105,58.76569
1435619336.12,42.698036
1435619336.136,25.072151
1435619336.152,7.6176744
1435619336.167,-8.296442
1435619336.183,-21.726986
1435619336.199,-32.171295
1435619336.214,-39.474487
1435619336.23,-43.75392
1435619336.245,-45.359047
1435619336.261,-44.853508
1435619336.277,-42.96905
1435619336.292,-40.47453
1435619336.308,-38.015152
1435619336.324,-36.006527
1435619336.339,-34.537945
1435619336.355,-33.469772
1435619336.37,-32.55163
1435619336.386,-31.58461
1435619336.402,-30.513063
1435619336.417,-29.380716
1435619336.433,-28.254326
1435619336.449,-27.106033
1435619336.464,-25.710295
1435619336.48,-23.656738
1435619336.495,-20.496986
1435619336.511,-15.927753
1435619336.527,-9.952892
1435619336.542,-2.9282608
1435619336.558,4.526619
1435619336.574,11.775299
1435619336.589,18.414558
1435619336.605,24.381386
1435619336.62,30.019318
1435619336.636,35.912796
1435619336.652,42.67185
1435619336.667,50.583263
1435619336.683,59.39884
1435619336.699,68.1647
1435619336.714,75.374084
1435619336.73,79.28001
1435619336.746,78.46835
1435619336.761,72.308426
1435619336.777,61.16927
1435619336.792,46.321033
1435619336.808,29.55994
1435619336.824,12.684551
1435619336.839,-2.864891
1435619336.855,-16.13644
1435619336.871,-26.679714
1435619336.886,-34.350147
1435619336.902,-39.234306
1435619336.917,-41.57841
1435619336.933,-41.742294
1435619336.949,-40.23503
1435619336.964,-37.604103
1435619336.98,-34.375217
1435619336.996,-30.92395
1435619337.011,-27.49849
1435619337.027,-24.157059
1435619337.042,-20.832855
1435619337.058,-17.458866
1435619337.074,-13.986717
1435619337.089,-10.414375
1435619337.105,-6.785301
1435619337.121,-3.068493
1435619337.136,0.8487053
1435619337.152,5.226845
1435619337.167,10.346371
1435619337.183,16.384476
1435619337.199,23.305637
1435619337.214,30.849548
1435619337.23,38.621235
1435619337.246,46.30513
1435619337.261,53.82107
1435619337.277,61.448536
1435619337.292,69.61275
1435619337.308,78.64936
1435619337.324,88.43318
1435619337.339,98.11586
1435619337.355,106.205505
1435619337.371,110.91465
1435619337.386,110.75005
1435619337.402,105.04772
1435619337.417,94.2846
1435619337.433,79.93482
1435619337.449,63.993034
1435619337.464,48.403618
1435619337.48,34.56016
1435619337.496,23.193632
1435619337.511,14.412665
1435619337.527,7.986703
1435619337.542,3.544736
1435619337.558,0.7021284
1435619337.574,-0.91287804
1435619337.589,-1.7078514
1435619337.605,-2.124874
1435619337.621,-2.5844154
1435619337.636,-3.477417
1435619337.652,-5.0567093
1435619337.667,-7.390114
1435619337.683,-10.346283
1435619337.699,-13.614277
1435619337.714,-16.837364
1435619337.73,-19.66996
1435619337.746,-21.90464
1435619337.761,-23.570618
1435619337.777,-24.903618
1435619337.792,-26.337067
1435619337.808,-28.384857
1435619337.824,-31.48935
1435619337.839,-35.830597
1435619337.855,-41.193756
1435619337.871,-46.870834
1435619337.886,-51.77318
1435619337.902,-54.717865
1435619337.917,-54.890343
1435619337.933,-52.336014
1435619337.949,-48.158005
1435619337.964,-44.4255
1435619337.98,-43.56736
1435619337.996,-47.625725
1435619338.011,-57.5963
1435619338.027,-73.15308
1435619338.042,-92.89619
1435619338.058,-114.87105
1435619338.074,-137.2595
1435619338.089,-158.86546
1435619338.105,-179.34378
1435619338.121,-199.08139
1435619338.136,-218.9495
1435619338.152,-239.79044
1435619338.167,-261.83087
1435619338.183,-284.15112
1435619338.199,-304.51547
1435619338.214,-319.75305
1435619338.23,-326.76483
1435619338.246,-323.68808
1435619338.261,-310.7721
1435619338.277,-290.3575
1435619338.292,-265.9411
1435619338.308,-240.76733
1435619338.324,-216.70198
1435619338.339,-193.79868
1435619338.355,-170.90436
1435619338.371,-146.67278
1435619338.386,-120.510765
1435619338.402,-92.82473
1435619338.417,-64.66474
1435619338.433,-37.00789
1435619338.449,-10.0952
1435619338.464,16.639893
1435619338.48,44.30153
1435619338.496,74.14383
1435619338.511,107.26056
1435619338.527,144.4839
1435619338.542,186.01688
1435619338.558,230.96979
1435619338.574,276.6536
1435619338.589,318.39307
1435619338.605,350.1687
1435619338.621,366.24808
1435619338.636,363.28497
1435619338.652,341.85046
1435619338.667,306.55426
1435619338.683,264.6515
1435619338.699,223.64731
1435619338.714,189.10788
1435619338.73,163.59247
1435619338.746,146.97855
1435619338.761,137.68567
1435619338.777,133.95871
1435619338.792,134.51675
1435619338.808,138.42325
1435619338.824,144.58069
1435619338.839,151.46603
1435619338.855,157.33951
1435619338.871,160.91101
1435619338.886,161.97363
1435619338.902,161.65121
1435619338.917,161.95035
1435619338.933,164.71344
1435619338.949,170.67227
1435619338.964,178.96613
1435619338.98,187.44446
1435619338.996,193.49704
1435619339.011,195.1243
1435619339.027,191.59125
1435619339.042,183.40341
1435619339.058,171.88852
1435619339.074,158.4997
1435619339.089,144.44034
1435619339.105,130.57721
1435619339.121,117.56793
1435619339.136,105.97754
1435619339.152,96.22745
1435619339.167,88.319244
1435619339.183,81.63922
1435619339.199,75.0188
1435619339.214,67.0166
1435619339.23,56.390472
1435619339.246,42.496063
1435619339.261,25.443542
1435619339.277,6.003891
1435619339.292,-14.709442
1435619339.308,-35.47081
1435619339.324,-55.17035
1435619339.339,-72.892075
1435619339.355,-87.889175
1435619339.371,-99.609665
1435619339.386,-107.76558
1435619339.402,-112.42616
1435619339.418,-114.05434
1435619339.433,-113.462456
1435619339.449,-111.59359
1435619339.464,-109.31171
1435619339.48,-107.12719
1435619339.496,-105.115074
1435619339.511,-103.033066
1435619339.527,-100.39727
1435619339.542,-96.77854
1435619339.558,-91.95687
1435619339.574,-86.03264
1435619339.589,-79.35636
1435619339.605,-72.44991
1435619339.621,-65.80082
1435619339.636,-59.746933
1435619339.652,-54.344204
1435619339.668,-49.33135
1435619339.683,-44.230686
1435619339.699,-38.473175
1435619339.714,-31.593025
1435619339.73,-23.435745
1435619339.746,-14.303192
1435619339.761,-5.074402
1435619339.777,2.9693298
1435619339.793,8.375755
1435619339.808,9.935799
1435619339.824,7.031708
1435619339.839,-0.1638031
1435619339.855,-10.784256
1435619339.871,-23.50241
1435619339.886,-37.0009
1435619339.902,-50.1801
1435619339.918,-62.36032
1435619339.933,-73.11873
1435619339.949,-82.23224
1435619339.964,-89.510025
1435619339.98,-94.90149
1435619339.996,-98.53638
1435619340.011,-100.83362
1435619340.027,-102.4716
1435619340.043,-104.16908
1435619340.058,-106.433
1435619340.074,-109.391525
1435619340.089,-112.72896
1435619340.105,-115.82654
1435619340.121,-118.013916
1435619340.136,-118.76007
1435619340.152,-117.78473
1435619340.168,-114.97189
1435619340.183,-110.26053
1435619340.199,-103.544754
1435619340.214,-94.63301
1435619340.23,-83.33496
1435619340.246,-69.557724
1435619340.261,-53.414993
1435619340.277,-35.1214
1435619340.293,-15.028854
1435619340.308,6.3567505
1435619340.324,28.237106
1435619340.339,49.35257
1435619340.355,67.90013
1435619340.371,81.882095
1435619340.386,89.61157
1435619340.402,90.30594
1435619340.418,84.44127
1435619340.433,73.57901
1435619340.449,59.733917
1435619340.464,44.6987
1435619340.48,29.574677
1435619340.496,14.821579
1435619340.511,0.6283417
1435619340.527,-12.582153
1435619340.543,-24.115387
1435619340.558,-33.135757
1435619340.574,-39.166245
1435619340.589,-42.346542
1435619340.605,-43.347275
1435619340.621,-43.025818
1435619340.636,-42.07045
1435619340.652,-40.740326
1435619340.668,-38.955276
1435619340.683,-36.558548
1435619340.699,-33.513397
1435619340.714,-29.941498
1435619340.73,-26.070053
1435619340.746,-22.062958
1435619340.761,-17.954819
1435619340.777,-13.656998
1435619340.793,-9.072174
1435619340.808,-4.1140747
1435619340.824,1.2159882
1435619340.839,6.9212494
1435619340.855,12.990356
1435619340.871,19.35437
1435619340.886,25.751549
1435619340.902,31.560074
1435619340.918,35.730988
1435619340.933,36.957947
1435619340.949,33.995117
1435619340.964,26.121918
1435619340.98,13.432327
1435619340.996,-3.0921173
1435619341.011,-21.937592
1435619341.027,-41.473274
1435619341.043,-60.446804
1435619341.058,-78.14293
1435619341.074,-94.31566
1435619341.089,-108.953705
1435619341.105,-122.084015
1435619341.121,-133.55692
1435619341.136,-142.98209
1435619341.152,-149.64159
1435619341.168,-152.46921
1435619341.183,-150.16841
1435619341.199,-141.59619
1435619341.214,-126.12116
1435619341.23,-103.95005
1435619341.246,-76.19926
1435619341.261,-44.66099
1435619341.277,-11.305252
1435619341.293,22.094038
1435619341.308,54.193398
1435619341.324,84.00371
1435619341.339,110.81314
1435619341.355,134.02736
1435619341.371,153.26204
1435619341.386,168.4664
1435619341.402,179.98308
1435619341.418,188.54295
1435619341.433,195.0668
1435619341.449,200.49933
1435619341.464,205.62915
1435619341.48,210.939
1435619341.496,216.46893
1435619341.511,221.569
1435619341.527,224.85815
1435619341.543,224.37202
1435619341.558,218.03957
1435619341.574,204.33923
1435619341.589,182.96295
1435619341.605,155.0307
1435619341.621,122.851006
1435619341.636,89.312515
1435619341.652,57.081963
1435619341.668,28.041801
1435619341.683,3.1815262
1435619341.699,-17.264786
1435619341.714,-33.47213
1435619341.73,-45.77674
1435619341.746,-54.611557
1435619341.761,-60.546806
1435619341.777,-64.31253
1435619341.793,-66.77488
1435619341.808,-68.70252
1435619341.824,-70.65065
1435619341.839,-72.76978
1435619341.855,-74.89743
1435619341.871,-76.65286
1435619341.886,-77.68524
1435619341.902,-77.83563
1435619341.918,-77.17288
1435619341.933,-75.958084
1435619341.949,-74.48663
1435619341.964,-72.90646
1435619341.98,-71.22386
1435619341.996,-69.23268
1435619342.011,-66.695984
1435619342.027,-63.374985
1435619342.043,-59.162834
1435619342.058,-54.02526
1435619342.074,-47.991337
1435619342.089,-41.046997
1435619342.105,-33.160637
1435619342.121,-24.391266
1435619342.136,-15.079311
1435619342.152,-5.9846916
1435619342.168,1.7438278
1435619342.183,6.7923584
1435619342.199,8.083618
1435619342.214,5.1128197
1435619342.23,-1.8225365
1435619342.246,-11.727581
1435619342.261,-23.195461
1435619342.277,-34.761806
1435619342.293,-45.24715
1435619342.308,-53.8317
1435619342.324,-60.139977
1435619342.34,-64.06047
1435619342.355,-65.70871
1435619342.371,-65.33688
1435619342.386,-63.36832
1435619342.402,-60.296173
1435619342.418,-56.66476
1435619342.433,-52.926025
1435619342.449,-49.398598
1435619342.465,-46.15078
1435619342.48,-43.096443
1435619342.496,-40.022026
1435619342.511,-36.717743
1435619342.527,-33.032555
1435619342.543,-28.924019
1435619342.558,-24.468353
1435619342.574,-19.78244
1435619342.59,-14.951172
1435619342.605,-10.029808
1435619342.621,-5.0273056
1435619342.636,0.08090973
1435619342.652,5.3533936
1435619342.668,10.888451
1435619342.683,16.801102
1435619342.699,23.223251
1435619342.715,30.262924
1435619342.73,37.911743
1435619342.746,46.002457
1435619342.761,54.118195
1435619342.777,61.605423
1435619342.793,67.56862
1435619342.808,71.09099
1435619342.824,71.37973
1435619342.84,67.99669
1435619342.855,60.93135
1435619342.871,50.679108
1435619342.886,38.0607
1435619342.902,24.091293
1435619342.918,9.840683
1435619342.933,-3.718048
1435619342.949,-15.801727
1435619342.965,-25.806458
1435619342.98,-33.337692
1435619342.996,-38.19467
1435619343.011,-40.440628
1435619343.027,-40.3636
1435619343.043,-38.508698
1435619343.058,-35.58966
1435619343.074,-32.379303
1435619343.09,-29.469772
1435619343.105,-27.186768
1435619343.121,-25.50772
1435619343.136,-24.142273
1435619343.152,-22.734314
1435619343.168,-21.06134
1435619343.183,-19.09552
1435619343.199,-16.97696
1435619343.215,-14.851959
1435619343.23,-12.670563
1435619343.246,-10.180267
1435619343.261,-7.0492554
1435619343.277,-3.015564
1435619343.293,1.9283752
1435619343.308,7.5687256
1435619343.324,13.526062
1435619343.34,19.491333
1435619343.355,25.285645
1435619343.371,30.917816
1435619343.386,36.446198
1435619343.402,41.93448
1435619343.418,47.4357
1435619343.433,53.0318
1435619343.449,58.870148
1435619343.465,65.052155
1435619343.48,71.430145
1435619343.496,77.43536
1435619343.511,82.0354
1435619343.527,83.96216
1435619343.543,82.0885
1435619343.558,75.8927
1435619343.574,65.642
1435619343.59,52.371735
1435619343.605,37.516327
1435619343.621,22.526855
1435619343.636,8.529236
1435619343.652,-3.7304688
1435619343.668,-13.8932495
1435619343.683,-21.801636
1435619343.699,-27.450775
1435619343.715,-30.927307
1435619343.73,-32.48056
1435619343.746,-32.498535
1435619343.761,-31.544434
1435619343.777,-30.255829
1435619343.793,-29.218231
1435619343.808,-28.770508
1435619343.824,-28.93222
1435619343.84,-29.370026
1435619343.855,-29.588654
1435619343.871,-29.122742
1435619343.886,-27.798187
1435619343.902,-25.730713
1435619343.918,-23.268372
1435619343.933,-20.725983
1435619343.949,-18.24469
1435619343.965,-15.678741
1435619343.98,-12.740204
1435619343.996,-9.119019
1435619344.011,-4.6733704
1435619344.027,0.5826721
1435619344.043,6.4771423
1435619344.058,12.804901
1435619344.074,19.359772
1435619344.09,25.97403
1435619344.105,32.47708
1435619344.121,38.7601
1435619344.136,44.786682
1435619344.152,50.66461
1435619344.168,56.617584
1435619344.183,62.930817
1435619344.199,69.74161
1435619344.215,76.834564
1435619344.23,83.49655
1435619344.246,88.579956
1435619344.261,90.731964
1435619344.277,88.849335
1435619344.293,82.44922
1435619344.308,71.86728
1435619344.324,58.171997
1435619344.34,42.84207
1435619344.355,27.331024
1435619344.371,12.743805
1435619344.386,-0.24563599
1435619344.402,-11.321655
1435619344.418,-20.318542
1435619344.433,-27.108765
1435619344.449,-31.610321
1435619344.465,-33.89865
1435619344.48,-34.322357
1435619344.496,-33.474243
1435619344.511,-32.08667
1435619344.527,-30.768524
1435619344.543,-29.861115
1435619344.558,-29.356232
1435619344.574,-29.029327
1435619344.59,-28.60086
1435619344.605,-27.92514
1435619344.621,-27.038239
1435619344.636,-26.143005
1435619344.652,-25.44101
1435619344.668,-25.024536
1435619344.683,-24.82666
1435619344.699,-24.555145
1435619344.715,-23.729187
1435619344.73,-21.746735
1435619344.746,-18.083527
1435619344.761,-12.567993
1435619344.777,-5.510559
1435619344.793,2.3204346
1435619344.808,9.964935
1435619344.824,16.6958
1435619344.84,22.32428
1435619344.855,27.219849
1435619344.871,32.06482
1435619344.886,37.474396
1435619344.902,43.751556
1435619344.918,50.8302
1435619344.933,58.37079
1435619344.949,65.87433
1435619344.965,72.67642
1435619344.98,77.89517
1435619344.996,80.48016
1435619345.012,79.38544
1435619345.027,73.925934
1435619345.043,64.08411
1435619345.058,50.61255
1435619345.074,34.868835
1435619345.09,18.435883
1435619345.105,2.8112488
1435619345.121,-10.8940735
1435619345.137,-22.029633
1435619345.152,-30.375397
1435619345.168,-36.005554
1435619345.183,-39.22873
1435619345.199,-40.489594
1435619345.215,-40.306824
1435619345.23,-39.205017
1435619345.246,-37.637756
1435619345.262,-35.978516
1435619345.277,-34.42514
1435619345.293,-33.026276
1435619345.308,-31.710327
1435619345.324,-30.422485
1435619345.34,-29.2005
1435619345.355,-28.215485
1435619345.371,-27.682281
1435619345.387,-27.71875
1435619345.402,-28.172394
1435619345.418,-28.634949
1435619345.433,-28.540771
1435619345.449,-27.405487
1435619345.465,-24.974976
1435619345.48,-21.277313
1435619345.496,-16.535797
1435619345.512,-11.077606
1435619345.527,-5.2036743
1435619345.543,0.8518982
1435619345.558,6.9840393
1435619345.574,13.245117
1435619345.59,19.916748
1435619345.605,27.337402
1435619345.621,35.740875
1435619345.637,44.93451
1435619345.652,54.14383
1435619345.668,62.069305
1435619345.683,67.2074
1435619345.699,68.26645
1435619345.715,64.558685
1435619345.73,56.166718
1435619345.746,43.90085
1435619345.762,29.024963
1435619345.777,13.046753
1435619345.793,-2.5859375
1435619345.808,-16.635986
1435619345.824,-28.21634
1435619345.84,-36.863983
1435619345.855,-42.4971
1435619345.871,-45.358826
1435619345.887,-45.90451
1435619345.902,-44.70282
1435619345.918,-42.384216
1435619345.933,-39.57614
1435619345.949,-36.803802
1435619345.965,-34.426605
1435619345.98,-32.539886
1435619345.996,-31.009583
1435619346.012,-29.606537
1435619346.027,-28.158264
1435619346.043,-26.631409
1435619346.058,-25.085724
1435619346.074,-23.55069
1435619346.09,-21.851227
1435619346.105,-19.628357
1435619346.121,-16.472351
1435619346.137,-12.186737
1435619346.152,-6.85141
1435619346.168,-0.86654663
1435619346.183,5.3040466
1435619346.199,11.30014
1435619346.215,17.023804
1435619346.23,22.622192
1435619346.246,28.412292
1435619346.262,34.738525
1435619346.277,41.910767
1435619346.293,50.10608
1435619346.308,59.23166
1435619346.324,68.756714
1435619346.34,77.60559
1435619346.355,84.26425
1435619346.371,87.1066
1435619346.387,84.88281
1435619346.402,77.19348
1435619346.418,64.650085
1435619346.433,48.692474
1435619346.449,31.128601
1435619346.465,13.620453
1435619346.48,-2.6251526
1435619346.496,-16.869568
1435619346.512,-28.718933
1435619346.527,-37.884644
1435619346.543,-44.167175
1435619346.558,-47.53772
1435619346.574,-48.285645
1435619346.59,-47.08818
1435619346.605,-44.88846
1435619346.621,-42.58545
1435619346.637,-40.785812
1435619346.652,-39.607147
1435619346.668,-38.751938
1435619346.683,-37.7536
1435619346.699,-36.251648
1435619346.715,-34.19902
1435619346.73,-31.856232
1435619346.746,-29.573349
1435619346.762,-27.547821
1435619346.777,-25.61409
1435619346.793,-23.27858
1435619346.808,-19.930878
1435619346.824,-15.166397
1435619346.84,-9.043198
1435619346.855,-2.0772552
1435619346.871,4.950775
1435619346.887,11.36586
1435619346.902,16.889435
1435619346.918,21.732391
1435619346.933,26.485168
1435619346.949,31.839264
1435619346.965,38.372543
1435619346.98,46.365692
1435619346.996,55.698364
1435619347.012,65.70259
1435619347.027,75.18007
1435619347.043,82.43866
1435619347.058,85.63469
1435619347.074,83.28488
1435619347.09,74.801056
1435619347.105,60.738297
1435619347.121,42.715424
1435619347.137,22.893768
1435619347.152,3.3791046
1435619347.168,-14.234299
1435619347.183,-28.992798
1435619347.199,-40.503143
1435619347.215,-48.657227
1435619347.23,-53.568954
1435619347.246,-55.528397
1435619347.262,-55.123734
1435619347.277,-53.17682
1435619347.293,-50.641922
1435619347.308,-48.353607
1435619347.324,-46.795837
1435619347.34,-46.01169
1435619347.355,-45.64952
1435619347.371,-45.19783
1435619347.387,-44.225983
1435619347.402,-42.63762
1435619347.418,-40.660385
1435619347.433,-38.704147
1435619347.449,-37.070686
1435619347.465,-35.72934
1435619347.48,-34.25821
1435619347.496,-31.970291
1435619347.512,-28.258942
1435619347.527,-22.8572
1435619347.543,-15.971329
1435619347.558,-8.208954
1435619347.574,-0.3359375
1435619347.59,7.0310135
1435619347.605,13.592522
1435619347.621,19.427818
1435619347.637,24.920853
1435619347.652,30.648819
1435619347.668,37.179695
1435619347.684,44.924683
1435619347.699,53.88594
1435619347.715,63.509064
1435619347.73,72.640396
1435619347.746,79.70189
1435619347.762,83.00981
1435619347.777,81.26007
1435619347.793,73.90676
1435619347.809,61.394295
1435619347.824,45.012505
1435619347.84,26.5886
1435619347.855,7.989273
1435619347.871,-9.265106
1435619347.887,-24.185284
1435619347.902,-36.304043
1435619347.918,-45.47673
1435619347.934,-51.72856
1435619347.949,-55.18746
1435619347.965,-56.12165
1435619347.98,-55.03697
1435619347.996,-52.632046
1435619348.012,-49.735836
1435619348.027,-47.0394
1435619348.043,-44.92728
1435619348.059,-43.402744
1435619348.074,-42.149593
1435619348.09,-40.803123
1435619348.105,-39.057228
1435619348.121,-36.843575
1435619348.137,-34.32253
1435619348.152,-31.715511
1435619348.168,-29.183289
1435619348.184,-26.690605
1435619348.199,-24.007202
1435619348.215,-20.788761
1435619348.23,-16.742264
1435619348.246,-11.722105
1435619348.262,-5.8210735
1435619348.277,0.7066364
1435619348.293,7.509157
1435619348.309,14.26157
1435619348.324,20.741232
1435619348.34,26.923098
1435619348.355,32.984062
1435619348.371,39.29396
1435619348.387,46.30102
1435619348.402,54.34826
1435619348.418,63.359406
1435619348.434,72.60596
1435619348.449,80.69166
1435619348.465,85.836655
1435619348.48,86.39833
1435619348.496,81.44423
1435619348.512,71.005615
1435619348.527,56.09959
1435619348.543,38.327442
1435619348.559,19.435408
1435619348.574,0.997921
1435619348.59,-15.759607
1435619348.605,-29.966904
1435619348.621,-40.98975
1435619348.637,-48.482662
1435619348.652,-52.42188
1435619348.668,-53.191925
1435619348.684,-51.591377
1435619348.699,-48.64132
1435619348.715,-45.364563
1435619348.73,-42.526276
1435619348.746,-40.444542
1435619348.762,-39.075264
1435619348.777,-38.10271
1435619348.793,-37.214222
1435619348.809,-36.235023
1435619348.824,-35.195934
1435619348.84,-34.201195
1435619348.855,-33.28479
1435619348.871,-32.25087
1435619348.887,-30.78793
1435619348.902,-28.556332
1435619348.918,-25.403633
1435619348.934,-21.456291
1435619348.949,-17.041214
1435619348.965,-12.501263
1435619348.98,-8.056309
1435619348.996,-3.6888962
1435619349.012,0.7922745
1435619349.027,5.604252
1435619349.043,10.956165
1435619349.059,17.006435
1435619349.074,23.861282
1435619349.09,31.609253
1435619349.105,40.151375
1435619349.121,49.061775
1435619349.137,57.38292
1435619349.152,63.707146
1435619349.168,66.45036
1435619349.184,64.37209
1435619349.199,56.971413
1435619349.215,44.75255
1435619349.23,29.070442
1435619349.246,11.74276
1435619349.262,-5.522148
1435619349.277,-21.44397
1435619349.293,-35.27375
1435619349.309,-46.665077
1435619349.324,-55.429543
1435619349.34,-61.396645
1435619349.355,-64.48385
1435619349.371,-64.845085
1435619349.387,-63.008385
1435619349.402,-59.80014
1435619349.418,-56.116745
1435619349.434,-52.591377
1435619349.449,-49.5159
1435619349.465,-46.790123
1435619349.48,-44.21585
1435619349.496,-41.678276
1435619349.512,-39.22535
1435619349.527,-36.96067
1435619349.543,-34.8618
1435619349.559,-32.671135
1435619349.574,-29.982094
1435619349.59,-26.444267
1435619349.605,-21.866402
1435619349.621,-16.345222
1435619349.637,-10.154762
1435619349.652,-3.6265335
1435619349.668,2.9771423
1435619349.684,9.514641
1435619349.699,15.996944
1435619349.715,22.635956
1435619349.73,29.754997
1435619349.746,37.694923
1435619349.762,46.543552
1435619349.777,55.945736
1435619349.793,64.94978
1435619349.809,72.15054
1435619349.824,76.00078
1435619349.84,75.2843
1435619349.855,69.43789
1435619349.871,58.753387
1435619349.887,44.273697
1435619349.902,27.498707
1435619349.918,10.051472
1435619349.934,-6.5841827
1435619349.949,-21.260788
1435619349.965,-33.221703
1435619349.98,-42.097088
1435619349.996,-47.81471
1435619350.012,-50.61511
1435619350.027,-50.976578
1435619350.043,-49.60123
1435619350.059,-47.29527
1435619350.074,-44.88883
1435619350.09,-42.96746
1435619350.105,-41.786087
1435619350.121,-41.179108
1435619350.137,-40.717503
1435619350.152,-39.94863
1435619350.168,-38.631657
1435619350.184,-36.84668
1435619350.199,-34.93746
1435619350.215,-33.243675
1435619350.23,-31.858152
1435619350.246,-30.484306
1435619350.262,-28.58215
1435619350.277,-25.585789
1435619350.293,-21.258362
1435619350.309,-15.788151
1435619350.324,-9.805555
1435619350.34,-4.064699
1435619350.356,0.8092842
1435619350.371,4.6079025
1435619350.387,7.5531473
1435619350.402,10.240696
1435619350.418,13.417348
1435619350.434,17.777113
1435619350.449,23.759197
1435619350.465,31.463133
1435619350.48,40.556744
1435619350.496,50.356976
1435619350.512,59.96263
1435619350.527,68.48513
1435619350.543,75.2078
1435619350.559,79.77376
1435619350.574,82.14987
1435619350.59,82.657364
1435619350.606,81.84625
1435619350.621,80.361916
1435619350.637,78.740456
1435619350.652,77.21782
1435619350.668,75.59162
1435619350.684,73.26362
1435619350.699,69.459404
1435619350.715,63.57757
1435619350.731,55.494133
1435619350.746,45.657578
1435619350.762,35.008453
1435619350.777,24.752401
1435619350.793,16.182413
1435619350.809,10.630547
1435619350.824,9.370964
1435619350.84,13.465353
1435619350.856,23.461357
1435619350.871,39.093224
1435619350.887,59.04924
1435619350.902,81.01094
1435619350.918,101.95261
1435619350.934,118.71112
1435619350.949,128.5857
1435619350.965,129.95924
1435619350.981,122.65504
1435619350.996,107.97812
1435619351.012,88.28024
1435619351.027,66.32242
1435619351.043,44.434128
1435619351.059,24.083313
1435619351.074,5.7929764
1435619351.09,-10.468208
1435619351.106,-24.90094
1435619351.121,-37.75727
1435619351.137,-49.751534
1435619351.152,-62.4722
1435619351.168,-78.37613
1435619351.184,-100.046616
1435619351.199,-128.97757
1435619351.215,-164.58118
1435619351.231,-204.1874
1435619351.246,-244.18503
1435619351.262,-281.752
1435619351.277,-316.30463
1435619351.293,-349.6276
1435619351.309,-384.51773
1435619351.324,-422.7223
1435619351.34,-463.17603
1435619351.356,-501.76404
1435619351.371,-532.6339
1435619351.387,-550.51624
1435619351.402,-552.7615
1435619351.418,-540.17993
1435619351.434,-516.3069
1435619351.449,-485.696
1435619351.465,-452.20074
1435619351.481,-417.9432
1435619351.496,-383.40125
1435619351.512,-348.2219
1435619351.527,-312.11142
1435619351.543,-275.40228
1435619351.559,-238.90099
1435619351.574,-203.40422
1435619351.59,-169.23705
1435619351.606,-135.43747
1435619351.621,-100.99515
1435619351.637,-65.666016
1435619351.652,-30.090546
1435619351.668,4.8511963
1435619351.684,38.58371
1435619351.699,71.02603
1435619351.715,102.44141
1435619351.731,132.96298
1435619351.746,162.69275
1435619351.762,190.33868
1435619351.777,213.05927
1435619351.793,227.49933
1435619351.809,231.4212
1435619351.824,224.79163
1435619351.84,209.76215
1435619351.856,189.8258
1435619351.871,168.55408
1435619351.887,150.23206
1435619351.902,136.89905
1435619351.918,127.698
1435619351.934,120.04144
1435619351.949,111.785645
1435619351.965,102.12402
1435619351.981,91.30139
1435619351.996,80.10596
1435619352.012,69.52161
1435619352.027,65.52527
1435619352.043,72.09778
1435619352.059,88.43091
1435619352.074,109.86548
1435619352.09,131.38452
1435619352.106,149.3269
1435619352.121,161.25085
1435619352.137,165.82324
1435619352.152,163.10327
1435619352.168,164.3656
1435619352.184,177.59143
1435619352.199,201.54016
1435619352.215,227.98425
1435619352.231,249.75122
1435619352.246,264.25574
1435619352.262,272.38403
1435619352.277,276.38342
1435619352.293,278.4397
1435619352.309,295.65698
1435619352.324,337.65637
1435619352.34,398.72632
1435619352.356,463.1432
1435619352.371,518.46533
1435619352.387,560.8528
1435619352.402,592.23755
1435619352.418,616.2699
1435619352.434,636.20056
1435619352.449,674.766
1435619352.465,745.6797
1435619352.481,843.4708
1435619352.496,949.9436
1435619352.512,1050.6779
1435619352.527,1141.4236
1435619352.543,1224.456
1435619352.559,1303.7733
1435619352.574,1253.1563
1435619352.59,1019.2799
1435619352.606,657.40137
1435619352.621,281.82434
1435619352.637,-30.632751
1435619352.652,-263.1441
1435619352.668,-429.15912
1435619352.684,-547.27997
1435619352.699,-632.1802
1435619352.715,-694.0541
1435619352.731,-719.8909
1435619352.746,-703.608
1435619352.762,-656.93115
1435619352.777,-602.7855
1435619352.793,-558.69934
1435619352.809,-530.4757
1435619352.824,-516.65704
1435619352.84,-513.81384
1435619352.856,-519.2494
1435619352.871,-515.5355
1435619352.887,-492.02094
1435619352.902,-452.3244
1435619352.918,-409.35352
1435619352.934,-372.86285
1435619352.949,-344.92944
1435619352.965,-323.15842
1435619352.981,-304.58795
1435619352.996,-287.5944
1435619353.012,-262.2685
1435619353.028,-223.76544
1435619353.043,-176.72076
1435619353.059,-131.55603
1435619353.074,-96.20178
1435619353.09,-72.9436
1435619353.106,-60.42308
1435619353.121,-56.1606
1435619353.137,-57.91861
1435619353.152,-59.057755
1435619353.168,-55.130142
1435619353.184,-46.108963
1435619353.199,-35.033386
1435619353.215,-24.469864
1435619353.231,-15.175339
1435619353.246,-7.167267
1435619353.262,-0.6886139
1435619353.278,3.489563
1435619353.293,6.194618
1435619353.309,7.8291016
1435619353.324,8.002846
1435619353.34,6.1357346
1435619353.356,2.7799683
1435619353.371,-0.4773407
1435619353.387,-1.9418335
1435619353.403,-0.77783966
1435619353.418,2.6154327
1435619353.434,6.999756
1435619353.449,10.946045
1435619353.465,13.591293
1435619353.481,14.781761
1435619353.496,14.88736
1435619353.512,14.312805
1435619353.528,13.082211
1435619353.543,10.759613
1435619353.559,6.6717186
1435619353.574,0.5867195
1435619353.59,-7.762087
1435619353.606,-17.934124
1435619353.621,-29.17778
1435619353.637,-40.610416
1435619353.653,-51.352455
1435619353.668,-60.459084
1435619353.684,-66.86325
1435619353.699,-69.64073
1435619353.715,-68.222374
1435619353.731,-62.835598
1435619353.746,-54.45297
1435619353.762,-44.736237
1435619353.778,-35.44176
1435619353.793,-27.913872
1435619353.809,-22.691168
1435619353.824,-19.549576
1435619353.84,-17.741535
1435619353.856,-16.410957
1435619353.871,-14.9424305
1435619353.887,-12.900995
1435619353.903,-10.163506
1435619353.918,-6.8348866
1435619353.934,-3.211853
1435619353.949,0.17699432
1435619353.965,2.7329178
1435619353.981,3.8605042
1435619353.996,3.098297
1435619354.012,0.32286072
1435619354.028,-4.1713104
1435619354.043,-9.849213
1435619354.059,-15.8596
1435619354.074,-21.395756
1435619354.09,-25.740124
1435619354.106,-28.477001
1435619354.121,-29.60402
1435619354.137,-29.616264
1435619354.153,-29.461899
1435619354.168,-30.060093
1435619354.184,-31.753742
1435619354.199,-33.78611
1435619354.215,-34.217186
1435619354.231,-30.594528
1435619354.246,-21.050415
1435619354.262,-5.4276047
1435619354.278,14.457436
1435619354.293,35.409256
1435619354.309,54.28547
1435619354.324,69.11605
1435619354.34,79.74595
1435619354.356,87.46504
1435619354.371,94.01482
1435619354.387,100.66974
1435619354.403,107.90522
1435619354.418,115.59062
1435619354.434,123.58298
1435619354.449,132.1352
1435619354.465,141.60782
1435619354.481,152.08315
1435619354.496,162.80334
1435619354.512,172.01553
1435619354.528,177.42317
1435619354.543,176.74753
1435619354.559,168.66367
1435619354.574,153.16766
1435619354.59,132.24751
1435619354.606,109.083786
1435619354.621,86.92433
1435619354.637,67.93219
1435619354.653,52.68129
1435619354.668,40.420914
1435619354.684,29.981812
1435619354.699,20.638443
1435619354.715,12.481293
1435619354.731,6.1125183
1435619354.746,1.8578491
1435619354.762,-0.73568726
1435619354.778,-3.00766
1435619354.793,-6.7316284
1435619354.809,-13.361084
1435619354.824,-23.394226
1435619354.84,-36.001923
1435619354.856,-49.22525
1435619354.871,-60.45401
1435619354.887,-67.59372
1435619354.903,-69.784546
1435619354.918,-67.618225
1435619354.934,-62.702698
1435619354.949,-56.66684
1435619354.965,-50.20392
1435619354.981,-42.86316
1435619354.996,-33.468018
1435619355.012,-21.17807
1435619355.028,-6.400696
1435619355.043,8.98996
1435619355.059,22.122375
1435619355.074,30.192139
1435619355.09,31.39038
1435619355.106,25.43103
1435619355.121,13.394775
1435619355.137,-2.7890625
1435619355.153,-20.904236
1435619355.168,-38.993164
1435619355.184,-55.601685
1435619355.199,-69.85632
1435619355.215,-81.22327
1435619355.231,-89.27124
1435619355.246,-93.49884
1435619355.262,-93.40338
1435619355.278,-88.836365
1435619355.293,-80.40802
1435619355.309,-69.71869
1435619355.324,-59.053223
1435619355.34,-50.65033
1435619355.356,-45.809937
1435619355.371,-44.28412
1435619355.387,-44.360474
1435619355.403,-43.712585
1435619355.418,-40.52765
1435619355.434,-34.423523
1435619355.449,-26.725586
1435619355.465,-19.777771
1435619355.481,-15.877502
1435619355.496,-16.236267
1435619355.512,-20.59137
1435619355.528,-27.42212
1435619355.543,-34.810913
1435619355.559,-41.042114
1435619355.574,-45.170837
1435619355.59,-47.299194
1435619355.606,-48.650696
1435619355.621,-51.430725
1435619355.637,-58.325806
1435619355.653,-71.593445
1435619355.668,-92.128845
1435619355.684,-118.87604
1435619355.699,-148.74097
1435619355.715,-177.30847
1435619355.731,-200.1507
1435619355.746,-214.04065
1435619355.762,-217.62915
1435619355.778,-211.28119
1435619355.793,-196.40735
1435619355.809,-174.8601
1435619355.824,-148.94946
1435619355.84,-121.09204
1435619355.856,-93.78638
1435619355.871,-69.42377
1435619355.887,-49.829163
1435619355.903,-35.896362
1435619355.918,-27.189209
1435619355.934,-21.894165
1435619355.95,-17.31488
1435619355.965,-11.6501465
1435619355.981,-3.5985107
1435619355.996,7.5008545
1435619356.012,21.721252
1435619356.028,38.48474
1435619356.043,56.65161
1435619356.059,74.98163
1435619356.075,92.610535
1435619356.09,109.318726
1435619356.106,123.183716
1435619356.121,132.50397
1435619356.137,136.20087
1435619356.153,134.19312
1435619356.168,127.03467
1435619356.184,115.29822
1435619356.2,99.31598
1435619356.215,79.44501
1435619356.231,56.281677
1435619356.246,27.58014
1435619356.262,-7.852539
1435619356.278,-48.8161
1435619356.293,-91.32092
1435619356.309,-130.30872
1435619356.325,-161.9878
1435619356.34,-185.08026
1435619356.356,-200.63885
1435619356.371,-211.27106
1435619356.387,-224.3747
1435619356.403,-246.3523
1435619356.418,-280.09753
1435619356.434,-323.68262
1435619356.45,-371.75836
1435619356.465,-418.23267
1435619356.481,-458.3722
1435619356.496,-489.706
1435619356.512,-485.8938
1435619356.528,-432.41583
1435619356.543,-331.62183
1435619356.559,-203.91034
1435619356.575,-75.7594
1435619356.59,34.23297
1435619356.606,119.541595
1435619356.621,181.9513
1435619356.637,226.45041
1435619356.653,258.18796
1435619356.668,277.1829
1435619356.684,283.25842
1435619356.7,277.8142
1435619356.715,264.56116
1435619356.731,248.0556
1435619356.746,231.68466
1435619356.762,217.06232
1435619356.778,204.6471
1435619356.793,194.75665
1435619356.809,184.56107
1435619356.825,171.81113
1435619356.84,156.0798
1435619356.856,139.08316
