1426879225.61,0.0
1426879225.626,0.0
1426879225.641,0.0
1426879225.657,0.0
1426879225.673,0.0
1426879225.688,0.0
1426879225.704,0.0
1426879225.719,0.0
1426879225.735,0.0
1426879225.751,0.0022315353
1426879225.766,-0.0045169927
1426879225.782,-0.011265522
1426879225.798,-0.011383951
1426879225.813,0.0011864507
1426879225.829,0.025910312
1426879225.844,0.050634187
1426879225.86,0.051362894
1426879225.876,-0.0014929791
1426879225.891,-0.1302426
1426879225.907,-0.35562757
1426879225.923,-0.6591247
1426879225.938,-1.0095103
1426879225.954,-1.3709826
1426879225.969,-1.7197359
1426879225.985,-2.0551105
1426879226.001,-2.39945
1426879226.016,-2.7866635
1426879226.032,-3.2399073
1426879226.048,-3.796012
1426879226.063,-4.418684
1426879226.079,-5.0592937
1426879226.094,-5.6644096
1426879226.11,-6.2021537
1426879226.126,-6.6808796
1426879226.141,-7.149598
1426879226.157,-7.6782336
1426879226.173,-8.310739
1426879226.188,-9.143657
1426879226.204,-10.089731
1426879226.219,-11.041313
1426879226.235,-11.8842125
1426879226.251,-12.564316
1426879226.266,-13.13563
1426879226.282,-13.760044
1426879226.298,-14.65232
1426879226.313,-15.962056
1426879226.329,-17.914442
1426879226.344,-20.317299
1426879226.36,-22.903854
1426879226.376,-25.37947
1426879226.391,-27.578028
1426879226.407,-29.57246
1426879226.423,-31.675173
1426879226.438,-34.3178
1426879226.454,-37.813618
1426879226.469,-42.541233
1426879226.485,-48.1463
1426879226.501,-54.104755
1426879226.516,-59.83309
1426879226.532,-64.972374
1426879226.548,-69.58293
1426879226.563,-74.14353
1426879226.579,-79.344986
1426879226.594,-85.70726
1426879226.61,-93.76193
1426879226.626,-102.99779
1426879226.641,-112.61757
1426879226.657,-121.73034
1426879226.673,-129.76602
1426879226.688,-136.75102
1426879226.704,-143.30344
1426879226.719,-150.74623
1426879226.735,-157.77356
1426879226.751,-166.64323
1426879226.766,-177.94798
1426879226.782,-191.79102
1426879226.798,-206.96808
1426879226.813,-220.56592
1426879226.829,-228.24644
1426879226.844,-225.36154
1426879226.86,-208.53198
1426879226.876,-176.87024
1426879226.891,-132.76222
1426879226.907,-80.04997
1426879226.923,-23.069275
1426879226.938,34.94339
1426879226.954,92.43695
1426879226.969,149.15695
1426879226.985,205.22772
1426879227.001,260.36963
1426879227.016,313.74133
1426879227.032,363.87396
1426879227.048,409.83353
1426879227.063,450.90775
1426879227.079,486.50244
1426879227.094,515.73865
1426879227.11,537.2274
1426879227.126,549.22
1426879227.141,549.9613
1426879227.157,538.367
1426879227.173,514.2055
1426879227.188,478.674
1426879227.204,433.87952
1426879227.219,382.45126
1426879227.235,327.02106
1426879227.251,269.84186
1426879227.266,212.63379
1426879227.282,156.6594
1426879227.298,102.95233
1426879227.313,52.373596
1426879227.329,5.9046936
1426879227.344,-35.580414
1426879227.36,-71.42584
1426879227.376,-101.35184
1426879227.391,-125.50113
1426879227.407,-144.3797
1426879227.423,-158.69403
1426879227.438,-169.15071
1426879227.454,-176.3711
1426879227.47,-180.75139
1426879227.485,-182.57419
1426879227.501,-182.06863
1426879227.516,-179.5066
1426879227.532,-175.23325
1426879227.548,-169.65286
1426879227.563,-163.17691
1426879227.579,-156.14568
1426879227.595,-148.80681
1426879227.61,-141.29686
1426879227.626,-133.68983
1426879227.641,-126.01962
1426879227.657,-118.33268
1426879227.673,-110.68864
1426879227.688,-103.15572
1426879227.704,-95.80455
1426879227.72,-88.684166
1426879227.735,-81.82744
1426879227.751,-75.24594
1426879227.766,-68.9526
1426879227.782,-62.949085
1426879227.798,-57.247494
1426879227.813,-51.857185
1426879227.829,-46.78282
1426879227.845,-42.02776
1426879227.86,-37.58521
1426879227.876,-33.451748
1426879227.891,-29.613855
1426879227.907,-26.070963
1426879227.923,-22.808779
1426879227.938,-19.824995
1426879227.954,-17.113392
1426879227.97,-14.666497
1426879227.985,-12.47932
1426879228.001,-10.538469
1426879228.016,-8.833674
1426879228.032,-7.3478527
1426879228.048,-6.067689
1426879228.063,-4.9734235
1426879228.079,-4.046258
1426879228.095,-3.2673752
1426879228.11,-2.6211367
1426879228.126,-2.088365
1426879228.141,-1.6507506
1426879228.157,-1.2976913
1426879228.173,-1.0147024
1426879228.188,-0.79105926
1426879228.204,-0.6133206
1426879228.22,-0.47516227
1426879228.235,-0.3684653
1426879228.251,-0.28461677
1426879228.266,-0.22397345
1426879228.282,-0.17647654
1426879228.298,-0.14055526
1426879228.313,-0.11251485
1426879228.329,-0.0926249
1426879228.345,-0.07977182
1426879228.36,-0.06783539
1426879228.376,-0.05929327
1426879228.391,-0.052183747
1426879228.407,-0.046860814
1426879228.423,-0.044131815
1426879228.438,-0.040358156
1426879228.454,-0.039164305
1426879228.47,-0.034330726
1426879228.485,-0.03515649
1426879228.501,-0.03181714
1426879228.516,-0.030750751
1426879228.532,-0.02810505
1426879228.548,-0.029290557
1426879228.563,-0.027453512
1426879228.579,-0.026081413
1426879228.595,-0.023851603
1426879228.61,-0.022989094
1426879228.626,-0.022172749
1426879228.641,-0.022157341
1426879228.657,-0.020828396
1426879228.673,-0.020277172
1426879228.688,-0.01940465
1426879228.704,-0.018795371
1426879228.72,-0.019169807
1426879228.735,-0.017195046
1426879228.751,-0.016264498
1426879228.766,-0.01676847
1426879228.782,-0.016039208
1426879228.798,-0.016356274
1426879228.813,-0.012255222
1426879228.829,-0.014531761
1426879228.845,-0.013970271
1426879228.86,-0.0151048
1426879228.876,-0.011057541
1426879228.891,-0.0131264925
1426879228.907,-0.011830375
1426879228.923,-0.011531115
1426879228.938,-0.011168852
1426879228.954,-0.01142177
1426879228.97,-0.010616809
1426879228.985,-0.008061543
1426879229.001,-0.008858174
1426879229.016,-0.008768886
1426879229.032,-0.0072671026
1426879229.048,-0.0124448985
1426879229.063,-0.011742473
1426879229.079,-0.016088024
1426879229.095,-0.02092731
1426879229.11,-0.031063914
1426879229.126,-0.04194057
1426879229.141,-0.06369093
1426879229.157,-0.07952076
1426879229.173,-0.10451767
1426879229.188,-0.13404465
1426879229.204,-0.16557282
1426879229.22,-0.20015633
1426879229.235,-0.23723859
1426879229.251,-0.28031653
1426879229.266,-0.31434664
1426879229.282,-0.3594212
1426879229.298,-0.397143
1426879229.313,-0.44330275
1426879229.329,-0.4886778
1426879229.345,-0.5306845
1426879229.36,-0.5776944
1426879229.376,-0.6321971
1426879229.391,-0.6846561
1426879229.407,-0.74689263
1426879229.423,-0.81439316
1426879229.438,-0.888319
1426879229.454,-0.96673226
1426879229.47,-1.0609443
1426879229.485,-1.1632297
1426879229.501,-1.2725792
1426879229.516,-1.3978659
1426879229.532,-1.5392721
1426879229.548,-1.6971276
1426879229.563,-1.8821757
1426879229.579,-2.0928671
1426879229.595,-2.325952
1426879229.61,-2.574541
1426879229.626,-2.8156605
1426879229.641,-3.0477798
1426879229.657,-3.2808619
1426879229.673,-3.517242
1426879229.688,-3.7985935
1426879229.704,-4.141964
1426879229.72,-4.552358
1426879229.735,-5.0269313
1426879229.751,-5.547993
1426879229.766,-6.0855756
1426879229.782,-6.610799
1426879229.798,-7.1436
1426879229.813,-7.6878138
1426879229.829,-8.282777
1426879229.845,-8.966171
1426879229.86,-9.739914
1426879229.876,-10.595306
1426879229.891,-11.494324
1426879229.907,-12.379557
1426879229.923,-13.2187395
1426879229.938,-14.008866
1426879229.954,-14.796056
1426879229.97,-15.647404
1426879229.985,-16.61937
1426879230.001,-17.690897
1426879230.016,-18.756289
1426879230.032,-19.590555
1426879230.048,-19.954271
1426879230.063,-19.612406
1426879230.079,-18.47745
1426879230.095,-16.578794
1426879230.11,-14.084007
1426879230.126,-11.195896
1426879230.142,-8.041321
1426879230.157,-4.6002674
1426879230.173,-0.77516174
1426879230.188,3.5655613
1426879230.204,8.448479
1426879230.22,13.664734
1426879230.235,18.792673
1426879230.251,23.272146
1426879230.267,26.60608
1426879230.282,28.571758
1426879230.298,29.341206
1426879230.313,29.425644
1426879230.329,29.478996
1426879230.345,30.034359
1426879230.36,31.245026
1426879230.376,32.843575
1426879230.392,34.27542
1426879230.407,35.01662
1426879230.423,34.80128
1426879230.438,33.786205
1426879230.454,32.506927
1426879230.47,31.61568
1426879230.485,31.699432
1426879230.501,33.19557
1426879230.517,36.27947
1426879230.532,40.67798
1426879230.548,45.437347
1426879230.563,48.82315
1426879230.579,48.78019
1426879230.595,43.692307
1426879230.61,33.227486
1426879230.626,18.80331
1426879230.642,3.205391
1426879230.657,-10.495455
1426879230.673,-20.155476
1426879230.688,-25.318836
1426879230.704,-26.993572
1426879230.72,-26.858109
1426879230.735,-26.24402
1426879230.751,-25.69514
1426879230.767,-24.87464
1426879230.782,-23.14262
1426879230.798,-20.175259
1426879230.813,-16.224398
1426879230.829,-12.03816
1426879230.845,-8.465889
1426879230.86,-6.089348
1426879230.876,-5.0177765
1426879230.892,-5.099472
1426879230.907,-5.6208057
1426879230.923,-5.6942234
1426879230.938,-4.605545
1426879230.954,-2.0767574
1426879230.97,1.5047064
1426879230.985,5.2005396
1426879231.001,7.7682915
1426879231.017,8.1169405
1426879231.032,5.3771296
1426879231.048,-0.512146
1426879231.063,-8.856943
1426879231.079,-18.484123
1426879231.095,-28.127893
1426879231.11,-36.77079
1426879231.126,-43.93426
1426879231.142,-49.77591
1426879231.157,-53.105587
1426879231.173,-53.70769
1426879231.188,-51.894367
1426879231.204,-48.243954
1426879231.22,-43.419952
1426879231.235,-38.009903
1426879231.251,-32.499916
1426879231.267,-27.224216
1426879231.282,-22.379509
1426879231.298,-18.015121
1426879231.313,-14.332178
1426879231.329,-11.335388
1426879231.345,-8.8618965
1426879231.36,-6.699484
1426879231.376,-4.772459
1426879231.392,-3.233633
1426879231.407,-2.5271463
1426879231.423,-3.1246243
1426879231.438,-5.269041
1426879231.454,-8.803404
1426879231.47,-12.761105
1426879231.485,-15.505896
1426879231.501,-15.343708
1426879231.517,-11.295803
1426879231.532,-3.7213116
1426879231.548,5.6997356
1426879231.563,14.716778
1426879231.579,21.58422
1426879231.595,25.719044
1426879231.61,28.022648
1426879231.626,30.272278
1426879231.642,34.05758
1426879231.657,39.9918
1426879231.673,47.579998
1426879231.688,55.63815
1426879231.704,63.04384
1426879231.72,69.11525
1426879231.735,73.46013
1426879231.751,75.65771
1426879231.767,74.95303
1426879231.782,70.303345
1426879231.798,60.907818
1426879231.813,46.70956
1426879231.829,28.79721
1426879231.845,9.192493
1426879231.86,-9.737114
1426879231.876,-26.020527
1426879231.892,-38.500668
1426879231.907,-46.977806
1426879231.923,-51.959175
1426879231.938,-54.206833
1426879231.954,-54.39156
1426879231.97,-52.953865
1426879231.985,-50.210407
1426879232.001,-46.557247
1426879232.017,-42.507004
1426879232.032,-38.648113
1426879232.048,-35.44405
1426879232.063,-33.10673
1426879232.079,-31.520771
1426879232.095,-30.382698
1426879232.11,-29.406384
1426879232.126,-28.473652
1426879232.142,-27.619843
1426879232.157,-26.896206
1426879232.173,-26.22585
1426879232.188,-25.299847
1426879232.204,-23.605942
1426879232.22,-20.62275
1426879232.235,-16.030388
1426879232.251,-9.936699
1426879232.267,-2.9464035
1426879232.282,4.0007553
1426879232.298,10.054459
1426879232.313,14.737225
1426879232.329,18.250118
1426879232.345,21.268211
1426879232.36,24.678596
1426879232.376,29.147522
1426879232.392,34.93725
1426879232.407,41.96579
1426879232.423,49.93544
1426879232.438,58.441414
1426879232.454,66.86105
1426879232.47,74.19438
1426879232.485,78.994026
1426879232.501,79.59967
1426879232.517,74.73036
1426879232.532,64.085
1426879232.548,48.658928
1426879232.563,30.506828
1426879232.579,12.061134
1426879232.595,-4.648407
1426879232.61,-18.481522
1426879232.626,-29.25232
1426879232.642,-37.318344
1426879232.657,-43.117348
1426879232.673,-46.85704
1426879232.688,-48.554657
1426879232.704,-48.199615
1426879232.72,-46.126694
1426879232.735,-42.953667
1426879232.751,-39.4841
1426879232.767,-36.330772
1426879232.782,-33.721497
1426879232.798,-31.430382
1426879232.814,-29.059105
1426879232.829,-26.310883
1426879232.845,-23.257324
1426879232.86,-20.323608
1426879232.876,-18.057663
1426879232.892,-16.760094
1426879232.907,-16.280144
1426879232.923,-16.005745
1426879232.938,-15.127663
1426879232.954,-12.976425
1426879232.97,-9.344025
1426879232.985,-4.5093536
1426879233.001,0.877182
1426879233.017,6.159233
1426879233.032,10.926132
1426879233.048,15.149361
1426879233.064,19.17852
1426879233.079,23.654602
1426879233.095,29.225174
1426879233.11,36.429253
1426879233.126,45.397804
1426879233.142,55.67885
1426879233.157,66.21382
1426879233.173,75.39089
1426879233.189,81.34938
1426879233.204,82.46038
1426879233.22,77.70534
1426879233.235,67.05617
1426879233.251,51.534286
1426879233.267,33.002525
1426879233.282,13.69149
1426879233.298,-4.32547
1426879233.314,-19.620552
1426879233.329,-31.52684
1426879233.345,-40.08313
1426879233.36,-45.66989
1426879233.376,-48.754486
1426879233.392,-49.623108
1426879233.407,-48.522354
1426879233.423,-45.726936
1426879233.439,-41.7303
1426879233.454,-37.2099
1426879233.47,-32.847847
1426879233.485,-29.10151
1426879233.501,-26.115364
1426879233.517,-23.780533
1426879233.532,-21.93937
1426879233.548,-20.567703
1426879233.564,-19.81176
1426879233.579,-19.80481
1426879233.595,-20.454498
1426879233.61,-21.286575
1426879233.626,-21.490593
1426879233.642,-20.210419
1426879233.657,-16.83416
1426879233.673,-11.247406
1426879233.689,-3.8928833
1426879233.704,4.3401337
1426879233.72,12.376663
1426879233.735,19.353485
1426879233.751,24.860802
1426879233.767,29.183556
1426879233.782,33.222694
1426879233.798,38.20131
1426879233.814,45.20083
1426879233.829,54.691605
1426879233.845,66.12441
1426879233.86,77.93543
1426879233.876,87.83538
1426879233.892,93.40732
1426879233.907,92.86496
1426879233.923,85.56548
1426879233.939,72.211006
1426879233.954,54.614464
1426879233.97,35.11003
1426879233.985,15.94577
1426879234.001,-1.3187561
1426879234.017,-15.959663
1426879234.032,-27.99009
1426879234.048,-37.67743
1426879234.064,-45.1698
1426879234.079,-50.31234
1426879234.095,-52.84124
1426879234.11,-52.705833
1426879234.126,-50.31623
1426879234.142,-46.549408
1426879234.157,-42.37301
1426879234.173,-38.448555
1426879234.189,-34.890755
1426879234.204,-31.394936
1426879234.22,-27.670784
1426879234.235,-23.762154
1426879234.251,-20.193756
1426879234.267,-17.691978
1426879234.282,-16.691704
1426879234.298,-16.910553
1426879234.314,-17.387611
1426879234.329,-16.817154
1426879234.345,-14.176994
1426879234.36,-9.1816025
1426879234.376,-2.378128
1426879234.392,5.102005
1426879234.407,12.1119995
1426879234.423,17.998024
1426879234.439,22.85204
1426879234.454,27.465801
1426879234.47,32.92951
1426879234.485,40.19416
1426879234.501,49.64896
1426879234.517,61.01756
1426879234.532,73.36093
1426879234.548,85.2939
1426879234.564,95.177704
1426879234.579,101.39311
1426879234.595,102.553085
1426879234.61,97.79962
1426879234.626,87.03439
1426879234.642,71.08301
1426879234.657,51.566444
1426879234.673,30.551563
1426879234.689,10.016464
1426879234.704,-8.502758
1426879234.72,-24.14542
1426879234.735,-36.631577
1426879234.751,-45.97975
1426879234.767,-52.306393
1426879234.782,-55.764736
1426879234.798,-56.608883
1426879234.814,-55.332726
1426879234.829,-52.679222
1426879234.845,-49.51973
1426879234.86,-46.563965
1426879234.876,-44.149963
1426879234.892,-42.19777
1426879234.907,-40.400715
1426879234.923,-38.431293
1426879234.939,-36.244656
1426879234.954,-34.026073
1426879234.97,-32.084286
1426879234.985,-30.564413
1426879235.001,-29.369991
1426879235.017,-28.153332
1426879235.032,-26.54757
1426879235.048,-24.325024
1426879235.064,-21.480057
1426879235.079,-18.107172
1426879235.095,-14.183622
1426879235.11,-9.5276165
1426879235.126,-3.8746853
1426879235.142,2.8425827
1426879235.157,10.361591
1426879235.173,18.164944
1426879235.189,25.780308
1426879235.204,33.179733
1426879235.22,40.912952
1426879235.235,49.84407
1426879235.251,60.450676
1426879235.267,72.25293
1426879235.282,83.49182
1426879235.298,91.506195
1426879235.314,93.69167
1426879235.329,88.529915
1426879235.345,76.20131
1426879235.36,58.495487
1426879235.376,38.088867
1426879235.392,17.565353
1426879235.407,-1.3066635
1426879235.423,-17.754906
1426879235.439,-31.716995
1426879235.454,-43.28145
1426879235.47,-52.33709
1426879235.485,-58.525177
1426879235.501,-61.552116
1426879235.517,-61.56172
1426879235.532,-59.276497
1426879235.548,-55.810707
1426879235.564,-52.252594
1426879235.579,-49.241386
1426879235.595,-46.817627
1426879235.61,-44.644173
1426879235.626,-42.343163
1426879235.642,-39.837883
1426879235.657,-37.41275
1426879235.673,-35.44748
1426879235.689,-34.126373
1426879235.704,-33.252136
1426879235.72,-32.36943
1426879235.736,-30.993347
1426879235.751,-28.883095
1426879235.767,-26.057281
1426879235.782,-22.612778
1426879235.798,-18.568619
1426879235.814,-13.772255
1426879235.829,-8.037155
1426879235.845,-1.372078
1426879235.861,5.919594
1426879235.876,13.315231
1426879235.892,20.427132
1426879235.907,27.239838
1426879235.923,34.261536
1426879235.939,42.27452
1426879235.954,51.880417
1426879235.97,62.95755
1426879235.986,74.44049
1426879236.001,84.40987
1426879236.017,90.59857
1426879236.032,91.07832
1426879236.048,84.88097
1426879236.064,72.31218
1426879236.079,54.848907
1426879236.095,34.685593
1426879236.111,14.082809
1426879236.126,-5.1243286
1426879236.142,-21.780746
1426879236.157,-35.39801
1426879236.173,-45.86905
1426879236.189,-53.313004
1426879236.204,-57.851974
1426879236.22,-59.668594
1426879236.236,-59.076416
1426879236.251,-56.64862
1426879236.267,-53.139114
1426879236.282,-49.370132
1426879236.298,-46.00943
1426879236.314,-43.377472
1426879236.329,-41.408264
1426879236.345,-39.787537
1426879236.361,-38.17845
1426879236.376,-36.46901
1426879236.392,-34.791306
1426879236.407,-33.48378
1426879236.423,-32.81128
1426879236.439,-32.762405
1426879236.454,-32.91208
1426879236.47,-32.560898
1426879236.486,-30.967224
1426879236.501,-27.673492
1426879236.517,-22.668625
1426879236.532,-16.419739
1426879236.548,-9.595749
1426879236.564,-2.8706512
1426879236.579,3.4023743
1426879236.595,9.252884
1426879236.611,15.03717
1426879236.626,21.258331
1426879236.642,28.43222
1426879236.657,36.881516
1426879236.673,46.644333
1426879236.689,57.332703
1426879236.704,68.05562
1426879236.72,77.39935
1426879236.736,83.548996
1426879236.751,84.688385
1426879236.767,79.54932
1426879236.782,67.879486
1426879236.798,50.745728
1426879236.814,30.323914
1426879236.829,9.266739
1426879236.845,-10.068024
1426879236.861,-26.224274
1426879236.876,-38.83954
1426879236.892,-48.23976
1426879236.907,-54.93347
1426879236.923,-59.134506
1426879236.939,-60.767273
1426879236.954,-59.767822
1426879236.97,-56.53479
1426879236.986,-52.02054
1426879237.001,-47.49031
1426879237.017,-43.935486
1426879237.032,-41.669006
1426879237.048,-40.2471
1426879237.064,-38.909363
1426879237.079,-37.096573
1426879237.095,-34.833786
1426879237.111,-32.659607
1426879237.126,-31.215927
1426879237.142,-30.771133
1426879237.157,-30.965378
1426879237.173,-31.000092
1426879237.189,-30.005142
1426879237.204,-27.433777
1426879237.22,-23.238419
1426879237.236,-17.750702
1426879237.251,-11.465225
1426879237.267,-4.7835083
1426879237.282,2.0190582
1426879237.298,8.795639
1426879237.314,15.453018
1426879237.329,21.963715
1426879237.345,28.362274
1426879237.361,34.919083
1426879237.376,42.051834
1426879237.392,50.201828
1426879237.407,59.50049
1426879237.423,69.422714
1426879237.439,78.60092
1426879237.454,85.017456
1426879237.47,86.533615
1426879237.486,81.639694
1426879237.501,70.08757
1426879237.517,53.10942
1426879237.532,33.062027
1426879237.548,12.677719
1426879237.564,-5.775894
1426879237.579,-21.070908
1426879237.595,-33.072647
1426879237.611,-42.32892
1426879237.626,-49.443146
1426879237.642,-54.6111
1426879237.657,-57.596954
1426879237.673,-58.00522
1426879237.689,-55.799393
1426879237.704,-51.556107
1426879237.72,-46.388306
1426879237.736,-41.551346
1426879237.751,-37.927155
1426879237.767,-35.732407
1426879237.782,-34.570114
1426879237.798,-33.80092
1426879237.814,-32.95053
1426879237.829,-31.975876
1426879237.845,-31.177414
1426879237.861,-30.915833
1426879237.876,-31.291443
1426879237.892,-31.931915
1426879237.907,-32.143143
1426879237.923,-31.169708
1426879237.939,-28.56166
1426879237.954,-24.300636
1426879237.97,-18.812141
1426879237.986,-12.670906
1426879238.001,-6.337158
1426879238.017,0.021064758
1426879238.032,6.451187
1426879238.048,13.001785
1426879238.064,19.58062
1426879238.079,25.978165
1426879238.095,32.10002
1426879238.111,38.20336
1426879238.126,44.94522
1426879238.142,53.084213
1426879238.157,62.922585
1426879238.173,73.824425
1426879238.189,84.14516
1426879238.204,91.617966
1426879238.22,94.13674
1426879238.236,90.508
1426879238.251,80.73661
1426879238.267,65.949104
1426879238.282,47.828636
1426879238.298,28.153595
1426879238.314,8.501778
1426879238.329,-9.784073
1426879238.345,-25.54306
1426879238.361,-37.878563
1426879238.376,-46.35884
1426879238.392,-51.171318
1426879238.408,-53.079407
1426879238.423,-53.099655
1426879238.439,-52.088493
1426879238.454,-50.438072
1426879238.47,-48.139343
1426879238.486,-45.101624
1426879238.501,-41.54003
1426879238.517,-38.01581
1426879238.533,-35.240547
1426879238.548,-33.615242
1426879238.564,-33.028572
1426879238.579,-32.915344
1426879238.595,-32.628853
1426879238.611,-31.811943
1426879238.626,-30.538628
1426879238.642,-29.104145
1426879238.658,-27.690002
1426879238.673,-26.137295
1426879238.689,-23.981323
1426879238.704,-20.757278
1426879238.72,-16.30753
1426879238.736,-10.875633
1426879238.751,-4.943676
1426879238.767,1.087616
1426879238.783,7.1111107
1426879238.798,13.258366
1426879238.814,19.62875
1426879238.829,26.128696
1426879238.845,32.426117
1426879238.861,38.269966
1426879238.876,43.82361
1426879238.892,49.77835
1426879238.908,56.998802
1426879238.923,65.90458
1426879238.939,75.83946
1426879238.954,84.93601
1426879238.97,90.65341
1426879238.986,90.77548
1426879239.001,84.305435
1426879239.017,71.87253
1426879239.033,55.34057
1426879239.048,36.990982
1426879239.064,18.713493
1426879239.079,1.6692467
1426879239.095,-13.567768
1426879239.111,-26.594603
1426879239.126,-36.98178
1426879239.142,-44.334476
1426879239.158,-48.60113
1426879239.173,-50.227264
1426879239.189,-50.064613
1426879239.204,-49.012173
1426879239.22,-47.640926
1426879239.236,-46.06076
1426879239.251,-44.107006
1426879239.267,-41.676643
1426879239.283,-38.960743
1426879239.298,-36.394592
1426879239.314,-34.45884
1426879239.329,-33.34669
1426879239.345,-32.89017
1426879239.361,-32.644886
1426879239.376,-32.158478
1426879239.392,-31.180906
1426879239.408,-29.75568
1426879239.423,-28.038574
1426879239.439,-26.141335
1426879239.454,-23.939457
1426879239.47,-21.089602
1426879239.486,-17.17179
1426879239.501,-11.915543
1426879239.517,-5.366047
1426879239.533,2.100275
1426879239.548,9.910229
1426879239.564,17.44464
1426879239.579,24.228905
1426879239.595,30.00602
1426879239.611,34.810654
1426879239.626,38.98281
1426879239.642,43.182053
1426879239.658,48.195595
1426879239.673,54.653255
1426879239.689,62.588825
1426879239.704,71.13315
1426879239.72,78.48839
1426879239.736,82.375984
1426879239.751,80.73145
1426879239.767,72.47473
1426879239.783,57.902733
1426879239.798,38.646095
1426879239.814,17.192856
1426879239.829,-3.7874908
1426879239.845,-22.062283
1426879239.861,-36.224884
1426879239.876,-45.84368
1426879239.892,-51.30813
1426879239.908,-53.566845
1426879239.923,-53.798317
1426879239.939,-53.09574
1426879239.954,-52.197784
1426879239.97,-51.413933
1426879239.986,-50.610123
1426879240.001,-49.34365
1426879240.017,-47.13865
1426879240.033,-43.745743
1426879240.048,-39.283867
1426879240.064,-34.34121
1426879240.079,-29.772842
1426879240.095,-26.410828
1426879240.111,-24.709328
1426879240.126,-24.61251
1426879240.142,-25.550163
1426879240.158,-26.773476
1426879240.173,-27.564697
1426879240.189,-27.44825
1426879240.204,-26.090294
1426879240.22,-23.227692
1426879240.236,-18.57489
1426879240.251,-11.97113
1426879240.267,-3.62117
1426879240.283,5.788376
1426879240.298,15.151527
1426879240.314,23.349098
1426879240.329,29.690598
1426879240.345,34.249023
1426879240.361,37.88646
1426879240.376,41.890945
1426879240.392,47.46926
1426879240.408,55.22062
1426879240.423,64.87587
1426879240.439,75.21357
1426879240.454,84.46657
1426879240.47,90.74034
1426879240.486,92.59323
1426879240.501,89.41742
1426879240.517,81.54025
1426879240.533,70.00656
1426879240.548,56.171173
1426879240.564,41.260178
1426879240.579,26.132843
1426879240.595,11.440399
1426879240.611,-2.1638947
1426879240.626,-13.885513
1426879240.642,-22.80104
1426879240.658,-28.229584
1426879240.673,-30.056519
1426879240.689,-28.796509
1426879240.704,-25.293198
1426879240.72,-20.451218
1426879240.736,-14.976791
1426879240.751,-9.572815
1426879240.767,-5.1308746
1426879240.783,-2.764679
1426879240.798,-3.4388885
1426879240.814,-7.397766
1426879240.829,-13.751724
1426879240.845,-20.645996
1426879240.861,-25.928207
1426879240.876,-28.117538
1426879240.892,-27.012375
1426879240.908,-23.645782
1426879240.923,-19.5262
1426879240.939,-15.842255
1426879240.954,-12.9198
1426879240.97,-10.264969
1426879240.986,-7.0181885
1426879241.001,-2.5905914
1426879241.017,3.113144
1426879241.033,9.62973
1426879241.048,16.255707
1426879241.064,22.293213
1426879241.08,27.280197
1426879241.095,31.160233
1426879241.111,34.32486
1426879241.126,37.540527
1426879241.142,41.740265
1426879241.158,47.66925
1426879241.173,55.433533
1426879241.189,64.196045
1426879241.205,72.21184
1426879241.22,77.2312
1426879241.236,77.19919
1426879241.251,70.95491
1426879241.267,58.66893
1426879241.283,41.74565
1426879241.298,22.346573
1426879241.314,2.7396698
1426879241.33,-15.262085
1426879241.345,-30.549286
1426879241.361,-42.66652
1426879241.376,-51.525818
1426879241.392,-57.16858
1426879241.408,-59.770355
1426879241.423,-59.640137
1426879241.439,-57.318832
1426879241.455,-53.600815
1426879241.47,-49.389908
1426879241.486,-45.411057
1426879241.501,-42.045258
1426879241.517,-39.233063
1426879241.533,-36.662903
1426879241.548,-34.020767
1426879241.564,-31.27414
1426879241.58,-28.696533
1426879241.595,-26.740845
1426879241.611,-25.718323
1426879241.626,-25.580368
1426879241.642,-25.91072
1426879241.658,-26.052307
1426879241.673,-25.362457
1426879241.689,-23.429245
1426879241.705,-20.149002
1426879241.72,-15.656464
1426879241.736,-10.245148
1426879241.751,-4.284729
1426879241.767,1.8596802
1426879241.783,7.891632
1426879241.798,13.655197
1426879241.814,19.128372
1426879241.83,24.49353
1426879241.845,30.024323
1426879241.861,36.05533
1426879241.876,42.834854
1426879241.892,50.51239
1426879241.908,58.973557
1426879241.923,67.67973
1426879241.939,75.55032
1426879241.955,81.050095
1426879241.97,82.45685
1426879241.986,78.42473
1426879242.001,68.47101
1426879242.017,53.310608
1426879242.033,34.657043
1426879242.048,14.779816
1426879242.064,-4.1400757
1426879242.08,-20.48346
1426879242.095,-33.427155
1426879242.111,-42.780106
1426879242.126,-48.79918
1426879242.142,-51.886093
1426879242.158,-52.51036
1426879242.173,-51.127182
1426879242.189,-48.22641
1426879242.205,-44.32054
1426879242.22,-39.94992
1426879242.236,-35.586792
1426879242.251,-31.552002
1426879242.267,-27.940628
1426879242.283,-24.660019
1426879242.298,-21.536728
1426879242.314,-18.588562
1426879242.33,-16.069107
1426879242.345,-14.44989
1426879242.361,-14.064941
1426879242.376,-14.853096
1426879242.392,-16.15126
1426879242.408,-16.866226
1426879242.423,-15.9644165
1426879242.439,-12.910965
1426879242.455,-7.9604187
1426879242.47,-2.0192032
1426879242.486,3.7713623
1426879242.501,8.574425
1426879242.517,12.192429
1426879242.533,15.04306
1426879242.548,17.906288
1426879242.564,21.560692
1426879242.58,26.590279
1426879242.595,33.269516
1426879242.611,41.56672
1426879242.626,51.006577
1426879242.642,60.588478
1426879242.658,68.68093
1426879242.673,73.305916
1426879242.689,72.60111
1426879242.705,65.51239
1426879242.72,52.31185
1426879242.736,34.64205
1426879242.751,14.974304
1426879242.767,-4.155609
1426879242.783,-20.915466
1426879242.798,-34.48517
1426879242.814,-44.918106
1426879242.83,-52.590866
1426879242.845,-57.768456
1426879242.861,-60.400246
1426879242.876,-60.387337
1426879242.892,-57.963844
1426879242.908,-53.93318
1426879242.923,-49.48877
1426879242.939,-45.76625
1426879242.955,-43.295563
1426879242.97,-41.744324
1426879242.986,-40.085754
1426879243.001,-37.200302
1426879243.017,-32.46051
1426879243.033,-26.103622
1426879243.048,-19.05458
1426879243.064,-12.359985
1426879243.08,-6.628067
1426879243.095,-1.7666321
1426879243.111,2.7681885
1426879243.126,7.3854675
1426879243.142,11.909714
1426879243.158,15.591949
1426879243.173,17.67231
1426879243.189,17.996628
1426879243.205,17.442955
1426879243.22,17.706375
1426879243.236,20.50766
1426879243.251,26.79538
1426879243.267,36.363953
1426879243.283,48.08985
1426879243.298,60.53183
1426879243.314,72.29712
1426879243.33,82.10773
1426879243.345,88.667885
1426879243.361,90.62255
1426879243.376,86.91729
1426879243.392,77.453995
1426879243.408,63.469986
1426879243.423,47.320435
1426879243.439,31.60215
1426879243.455,18.053123
1426879243.47,6.983734
1426879243.486,-2.406929
1426879243.501,-11.170059
1426879243.517,-19.585495
1426879243.533,-26.902328
1426879243.548,-31.835838
1426879243.564,-33.514053
1426879243.58,-32.106262
1426879243.595,-28.815086
1426879243.611,-25.15828
1426879243.626,-22.13955
1426879243.642,-19.81871
1426879243.658,-17.564926
1426879243.673,-14.652214
1426879243.689,-10.979744
1426879243.705,-7.2257767
1426879243.72,-4.478119
1426879243.736,-3.5242233
1426879243.752,-4.348732
1426879243.767,-5.951317
1426879243.783,-6.882408
1426879243.798,-5.8237915
1426879243.814,-2.192047
1426879243.83,3.675003
1426879243.845,10.783928
1426879243.861,18.080353
1426879243.876,24.906425
1426879243.892,31.2784
1426879243.908,37.76503
1426879243.923,45.072865
1426879243.939,53.631077
1426879243.955,63.457157
1426879243.97,74.29469
1426879243.986,85.99527
1426879244.002,98.5769
1426879244.017,111.888794
1426879244.033,124.91051
1426879244.048,135.27547
1426879244.064,139.41293
1426879244.08,133.7544
1426879244.095,116.48047
1426879244.111,88.8421
1426879244.127,55.17647
1426879244.142,21.328827
1426879244.158,-7.8259315
1426879244.173,-30.329796
1426879244.189,-47.48776
1426879244.205,-62.389183
1426879244.22,-77.5381
1426879244.236,-92.96147
1426879244.252,-106.11136
1426879244.267,-113.24785
1426879244.283,-111.65126
1426879244.298,-101.16844
1426879244.314,-84.34431
1426879244.33,-65.20607
1426879244.345,-47.630928
1426879244.361,-34.061836
1426879244.377,-25.26793
1426879244.392,-20.902496
1426879244.408,-20.243141
1426879244.423,-22.657028
1426879244.439,-27.592773
1426879244.455,-34.23513
1426879244.47,-41.290596
1426879244.486,-46.934036
1426879244.502,-49.307693
1426879244.517,-47.16767
1426879244.533,-40.608047
1426879244.548,-31.200249
1426879244.564,-21.629242
1426879244.58,-14.684509
1426879244.595,-12.095688
1426879244.611,-13.6223755
1426879244.627,-17.028397
1426879244.642,-18.877182
1426879244.658,-15.917679
1426879244.673,-6.4974213
1426879244.689,8.615585
1426879244.705,26.33574
1426879244.72,42.23448
1426879244.736,52.06967
1426879244.752,53.182983
1426879244.767,45.41655
1426879244.783,30.957947
1426879244.798,13.409515
1426879244.814,-3.8089905
1426879244.83,-18.653824
1426879244.845,-31.007751
1426879244.861,-42.146057
1426879244.877,-53.592407
1426879244.892,-65.93683
1426879244.908,-78.3452
1426879244.923,-88.8721
1426879244.939,-95.46109
1426879244.955,-96.97214
1426879244.97,-93.70297
1426879244.986,-87.12004
1426879245.002,-79.051834
1426879245.017,-70.83276
1426879245.033,-62.891693
1426879245.048,-54.911987
1426879245.064,-46.42508
1426879245.08,-37.40338
1426879245.095,-28.571518
1426879245.111,-21.069168
1426879245.127,-15.885147
1426879245.142,-13.160187
1426879245.158,-11.977356
1426879245.173,-10.584335
1426879245.189,-7.1640472
1426879245.205,-0.67878723
1426879245.22,8.712433
1426879245.236,19.688675
1426879245.252,30.38887
1426879245.267,39.192703
1426879245.283,45.395905
1426879245.298,49.50615
1426879245.314,52.972305
1426879245.33,57.583847
1426879245.345,64.68465
1426879245.361,74.52823
1426879245.377,86.005936
1426879245.392,96.92799
1426879245.408,104.65614
1426879245.423,106.938126
1426879245.439,102.57895
1426879245.455,91.78505
1426879245.47,75.91478
1426879245.486,56.983795
1426879245.502,36.99298
1426879245.517,17.474716
1426879245.533,-0.6351471
1426879245.548,-16.815308
1426879245.564,-30.68013
1426879245.58,-41.73903
1426879245.595,-49.499557
1426879245.611,-53.728012
1426879245.627,-54.731476
1426879245.642,-53.38646
1426879245.658,-50.914307
1426879245.673,-48.324295
1426879245.689,-46.097244
1426879245.705,-44.044434
1426879245.72,-41.64453
1426879245.736,-38.483353
1426879245.752,-34.67807
1426879245.767,-30.929749
1426879245.783,-28.142319
1426879245.798,-26.910217
1426879245.814,-27.12851
1426879245.83,-27.918106
1426879245.845,-27.967026
1426879245.861,-26.089523
1426879245.877,-21.77037
1426879245.892,-15.276047
1426879245.908,-7.5390625
1426879245.923,0.339859
1426879245.939,7.519211
1426879245.955,13.775848
1426879245.97,19.529648
1426879245.986,25.649002
1426879246.002,33.055634
1426879246.017,42.397293
1426879246.033,53.672348
1426879246.048,66.0419
1426879246.064,77.83273
1426879246.08,86.81564
1426879246.095,90.74379
1426879246.111,88.05678
1426879246.127,78.401474
1426879246.142,62.839813
1426879246.158,43.42424
1426879246.173,22.60582
1426879246.189,2.453354
1426879246.205,-15.674973
1426879246.22,-31.18097
1426879246.236,-43.864975
1426879246.252,-53.726456
1426879246.267,-60.786133
1426879246.283,-65.160645
1426879246.298,-67.165375
1426879246.314,-67.32565
1426879246.33,-66.23784
1426879246.345,-64.380844
1426879246.361,-62.00946
1426879246.377,-59.237717
1426879246.392,-56.1212
1426879246.408,-52.804565
1426879246.424,-49.496872
1426879246.439,-46.467087
1426879246.455,-43.9283
1426879246.47,-41.991684
1426879246.486,-40.6111
1426879246.502,-39.57283
1426879246.517,-38.430756
1426879246.533,-36.6436
1426879246.548,-33.671936
1426879246.564,-29.211853
1426879246.58,-23.330353
1426879246.595,-16.45192
1426879246.611,-9.124451
1426879246.627,-1.810852
1426879246.642,5.3018036
1426879246.658,12.27095
1426879246.674,19.312317
1426879246.689,26.639786
1426879246.705,34.437454
1426879246.72,42.924316
1426879246.736,52.398117
1426879246.752,63.033966
1426879246.767,74.534
1426879246.783,85.78665
1426879246.799,94.85133
1426879246.814,99.371765
1426879246.83,97.39015
1426879246.845,88.153656
1426879246.861,72.4402
1426879246.877,52.265137
1426879246.892,30.143219
1426879246.908,8.269196
1426879246.924,-11.904343
1426879246.939,-29.597107
1426879246.955,-44.341736
1426879246.97,-55.694916
1426879246.986,-63.258102
1426879247.002,-66.96631
1426879247.017,-67.33708
1426879247.033,-65.47029
1426879247.049,-62.634384
1426879247.064,-59.756714
1426879247.08,-57.11374
1426879247.095,-54.446777
1426879247.111,-51.399704
1426879247.127,-47.935287
1426879247.142,-44.490738
1426879247.158,-41.77778
1426879247.174,-40.263725
1426879247.189,-39.855858
1426879247.205,-39.85446
1426879247.22,-39.303818
1426879247.236,-37.456627
1426879247.252,-34.152473
1426879247.267,-29.830307
1426879247.283,-25.2247
1426879247.299,-20.858597
1426879247.314,-16.75035
1426879247.33,-12.439156
1426879247.345,-7.331253
1426879247.361,-1.1257553
1426879247.377,5.8878326
1426879247.392,13.019592
1426879247.408,19.558624
1426879247.424,25.284729
1426879247.439,30.646942
1426879247.455,36.53512
1426879247.47,43.782494
1426879247.486,52.688866
1426879247.502,62.871124
1426879247.517,73.5117
1426879247.533,83.61204
1426879247.549,92.2145
1426879247.564,98.30416
1426879247.58,100.70491
1426879247.595,98.14569
1426879247.611,89.685135
1426879247.627,75.273544
1426879247.642,56.120228
1426879247.658,34.55068
1426879247.674,13.336521
1426879247.689,-5.2351265
1426879247.705,-20.003754
1426879247.72,-31.064735
1426879247.736,-39.27702
1426879247.752,-45.568653
1426879247.767,-50.35221
1426879247.783,-53.50789
1426879247.799,-54.654003
1426879247.814,-53.662327
1426879247.83,-50.945213
1426879247.845,-47.410736
1426879247.861,-44.07086
1426879247.877,-41.639854
1426879247.892,-40.181465
1426879247.908,-39.258736
1426879247.924,-38.25231
1426879247.939,-36.785133
1426879247.955,-34.932453
1426879247.97,-33.10815
1426879247.986,-31.663986
1426879248.002,-30.5931
1426879248.017,-29.456251
1426879248.033,-27.640495
1426879248.049,-24.723503
1426879248.064,-20.7002
1426879248.08,-15.903803
1426879248.095,-10.714582
1426879248.111,-5.2510366
1426879248.127,0.6610837
1426879248.142,7.3304853
1426879248.158,14.846193
1426879248.174,22.933964
1426879248.189,30.90021
1426879248.205,38.024986
1426879248.22,43.93795
1426879248.236,48.895847
1426879248.252,53.78425
1426879248.267,59.69092
1426879248.283,67.30031
1426879248.299,76.354935
1426879248.314,85.47583
1426879248.33,92.527985
1426879248.345,95.32236
1426879248.361,92.39761
1426879248.377,83.459274
1426879248.392,69.404495
1426879248.408,51.894897
1426879248.424,32.861526
1426879248.439,14.106061
1426879248.455,-2.8432255
1426879248.47,-16.81401
1426879248.486,-27.024506
1426879248.502,-33.193542
1426879248.517,-35.607727
1426879248.533,-35.010098
1426879248.549,-32.292004
1426879248.564,-28.22276
1426879248.58,-23.307701
1426879248.595,-17.843098
1426879248.611,-12.081133
1426879248.627,-6.377387
1426879248.642,-1.1164331
1426879248.658,3.4933167
1426879248.674,7.5767984
1426879248.689,11.448303
1426879248.705,15.429662
1426879248.72,19.56982
1426879248.736,23.624659
1426879248.752,27.251198
1426879248.767,30.355043
1426879248.783,33.30086
1426879248.799,36.855766
1426879248.814,41.841957
1426879248.83,48.804485
1426879248.845,57.765198
1426879248.861,68.20148
1426879248.877,79.116104
1426879248.892,89.16998
1426879248.908,96.81678
1426879248.924,100.48804
1426879248.939,98.992966
1426879248.955,92.06343
1426879248.97,80.674545
1426879248.986,66.92496
1426879249.002,53.231705
1426879249.017,41.33128
1426879249.033,31.470406
1426879249.049,22.430347
1426879249.064,12.280106
1426879249.08,-0.45138168
1426879249.095,-15.917213
1426879249.111,-32.836613
1426879249.127,-49.187847
1426879249.142,-63.132507
1426879249.158,-73.772255
1426879249.174,-81.24501
1426879249.189,-86.280426
1426879249.205,-89.568924
1426879249.22,-91.33586
1426879249.236,-91.31828
1426879249.252,-89.09732
1426879249.267,-84.52582
1426879249.283,-78.02373
1426879249.299,-70.433914
1426879249.314,-62.774727
1426879249.33,-55.820786
1426879249.346,-49.962936
1426879249.361,-45.313736
1426879249.377,-42.157356
1426879249.392,-41.143913
1426879249.408,-43.077515
1426879249.424,-48.36168
1426879249.439,-56.477196
1426879249.455,-65.922424
1426879249.471,-74.857086
1426879249.486,-81.96085
1426879249.502,-87.140755
1426879249.517,-91.29228
1426879249.533,-95.505775
1426879249.549,-100.11338
1426879249.564,-104.32616
1426879249.58,-106.573494
1426879249.596,-105.48518
1426879249.611,-100.74868
1426879249.627,-93.29286
1426879249.642,-84.70852
1426879249.658,-76.28595
1426879249.674,-68.1855
1426879249.689,-59.356228
1426879249.705,-48.27126
1426879249.721,-34.04939
1426879249.736,-17.4315
1426879249.752,-0.9882088
1426879249.767,11.727272
1426879249.783,17.60848
1426879249.799,15.497595
1426879249.814,6.6956615
1426879249.83,-5.642987
1426879249.846,-18.070282
1426879249.861,-28.289232
1426879249.877,-35.867714
1426879249.892,-41.74795
1426879249.908,-46.99037
1426879249.924,-51.726906
1426879249.939,-54.96461
1426879249.955,-55.180492
1426879249.971,-51.47583
1426879249.986,-44.24131
1426879250.002,-35.141922
1426879250.017,-26.376694
1426879250.033,-19.772125
1426879250.049,-16.145042
1426879250.064,-15.268196
1426879250.08,-16.11203
1426879250.096,-17.348587
1426879250.111,-17.78656
1426879250.127,-16.6277
1426879250.142,-13.535339
1426879250.158,-8.59668
1426879250.174,-2.1085968
1426879250.189,5.6039276
1426879250.205,14.306931
1426879250.221,23.861359
1426879250.236,34.138824
1426879250.252,44.822495
1426879250.267,55.428467
1426879250.283,65.391174
1426879250.299,74.33313
1426879250.314,82.290985
1426879250.33,89.782455
1426879250.346,97.60831
1426879250.361,106.45868
1426879250.377,116.54315
1426879250.392,127.36304
1426879250.408,137.70795
1426879250.424,145.91031
1426879250.439,150.13205
1426879250.455,148.80566
1426879250.471,141.01804
1426879250.486,126.86801
1426879250.502,107.50717
1426879250.517,84.967224
1426879250.533,61.66397
1426879250.549,39.796295
1426879250.564,20.762543
1426879250.58,5.0708923
1426879250.596,-7.4752197
1426879250.611,-17.308868
1426879250.627,-24.68988
1426879250.642,-29.566376
1426879250.658,-31.80423
1426879250.674,-31.521759
1426879250.689,-29.30426
1426879250.705,-26.103333
1426879250.721,-22.895844
1426879250.736,-20.311096
1426879250.752,-18.485474
1426879250.767,-17.176605
1426879250.783,-16.175323
1426879250.799,-15.481018
1426879250.814,-15.285767
1426879250.83,-15.712891
1426879250.846,-16.518036
1426879250.861,-17.007538
1426879250.877,-16.299438
1426879250.892,-13.787964
1426879250.908,-9.498871
1426879250.924,-4.0733643
1426879250.939,1.5461731
1426879250.955,6.6754456
1426879250.971,11.142639
1426879250.986,15.335571
1426879251.002,19.845612
1426879251.017,25.136505
1426879251.033,31.304749
1426879251.049,38.15802
1426879251.064,45.318176
1426879251.08,52.44409
1426879251.096,59.419342
1426879251.111,66.322296
1426879251.127,73.48932
1426879251.142,81.4039
1426879251.158,90.38693
1426879251.174,100.216156
1426879251.189,109.781525
1426879251.205,117.08093
1426879251.221,119.69595
1426879251.236,115.68408
1426879251.252,104.343414
1426879251.267,86.58493
1426879251.283,64.56122
1426879251.299,40.904602
1426879251.314,17.919983
1426879251.33,-2.7573242
1426879251.346,-20.217346
1426879251.361,-33.956696
1426879251.377,-43.684845
1426879251.392,-49.368256
1426879251.408,-51.408173
1426879251.424,-50.72885
1426879251.439,-48.572723
1426879251.455,-46.135162
1426879251.471,-44.20114
1426879251.486,-42.963135
1426879251.502,-42.217346
1426879251.517,-41.58603
1426879251.533,-40.872406
1426879251.549,-40.09433
1426879251.564,-39.503967
1426879251.58,-39.29718
1426879251.596,-39.522705
1426879251.611,-39.966644
1426879251.627,-40.29477
1426879251.642,-40.101257
1426879251.658,-39.11847
1426879251.674,-37.255157
1426879251.689,-34.601868
1426879251.705,-31.376556
1426879251.721,-27.770569
1426879251.736,-23.872803
1426879251.752,-19.622559
1426879251.767,-14.810883
1426879251.783,-9.199127
1426879251.799,-2.5982056
1426879251.814,4.985199
1426879251.83,13.263977
1426879251.846,21.69632
1426879251.861,29.645386
1426879251.877,36.634766
1426879251.892,42.62216
1426879251.908,48.06491
1426879251.924,53.84082
1426879251.939,60.869263
1426879251.955,69.75998
1426879251.971,80.39081
1426879251.986,91.74545
1426879252.002,101.89868
1426879252.018,108.49747
1426879252.033,109.30679
1426879252.049,102.95169
1426879252.064,89.355286
1426879252.08,69.84784
1426879252.096,46.799225
1426879252.111,22.969482
1426879252.127,0.77368164
1426879252.143,-18.244232
1426879252.158,-33.447693
1426879252.174,-44.931824
1426879252.189,-53.113342
1426879252.205,-58.40451
1426879252.221,-61.142944
1426879252.236,-61.66043
1426879252.252,-60.445892
1426879252.268,-58.110016
1426879252.283,-55.338654
1426879252.299,-52.637848
1426879252.314,-50.25284
1426879252.33,-48.115356
1426879252.346,-46.048126
1426879252.361,-43.966156
1426879252.377,-42.075653
1426879252.393,-40.754517
1426879252.408,-40.39914
1426879252.424,-41.0795
1426879252.439,-42.36383
1426879252.455,-43.393494
1426879252.471,-43.221222
1426879252.486,-41.18936
1426879252.502,-37.244385
1426879252.518,-31.899628
1426879252.533,-25.981476
1426879252.549,-20.190613
1426879252.564,-14.852631
1426879252.58,-9.837494
1426879252.596,-4.7294006
1426879252.611,0.8769531
1426879252.627,7.126526
1426879252.643,13.87558
1426879252.658,20.751251
1426879252.674,27.348083
1426879252.689,33.448273
1426879252.705,39.024536
1426879252.721,44.31726
1426879252.736,49.78833
1426879252.752,55.993134
1426879252.768,63.48001
1426879252.783,72.555115
1426879252.799,82.9144
1426879252.814,93.408966
1426879252.83,102.13815
1426879252.846,106.81247
1426879252.861,105.47217
1426879252.877,97.13052
1426879252.893,82.20502
1426879252.908,62.335663
1426879252.924,39.887634
1426879252.939,17.26007
1426879252.955,-3.6522217
1426879252.971,-21.609314
1426879252.986,-35.996063
1426879253.002,-46.63791
1426879253.018,-53.678375
1426879253.033,-57.55847
1426879253.049,-58.96118
1426879253.064,-58.706207
1426879253.08,-57.553802
1426879253.096,-56.006683
1426879253.111,-54.268723
1426879253.127,-52.36534
1426879253.143,-50.277863
1426879253.158,-48.104065
1426879253.174,-46.07292
1426879253.189,-44.50772
1426879253.205,-43.67067
1426879253.221,-43.66211
1426879253.236,-44.351334
1426879253.252,-45.38968
1426879253.268,-46.25923
1426879253.283,-46.457092
1426879253.299,-45.595245
1426879253.314,-43.57051
1426879253.33,-40.509827
1426879253.346,-36.737854
1426879253.361,-32.48929
1426879253.377,-27.896576
1426879253.393,-22.888641
1426879253.408,-17.335052
1426879253.424,-11.182892
1426879253.439,-4.505707
1426879253.455,2.515274
1426879253.471,9.686401
1426879253.486,16.895432
1426879253.502,24.0354
1426879253.518,31.004822
1426879253.533,37.6071
1426879253.549,43.69455
1426879253.564,49.310013
1426879253.58,54.86612
1426879253.596,61.078537
1426879253.611,68.66055
1426879253.627,77.778885
1426879253.643,87.68286
1426879253.658,96.5659
1426879253.674,102.02109
1426879253.689,101.80661
1426879253.705,94.67915
1426879253.721,80.82466
1426879253.736,61.799118
1426879253.752,39.940765
1426879253.768,17.6698
1426879253.783,-3.1154633
1426879253.799,-21.210114
1426879253.814,-36.074493
1426879253.83,-47.488052
1426879253.846,-55.475006
1426879253.861,-60.18158
1426879253.877,-62.01555
1426879253.893,-61.63144
1426879253.908,-59.82022
1426879253.924,-57.343323
1426879253.939,-54.773254
1426879253.955,-52.392654
1426879253.971,-50.29039
1426879253.986,-48.44919
1426879254.002,-46.873276
1426879254.018,-45.631836
1426879254.033,-44.839386
1426879254.049,-44.587845
1426879254.064,-44.90155
1426879254.08,-45.691193
1426879254.096,-46.702637
1426879254.111,-47.531677
1426879254.127,-47.723373
1426879254.143,-46.840714
1426879254.158,-44.612778
1426879254.174,-41.001617
1426879254.189,-36.231003
1426879254.205,-30.70082
1426879254.221,-24.852036
1426879254.236,-19.038956
1426879254.252,-13.410217
1426879254.268,-7.9154816
1426879254.283,-2.3276367
1426879254.299,3.578247
1426879254.314,9.943405
1426879254.33,16.704346
1426879254.346,23.58223
1426879254.361,30.201553
1426879254.377,36.21927
1426879254.393,41.531296
1426879254.408,46.401993
1426879254.424,51.423782
1426879254.439,57.34369
1426879254.455,64.79411
1426879254.471,73.92886
1426879254.486,84.173676
1426879254.502,94.15407
1426879254.518,101.89494
1426879254.533,105.288895
1426879254.549,102.707275
1426879254.564,93.490326
1426879254.58,78.233185
1426879254.596,58.579575
1426879254.611,36.781128
1426879254.627,15.102341
1426879254.643,-4.6391754
1426879254.658,-21.330872
1426879254.674,-34.466614
1426879254.69,-44.013016
1426879254.705,-50.17003
1426879254.721,-53.339508
1426879254.736,-54.082703
1426879254.752,-53.134064
1426879254.768,-51.228897
1426879254.783,-49.026764
1426879254.799,-46.8705
1426879254.814,-44.845276
1426879254.83,-42.874542
1426879254.846,-40.957443
1426879254.861,-39.201767
1426879254.877,-37.891785
1426879254.893,-37.31955
1426879254.908,-37.62909
1426879254.924,-38.691345
1426879254.94,-40.14749
1426879254.955,-41.442215
1426879254.971,-42.002914
1426879254.986,-41.393555
1426879255.002,-39.436066
1426879255.018,-36.256668
1426879255.033,-32.2406
1426879255.049,-27.822006
1426879255.065,-23.332031
1426879255.08,-18.836288
1426879255.096,-14.140427
1426879255.111,-8.924454
1426879255.127,-2.9666443
1426879255.143,3.7723083
1426879255.158,11.072113
1426879255.174,18.578384
1426879255.19,25.866241
1426879255.205,32.591644
1426879255.221,38.553375
1426879255.236,43.788757
1426879255.252,48.63513
1426879255.268,53.71808
1426879255.283,59.73372
1426879255.299,67.1999
1426879255.315,75.99719
1426879255.33,85.17552
1426879255.346,93.031975
1426879255.361,97.50859
1426879255.377,96.81875
1426879255.393,90.01629
1426879255.408,77.32794
1426879255.424,60.059853
1426879255.44,40.20397
1426879255.455,19.942345
1426879255.471,1.1147842
1426879255.486,-14.979591
1426879255.502,-27.763893
1426879255.518,-37.243362
1426879255.533,-43.826096
1426879255.549,-48.076485
1426879255.565,-50.555077
1426879255.58,-51.676094
1426879255.596,-51.620255
1426879255.611,-50.409645
1426879255.627,-48.094032
1426879255.643,-44.873367
1426879255.658,-41.15349
1426879255.674,-37.546204
1426879255.69,-34.69291
1426879255.705,-33.06048
1426879255.721,-32.795822
1426879255.736,-33.700752
1426879255.752,-35.3517
1426879255.768,-37.19348
1426879255.783,-38.76809
1426879255.799,-39.714394
1426879255.815,-39.8489
1426879255.83,-39.07061
1426879255.846,-37.354294
1426879255.861,-34.65966
1426879255.877,-31.038788
1426879255.893,-26.586395
1426879255.908,-21.5009
1426879255.924,-15.983124
1426879255.94,-10.205704
1426879255.955,-4.252365
1426879255.971,1.8230896
1426879255.986,7.966545
1426879256.002,13.9908905
1426879256.018,19.662506
1426879256.033,24.743423
1426879256.049,29.229584
1426879256.065,33.38932
1426879256.08,37.766113
1426879256.096,43.02018
1426879256.111,49.684776
1426879256.127,57.77034
1426879256.143,66.54552
1426879256.158,74.51513
1426879256.174,79.69403
1426879256.19,80.12649
1426879256.205,74.560555
1426879256.221,62.893852
1426879256.236,46.265907
1426879256.252,26.709259
1426879256.268,6.548889
1426879256.283,-12.158356
1426879256.299,-28.075653
1426879256.315,-40.584908
1426879256.33,-49.626236
1426879256.346,-55.485825
1426879256.361,-58.54647
1426879256.377,-59.245354
1426879256.393,-57.982735
1426879256.408,-55.186035
1426879256.424,-51.28382
1426879256.44,-46.76111
1426879256.455,-42.1428
1426879256.471,-37.97647
1426879256.486,-34.673714
1426879256.502,-32.50229
1426879256.518,-31.427643
1426879256.533,-31.210396
1426879256.549,-31.47628
1426879256.565,-31.857391
1426879256.58,-32.04648
1426879256.596,-31.847557
1426879256.611,-31.145493
1426879256.627,-29.83731
1426879256.643,-27.852005
1426879256.658,-25.142235
1426879256.674,-21.696236
1426879256.69,-17.541061
1426879256.705,-12.708527
1426879256.721,-7.269081
1426879256.736,-1.3240128
1426879256.752,4.973839
1426879256.768,11.477425
1426879256.783,18.01046
1426879256.799,24.429459
1426879256.815,30.628738
1426879256.83,36.5831
1426879256.846,42.348045
1426879256.861,48.201363
1426879256.877,54.57688
1426879256.893,61.990555
1426879256.908,70.72501
1426879256.924,80.50462
1426879256.94,90.26343
1426879256.955,98.20175
1426879256.971,102.182396
1426879256.986,100.40247
1426879257.002,91.99488
1426879257.018,77.422905
1426879257.033,58.299393
1426879257.049,36.981148
1426879257.065,15.832405
1426879257.08,-3.279274
1426879257.096,-19.284744
1426879257.111,-31.846535
1426879257.127,-41.1279
1426879257.143,-47.467262
1426879257.158,-51.24003
1426879257.174,-52.796204
1426879257.19,-52.48362
1426879257.205,-50.741814
1426879257.221,-48.037598
1426879257.236,-44.847366
1426879257.252,-41.545746
1426879257.268,-38.381393
1426879257.283,-35.58451
1426879257.299,-33.325493
1426879257.315,-31.806068
1426879257.33,-31.15654
1426879257.346,-31.341358
1426879257.362,-32.08545
1426879257.377,-32.930683
1426879257.393,-33.383545
1426879257.408,-33.102287
1426879257.424,-31.981407
1426879257.44,-30.113659
1426879257.455,-27.607689
1426879257.471,-24.403996
1426879257.486,-20.305073
1426879257.502,-15.11591
1426879257.518,-8.778198
1426879257.533,-1.5595322
1426879257.549,6.062332
1426879257.565,13.523949
1426879257.58,20.462902
1426879257.596,26.784096
1426879257.612,32.751846
1426879257.627,38.797783
1426879257.643,45.419273
1426879257.658,53.032497
1426879257.674,61.8964
1426879257.69,71.97688
1426879257.705,82.718704
1426879257.721,92.94359
1426879257.737,100.85527
1426879257.752,104.42081
1426879257.768,101.93152
1426879257.783,92.61593
1426879257.799,77.023026
1426879257.815,56.920654
1426879257.83,34.741943
1426879257.846,12.922585
1426879257.862,-6.664156
1426879257.877,-23.041782
1426879257.893,-35.93051
1426879257.908,-45.544693
1426879257.924,-52.238464
1426879257.94,-56.38207
1426879257.955,-58.283035
1426879257.971,-58.18994
1426879257.987,-56.349854
1426879258.002,-53.018246
1426879258.018,-48.5319
1426879258.033,-43.428932
1426879258.049,-38.465538
1426879258.065,-34.50095
1426879258.08,-32.16024
1426879258.096,-31.623137
1426879258.112,-32.462967
1426879258.127,-33.8381
1426879258.143,-34.83808
1426879258.158,-34.914368
1426879258.174,-34.02375
1426879258.19,-32.505146
1426879258.205,-30.725483
1426879258.221,-28.7924
1426879258.237,-26.432499
1426879258.252,-23.17758
1426879258.268,-18.667274
1426879258.283,-12.869049
1426879258.299,-6.1366367
1426879258.315,0.9974489
1426879258.33,8.083199
1426879258.346,14.842277
1426879258.362,21.251354
1426879258.377,27.407566
1426879258.393,33.501453
1426879258.408,39.796574
1426879258.424,46.61392
1426879258.44,54.314823
1426879258.455,63.141144
1426879258.471,73.00559
1426879258.487,83.23972
1426879258.502,92.564285
1426879258.518,99.26542
1426879258.533,101.52566
1426879258.549,97.958336
1426879258.565,87.99139
1426879258.58,72.09256
1426879258.596,51.72607
1426879258.612,29.101723
1426879258.627,6.6139107
1426879258.643,-13.609974
1426879258.658,-30.173916
1426879258.674,-42.545845
1426879258.69,-50.982983
1426879258.705,-56.13706
1426879258.721,-58.744682
1426879258.737,-59.316257
1426879258.752,-58.105644
1426879258.768,-55.281845
1426879258.783,-51.160122
1426879258.799,-46.31015
1426879258.815,-41.54412
1426879258.83,-37.597137
1426879258.846,-34.89049
1426879258.862,-33.400764
1426879258.877,-32.74105
1426879258.893,-32.444466
1426879258.908,-32.196
1426879258.924,-31.982544
1426879258.94,-31.958214
1426879258.955,-32.187737
1426879258.971,-32.463234
1426879258.987,-32.22467
1426879259.002,-30.7668
1426879259.018,-27.517937
1426879259.033,-22.360825
1426879259.049,-15.656807
1426879259.065,-8.127319
1426879259.08,-0.51371
1426879259.096,6.643837
1426879259.112,13.224426
1426879259.127,19.473434
1426879259.143,25.898636
1426879259.158,33.068962
1426879259.174,41.457687
1426879259.19,51.245712
1426879259.205,62.145294
1426879259.221,73.22105
1426879259.237,82.91905
1426879259.252,89.2827
1426879259.268,90.484184
1426879259.283,85.3312
1426879259.299,73.75172
1426879259.315,56.820465
1426879259.33,36.467026
1426879259.346,14.955643
1426879259.362,-5.6584473
1426879259.377,-23.877426
1426879259.393,-38.837616
1426879259.408,-50.232193
1426879259.424,-58.08458
1426879259.44,-62.649864
1426879259.455,-64.26496
1426879259.471,-63.40541
1426879259.487,-60.640198
1426879259.502,-56.628845
1426879259.518,-52.038345
1426879259.533,-47.474136
1426879259.549,-43.39438
1426879259.565,-40.024734
1426879259.58,-37.390137
1426879259.596,-35.391663
1426879259.612,-33.881836
1426879259.627,-32.756042
1426879259.643,-31.956436
1426879259.658,-31.461914
1426879259.674,-31.177109
1426879259.69,-30.894943
1426879259.705,-30.24887
1426879259.721,-28.832932
1426879259.737,-26.214981
1426879259.752,-22.12883
1426879259.768,-16.506424
1426879259.783,-9.56572
1426879259.799,-1.7594147
1426879259.815,6.344864
1426879259.83,14.202499
1426879259.846,21.504776
1426879259.862,28.230545
1426879259.877,34.699936
1426879259.893,41.44612
1426879259.908,49.03685
1426879259.924,57.92476
1426879259.94,68.222565
1426879259.955,79.52399
1426879259.971,90.7489
1426879259.987,100.18974
1426879260.002,105.72319
1426879260.018,105.39665
1426879260.033,98.00893
1426879260.049,83.63498
1426879260.065,63.68042
1426879260.08,40.551346
1426879260.096,16.914902
1426879260.112,-4.9959717
1426879260.127,-23.790192
1426879260.143,-38.932953
1426879260.158,-50.428177
1426879260.174,-58.502792
1426879260.19,-63.412704
1426879260.205,-65.52229
1426879260.221,-65.40271
1426879260.237,-63.785004
1426879260.252,-61.43817
1426879260.268,-58.9059
1426879260.284,-56.41484
1426879260.299,-53.94748
1426879260.315,-51.45392
1426879260.33,-49.0524
1426879260.346,-47.080566
1426879260.362,-45.92334
1426879260.377,-45.7704
1426879260.393,-46.465836
1426879260.409,-47.524612
1426879260.424,-48.327087
1426879260.44,-48.348785
1426879260.455,-47.318832
1426879260.471,-45.24565
1426879260.487,-42.29666
1426879260.502,-38.664886
1426879260.518,-34.465164
1426879260.534,-29.720474
1426879260.549,-24.330719
1426879260.565,-18.195969
1426879260.58,-11.252487
1426879260.596,-3.5816956
1426879260.612,4.601776
1426879260.627,12.933746
1426879260.643,21.048126
1426879260.659,28.62149
1426879260.674,35.566498
1426879260.69,42.03267
1426879260.705,48.452713
1426879260.721,55.403915
1426879260.737,63.49202
1426879260.752,73.057205
1426879260.768,83.992035
1426879260.784,95.495895
1426879260.799,106.03775
1426879260.815,113.55893
1426879260.83,115.958694
1426879260.846,111.66327
1426879260.862,100.17685
1426879260.877,82.29497
1426879260.893,59.92462
1426879260.909,35.582672
1426879260.924,11.771317
1426879260.94,-9.613007
1426879260.955,-27.458832
1426879260.971,-41.422577
1426879260.987,-51.66118
1426879261.002,-58.559235
1426879261.018,-62.57634
1426879261.034,-64.1956
1426879261.049,-63.96733
1426879261.065,-62.470505
1426879261.08,-60.28772
1426879261.096,-57.9451
1426879261.112,-55.797226
1426879261.127,-54.06743
1426879261.143,-52.822968
1426879261.159,-52.051346
1426879261.174,-51.691208
1426879261.19,-51.658005
1426879261.205,-51.888412
1426879261.221,-52.360703
1426879261.237,-53.03868
1426879261.252,-53.81328
1426879261.268,-54.382614
1426879261.284,-54.265152
1426879261.299,-52.878937
1426879261.315,-49.81462
1426879261.33,-45.068558
1426879261.346,-39.060913
1426879261.362,-32.52826
1426879261.377,-26.158737
1426879261.393,-20.274109
1426879261.409,-14.699844
1426879261.424,-8.889389
1426879261.44,-2.2829437
1426879261.455,5.389435
1426879261.471,13.905365
1426879261.487,22.691284
1426879261.502,31.021545
1426879261.518,38.397614
1426879261.534,44.70282
1426879261.549,50.278183
1426879261.565,55.841248
1426879261.58,62.249634
1426879261.596,70.245926
1426879261.612,80.1488
1426879261.627,91.54445
1426879261.643,103.18416
1426879261.659,113.06464
1426879261.674,118.87137
1426879261.69,118.55774
1426879261.705,111.00569
1426879261.721,96.38222
1426879261.737,76.14015
1426879261.752,52.61331
1426879261.768,28.398697
1426879261.784,5.765854
1426879261.799,-13.714478
1426879261.815,-29.30336
1426879261.83,-40.906555
1426879261.846,-48.858856
1426879261.862,-53.660248
1426879261.877,-55.892807
1426879261.893,-56.12245
1426879261.909,-54.940094
1426879261.924,-52.924133
1426879261.94,-50.61136
1426879261.955,-48.380478
1426879261.971,-46.413895
1426879261.987,-44.731964
1426879262.002,-43.281082
1426879262.018,-42.05696
1426879262.034,-41.178665
1426879262.049,-40.832764
1426879262.065,-41.14415
1426879262.08,-42.001648
1426879262.096,-43.025253
1426879262.112,-43.648865
1426879262.127,-43.302856
1426879262.143,-41.58348
1426879262.159,-38.41562
1426879262.174,-34.022614
1426879262.19,-28.843842
1426879262.205,-23.322632
1426879262.221,-17.785461
1426879262.237,-12.273773
1426879262.252,-6.5660553
1426879262.268,-0.29501343
1426879262.284,6.8556366
1426879262.299,14.8941345
1426879262.315,23.353699
1426879262.33,31.331573
1426879262.346,37.659607
1426879262.362,41.290314
1426879262.377,41.693497
1426879262.393,39.151077
1426879262.409,34.819733
1426879262.424,30.54071
1426879262.44,28.358353
1426879262.455,29.950699
1426879262.471,36.055695
1426879262.487,46.1492
1426879262.502,58.353928
1426879262.518,69.92221
1426879262.534,77.90021
1426879262.549,79.92616
1426879262.565,74.797165
1426879262.58,62.726486
1426879262.596,45.0822
1426879262.612,23.96878
1426879262.627,1.688385
1426879262.643,-19.677582
1426879262.659,-38.491333
1426879262.674,-53.64525
1426879262.69,-64.58844
1426879262.705,-71.3116
1426879262.721,-74.304825
1426879262.737,-74.42952
1426879262.752,-72.70233
1426879262.768,-70.01222
1426879262.784,-66.9872
1426879262.799,-63.91243
1426879262.815,-60.850113
1426879262.83,-57.794586
1426879262.846,-54.85646
1426879262.862,-52.267136
1426879262.877,-50.331253
1426879262.893,-49.223938
1426879262.909,-48.854797
1426879262.924,-48.818573
1426879262.94,-48.49736
1426879262.956,-47.300186
1426879262.971,-44.882736
1426879262.987,-41.24193
1426879263.002,-36.685287
1426879263.018,-31.613174
1426879263.034,-26.303726
1426879263.049,-20.802353
1426879263.065,-14.972244
1426879263.081,-8.559021
1426879263.096,-1.4297714
1426879263.112,6.3858566
1426879263.127,14.618225
1426879263.143,22.902252
1426879263.159,30.892471
1426879263.174,38.410645
1426879263.19,45.51452
1426879263.206,52.467415
1426879263.221,59.612465
1426879263.237,67.324356
1426879263.252,75.89827
1426879263.268,85.43706
1426879263.284,95.64262
1426879263.299,105.61637
1426879263.315,113.76611
1426879263.331,118.01354
1426879263.346,116.35217
1426879263.362,107.549934
1426879263.377,91.736336
1426879263.393,70.54279
1426879263.409,46.62877
1426879263.424,22.91098
1426879263.44,1.7169876
1426879263.456,-15.661095
1426879263.471,-29.001808
1426879263.487,-38.72956
1426879263.502,-45.51345
1426879263.518,-49.935432
1426879263.534,-52.449326
1426879263.549,-53.388283
1426879263.565,-53.103867
1426879263.581,-51.926704
1426879263.596,-50.156403
1426879263.612,-47.9795
1426879263.627,-45.48192
1426879263.643,-42.729797
1426879263.659,-39.88542
1426879263.674,-37.26098
1426879263.69,-35.304993
1426879263.706,-34.452522
1426879263.721,-34.901543
1426879263.737,-36.481117
1426879263.752,-38.61512
1426879263.768,-40.466843
1426879263.784,-41.227528
1426879263.799,-40.375786
1426879263.815,-37.844357
1426879263.831,-33.98328
1426879263.846,-29.38551
1426879263.862,-24.572674
1426879263.877,-19.794388
1426879263.893,-14.868759
1426879263.909,-9.363174
1426879263.924,-2.8176079
1426879263.94,4.9233246
1426879263.956,13.588192
1426879263.971,22.510231
1426879263.987,30.933495
1426879264.002,38.37102
1426879264.018,44.82946
1426879264.034,50.859497
1426879264.049,57.324116
1426879264.065,65.049545
1426879264.081,74.4836
1426879264.096,85.38292
1426879264.112,96.73987
1426879264.127,106.81482
1426879264.143,113.495544
1426879264.159,114.78716
1426879264.174,109.42963
1426879264.19,97.27869
1426879264.206,79.42474
1426879264.221,57.87236
1426879264.237,34.977947
1426879264.252,12.872337
1426879264.268,-6.902317
1426879264.284,-23.48449
1426879264.299,-36.51393
1426879264.315,-45.96222
1426879264.331,-51.970116
1426879264.346,-54.860195
1426879264.362,-55.147263
1426879264.377,-53.518562
1426879264.393,-50.752663
1426879264.409,-47.570686
1426879264.424,-44.493217
1426879264.44,-41.81918
1426879264.456,-39.649254
1426879264.471,-37.989914
1426879264.487,-36.781464
1426879264.502,-36.005234
1426879264.518,-35.651062
1426879264.534,-35.734932
1426879264.549,-36.258736
1426879264.565,-37.141174
1426879264.581,-38.123318
1426879264.596,-38.716255
1426879264.612,-38.32292
1426879264.627,-36.37619
1426879264.643,-32.60659
1426879264.659,-27.255478
1426879264.674,-20.961304
1426879264.69,-14.588919
1426879264.706,-8.768301
1426879264.721,-3.622179
1426879264.737,1.3181171
1426879264.752,6.801773
1426879264.768,13.45269
1426879264.784,21.332329
1426879264.799,29.936337
1426879264.815,38.35448
1426879264.831,45.808105
1426879264.846,52.03835
1426879264.862,57.51728
1426879264.877,63.247246
1426879264.893,70.35863
1426879264.909,79.520065
1426879264.924,90.475784
1426879264.94,101.81831
1426879264.956,111.21372
1426879264.971,115.96573
1426879264.987,113.86235
1426879265.002,103.9442
1426879265.018,86.88444
1426879265.034,64.81983
1426879265.049,40.664642
1426879265.065,17.24535
1426879265.081,-3.40164
1426879265.096,-20.307432
1426879265.112,-33.386353
1426879265.127,-43.047546
1426879265.143,-49.73504
1426879265.159,-53.80688
1426879265.174,-55.52541
1426879265.19,-55.232708
1426879265.206,-53.434933
1426879265.221,-50.787174
1426879265.237,-47.93528
1426879265.252,-45.381252
1426879265.268,-43.364697
1426879265.284,-41.918083
1426879265.299,-40.95783
1426879265.315,-40.378864
1426879265.331,-40.152973
1426879265.346,-40.300705
1426879265.362,-40.805367
1426879265.377,-41.529327
1426879265.393,-42.191185
1426879265.409,-42.42257
1426879265.424,-41.852665
1426879265.44,-40.25685
1426879265.456,-37.543797
1426879265.471,-33.73474
1426879265.487,-28.904305
1426879265.502,-23.163723
1426879265.518,-16.666588
1426879265.534,-9.65052
1426879265.549,-2.3714676
1426879265.565,4.926491
1426879265.581,12.121929
1426879265.596,19.16093
1426879265.612,26.033665
1426879265.628,32.687416
1426879265.643,39.114407
1426879265.659,45.40411
1426879265.674,51.90348
1426879265.69,59.194035
1426879265.706,67.78866
1426879265.721,77.731285
1426879265.737,88.18884
1426879265.753,97.36019
1426879265.768,102.86951
1426879265.784,102.48566
1426879265.799,94.93295
1426879265.815,80.37082
1426879265.831,60.387753
1426879265.846,37.525475
1426879265.862,14.495197
1426879265.878,-6.507965
1426879265.893,-24.152939
1426879265.909,-38.03601
1426879265.924,-48.33094
1426879265.94,-55.45263
1426879265.956,-59.78781
1426879265.971,-61.57914
1426879265.987,-61.069283
1426879266.003,-58.65468
1426879266.018,-54.929733
1426879266.034,-50.654404
1426879266.049,-46.57624
1426879266.065,-43.252686
1426879266.081,-40.900467
1426879266.096,-39.450134
1426879266.112,-38.65538
1426879266.128,-38.26056
1426879266.143,-38.07897
1426879266.159,-38.0338
1426879266.174,-38.049828
1426879266.19,-37.981506
1426879266.206,-37.607613
1426879266.221,-36.658463
1426879266.237,-34.919197
1426879266.253,-32.245842
1426879266.268,-28.59095
1426879266.284,-23.98674
1426879266.299,-18.461037
1426879266.315,-12.13269
1426879266.331,-5.1769943
1426879266.346,2.1098251
1426879266.362,9.392052
1426879266.378,16.363358
1426879266.393,22.9085
1426879266.409,29.12542
1426879266.424,35.365433
1426879266.44,42.1034
1426879266.456,49.822456
1426879266.471,58.833115
1426879266.487,69.13802
1426879266.503,80.24346
1426879266.518,91.06728
1426879266.534,99.941635
1426879266.549,104.943726
1426879266.565,104.30014
1426879266.581,97.00684
1426879266.596,83.13511
1426879266.612,63.975838
1426879266.628,41.674026
1426879266.643,18.758148
1426879266.659,-2.4895172
1426879266.674,-20.429688
1426879266.69,-34.279617
1426879266.706,-44.05223
1426879266.721,-50.341454
1426879266.737,-54.005867
1426879266.753,-55.860954
1426879266.768,-56.472336
1426879266.784,-56.090836
1426879266.799,-54.744843
1426879266.815,-52.44906
1426879266.831,-49.323112
1426879266.846,-45.75656
1426879266.862,-42.269524
1426879266.878,-39.420425
1426879266.893,-37.57419
1426879266.909,-36.858078
1426879266.924,-37.056
1426879266.94,-37.801712
1426879266.956,-38.616676
1426879266.971,-39.066147
1426879266.987,-38.861473
1426879267.003,-37.875763
1426879267.018,-36.09149
1426879267.034,-33.60093
1426879267.049,-30.448296
1426879267.065,-26.62735
1426879267.081,-22.066002
1426879267.096,-16.698402
1426879267.112,-10.515625
1426879267.128,-3.6731186
1426879267.143,3.590622
1426879267.159,10.972183
1426879267.174,18.232803
1426879267.19,25.229904
1426879267.206,31.979881
1426879267.221,38.55606
1426879267.237,45.119537
1426879267.253,51.91288
1426879267.268,59.28775
1426879267.284,67.63729
1426879267.299,77.24094
1426879267.315,87.85649
1426879267.331,98.49639
1426879267.346,107.31875
1426879267.362,112.04483
1426879267.378,110.65225
1426879267.393,102.09558
1426879267.409,86.74876
1426879267.424,66.336174
1426879267.44,43.344627
1426879267.456,20.263077
1426879267.471,-0.9797821
1426879267.487,-19.28128
1426879267.503,-34.273148
1426879267.518,-45.98105
1426879267.534,-54.61696
1426879267.549,-60.46675
1426879267.565,-63.91072
1426879267.581,-65.429855
1426879267.596,-65.585266
1426879267.612,-64.879456
1426879267.628,-63.6875
1426879267.643,-62.212296
1426879267.659,-60.558533
1426879267.674,-58.80681
1426879267.69,-57.115646
1426879267.706,-55.672134
1426879267.721,-54.653885
1426879267.737,-54.14717
1426879267.753,-54.099197
1426879267.768,-54.306458
1426879267.784,-54.511475
1426879267.799,-54.388077
1426879267.815,-53.60289
1426879267.831,-51.837692
1426879267.846,-48.840775
1426879267.862,-44.512604
1426879267.878,-39.011993
1426879267.893,-32.713257
1426879267.909,-26.145554
1426879267.924,-19.743835
1426879267.94,-13.686203
1426879267.956,-7.7904205
1426879267.971,-1.6954193
1426879267.987,4.9980774
1426879268.003,12.432312
1426879268.018,20.418335
1426879268.034,28.481003
1426879268.049,36.062805
1426879268.065,42.7612
1426879268.081,48.536118
1426879268.096,53.722794
1426879268.112,59.002426
1426879268.128,65.16795
1426879268.143,72.88794
1426879268.159,82.337845
1426879268.174,93.01018
1426879268.19,103.566925
1426879268.206,111.98932
1426879268.221,116.031006
1426879268.237,113.86438
1426879268.253,104.626434
1426879268.268,88.76407
1426879268.284,67.94884
1426879268.3,44.63675
1426879268.315,21.35112
1426879268.331,0.14227295
1426879268.346,-17.793488
1426879268.362,-32.06311
1426879268.378,-42.890305
1426879268.393,-50.72896
1426879268.409,-56.033066
1426879268.424,-59.149796
1426879268.44,-60.358078
1426879268.456,-59.94876
1426879268.471,-58.335983
1426879268.487,-56.07094
1426879268.503,-53.751266
1426879268.518,-51.84468
1426879268.534,-50.571808
1426879268.55,-49.881577
1426879268.565,-49.583588
1426879268.581,-49.517227
1426879268.596,-49.693665
1426879268.612,-50.203033
1426879268.628,-51.086136
1426879268.643,-52.119095
1426879268.659,-52.825394
1426879268.675,-52.623703
1426879268.69,-51.05536
1426879268.706,-48.003647
1426879268.721,-43.719437
1426879268.737,-38.67273
1426879268.753,-33.322525
1426879268.768,-27.910889
1426879268.784,-22.443985
1426879268.8,-16.742996
1426879268.815,-10.600845
1426879268.831,-3.902542
1426879268.846,3.3059998
1426879268.862,10.831848
1426879268.878,18.364853
1426879268.893,25.58612
1426879268.909,32.252396
1426879268.925,38.35089
1426879268.94,44.095123
1426879268.956,49.941635
1426879268.971,56.434753
1426879268.987,64.04639
1426879269.003,72.902176
1426879269.018,82.52309
1426879269.034,91.71884
1426879269.05,98.68103
1426879269.065,101.338394
1426879269.081,97.976974
1426879269.096,87.849365
1426879269.112,71.50842
1426879269.128,50.727768
1426879269.143,28.011765
1426879269.159,5.8583374
1426879269.175,-13.874832
1426879269.19,-30.220276
1426879269.206,-43.01915
1426879269.221,-52.545166
1426879269.237,-59.15602
1426879269.253,-63.15457
1426879269.268,-64.81668
1426879269.284,-64.52501
1426879269.3,-62.814728
1426879269.315,-60.31456
1426879269.331,-57.54802
1426879269.346,-54.822586
1426879269.362,-52.219536
1426879269.378,-49.769173
1426879269.393,-47.585396
1426879269.409,-45.957726
1426879269.425,-45.18238
1426879269.44,-45.374733
1426879269.456,-46.2854
1426879269.471,-47.336395
1426879269.487,-47.811554
1426879269.503,-47.1588
1426879269.518,-45.160812
1426879269.534,-41.947113
1426879269.55,-37.809998
1426879269.565,-33.00284
1426879269.581,-27.609306
1426879269.596,-21.613472
1426879269.612,-14.986191
1426879269.628,-7.805031
1426879269.643,-0.23625183
1426879269.659,7.4823837
1426879269.675,15.207794
1426879269.69,22.788742
1426879269.706,30.072952
1426879269.721,36.86991
1426879269.737,43.018036
1426879269.753,48.5308
1426879269.768,53.755234
1426879269.784,59.365158
1426879269.8,66.19661
1426879269.815,74.833954
1426879269.831,85.16449
1426879269.846,96.119156
1426879269.862,105.724525
1426879269.878,111.5765
1426879269.893,111.547844
1426879269.909,104.467064
1426879269.925,90.5373
1426879269.94,71.22552
1426879269.956,48.898376
1426879269.971,26.108932
1426879269.987,5.058563
1426879270.003,-12.815491
1426879270.018,-26.94674
1426879270.034,-37.513123
1426879270.05,-45.075706
1426879270.065,-50.27128
1426879270.081,-53.563934
1426879270.096,-55.243645
1426879270.112,-55.46187
1426879270.128,-54.456932
1426879270.143,-52.618164
1426879270.159,-50.444534
1426879270.175,-48.356987
1426879270.19,-46.578133
1426879270.206,-45.12925
1426879270.221,-43.972275
1426879270.237,-43.103775
1426879270.253,-42.67575
1426879270.268,-42.861675
1426879270.284,-43.66601
1426879270.3,-44.757957
1426879270.315,-45.56691
1426879270.331,-45.460075
1426879270.346,-44.02516
1426879270.362,-41.199566
1426879270.378,-37.25186
1426879270.393,-32.593483
1426879270.409,-27.585598
1426879270.425,-22.434448
1426879270.44,-17.133755
1426879270.456,-11.544067
1426879270.471,-5.4572754
1426879270.487,1.2663612
1426879270.503,8.636429
1426879270.518,16.505573
1426879270.534,24.556366
1426879270.55,32.36127
1426879270.565,39.5027
1426879270.581,45.74595
1426879270.596,51.130623
1426879270.612,56.088776
1426879270.628,61.366444
1426879270.643,67.816025
1426879270.659,76.04292
1426879270.675,85.99735
1426879270.69,96.718765
1426879270.706,106.38777
1426879270.721,112.6757
1426879270.737,113.38616
1426879270.753,107.10401
1426879270.768,93.69144
1426879270.784,74.35141
1426879270.8,51.34079
1426879270.815,27.318176
1426879270.831,4.7476597
1426879270.846,-14.661633
1426879270.862,-30.092775
1426879270.878,-41.59035
1426879270.893,-49.714188
1426879270.909,-55.199867
1426879270.925,-58.66951
1426879270.94,-60.4954
1426879270.956,-60.87835
1426879270.971,-59.984543
1426879270.987,-58.112198
1426879271.003,-55.729275
1426879271.018,-53.35482
1426879271.034,-51.40663
1426879271.05,-50.04831
1426879271.065,-49.191017
1426879271.081,-48.632164
1426879271.096,-48.199005
1426879271.112,-47.848362
1426879271.128,-47.65254
1426879271.143,-47.635487
1426879271.159,-47.66261
1426879271.175,-47.41135
1426879271.19,-46.48941
1426879271.206,-44.586094
1426879271.222,-41.598694
1426879271.237,-37.65365
1426879271.253,-33.024097
1426879271.268,-28.058617
1426879271.284,-23.074026
1426879271.3,-18.27227
1426879271.315,-13.738228
1426879271.331,-9.357413
1426879271.347,-4.858159
1426879271.362,0.102547646
1426879271.378,5.7996893
1426879271.393,12.322127
1426879271.409,19.454723
1426879271.425,26.78498
1426879271.44,33.85528
1426879271.456,40.27751
1426879271.472,45.916996
1426879271.487,50.929832
1426879271.503,55.772854
1426879271.518,61.183556
1426879271.534,67.980934
1426879271.55,76.760345
1426879271.565,87.47941
1426879271.581,99.12539
1426879271.597,109.67018
1426879271.612,116.60309
1426879271.628,117.573746
1426879271.643,111.267715
1426879271.659,97.75344
1426879271.675,78.47818
1426879271.69,55.684315
1426879271.706,31.810219
1426879271.722,8.91185
1426879271.737,-11.529932
1426879271.753,-28.58585
1426879271.768,-41.781376
1426879271.784,-50.997074
1426879271.8,-56.46967
1426879271.815,-58.793785
1426879271.831,-58.81726
1426879271.847,-57.467487
1426879271.862,-55.535027
1426879271.878,-53.519325
1426879271.893,-51.585453
1426879271.909,-49.676434
1426879271.925,-47.635456
1426879271.94,-45.37462
1426879271.956,-42.994083
1426879271.972,-40.828327
1426879271.987,-39.32292
1426879272.003,-38.856266
1426879272.018,-39.556873
1426879272.034,-41.138313
1426879272.05,-42.923862
1426879272.065,-44.054226
1426879272.081,-43.727406
1426879272.097,-41.45093
1426879272.112,-37.180927
1426879272.128,-31.333443
1426879272.143,-24.587337
1426879272.159,-17.750153
1426879272.175,-11.437607
1426879272.19,-5.9106483
1426879272.206,-0.9604416
1426879272.222,4.009987
1426879272.237,9.70837
1426879272.253,16.547142
1426879272.268,24.369186
1426879272.284,32.391758
1426879272.3,39.57271
1426879272.315,45.107964
1426879272.331,48.92564
1426879272.347,51.78784
1426879272.362,55.035835
1426879272.378,59.989372
1426879272.393,67.36595
1426879272.409,76.92142
1426879272.425,87.49698
1426879272.44,97.32883
1426879272.456,104.48668
1426879272.472,107.23575
1426879272.487,104.32835
1426879272.503,95.21303
1426879272.518,80.13167
1426879272.534,60.15376
1426879272.55,37.10279
1426879272.565,13.240917
1426879272.581,-9.130451
1426879272.597,-28.183239
1426879272.612,-42.892292
1426879272.628,-53.14674
1426879272.643,-59.527645
1426879272.659,-62.977177
1426879272.675,-64.33688
1426879272.69,-64.16598
1426879272.706,-62.679306
1426879272.722,-59.97948
1426879272.737,-56.246986
1426879272.753,-51.884865
1426879272.768,-47.452927
1426879272.784,-43.51723
1426879272.8,-40.47113
1426879272.815,-38.471058
1426879272.831,-37.418304
1426879272.847,-37.09211
1426879272.862,-37.195724
1426879272.878,-37.42992
1426879272.893,-37.47128
1426879272.909,-36.99955
1426879272.925,-35.73315
1426879272.94,-33.50409
1426879272.956,-30.316063
1426879272.972,-26.343105
1426879272.987,-21.79554
1426879273.003,-16.801865
1426879273.018,-11.303661
1426879273.034,-5.099022
1426879273.05,1.9664803
1426879273.065,9.795914
1426879273.081,18.012615
1426879273.097,26.016243
1426879273.112,33.30423
1426879273.128,39.782063
1426879273.143,45.813095
1426879273.159,52.09877
1426879273.175,59.36618
1426879273.19,68.026924
1426879273.206,78.00891
1426879273.222,88.66517
1426879273.237,98.87105
1426879273.253,107.0315
1426879273.268,111.37244
1426879273.284,110.18625
1426879273.3,102.34468
1426879273.315,87.70589
1426879273.331,67.41345
1426879273.347,43.70884
1426879273.362,19.399872
1426879273.378,-2.8926353
1426879273.393,-21.35085
1426879273.409,-35.244564
1426879273.425,-44.78866
1426879273.44,-50.73376
1426879273.456,-53.918034
1426879273.472,-55.0323
1426879273.487,-54.537304
1426879273.503,-52.750816
1426879273.518,-49.966766
1426879273.534,-46.509434
1426879273.55,-42.758965
1426879273.565,-39.158295
1426879273.581,-36.128098
1426879273.597,-34.02774
1426879273.612,-33.010704
1426879273.628,-32.991085
1426879273.643,-33.567802
1426879273.659,-34.156662
1426879273.675,-34.187126
1426879273.69,-33.323334
1426879273.706,-31.568058
1426879273.722,-29.215845
1426879273.737,-26.549065
1426879273.753,-23.60099
1426879273.768,-20.042768
1426879273.784,-15.335232
1426879273.8,-9.06646
1426879273.815,-1.2762775
1426879273.831,7.482519
1426879273.847,16.393871
1426879273.862,24.731499
1426879273.878,32.183407
1426879273.894,38.972137
1426879273.909,45.63597
1426879273.925,52.77186
1426879273.94,60.84522
1426879273.956,70.106575
1426879273.972,80.59244
1426879273.987,92.05393
1426879274.003,103.69014
1426879274.019,114.03567
1426879274.034,120.94493
1426879274.05,122.15424
1426879274.065,116.01385
1426879274.081,102.224945
1426879274.097,82.090225
1426879274.112,58.146393
1426879274.128,33.33571
1426879274.144,10.14905
1426879274.159,-9.885031
1426879274.175,-26.17166
1426879274.19,-38.746906
1426879274.206,-47.861458
1426879274.222,-53.81568
1426879274.237,-56.92412
1426879274.253,-57.62268
1426879274.269,-56.495293
1426879274.284,-54.164318
1426879274.3,-51.170128
1426879274.315,-47.93618
1426879274.331,-44.791615
1426879274.347,-42.029137
1426879274.362,-39.891758
1426879274.378,-38.497314
1426879274.394,-37.74987
1426879274.409,-37.394554
1426879274.425,-37.0959
1426879274.44,-36.613342
1426879274.456,-35.85469
1426879274.472,-34.840385
1426879274.487,-33.51732
1426879274.503,-31.694511
1426879274.519,-28.979866
1426879274.534,-24.98655
1426879274.55,-19.48983
1426879274.565,-12.635056
1426879274.581,-4.913948
1426879274.597,2.9955978
1426879274.612,10.502594
1426879274.628,17.362244
1426879274.644,23.779663
1426879274.659,30.32219
1426879274.675,37.70037
1426879274.69,46.48855
1426879274.706,56.871445
1426879274.722,68.49359
1426879274.737,80.437
1426879274.753,91.30023
1426879274.769,99.4173
1426879274.784,103.09903
1426879274.8,101.01277
1426879274.815,92.46721
1426879274.831,77.6656
1426879274.847,57.722473
1426879274.862,34.516785
1426879274.878,10.342377
1426879274.894,-12.538788
1426879274.909,-32.327515
1426879274.925,-47.938232
1426879274.94,-59.09114
1426879274.956,-66.13451
1426879274.972,-69.80376
1426879274.987,-70.87831
1426879275.003,-70.010376
1426879275.019,-67.631485
1426879275.034,-64.13245
1426879275.05,-59.892166
1426879275.065,-55.411957
1426879275.081,-51.20993
1426879275.097,-47.67598
1426879275.112,-44.940308
1426879275.128,-42.899323
1426879275.144,-41.318237
1426879275.159,-40.0094
1426879275.175,-38.9227
1426879275.19,-38.03308
1426879275.206,-37.169373
1426879275.222,-35.899536
1426879275.237,-33.568787
1426879275.253,-29.531708
1426879275.269,-23.45018
1426879275.284,-15.53949
1426879275.3,-6.484543
1426879275.315,2.7822723
1426879275.331,11.490982
1426879275.347,19.340546
1426879275.362,26.623749
1426879275.378,34.112885
1426879275.394,42.808105
1426879275.409,53.483856
1426879275.425,66.28937
1426879275.44,80.3905
1426879275.456,93.9104
1426879275.472,104.18515
1426879275.487,108.498505
1426879275.503,104.941895
1426879275.519,93.18146
1426879275.534,74.65787
1426879275.55,52.256714
1426879275.565,29.334564
1426879275.581,8.752502
1426879275.597,-7.8562927
1426879275.612,-20.229614
1426879275.628,-29.113342
1426879275.644,-35.619415
1426879275.659,-40.663177
1426879275.675,-44.729187
1426879275.69,-47.94751
1426879275.706,-50.326324
1426879275.722,-51.980316
1426879275.737,-53.124725
1426879275.753,-53.979706
1426879275.769,-54.52881
1426879275.784,-54.586212
1426879275.8,-53.901886
1426879275.815,-52.497284
1426879275.831,-50.741425
1426879275.847,-49.27838
1426879275.862,-48.629272
1426879275.878,-48.839813
1426879275.894,-49.349213
1426879275.909,-49.249786
1426879275.925,-47.732086
1426879275.94,-44.428436
1426879275.956,-39.491455
1426879275.972,-33.33658
1426879275.987,-26.341675
1426879276.003,-18.659668
1426879276.019,-10.297943
1426879276.034,-1.379303
1426879276.05,7.8026123
1426879276.065,16.837646
1426879276.081,25.5719
1426879276.097,34.29361
1426879276.112,43.806793
1426879276.128,55.013855
1426879276.144,68.36185
1426879276.159,83.252075
1426879276.175,97.87482
1426879276.19,109.47043
1426879276.206,115.09119
1426879276.222,112.55539
1426879276.237,101.24301
1426879276.253,82.31708
1426879276.269,58.402283
1426879276.284,32.672516
1426879276.3,7.994049
1426879276.315,-13.819763
1426879276.331,-32.063843
1426879276.347,-46.867065
1426879276.362,-58.637543
1426879276.378,-67.70712
1426879276.394,-74.1727
1426879276.409,-78.05209
1426879276.425,-79.5014
1426879276.44,-78.92584
1426879276.456,-76.93085
1426879276.472,-74.17169
1426879276.487,-71.194916
1426879276.503,-68.3548
1426879276.519,-65.806915
1426879276.534,-63.56897
1426879276.55,-61.545074
1426879276.566,-59.56079
1426879276.581,-57.390533
1426879276.597,-54.827057
1426879276.612,-51.72824
1426879276.628,-48.115326
1426879276.644,-44.155273
1426879276.659,-40.092102
1426879276.675,-36.00885
1426879276.691,-31.746552
1426879276.706,-26.90564
1426879276.722,-21.053406
1426879276.737,-13.962128
1426879276.753,-5.761505
1426879276.769,3.1638794
1426879276.784,12.428955
1426879276.8,21.880981
1426879276.816,31.642517
1426879276.831,41.89926
1426879276.847,52.696777
1426879276.862,63.859436
1426879276.878,75.20099
1426879276.894,86.74231
1426879276.909,98.66794
1426879276.925,110.90741
1426879276.941,122.54291
1426879276.956,131.50601
1426879276.972,134.9021
1426879276.987,130.143
1426879277.003,116.167175
1426879277.019,94.19937
1426879277.034,67.36969
1426879277.05,39.449615
1426879277.066,13.400299
1426879277.081,-9.415985
1426879277.097,-29.02652
1426879277.112,-45.899384
1426879277.128,-60.102844
1426879277.144,-71.15915
1426879277.159,-78.56976
1426879277.175,-82.50406
1426879277.191,-84.03726
1426879277.206,-84.68143
1426879277.222,-85.6001
1426879277.237,-87.01428
1426879277.253,-88.27557
1426879277.269,-88.47464
1426879277.284,-87.21039
1426879277.3,-84.89493
1426879277.316,-82.48367
1426879277.331,-80.78827
1426879277.347,-79.95227
1426879277.362,-79.32074
1426879277.378,-77.862366
1426879277.394,-74.73364
1426879277.409,-69.75879
1426879277.425,-63.434906
1426879277.441,-56.59842
1426879277.456,-49.881897
1426879277.472,-43.381897
1426879277.487,-36.58316
1426879277.503,-28.722565
1426879277.519,-19.259888
1426879277.534,-8.292755
1426879277.55,3.4317017
1426879277.566,14.8142395
1426879277.581,25.010712
1426879277.597,33.825134
1426879277.612,41.837402
1426879277.628,50.131622
1426879277.644,59.81909
1426879277.659,71.541046
1426879277.675,85.13809
1426879277.691,99.56009
1426879277.706,112.996
1426879277.722,123.205536
1426879277.737,127.97427
1426879277.753,125.59042
1426879277.769,115.33142
1426879277.784,97.71518
1426879277.8,74.58176
1426879277.816,48.676483
1426879277.831,23.11029
1426879277.847,0.5376282
1426879277.862,-17.444397
1426879277.878,-30.59549
1426879277.894,-39.77539
1426879277.909,-46.37262
1426879277.925,-51.569366
1426879277.941,-55.832245
1426879277.956,-58.84491
1426879277.972,-59.9628
1426879277.987,-58.81787
1426879278.003,-55.815643
1426879278.019,-52.09265
1426879278.034,-48.9823
1426879278.05,-47.29071
1426879278.066,-46.896027
1426879278.081,-46.852844
1426879278.097,-46.0459
1426879278.112,-43.848816
1426879278.128,-40.500183
1426879278.144,-36.753662
1426879278.159,-33.264435
1426879278.175,-29.935242
1426879278.191,-25.908264
1426879278.206,-20.123901
1426879278.222,-12.130249
1426879278.237,-2.671875
1426879278.253,6.5009766
1426879278.269,13.5078125
1426879278.284,17.43283
1426879278.3,18.977356
1426879278.316,20.216858
1426879278.331,23.665588
1426879278.347,31.011597
1426879278.362,42.37738
1426879278.378,56.250946
1426879278.394,70.207214
1426879278.409,81.814026
1426879278.425,89.38052
1426879278.441,92.10489
1426879278.456,89.861664
1426879278.472,82.80423
1426879278.487,71.22626
1426879278.503,55.626892
1426879278.519,36.904175
1426879278.534,16.34021
1426879278.55,-4.571411
1426879278.566,-24.540405
1426879278.581,-42.67398
1426879278.597,-58.401
1426879278.612,-71.23334
1426879278.628,-80.57715
1426879278.644,-85.79672
1426879278.659,-86.502716
1426879278.675,-82.861755
1426879278.691,-75.71622
1426879278.706,-66.38333
1426879278.722,-56.239227
1426879278.737,-46.38141
1426879278.753,-37.514954
1426879278.769,-30.0336
1426879278.784,-24.221771
1426879278.8,-20.291779
1426879278.816,-18.25415
1426879278.831,-17.74121
1426879278.847,-17.960938
1426879278.862,-17.870789
1426879278.878,-16.587036
1426879278.894,-13.735535
1426879278.909,-9.592102
1426879278.925,-4.8578186
1426879278.941,-0.17623901
1426879278.956,4.323242
1426879278.972,9.263458
1426879278.987,15.7968445
1426879279.003,25.086395
1426879279.019,37.587677
1426879279.034,52.483734
1426879279.05,67.68713
1426879279.066,80.38901
1426879279.081,87.9552
1426879279.097,88.7634
1426879279.112,82.63266
1426879279.128,70.59143
1426879279.144,54.355194
1426879279.159,35.67816
1426879279.175,16.090515
1426879279.191,-3.1038513
1426879279.206,-20.656067
1426879279.222,-35.394714
1426879279.238,-46.392883
1426879279.253,-53.33664
1426879279.269,-56.61792
1426879279.284,-57.135864
1426879279.3,-55.86136
1426879279.316,-53.374756
1426879279.331,-49.803802
1426879279.347,-45.04712
1426879279.362,-39.22232
1426879279.378,-32.888947
1426879279.394,-26.936737
1426879279.409,-22.249634
1426879279.425,-19.281525
1426879279.441,-17.881317
1426879279.456,-17.384674
1426879279.472,-16.935608
1426879279.488,-15.850891
1426879279.503,-13.840515
1426879279.519,-11.019928
1426879279.534,-7.779297
1426879279.55,-4.5173035
1426879279.566,-1.4627075
1426879279.581,1.5234985
1426879279.597,4.8884583
1426879279.613,9.299088
1426879279.628,15.423569
1426879279.644,23.722183
1426879279.659,34.251923
1426879279.675,46.555145
1426879279.691,59.596725
1426879279.706,71.79974
1426879279.722,81.21422
1426879279.738,85.87135
1426879279.753,84.18198
1426879279.769,75.45592
1426879279.784,60.173904
1426879279.8,40.040085
1426879279.816,17.610931
1426879279.831,-4.2799225
1426879279.847,-23.236359
1426879279.863,-37.82953
1426879279.878,-47.811096
1426879279.894,-53.865936
1426879279.909,-57.10852
1426879279.925,-58.546326
1426879279.941,-58.688614
1426879279.956,-57.509583
1426879279.972,-54.785904
1426879279.988,-50.436066
1426879280.003,-44.818787
1426879280.019,-38.675262
1426879280.034,-32.901947
1426879280.05,-28.112167
1426879280.066,-24.483124
1426879280.081,-21.721802
1426879280.097,-19.328827
1426879280.113,-16.885773
1426879280.128,-14.214081
1426879280.144,-11.349472
1426879280.159,-8.3703
1426879280.175,-5.2155914
1426879280.191,-1.6297607
1426879280.206,2.729309
1426879280.222,8.053879
1426879280.238,14.334198
1426879280.253,21.381287
1426879280.269,29.118423
1426879280.284,37.717728
1426879280.3,47.609695
1426879280.316,59.127594
1426879280.331,71.9706
1426879280.347,84.8156
1426879280.363,95.41527
1426879280.378,101.133804
1426879280.394,99.89989
1426879280.409,90.95613
1426879280.425,75.19692
1426879280.441,54.831512
1426879280.456,32.679237
1426879280.472,11.30732
1426879280.488,-7.4982224
1426879280.503,-22.877426
1426879280.519,-34.719498
1426879280.534,-43.303383
1426879280.55,-49.019073
1426879280.566,-52.237717
1426879280.581,-53.249207
1426879280.597,-52.366974
1426879280.613,-49.933876
1426879280.628,-46.36312
1426879280.644,-42.070084
1426879280.659,-37.466454
1426879280.675,-32.90619
1426879280.691,-28.712807
1426879280.706,-25.132591
1426879280.722,-22.349335
1426879280.738,-20.403564
1426879280.753,-19.12922
1426879280.769,-18.09262
1426879280.784,-16.70604
1426879280.8,-14.354309
1426879280.816,-10.639435
1426879280.831,-5.56234
1426879280.847,0.49827576
1426879280.863,6.9913483
1426879280.878,13.464996
1426879280.894,19.828964
1426879280.909,26.422256
1426879280.925,33.87407
1426879280.941,42.776073
1426879280.956,53.385406
1426879280.972,65.311935
1426879280.988,77.39751
1426879281.003,87.79855
1426879281.019,94.34009
1426879281.034,95.04234
1426879281.05,88.70885
1426879281.066,75.35257
1426879281.081,56.31364
1426879281.097,33.91769
1426879281.113,10.855392
1426879281.128,-10.498032
1426879281.144,-28.567173
1426879281.159,-42.715366
1426879281.175,-53.00894
1426879281.191,-59.878365
1426879281.206,-63.786297
1426879281.222,-65.14084
1426879281.238,-64.29384
1426879281.253,-61.698006
1426879281.269,-57.920494
1426879281.284,-53.61384
1426879281.3,-49.39219
1426879281.316,-45.67965
1426879281.331,-42.62675
1426879281.347,-40.14625
1426879281.363,-37.99488
1426879281.378,-35.95946
1426879281.394,-33.961082
1426879281.409,-32.085846
1426879281.425,-30.463491
1426879281.441,-29.12291
1426879281.456,-27.808563
1426879281.472,-25.980665
1426879281.488,-22.957563
1426879281.503,-18.230867
1426879281.519,-11.698833
1426879281.534,-3.781056
1426879281.55,4.7608685
1426879281.566,13.135354
1426879281.581,20.830925
1426879281.597,27.816906
1426879281.613,34.548237
1426879281.628,41.767414
1426879281.644,50.261436
1426879281.659,60.532356
1426879281.675,72.51241
1426879281.691,85.32827
1426879281.706,97.238174
1426879281.722,105.8962
1426879281.738,108.92593
1426879281.753,104.65882
1426879281.769,92.79193
1426879281.784,74.57099
1426879281.8,52.405804
1426879281.816,29.102497
1426879281.831,7.0599403
1426879281.847,-12.249027
1426879281.863,-28.293442
1426879281.878,-41.08359
1426879281.894,-50.712387
1426879281.909,-57.190197
1426879281.925,-60.48382
1426879281.941,-60.865936
1426879281.956,-59.088345
1426879281.972,-56.29427
1426879281.988,-53.602
1426879282.003,-51.665703
1426879282.019,-50.444542
1426879282.034,-49.38212
1426879282.05,-47.846428
1426879282.066,-45.66034
1426879282.081,-43.279182
1426879282.097,-41.52755
1426879282.113,-41.013268
1426879282.128,-41.688896
1426879282.144,-42.734673
1426879282.16,-43.04812
1426879282.175,-41.80641
1426879282.191,-38.931313
1426879282.206,-35.033516
1426879282.222,-30.919746
1426879282.238,-27.053833
1426879282.253,-23.260658
1426879282.269,-18.8553
1426879282.285,-13.122932
1426879282.3,-5.770218
1426879282.316,2.8876953
1426879282.331,12.10508
1426879282.347,21.06089
1426879282.363,29.177376
1426879282.378,36.30443
1426879282.394,42.684914
1426879282.41,48.772064
1426879282.425,55.1877
1426879282.441,62.574074
1426879282.456,71.434006
1426879282.472,81.85108
1426879282.488,93.2445
1426879282.503,104.253296
1426879282.519,112.8958
1426879282.535,117.01402
1426879282.55,114.92413
1426879282.566,105.90662
1426879282.581,90.39923
1426879282.597,69.80037
1426879282.613,46.112823
1426879282.628,21.459183
1426879282.644,-2.1950226
1426879282.66,-23.203629
1426879282.675,-40.337036
1426879282.691,-52.921448
1426879282.706,-60.94127
1426879282.722,-65.04819
1426879282.738,-66.35489
1426879282.753,-66.086975
1426879282.769,-65.138
1426879282.785,-63.860153
1426879282.8,-62.12657
1426879282.816,-59.611984
1426879282.831,-56.151154
1426879282.847,-51.97754
1426879282.863,-47.668335
1426879282.878,-43.917755
1426879282.894,-41.234543
1426879282.91,-39.764008
1426879282.925,-39.231003
1426879282.941,-39.125626
1426879282.956,-38.884155
1426879282.972,-38.0764
1426879282.988,-36.451904
1426879283.003,-33.969803
1426879283.019,-30.659805
1426879283.035,-26.61885
1426879283.05,-21.90564
1426879283.066,-16.55478
1426879283.081,-10.582977
1426879283.097,-4.083908
1426879283.113,2.858429
1426879283.128,10.0504
1426879283.144,17.337936
1426879283.16,24.52069
1426879283.175,31.489594
1426879283.191,38.193207
1426879283.206,44.665024
1426879283.222,51.01909
1426879283.238,57.503036
1426879283.253,64.49431
1426879283.269,72.450775
1426879283.285,81.68553
1426879283.3,92.02635
1426879283.316,102.46716
1426879283.331,111.17183
1426879283.347,115.77408
1426879283.363,114.14082
1426879283.378,105.111435
1426879283.394,89.003784
1426879283.41,67.55386
1426879283.425,43.416077
1426879283.441,19.33635
1426879283.456,-2.5000763
1426879283.472,-20.865494
1426879283.488,-35.354156
1426879283.503,-46.169098
1426879283.519,-53.730972
1426879283.535,-58.466553
1426879283.55,-60.728928
1426879283.566,-60.861572
1426879283.581,-59.241974
1426879283.597,-56.3479
1426879283.613,-52.707306
1426879283.628,-48.87372
1426879283.644,-45.271423
1426879283.66,-42.16519
1426879283.675,-39.662506
1426879283.691,-37.816467
1426879283.706,-36.647827
1426879283.722,-36.21942
1426879283.738,-36.52829
1426879283.753,-37.41736
1426879283.769,-38.48224
1426879283.785,-39.141693
1426879283.8,-38.78598
1426879283.816,-36.997375
1426879283.831,-33.713684
1426879283.847,-29.230316
1426879283.863,-24.038849
