1425922675.787,0.0
1425922675.803,0.0
1425922675.818,0.0
1425922675.834,0.0
1425922675.85,0.0
1425922675.865,0.0
1425922675.881,0.0
1425922675.896,0.0
1425922675.912,0.0
1425922675.928,0.0022315353
1425922675.943,-0.0045169927
1425922675.959,-0.011265522
1425922675.975,-0.011383951
1425922675.99,0.0011864507
1425922676.006,0.025910312
1425922676.021,0.050634187
1425922676.037,0.051362894
1425922676.053,-0.0014929791
1425922676.068,-0.1302426
1425922676.084,-0.35562757
1425922676.1,-0.6591247
1425922676.115,-1.0095103
1425922676.131,-1.3709826
1425922676.146,-1.7197359
1425922676.162,-2.0551105
1425922676.178,-2.39945
1425922676.193,-2.7866635
1425922676.209,-3.2399073
1425922676.225,-3.796012
1425922676.24,-4.418684
1425922676.256,-5.0592937
1425922676.271,-5.6644096
1425922676.287,-6.2021537
1425922676.303,-6.6808796
1425922676.318,-7.149598
1425922676.334,-7.6782336
1425922676.35,-8.310739
1425922676.365,-9.143657
1425922676.381,-10.089731
1425922676.396,-11.041313
1425922676.412,-11.8842125
1425922676.428,-12.564316
1425922676.443,-13.13563
1425922676.459,-13.760044
1425922676.475,-14.65232
1425922676.49,-15.962056
1425922676.506,-17.914442
1425922676.521,-20.317299
1425922676.537,-22.903854
1425922676.553,-25.37947
1425922676.568,-27.578028
1425922676.584,-29.57246
1425922676.6,-31.675173
1425922676.615,-34.3178
1425922676.631,-37.813618
1425922676.646,-42.541233
1425922676.662,-48.1463
1425922676.678,-54.104755
1425922676.693,-59.83309
1425922676.709,-64.972374
1425922676.725,-69.58293
1425922676.74,-74.14353
1425922676.756,-79.344986
1425922676.771,-85.70726
1425922676.787,-93.76193
1425922676.803,-102.99779
1425922676.818,-112.61757
1425922676.834,-121.73034
1425922676.85,-129.76602
1425922676.865,-136.75102
1425922676.881,-143.30344
1425922676.896,-150.74623
1425922676.912,-157.77356
1425922676.928,-166.64323
1425922676.943,-177.94798
1425922676.959,-191.79102
1425922676.975,-206.96808
1425922676.99,-220.56592
1425922677.006,-228.24644
1425922677.022,-225.36154
1425922677.037,-208.53198
1425922677.053,-176.87024
1425922677.068,-132.76222
1425922677.084,-80.04997
1425922677.1,-23.069275
1425922677.115,34.94339
1425922677.131,92.43695
1425922677.146,149.15695
1425922677.162,205.22772
1425922677.178,260.36963
1425922677.193,313.74133
1425922677.209,363.87396
1425922677.225,409.83353
1425922677.24,450.90775
1425922677.256,486.50244
1425922677.272,515.73865
1425922677.287,537.2274
1425922677.303,549.22
1425922677.318,549.9613
1425922677.334,538.367
1425922677.35,514.2055
1425922677.365,478.674
1425922677.381,433.87952
1425922677.397,382.45126
1425922677.412,327.02106
1425922677.428,269.84186
1425922677.443,212.63379
1425922677.459,156.6594
1425922677.475,102.95233
1425922677.49,52.373596
1425922677.506,5.9046936
1425922677.522,-35.580414
1425922677.537,-71.42584
1425922677.553,-101.35184
1425922677.568,-125.50113
1425922677.584,-144.3797
1425922677.6,-158.69403
1425922677.615,-169.15071
1425922677.631,-176.3711
1425922677.647,-180.75139
1425922677.662,-182.57419
1425922677.678,-182.06863
1425922677.693,-179.5066
1425922677.709,-175.23325
1425922677.725,-169.65286
1425922677.74,-163.17691
1425922677.756,-156.14568
1425922677.772,-148.80681
1425922677.787,-141.29686
1425922677.803,-133.68983
1425922677.818,-126.01962
1425922677.834,-118.33268
1425922677.85,-110.68864
1425922677.865,-103.15572
1425922677.881,-95.80455
1425922677.897,-88.684166
1425922677.912,-81.82744
1425922677.928,-75.24594
1425922677.943,-68.9526
1425922677.959,-62.949085
1425922677.975,-57.247494
1425922677.99,-51.857185
1425922678.006,-46.78282
1425922678.022,-42.02776
1425922678.037,-37.58521
1425922678.053,-33.451748
1425922678.068,-29.613855
1425922678.084,-26.070963
1425922678.1,-22.808779
1425922678.115,-19.824995
1425922678.131,-17.113392
1425922678.147,-14.666497
1425922678.162,-12.47932
1425922678.178,-10.538469
1425922678.193,-8.833674
1425922678.209,-7.3478527
1425922678.225,-6.067689
1425922678.24,-4.9734235
1425922678.256,-4.046258
1425922678.272,-3.2673752
1425922678.287,-2.6211367
1425922678.303,-2.088365
1425922678.318,-1.6507506
1425922678.334,-1.2976913
1425922678.35,-1.0147024
1425922678.365,-0.79105926
1425922678.381,-0.6133206
1425922678.397,-0.47516227
1425922678.412,-0.36846328
1425922678.428,-0.28460932
1425922678.443,-0.2239545
1425922678.459,-0.1764481
1425922678.475,-0.14065957
1425922678.49,-0.11288202
1425922678.506,-0.09329623
1425922678.522,-0.08057594
1425922678.537,-0.068388164
1425922678.553,-0.05904734
1425922678.568,-0.051053107
1425922678.584,-0.04575324
1425922678.6,-0.044825494
1425922678.615,-0.04491386
1425922678.631,-0.048233777
1425922678.647,-0.045912087
1425922678.662,-0.04375577
1425922678.678,-0.028841853
1425922678.693,-0.005229026
1425922678.709,0.03203371
1425922678.725,0.0768407
1425922678.74,0.13442218
1425922678.756,0.19731173
1425922678.772,0.26136157
1425922678.787,0.31703824
1425922678.803,0.35844687
1425922678.818,0.38011745
1425922678.834,0.3847021
1425922678.85,0.3756262
1425922678.865,0.36255574
1425922678.881,0.35426515
1425922678.897,0.35439995
1425922678.912,0.3667822
1425922678.928,0.38235596
1425922678.943,0.39393222
1425922678.959,0.3996634
1425922678.975,0.39947245
1425922678.99,0.40613574
1425922679.006,0.41759422
1425922679.022,0.4523087
1425922679.037,0.50648904
1425922679.053,0.5842291
1425922679.068,0.663715
1425922679.084,0.74417436
1425922679.1,0.8156996
1425922679.115,0.8868176
1425922679.131,0.9737405
1425922679.147,1.0962977
1425922679.162,1.2733116
1425922679.178,1.4974681
1425922679.193,1.7576082
1425922679.209,2.0173628
1425922679.225,2.2294228
1425922679.24,2.3818264
1425922679.256,2.4757857
1425922679.272,2.564298
1425922679.287,2.706301
1425922679.303,2.9714348
1425922679.318,3.363184
1425922679.334,3.8613453
1425922679.35,4.349524
1425922679.365,4.717665
1425922679.381,4.890666
1425922679.397,4.8792853
1425922679.412,4.790684
1425922679.428,4.777505
1425922679.443,5.0342817
1425922679.459,5.5855184
1425922679.475,6.3611035
1425922679.49,7.099757
1425922679.506,7.53296
1425922679.522,7.467467
1425922679.537,6.975764
1425922679.553,6.4159718
1425922679.568,6.235431
1425922679.584,6.7374783
1425922679.6,7.7971334
1425922679.615,8.870619
1425922679.631,9.066483
1425922679.647,7.485197
1425922679.662,3.4691334
1425922679.678,-3.2943425
1425922679.693,-12.626509
1425922679.709,-23.997715
1425922679.725,-36.371
1425922679.74,-48.33272
1425922679.756,-58.164906
1425922679.772,-64.27552
1425922679.787,-65.67384
1425922679.803,-62.29503
1425922679.818,-55.083664
1425922679.834,-45.65716
1425922679.85,-35.729164
1425922679.865,-26.510445
1425922679.881,-18.535763
1425922679.897,-11.53981
1425922679.912,-5.0650725
1425922679.928,1.2443502
1425922679.944,7.5040436
1425922679.959,13.517862
1425922679.975,18.976334
1425922679.99,23.598461
1425922680.006,27.266241
1425922680.022,29.914772
1425922680.037,31.56624
1425922680.053,32.18379
1425922680.069,31.804188
1425922680.084,30.679811
1425922680.1,29.26499
1425922680.115,28.215553
1425922680.131,28.06945
1425922680.147,29.032671
1425922680.162,30.753298
1425922680.178,32.451347
1425922680.194,33.291435
1425922680.209,32.70354
1425922680.225,30.761286
1425922680.24,27.990437
1425922680.256,25.256208
1425922680.272,23.357727
1425922680.287,22.781624
1425922680.303,23.539072
1425922680.319,25.065063
1425922680.334,26.217823
1425922680.35,25.363459
1425922680.365,20.882282
1425922680.381,11.756605
1425922680.397,-1.7609663
1425922680.412,-17.861216
1425922680.428,-33.579285
1425922680.444,-45.78888
1425922680.459,-52.361584
1425922680.475,-52.862095
1425922680.49,-48.601418
1425922680.506,-41.81952
1425922680.522,-34.730644
1425922680.537,-28.63374
1425922680.553,-23.758017
1425922680.569,-19.629896
1425922680.584,-15.607215
1425922680.6,-11.457979
1425922680.615,-7.3936057
1425922680.631,-3.9311943
1425922680.647,-1.4923763
1425922680.662,-0.11735082
1425922680.678,0.583388
1425922680.694,1.2901238
1425922680.709,2.5906687
1425922680.725,4.7208753
1425922680.74,7.3269157
1425922680.756,9.710101
1425922680.772,11.143291
1425922680.787,11.34645
1425922680.803,10.73202
1425922680.819,10.317534
1425922680.834,11.264648
1425922680.85,14.393341
1425922680.865,19.773964
1425922680.881,26.5741
1425922680.897,33.508385
1425922680.912,39.390663
1425922680.928,43.662376
1425922680.944,46.575195
1425922680.959,49.026695
1425922680.975,52.155754
1425922680.99,56.977367
1425922681.006,64.124084
1425922681.022,73.670105
1425922681.037,85.05021
1425922681.053,96.772125
1425922681.069,106.393875
1425922681.084,110.79973
1425922681.1,107.031006
1425922681.115,93.36069
1425922681.131,70.1976
1425922681.147,40.223988
1425922681.162,7.65366
1425922681.178,-23.120762
1425922681.194,-48.881504
1425922681.209,-68.30971
1425922681.225,-81.81607
1425922681.24,-90.766815
1425922681.256,-96.50682
1425922681.272,-99.86417
1425922681.287,-101.06474
1425922681.303,-100.091095
1425922681.319,-97.070274
1425922681.334,-92.48833
1425922681.35,-87.04177
1425922681.365,-81.40581
1425922681.381,-75.969185
1425922681.397,-70.73321
1425922681.412,-65.409935
1425922681.428,-59.738174
1425922681.444,-53.68908
1425922681.459,-47.60466
1425922681.475,-42.070183
1425922681.49,-37.681435
1425922681.506,-34.681686
1425922681.522,-32.76494
1425922681.537,-31.097672
1425922681.553,-28.582016
1425922681.569,-24.223335
1425922681.584,-17.537361
1425922681.6,-8.662697
1425922681.615,1.647583
1425922681.631,12.339943
1425922681.647,22.414177
1425922681.662,31.247261
1425922681.678,38.76734
1425922681.694,45.417503
1425922681.709,51.996788
1425922681.725,59.43476
1425922681.74,68.56915
1425922681.756,79.93063
1425922681.772,93.35181
1425922681.787,107.66382
1425922681.803,120.50255
1425922681.819,128.67972
1425922681.834,128.90866
1425922681.85,118.98479
1425922681.865,98.69178
1425922681.881,70.153824
1425922681.897,37.234337
1425922681.912,4.3548203
1425922681.928,-24.818428
1425922681.944,-48.253754
1425922681.959,-65.64744
1425922681.975,-77.85212
1425922681.99,-86.10677
1425922682.006,-91.358475
1425922682.022,-94.09251
1425922682.037,-94.46766
1425922682.053,-92.68142
1425922682.069,-89.153534
1425922682.084,-84.54402
1425922682.1,-79.56486
1425922682.115,-74.73393
1425922682.131,-70.18853
1425922682.147,-65.76355
1425922682.162,-61.14866
1425922682.178,-56.17273
1425922682.194,-50.976944
1425922682.209,-46.010437
1425922682.225,-41.836502
1425922682.24,-38.808456
1425922682.256,-36.84134
1425922682.272,-35.367126
1425922682.287,-33.45163
1425922682.303,-30.168945
1425922682.319,-24.88134
1425922682.334,-17.512016
1425922682.35,-8.499832
1425922682.365,1.3113174
1425922682.381,11.0168915
1425922682.397,19.95459
1425922682.412,27.918983
1425922682.428,35.177948
1425922682.444,42.421196
1425922682.459,50.50009
1425922682.475,60.266388
1425922682.49,72.22354
1425922682.506,86.29052
1425922682.522,101.45442
1425922682.537,115.6468
1425922682.553,125.93732
1425922682.569,129.21771
1425922682.584,123.140495
1425922682.6,107.1002
1425922682.616,82.60346
1425922682.631,52.99997
1425922682.647,22.426529
1425922682.662,-5.402466
1425922682.678,-28.200768
1425922682.694,-45.32663
1425922682.709,-57.39646
1425922682.725,-65.488525
1425922682.741,-70.52556
1425922682.756,-72.96415
1425922682.772,-73.029915
1425922682.787,-71.00766
1425922682.803,-67.459015
1425922682.819,-63.14312
1425922682.834,-58.72164
1425922682.85,-54.477486
1425922682.866,-50.242943
1425922682.881,-45.586136
1425922682.897,-40.197678
1425922682.912,-34.206955
1425922682.928,-28.27066
1425922682.944,-23.306252
1425922682.959,-20.06218
1425922682.975,-18.646645
1425922682.991,-18.394463
1425922683.006,-18.026817
1425922683.022,-16.154915
1425922683.037,-11.8135605
1425922683.053,-4.870659
1425922683.069,3.9893265
1425922683.084,13.530571
1425922683.1,22.514816
1425922683.116,30.203903
1425922683.131,36.596535
1425922683.147,42.444134
1425922683.162,48.98046
1425922683.178,57.455532
1425922683.194,68.741714
1425922683.209,82.81787
1425922683.225,98.51039
1425922683.241,113.39906
1425922683.256,124.199585
1425922683.272,127.57559
1425922683.287,121.16347
1425922683.303,104.509766
1425922683.319,79.366806
1425922683.334,49.26114
1425922683.35,18.42421
1425922683.366,-9.437794
1425922683.381,-32.03626
1425922683.397,-48.689526
1425922683.412,-59.90094
1425922683.428,-66.72015
1425922683.444,-70.17259
1425922683.459,-71.04129
1425922683.475,-69.9133
1425922683.491,-67.353546
1425922683.506,-63.93105
1425922683.522,-60.136536
1425922683.537,-56.23458
1425922683.553,-52.24768
1425922683.569,-48.009075
1425922683.584,-43.387577
1425922683.6,-38.46117
1425922683.616,-33.568577
1425922683.631,-29.199661
1425922683.647,-25.74305
1425922683.662,-23.22657
1425922683.678,-21.23323
1425922683.694,-18.952744
1425922683.709,-15.506554
1425922683.725,-10.2971
1425922683.741,-3.2578964
1425922683.756,5.095978
1425922683.772,13.914764
1425922683.787,22.383026
1425922683.803,30.0812
1425922683.819,37.20378
1425922683.834,44.500847
1425922683.85,53.07843
1425922683.866,63.958138
1425922683.881,77.56683
1425922683.897,93.26714
1425922683.912,109.0836
1425922683.928,121.90433
1425922683.944,128.16745
1425922683.959,124.95258
1425922683.975,111.13727
1425922683.991,87.94452
1425922684.006,58.727753
1425922684.022,27.883957
1425922684.037,-0.49480438
1425922684.053,-23.794144
1425922684.069,-41.23024
1425922684.084,-53.465332
1425922684.1,-61.763977
1425922684.116,-67.25612
1425922684.131,-70.59178
1425922684.147,-72.03893
1425922684.162,-71.80492
1425922684.178,-70.27366
1425922684.194,-67.96077
1425922684.209,-65.30932
1425922684.225,-62.47162
1425922684.241,-59.24211
1425922684.256,-55.260338
1425922684.272,-50.308067
1425922684.287,-44.586327
1425922684.303,-38.76687
1425922684.319,-33.719414
1425922684.334,-30.125893
1425922684.35,-28.032944
1425922684.366,-26.752808
1425922684.381,-25.012428
1425922684.397,-21.520615
1425922684.412,-15.513092
1425922684.428,-7.0965652
1425922684.444,2.8332977
1425922684.459,12.9848175
1425922684.475,22.29329
1425922684.491,30.313866
1425922684.506,37.39421
1425922684.522,44.419632
1425922684.537,52.555954
1425922684.553,62.78779
1425922684.569,75.61155
1425922684.584,90.64856
1425922684.6,106.36407
1425922684.616,120.02474
1425922684.631,128.20038
1425922684.647,127.71457
1425922684.662,116.815445
1425922684.678,96.02576
1425922684.694,68.21986
1425922684.709,37.69516
1425922684.725,8.723221
1425922684.741,-15.750809
1425922684.756,-34.706894
1425922684.772,-48.731796
1425922684.787,-59.09442
1425922684.803,-66.87097
1425922684.819,-72.47351
1425922684.834,-75.82683
1425922684.85,-76.800385
1425922684.866,-75.61763
1425922684.881,-72.91214
1425922684.897,-69.53082
1425922684.912,-66.112564
1425922684.928,-62.90706
1425922684.944,-59.72107
1425922684.959,-56.122345
1425922684.975,-51.775055
1425922684.991,-46.72261
1425922685.006,-41.394974
1425922685.022,-36.515427
1425922685.037,-32.71402
1425922685.053,-30.218079
1425922685.069,-28.59761
1425922685.084,-26.878204
1425922685.1,-23.881271
1425922685.116,-18.734283
1425922685.131,-11.2048645
1425922685.147,-1.8665161
1425922685.162,8.212006
1425922685.178,17.867264
1425922685.194,26.347961
1425922685.209,33.54982
1425922685.225,39.990387
1425922685.241,46.592865
1425922685.256,54.4001
1425922685.272,64.27121
1425922685.288,76.67667
1425922685.303,91.417404
1425922685.319,107.320755
1425922685.334,122.118744
1425922685.35,132.6495
1425922685.366,135.62198
1425922685.381,128.72765
1425922685.397,111.548996
1425922685.413,85.9895
1425922685.428,55.738358
1425922685.444,25.043259
1425922685.459,-2.5800476
1425922685.475,-25.243576
1425922685.491,-42.73378
1425922685.506,-55.93715
1425922685.522,-65.948425
1425922685.538,-73.49544
1425922685.553,-78.78111
1425922685.569,-81.73811
1425922685.584,-82.388794
1425922685.6,-81.03203
1425922685.616,-78.23312
1425922685.631,-74.625885
1425922685.647,-70.722885
1425922685.663,-66.78679
1425922685.678,-62.86299
1425922685.694,-58.8526
1425922685.709,-54.69876
1425922685.725,-50.490814
1425922685.741,-46.475266
1425922685.756,-42.99492
1425922685.772,-40.305954
1425922685.788,-38.432693
1425922685.803,-37.072693
1425922685.819,-35.645782
1425922685.834,-33.4225
1425922685.85,-29.768799
1425922685.866,-24.292587
1425922685.881,-17.016602
1425922685.897,-8.367645
1425922685.913,0.96520996
1425922685.928,10.249878
1425922685.944,18.944824
1425922685.959,26.88971
1425922685.975,34.293686
1425922685.991,41.687103
1425922686.006,49.706818
1425922686.022,58.990234
1425922686.038,70.012375
1425922686.053,82.92784
1425922686.069,97.23212
1425922686.084,111.4816
1425922686.1,123.16983
1425922686.116,129.171
1425922686.131,126.58852
1425922686.147,113.91974
1425922686.163,91.81874
1425922686.178,63.11725
1425922686.194,31.972305
1425922686.209,2.5031586
1425922686.225,-22.418274
1425922686.241,-41.69786
1425922686.256,-55.803802
1425922686.272,-65.987686
1425922686.288,-73.47305
1425922686.303,-79.002106
1425922686.319,-82.85884
1425922686.334,-85.07147
1425922686.35,-85.76489
1425922686.366,-85.180084
1425922686.381,-83.65033
1425922686.397,-81.4604
1425922686.413,-78.80754
1425922686.428,-75.79668
1425922686.444,-72.53081
1425922686.459,-69.15823
1425922686.475,-65.86095
1425922686.491,-62.77336
1425922686.506,-59.973175
1425922686.522,-57.39621
1425922686.538,-54.896408
1425922686.553,-52.294678
1425922686.569,-49.450226
1425922686.584,-46.285797
1425922686.6,-42.770004
1425922686.616,-38.81729
1425922686.631,-34.260788
1425922686.647,-28.832565
1425922686.663,-22.28386
1425922686.678,-14.471924
1425922686.694,-5.5214996
1425922686.709,4.2143555
1425922686.725,14.164383
1425922686.741,23.807724
1425922686.756,32.8132
1425922686.772,41.256653
1425922686.788,49.61122
1425922686.803,58.668716
1425922686.819,69.28963
1425922686.834,81.985306
1425922686.85,96.443054
1425922686.866,111.14607
1425922686.881,123.35855
1425922686.897,129.71227
1425922686.913,127.221725
1425922686.928,114.45772
1425922686.944,92.273544
1425922686.959,63.723465
1425922686.975,33.08853
1425922686.991,4.4943695
1425922687.006,-19.246368
1425922687.022,-37.16736
1425922687.038,-49.82257
1425922687.053,-58.460236
1425922687.069,-64.25571
1425922687.084,-67.8631
1425922687.1,-69.514145
1425922687.116,-69.27937
1425922687.131,-67.43976
1425922687.147,-64.50438
1425922687.163,-61.12343
1425922687.178,-57.83937
1425922687.194,-54.92836
1425922687.209,-52.33188
1425922687.225,-49.78952
1425922687.241,-47.011078
1425922687.256,-43.892044
1425922687.272,-40.609848
1425922687.288,-37.553528
1425922687.303,-35.146164
1425922687.319,-33.59996
1425922687.334,-32.66719
1425922687.35,-31.63176
1425922687.366,-29.453903
1425922687.381,-25.216461
1425922687.397,-18.427475
1425922687.413,-9.390549
1425922687.428,0.9097748
1425922687.444,11.13504
1425922687.459,20.126892
1425922687.475,27.363602
1425922687.491,33.12741
1425922687.506,38.36502
1425922687.522,44.27173
1425922687.538,51.884033
1425922687.553,61.78218
1425922687.569,73.919754
1425922687.584,87.495255
1425922687.6,100.86928
1425922687.616,111.66687
1425922687.631,117.09393
1425922687.647,114.71022
1425922687.663,103.25836
1425922687.678,83.314835
1425922687.694,57.314148
1425922687.709,28.882584
1425922687.725,1.7475586
1425922687.741,-21.304825
1425922687.756,-38.96747
1425922687.772,-51.323975
1425922687.788,-59.289246
1425922687.803,-63.93994
1425922687.819,-66.1015
1425922687.834,-66.25476
1425922687.85,-64.740875
1425922687.866,-61.92125
1425922687.881,-58.317596
1425922687.897,-54.393127
1425922687.913,-50.486023
1425922687.928,-46.64965
1425922687.944,-42.717667
1425922687.96,-38.50695
1425922687.975,-34.079117
1425922687.991,-29.811195
1425922688.006,-26.269188
1425922688.022,-23.866966
1425922688.038,-22.50772
1425922688.053,-21.453178
1425922688.069,-19.550117
1425922688.084,-15.708382
1425922688.1,-9.432449
1425922688.116,-1.057724
1425922688.131,8.3884735
1425922688.147,17.666275
1425922688.163,25.872147
1425922688.178,32.818
1425922688.194,39.040993
1425922688.21,45.615227
1425922688.225,53.690987
1425922688.241,64.12691
1425922688.256,77.102264
1425922688.272,91.81763
1425922688.288,106.35846
1425922688.303,117.851494
1425922688.319,123.116684
1425922688.335,119.57826
1425922688.35,106.25806
1425922688.366,84.33368
1425922688.381,56.926353
1425922688.397,28.14711
1425922688.413,1.8038254
1425922688.428,-19.62355
1425922688.444,-35.41823
1425922688.46,-46.183655
1425922688.475,-53.173317
1425922688.491,-57.48571
1425922688.506,-59.799835
1425922688.522,-60.424408
1425922688.538,-59.61892
1425922688.553,-57.759583
1425922688.569,-55.340294
1425922688.585,-52.753067
1425922688.6,-50.09172
1425922688.616,-47.114098
1425922688.631,-43.46524
1425922688.647,-38.968956
1425922688.663,-33.914803
1425922688.678,-29.039726
1425922688.694,-25.276634
1425922688.71,-23.258247
1425922688.725,-22.91188
1425922688.741,-23.340126
1425922688.756,-23.12725
1425922688.772,-20.904877
1425922688.788,-15.952187
1425922688.803,-8.53157
1425922688.819,0.2889328
1425922688.835,9.18222
1425922688.85,17.18705
1425922688.866,24.155838
1425922688.881,30.813858
1425922688.897,38.426254
1425922688.913,48.321983
1425922688.928,61.42536
1425922688.944,77.82827
1425922688.96,96.55093
1425922688.975,115.43114
1425922688.991,131.3136
1425922689.006,140.61487
1425922689.022,140.34122
1425922689.038,129.02917
1425922689.053,107.49302
1425922689.069,78.70649
1425922689.085,46.95249
1425922689.1,16.449722
1425922689.116,-9.785904
1425922689.131,-30.572952
1425922689.147,-46.26548
1425922689.163,-58.022293
1425922689.178,-66.96733
1425922689.194,-73.7683
1425922689.21,-78.6006
1425922689.225,-81.515884
1425922689.241,-82.681366
1425922689.256,-82.489784
1425922689.272,-81.452126
1425922689.288,-79.97899
1425922689.303,-78.21716
1425922689.319,-76.05155
1425922689.335,-73.25703
1425922689.35,-69.671814
1425922689.366,-65.385925
1425922689.381,-60.808846
1425922689.397,-56.528786
1425922689.413,-53.11915
1425922689.428,-50.774086
1425922689.444,-49.15193
1425922689.46,-47.37851
1425922689.475,-44.364037
1425922689.491,-39.193
1425922689.506,-31.597626
1425922689.522,-22.025513
1425922689.538,-11.476532
1425922689.553,-1.0451508
1425922689.569,8.536606
1425922689.585,17.16912
1425922689.6,25.346306
1425922689.616,33.9028
1425922689.631,43.684105
1425922689.647,55.344276
1425922689.663,69.09899
1425922689.678,84.53503
1425922689.694,100.34013
1425922689.71,114.23566
1425922689.725,123.271
1425922689.741,124.5835
1425922689.756,116.38348
1425922689.772,98.79078
1425922689.788,74.00758
1425922689.803,45.712868
1425922689.819,17.936577
1425922689.835,-6.150093
1425922689.85,-24.960754
1425922689.866,-38.483414
1425922689.881,-47.68023
1425922689.897,-53.704002
1425922689.913,-57.371002
1425922689.928,-58.98777
1425922689.944,-58.59841
1425922689.96,-56.29258
1425922689.975,-52.47399
1425922689.991,-47.821632
1425922690.006,-43.129204
1425922690.022,-39.011284
1425922690.038,-35.70186
1425922690.053,-32.998978
1425922690.069,-30.47232
1425922690.085,-27.698715
1425922690.1,-24.544754
1425922690.116,-21.215233
1425922690.131,-18.16719
1425922690.147,-15.827118
1425922690.163,-14.297386
1425922690.178,-13.20005
1425922690.194,-11.767227
1425922690.21,-9.114914
1425922690.225,-4.5832367
1425922690.241,1.959343
1425922690.256,10.022827
1425922690.272,18.726807
1425922690.288,27.12487
1425922690.303,34.61763
1425922690.319,41.15161
1425922690.335,47.256256
1425922690.35,53.8263
1425922690.366,61.805496
1425922690.381,71.949684
1425922690.397,84.54889
1425922690.413,99.22532
1425922690.428,114.698166
1425922690.444,128.70018
1425922690.46,138.26141
1425922690.475,140.33597
1425922690.491,132.82578
1425922690.506,115.38267
1425922690.522,89.810394
1425922690.538,59.56608
1425922690.553,28.723038
1425922690.569,0.7107544
1425922690.585,-22.495346
1425922690.6,-40.553513
1425922690.616,-54.21486
1425922690.631,-64.592606
1425922690.647,-72.518776
1425922690.663,-78.29959
1425922690.678,-81.893135
1425922690.694,-83.17972
1425922690.71,-82.253105
1425922690.725,-79.497826
1425922690.741,-75.456795
1425922690.756,-70.67904
1425922690.772,-65.501625
1425922690.788,-60.113823
1425922690.803,-54.56096
1425922690.819,-48.98584
1425922690.835,-43.71422
1425922690.85,-39.18058
1425922690.866,-35.78428
1425922690.882,-33.58139
1425922690.897,-32.19008
1425922690.913,-30.80516
1425922690.928,-28.464508
1425922690.944,-24.394226
1425922690.96,-18.2956
1425922690.975,-10.476639
1425922690.991,-1.759018
1425922691.007,6.7979584
1425922691.022,14.2421875
1425922691.038,20.028168
1425922691.053,24.209732
1425922691.069,27.3284
1425922691.085,30.256073
1425922691.1,33.89537
1425922691.116,38.991837
1425922691.132,45.943115
1425922691.147,54.573486
1425922691.163,63.982773
1425922691.178,72.37654
1425922691.194,77.302704
1425922691.21,76.17651
1425922691.225,67.2222
1425922691.241,50.230637
1425922691.257,26.916855
1425922691.272,0.49734497
1425922691.288,-25.365479
1425922691.303,-47.732574
1425922691.319,-65.11601
1425922691.335,-77.51239
1425922691.35,-85.805786
1425922691.366,-90.99814
1425922691.382,-93.713104
1425922691.397,-94.17486
1425922691.413,-92.52806
1425922691.428,-89.15495
1425922691.444,-84.66972
1425922691.46,-79.775955
1425922691.475,-74.86729
1425922691.491,-69.95406
1425922691.507,-64.694405
1425922691.522,-58.722443
1425922691.538,-51.9525
1425922691.553,-44.693756
1425922691.569,-37.58596
1425922691.585,-31.356926
1425922691.6,-26.540237
1425922691.616,-23.249733
1425922691.632,-21.077354
1425922691.647,-19.23713
1425922691.663,-16.79181
1425922691.678,-13.038147
1425922691.694,-7.747612
1425922691.71,-1.2921219
1425922691.725,5.5617523
1425922691.741,12.024261
1425922691.757,17.69944
1425922691.772,22.806946
1425922691.788,28.168175
1425922691.803,34.83721
1425922691.819,43.76718
1425922691.835,55.43329
1425922691.85,69.61136
1425922691.866,85.17853
1425922691.882,100.10254
1425922691.897,111.565674
1425922691.913,116.47266
1425922691.928,112.243576
1425922691.944,97.82744
1425922691.96,74.172424
1425922691.975,44.24587
1425922691.991,12.176098
1425922692.007,-17.910362
1425922692.022,-43.007763
1425922692.038,-61.79741
1425922692.053,-74.51217
1425922692.069,-82.3648
1425922692.085,-86.86263
1425922692.1,-89.323975
1425922692.116,-90.68524
1425922692.132,-91.422035
1425922692.147,-91.50527
1425922692.163,-90.30005
1425922692.178,-86.554016
1425922692.194,-78.48938
1425922692.21,-64.27342
1425922692.225,-42.64134
1425922692.241,-13.634674
1425922692.257,20.961452
1425922692.272,57.746105
1425922692.288,92.443504
1425922692.303,121.03653
1425922692.319,140.90973
1425922692.335,151.46475
1425922692.35,153.9981
1425922692.366,150.92793
1425922692.382,144.88754
1425922692.397,137.99326
1425922692.413,131.61627
1425922692.428,126.58539
1425922692.444,123.423485
1425922692.46,122.50389
1425922692.475,123.995255
1425922692.491,127.69241
1425922692.507,132.99457
1425922692.522,138.8844
1425922692.538,143.9745
1425922692.553,146.55196
1425922692.569,144.70308
1425922692.585,136.59904
1425922692.6,120.97361
1425922692.616,97.64195
1425922692.632,67.74509
1425922692.647,33.600983
1425922692.663,-1.8407707
1425922692.678,-35.78712
1425922692.694,-66.14584
1425922692.71,-91.73812
1425922692.725,-112.122734
1425922692.741,-127.190865
1425922692.757,-136.89343
1425922692.772,-141.24649
1425922692.788,-140.5088
1425922692.803,-135.43954
1425922692.819,-127.3685
1425922692.835,-117.870224
1425922692.85,-108.28838
1425922692.866,-99.316345
1425922692.882,-90.79657
1425922692.897,-81.987564
1425922692.913,-72.13883
1425922692.928,-60.99386
1425922692.944,-49.015335
1425922692.96,-37.14908
1425922692.975,-26.276886
1425922692.991,-16.807175
1425922693.007,-8.452698
1425922693.022,-0.55322266
1425922693.038,7.5097046
1425922693.053,15.895599
1425922693.069,24.266815
1425922693.085,32.026108
1425922693.1,38.724167
1425922693.116,44.363373
1425922693.132,49.532913
1425922693.147,55.2726
1425922693.163,62.794205
1425922693.178,72.930084
1425922693.194,85.6304
1425922693.21,99.54019
1425922693.225,111.973236
1425922693.241,119.44864
1425922693.257,118.77663
1425922693.272,108.15474
1425922693.288,87.95578
1425922693.303,60.71234
1425922693.319,30.229797
1425922693.335,0.39797974
1425922693.35,-25.948425
1425922693.366,-47.458374
1425922693.382,-64.06865
1425922693.397,-76.301025
1425922693.413,-84.723694
1425922693.428,-89.69878
1425922693.444,-91.50815
1425922693.46,-90.58353
1425922693.475,-87.60901
1425922693.491,-83.34512
1425922693.507,-78.33746
1425922693.522,-72.73544
1425922693.538,-66.32037
1425922693.554,-58.76071
1425922693.569,-49.97885
1425922693.585,-40.4563
1425922693.6,-31.125336
1425922693.616,-23.102448
1425922693.632,-17.152802
1425922693.647,-13.365936
1425922693.663,-11.089203
1425922693.679,-9.199188
1425922693.694,-6.657196
1425922693.71,-2.9640808
1425922693.725,1.6654358
1425922693.741,6.4589233
1425922693.757,10.419586
1425922693.772,12.760284
1425922693.788,13.23407
1425922693.804,12.371796
1425922693.819,11.508301
1425922693.835,12.573059
1425922693.85,17.472443
1425922693.866,27.220459
1425922693.882,41.108
1425922693.897,56.37564
1425922693.913,68.78128
1425922693.929,73.94974
1425922693.944,68.93024
1425922693.96,53.317535
1425922693.975,29.230316
1425922693.991,0.4308777
1425922694.007,-29.141418
1425922694.022,-56.388306
1425922694.038,-79.527466
1425922694.054,-97.86163
1425922694.069,-111.399414
1425922694.085,-120.5253
1425922694.1,-125.96484
1425922694.116,-128.71112
1425922694.132,-129.84094
1425922694.147,-130.18976
1425922694.163,-130.111
1425922694.179,-129.47144
1425922694.194,-127.98172
1425922694.21,-125.624084
1425922694.225,-122.93576
1425922694.241,-120.93588
1425922694.257,-120.73642
1425922694.272,-123.00339
1425922694.288,-127.63666
1425922694.304,-133.6847
1425922694.319,-139.68085
1425922694.335,-144.04242
1425922694.35,-145.57014
1425922694.366,-143.68755
1425922694.382,-138.47305
1425922694.397,-130.52905
1425922694.413,-120.71483
1425922694.429,-109.90474
1425922694.444,-98.81702
1425922694.46,-87.95384
1425922694.475,-77.55023
1425922694.491,-67.491425
1425922694.507,-57.320633
1425922694.522,-46.395294
1425922694.538,-34.261047
1425922694.554,-21.065254
1425922694.569,-7.841652
1425922694.585,3.6058197
1425922694.6,11.2204895
1425922694.616,13.427101
1425922694.632,9.695362
1425922694.647,0.75777435
1425922694.663,-11.743532
1425922694.679,-25.841805
1425922694.694,-39.88004
1425922694.71,-52.802803
1425922694.725,-64.12388
1425922694.741,-73.69023
1425922694.757,-81.402214
1425922694.772,-87.08468
1425922694.788,-90.611015
1425922694.804,-92.003204
1425922694.819,-91.49213
1425922694.835,-89.40126
1425922694.85,-85.93582
1425922694.866,-81.04353
1425922694.882,-74.403946
1425922694.897,-65.682434
1425922694.913,-54.828278
1425922694.929,-42.334625
1425922694.944,-29.223083
1425922694.96,-16.71463
1425922694.975,-5.8415833
1425922694.991,2.9734192
1425922695.007,10.022919
1425922695.022,16.266296
1425922695.038,22.988464
1425922695.054,31.455597
1425922695.069,42.586456
1425922695.085,56.681946
1425922695.1,73.35919
1425922695.116,91.584625
1425922695.132,109.961
1425922695.147,127.13031
1425922695.163,142.19928
1425922695.179,154.93451
1425922695.194,165.7135
1425922695.21,175.19312
1425922695.225,183.81842
1425922695.241,191.47809
1425922695.257,197.38464
1425922695.272,200.40625
1425922695.288,199.48773
1425922695.304,194.15723
1425922695.319,184.7204
1425922695.335,172.11664
1425922695.35,157.59491
1425922695.366,142.31152
1425922695.382,127.05841
1425922695.397,112.31427
1425922695.413,98.40161
1425922695.429,85.75372
1425922695.444,75.034485
1425922695.46,66.9707
1425922695.475,62.123108
1425922695.491,60.576965
1425922695.507,61.749695
1425922695.522,64.513306
1425922695.538,67.4931
1425922695.554,69.545105
1425922695.569,70.135925
1425922695.585,69.49402
1425922695.6,68.41693
1425922695.616,67.838806
1425922695.632,68.28064
1425922695.647,69.5863
1425922695.663,70.96448
1425922695.679,71.46179
1425922695.694,70.55463
1425922695.71,68.51361
1425922695.725,66.42639
1425922695.741,65.76752
1425922695.757,67.838196
1425922695.772,73.34985
1425922695.788,82.315186
1425922695.804,94.05859
1425922695.819,107.331665
1425922695.835,120.26251
1425922695.85,130.38745
1425922695.866,134.92462
1425922695.882,131.38312
1425922695.897,118.461365
1425922695.913,96.60541
1425922695.929,68.09906
1425922695.944,36.35968
1425922695.96,4.788452
1425922695.975,-24.164368
1425922695.991,-49.29706
1425922696.007,-70.27844
1425922696.022,-86.88733
1425922696.038,-98.365295
1425922696.054,-103.45807
1425922696.069,-100.98242
1425922696.085,-90.740295
1425922696.1,-74.07245
1425922696.116,-53.872437
1425922696.132,-33.789673
1425922696.147,-17.131592
1425922696.163,-5.784851
1425922696.179,0.1850586
1425922696.194,2.2668457
1425922696.21,2.5930786
1425922696.226,3.0059814
1425922696.241,4.484314
1425922696.257,7.1331787
1425922696.272,10.658997
1425922696.288,14.86499
1425922696.304,19.887817
1425922696.319,26.035156
1425922696.335,33.38739
1425922696.351,41.487488
1425922696.366,49.42633
1425922696.382,56.217102
1425922696.397,61.24939
1425922696.413,64.52142
1425922696.429,66.513855
1425922696.444,67.81683
1425922696.46,68.683044
1425922696.476,68.83215
1425922696.491,67.50488
1425922696.507,63.80945
1425922696.522,57.194885
1425922696.538,47.792236
1425922696.554,36.575317
1425922696.569,25.13031
1425922696.585,15.142334
1425922696.601,7.842163
1425922696.616,3.616516
1425922696.632,1.909729
1425922696.647,1.5025024
1425922696.663,1.0877075
1425922696.679,-0.1741333
1425922696.694,-2.319397
1425922696.71,-4.6019287
1425922696.726,-5.98761
1425922696.741,-5.744995
1425922696.757,-3.9188843
1425922696.772,-1.2384033
1425922696.788,1.2714233
1425922696.804,2.9404297
1425922696.819,3.817749
1425922696.835,4.6151123
1425922696.851,6.1782837
1425922696.866,8.910706
1425922696.882,12.42514
1425922696.897,15.755249
1425922696.913,17.941376
1425922696.929,18.63919
1425922696.944,18.437927
1425922696.96,18.587189
1425922696.976,20.429321
1425922696.991,24.844025
1425922697.007,31.957092
1425922697.022,41.229614
1425922697.038,51.65393
1425922697.054,61.939697
1425922697.069,70.60797
1425922697.085,76.03735
1425922697.101,76.61685
1425922697.116,71.13461
1425922697.132,59.14441
1425922697.147,41.279358
1425922697.163,19.258972
1425922697.179,-4.500946
1425922697.194,-27.44278
1425922697.21,-47.47281
1425922697.226,-63.359375
1425922697.241,-74.7413
1425922697.257,-81.94571
1425922697.272,-85.62451
1425922697.288,-86.49521
1425922697.304,-85.23419
1425922697.319,-82.44664
1425922697.335,-78.700134
1425922697.351,-74.5379
1425922697.366,-70.364105
1425922697.382,-66.40622
1425922697.397,-62.655853
1425922697.413,-58.973328
1425922697.429,-55.2433
1425922697.444,-51.473373
1425922697.46,-47.746902
1425922697.476,-44.14557
1425922697.491,-40.560623
1425922697.507,-36.628586
1425922697.522,-31.883865
1425922697.538,-25.960434
1425922697.554,-18.80207
1425922697.569,-10.730705
1425922697.585,-2.3213654
1425922697.601,5.892288
1425922697.616,13.660828
1425922697.632,21.125717
1425922697.647,28.770615
1425922697.663,37.278053
1425922697.679,47.193054
1425922697.694,58.611652
1425922697.71,70.84006
1425922697.726,82.21515
1425922697.741,90.341354
1425922697.757,92.63481
1425922697.772,87.18001
1425922697.788,73.48806
1425922697.804,52.80174
1425922697.819,27.764713
1425922697.835,1.6393404
1425922697.851,-22.674116
1425922697.866,-43.2927
1425922697.882,-59.505806
1425922697.897,-71.495514
1425922697.913,-79.88811
1425922697.929,-85.33856
1425922697.944,-88.43564
1425922697.96,-89.63962
1425922697.976,-89.38527
1425922697.991,-88.03642
1425922698.007,-85.80231
1425922698.022,-82.73988
1425922698.038,-78.82099
1425922698.054,-74.04006
1425922698.069,-68.55044
1425922698.085,-62.67621
1425922698.101,-56.866554
1425922698.116,-51.4814
1425922698.132,-46.669502
1425922698.147,-42.276794
1425922698.163,-37.937943
1425922698.179,-33.195328
1425922698.194,-27.724442
1425922698.21,-21.415268
1425922698.226,-14.461029
1425922698.241,-7.172531
1425922698.257,0.12652588
1425922698.272,7.2615204
1425922698.288,14.29512
1425922698.304,21.57396
1425922698.319,29.600311
1425922698.335,38.896652
1425922698.351,49.61673
1425922698.366,61.16252
1425922698.382,71.99779
1425922698.397,79.76729
1425922698.413,81.94299
1425922698.429,76.67024
1425922698.444,63.499924
1425922698.46,43.69374
1425922698.476,19.797699
1425922698.491,-5.148651
1425922698.507,-28.549423
1425922698.522,-48.757675
1425922698.538,-65.18773
1425922698.554,-77.944595
1425922698.569,-87.4256
1425922698.585,-93.999054
1425922698.601,-97.95448
1425922698.616,-99.56085
1425922698.632,-99.1519
1425922698.647,-97.10075
1425922698.663,-93.861404
1425922698.679,-89.97519
1425922698.694,-86.084274
1425922698.71,-82.8819
1425922698.726,-80.98006
1425922698.741,-80.651276
1425922698.757,-81.67415
1425922698.772,-83.29071
1425922698.788,-84.43898
1425922698.804,-84.06317
1425922698.819,-81.50609
1425922698.835,-76.69371
1425922698.851,-70.152756
1425922698.866,-62.732864
1425922698.882,-55.262802
1425922698.898,-48.20125
1425922698.913,-41.503174
1425922698.929,-34.630356
1425922698.944,-26.804321
1425922698.96,-17.36679
1425922698.976,-6.2102966
1425922698.991,5.9076996
1425922699.007,17.258179
1425922699.022,25.377365
1425922699.038,27.660034
1425922699.054,22.163559
1425922699.069,8.354218
1425922699.085,-12.558884
1425922699.101,-37.871704
1425922699.116,-64.17511
1425922699.132,-88.35698
1425922699.148,-108.36447
1425922699.163,-123.54376
1425922699.179,-134.2606
1425922699.194,-141.36546
1425922699.21,-145.61926
1425922699.226,-147.5399
1425922699.241,-147.46178
1425922699.257,-145.83316
1425922699.273,-143.26501
1425922699.288,-140.50565
1425922699.304,-138.15817
1425922699.319,-136.51385
1425922699.335,-135.49567
1425922699.351,-134.81363
1425922699.366,-134.10449
1425922699.382,-133.06842
1425922699.398,-131.40697
1425922699.413,-128.70255
1425922699.429,-124.27244
1425922699.444,-117.194046
1425922699.46,-106.46318
1425922699.476,-91.41289
1425922699.491,-72.05526
1425922699.507,-49.357216
1425922699.523,-25.048798
1425922699.538,-1.1993713
1425922699.554,20.51184
1425922699.569,39.318237
1425922699.585,55.523285
1425922699.601,70.12984
1425922699.616,84.059006
1425922699.632,97.49696
1425922699.648,109.54936
1425922699.663,118.5112
1425922699.679,122.59769
1425922699.694,120.69763
1425922699.71,112.95505
1425922699.726,100.74521
1425922699.741,86.338684
1425922699.757,72.23059
1425922699.773,60.57538
1425922699.788,52.77057
1425922699.804,49.356934
1425922699.819,50.05301
1425922699.835,53.97162
1425922699.851,59.85013
1425922699.866,66.288666
1425922699.882,71.982056
1425922699.898,75.92648
1425922699.913,77.62634
1425922699.929,77.15704
1425922699.944,75.06677
1425922699.96,72.2088
1425922699.976,69.425354
1425922699.991,67.33453
1425922700.007,66.144714
1425922700.023,65.70685
1425922700.038,65.608154
1425922700.054,65.40021
1425922700.069,64.76776
1425922700.085,63.623413
1425922700.101,62.123413
1425922700.116,60.598206
1425922700.132,59.422607
1425922700.148,58.89264
1425922700.163,59.13617
1425922700.179,60.09851
1425922700.194,61.559753
1425922700.21,63.250732
1425922700.226,64.94165
1425922700.241,66.513
1425922700.257,67.88562
1425922700.273,68.97345
1425922700.288,69.60315
1425922700.304,69.51532
1425922700.319,68.40015
1425922700.335,65.96796
1425922700.351,61.990784
1425922700.366,56.369324
1425922700.382,49.098877
1425922700.398,40.317505
1425922700.413,30.292053
1425922700.429,19.472961
1425922700.444,8.454651
1425922700.46,-2.093811
1425922700.476,-11.481445
1425922700.491,-19.139648
1425922700.507,-24.681396
1425922700.523,-27.944946
1425922700.538,-28.992676
1425922700.554,-28.09906
1425922700.569,-25.631287
1425922700.585,-22.01538
1425922700.601,-17.600098
1425922700.616,-12.6744995
1425922700.632,-7.4918823
1425922700.648,-2.3011475
1425922700.663,2.6344604
1425922700.679,7.1552124
1425922700.694,11.250916
1425922700.71,15.123413
1425922700.726,19.088013
1425922700.741,23.41504
1425922700.757,28.160583
1425922700.773,33.1109
1425922700.788,37.878906
1425922700.804,42.14154
1425922700.819,45.810913
1425922700.835,49.08618
1425922700.851,52.385864
1425922700.866,56.14099
1425922700.882,60.594727
1425922700.898,65.68671
1425922700.913,70.97168
1425922700.929,75.618835
1425922700.944,78.47461
1425922700.96,78.21838
1425922700.976,73.72742
1425922700.991,64.398926
1425922701.007,50.48108
1425922701.023,33.144226
1425922701.038,14.2335205
1425922701.054,-4.2349243
1425922701.069,-20.56659
1425922701.085,-33.783875
1425922701.101,-43.60315
1425922701.116,-50.266846
1425922701.132,-54.17987
1425922701.148,-55.683228
1425922701.163,-55.030518
1425922701.179,-52.475403
1425922701.194,-48.399353
1425922701.21,-43.350403
1425922701.226,-37.932983
1425922701.241,-32.627808
1425922701.257,-27.666626
1425922701.273,-23.00293
1425922701.288,-18.40564
1425922701.304,-13.589905
1425922701.319,-8.389526
1425922701.335,-2.8295898
1425922701.351,2.9003296
1425922701.366,8.526184
1425922701.382,13.793701
1425922701.398,18.591736
1425922701.413,22.98706
1425922701.429,27.289246
1425922701.444,31.906128
1425922701.46,37.279297
1425922701.476,43.67688
1425922701.491,51.100098
1425922701.507,59.16864
1425922701.523,67.103516
1425922701.538,73.73505
1425922701.554,77.633545
1425922701.57,77.3465
1425922701.585,71.772644
1425922701.601,60.548584
1425922701.616,44.277954
1425922701.632,24.534424
1425922701.648,3.5602417
1425922701.663,-16.339905
1425922701.679,-33.280273
1425922701.694,-46.219482
1425922701.71,-54.952698
1425922701.726,-59.92102
1425922701.741,-61.81079
1425922701.757,-61.233765
1425922701.773,-58.612183
1425922701.788,-54.280334
1425922701.804,-48.5838
1425922701.82,-42.024292
1425922701.835,-35.20453
1425922701.851,-28.673279
1425922701.866,-22.790222
1425922701.882,-17.569458
1425922701.898,-12.783569
1425922701.913,-8.083313
1425922701.929,-3.1968384
1425922701.945,1.9050903
1425922701.96,7.0615234
1425922701.976,11.996765
1425922701.991,16.489563
1425922702.007,20.506897
1425922702.023,24.228271
1425922702.038,28.016907
1425922702.054,32.314087
1425922702.07,37.521362
1425922702.085,43.885925
1425922702.101,51.458252
1425922702.116,59.973755
1425922702.132,68.7417
1425922702.148,76.580505
1425922702.163,81.79236
1425922702.179,82.45233
1425922702.195,76.890076
1425922702.21,64.32147
1425922702.226,45.31012
1425922702.241,21.838196
1425922702.257,-3.171814
1425922702.273,-26.633118
1425922702.288,-46.166748
1425922702.304,-60.568237
1425922702.32,-69.82922
1425922702.335,-74.72931
1425922702.351,-76.29718
1425922702.366,-75.41858
1425922702.382,-72.6814
1425922702.398,-68.4541
1425922702.413,-63.068726
1425922702.429,-56.87213
1425922702.445,-50.25769
1425922702.46,-43.564392
1425922702.476,-37.04834
1425922702.491,-30.856018
1425922702.507,-24.999634
1425922702.523,-19.407104
1425922702.538,-13.911926
1425922702.554,-8.321716
1425922702.57,-2.4778442
1425922702.585,3.7011108
1425922702.601,10.132935
1425922702.616,16.651245
1425922702.632,23.012695
1425922702.648,29.036194
1425922702.663,34.705566
1425922702.679,40.165527
1425922702.695,45.735474
1425922702.71,51.796753
1425922702.726,58.708252
1425922702.741,66.667114
1425922702.757,75.586975
1425922702.773,84.90985
1425922702.788,93.42975
1425922702.804,99.28479
1425922702.82,100.216675
1425922702.835,94.17267
1425922702.851,80.0965
1425922702.866,58.534912
1425922702.882,31.738037
1425922702.898,3.083496
1425922702.913,-23.867676
1425922702.929,-46.398193
1425922702.945,-63.15509
1425922702.96,-74.11926
1425922702.976,-80.09308
1425922702.991,-82.09192
1425922703.007,-80.99414
1425922703.023,-77.50488
1425922703.038,-72.276855
1425922703.054,-66.05603
1425922703.07,-59.621582
1425922703.085,-53.520935
1425922703.101,-47.97003
1425922703.116,-42.76581
1425922703.132,-37.512024
1425922703.148,-31.892334
1425922703.163,-25.907959
1425922703.179,-19.86554
1425922703.195,-14.225342
1425922703.21,-9.294373
1425922703.226,-4.9940186
1425922703.241,-0.83239746
1425922703.257,3.8811646
1425922703.273,9.674011
1425922703.288,16.623718
1425922703.304,24.277771
1425922703.32,31.901062
1425922703.335,38.8526
1425922703.351,44.930298
1425922703.366,50.476807
1425922703.382,56.216064
1425922703.398,62.903564
1425922703.413,70.9624
1425922703.429,80.25403
1425922703.445,89.85559
1425922703.46,98.12213
1425922703.476,102.79968
1425922703.491,101.49585
1425922703.507,92.41022
1425922703.523,75.000916
1425922703.538,50.46472
1425922703.554,21.600464
1425922703.57,-7.970093
1425922703.585,-34.83972
1425922703.601,-56.712585
1425922703.616,-72.79413
1425922703.632,-83.45044
1425922703.648,-89.5636
1425922703.663,-91.961365
1425922703.679,-91.22632
1425922703.695,-87.84979
1425922703.71,-82.49628
1425922703.726,-76.11493
1425922703.741,-69.71759
1425922703.757,-64.01819
1425922703.773,-59.154602
1425922703.788,-54.70215
1425922703.804,-49.973633
1425922703.82,-44.41577
1425922703.835,-37.95404
1425922703.851,-31.035583
1425922703.866,-24.345215
1425922703.882,-18.47528
1425922703.898,-13.557678
1425922703.913,-9.193298
1425922703.929,-4.5984497
1425922703.945,1.0269165
1425922703.96,8.141602
1425922703.976,16.626404
1425922703.991,25.823303
1425922704.007,34.831787
1425922704.023,42.876404
1425922704.038,49.6781
1425922704.054,55.5271
1425922704.07,61.16211
1425922704.085,67.45813
1425922704.101,75.06506
1425922704.116,84.055664
1425922704.132,93.77301
1425922704.148,102.74597
1425922704.163,108.851135
1425922704.179,109.733154
1425922704.195,103.37842
1425922704.21,88.78369
1425922704.226,66.52124
1425922704.241,38.757935
1425922704.257,8.776733
1425922704.273,-19.91101
1425922704.288,-44.513
1425922704.304,-63.58075
1425922704.32,-76.95935
1425922704.335,-85.32556
1425922704.351,-89.58368
1425922704.366,-90.425476
1425922704.382,-88.30707
1425922704.398,-83.71887
1425922704.413,-77.38129
1425922704.429,-70.29205
1425922704.445,-63.433228
1425922704.46,-57.42212
1425922704.476,-52.26703
1425922704.492,-47.433716
1425922704.507,-42.170593
1425922704.523,-35.94812
1425922704.538,-28.789917
1425922704.554,-21.295105
1425922704.57,-14.341248
1425922704.585,-8.662537
1425922704.601,-4.3446045
1425922704.617,-0.767334
1425922704.632,3.154602
1425922704.648,8.469299
1425922704.663,15.638794
1425922704.679,24.309204
1425922704.695,33.45343
1425922704.71,41.878784
1425922704.726,48.761963
1425922704.742,54.02307
1425922704.757,58.36737
1425922704.773,62.95691
1425922704.788,68.9776
1425922704.804,77.20593
1425922704.82,87.75348
1425922704.835,99.87384
1425922704.851,111.945435
1425922704.867,121.54425
1425922704.882,125.82959
1425922704.898,122.15137
1425922704.913,108.8855
1425922704.929,86.153015
1425922704.945,56.06073
1425922704.96,22.257935
1425922704.976,-11.116821
1425922704.992,-40.56598
1425922705.007,-64.08441
1425922705.023,-81.25421
1425922705.038,-92.76434
1425922705.054,-99.666565
1425922705.07,-102.756226
1425922705.085,-102.54993
1425922705.101,-99.44702
1425922705.117,-94.08081
1425922705.132,-87.39917
1425922705.148,-80.43158
1425922705.163,-73.94531
1425922705.179,-68.121765
1425922705.195,-62.622192
1425922705.21,-56.84314
1425922705.226,-50.345154
1425922705.242,-43.153442
1425922705.257,-35.76593
1425922705.273,-28.906433
1425922705.288,-23.170532
1425922705.304,-18.683167
1425922705.32,-15.023132
1425922705.335,-11.355286
1425922705.351,-6.7999268
1425922705.367,-0.741333
1425922705.382,6.8898315
1425922705.398,15.618103
1425922705.413,24.584717
1425922705.429,32.906494
1425922705.445,40.046753
1425922705.46,46.052307
1425922705.476,51.53601
1425922705.492,57.52704
1425922705.507,65.00452
1425922705.523,74.57715
1425922705.538,86.12842
1425922705.554,98.66461
1425922705.57,110.31415
1425922705.585,118.53906
1425922705.601,120.557556
1425922705.617,114.07831
1425922705.632,98.02313
1425922705.648,73.1745
1425922705.663,42.153076
1425922705.679,8.838928
1425922705.695,-22.73767
1425922705.71,-49.49237
1425922705.726,-69.99707
1425922705.742,-84.34064
1425922705.757,-93.496155
1425922705.773,-98.48987
1425922705.788,-99.96484
1425922705.804,-98.18518
1425922705.82,-93.459045
1425922705.835,-86.446655
1425922705.851,-78.26099
1425922705.867,-70.09784
1425922705.882,-62.817017
1425922705.898,-56.598694
1425922705.913,-50.99414
1425922705.929,-45.260742
1425922705.945,-38.8042
1425922705.96,-31.547424
1425922705.976,-24.007568
1425922705.992,-16.986572
1425922706.007,-11.230652
1425922706.023,-6.977295
1425922706.038,-3.836792
1425922706.054,-0.8499756
1425922706.07,3.093933
1425922706.085,8.814087
1425922706.101,16.536499
1425922706.117,25.764282
1425922706.132,35.49408
1425922706.148,44.637146
1425922706.163,52.472595
1425922706.179,58.936707
1425922706.195,64.61951
1425922706.21,70.54303
1425922706.226,77.73047
1425922706.242,86.81482
1425922706.257,97.77869
1425922706.273,109.829285
1425922706.288,121.35748
1425922706.304,130.06213
1425922706.32,133.26208
1425922706.335,128.50427
1425922706.351,114.32794
1425922706.367,90.960754
1425922706.382,60.52722
1425922706.398,26.635925
1425922706.413,-6.6290894
1425922706.429,-35.820557
1425922706.445,-58.91992
1425922706.46,-75.486755
1425922706.476,-86.1698
1425922706.492,-91.968994
1425922706.507,-93.79559
1425922706.523,-92.31769
1425922706.538,-88.18982
1425922706.554,-82.22717
1425922706.57,-75.423096
1425922706.585,-68.664185
1425922706.601,-62.430115
1425922706.617,-56.668518
1425922706.632,-50.936157
1425922706.648,-44.74237
1425922706.663,-37.964783
1425922706.679,-30.916748
1425922706.695,-24.286804
1425922706.71,-18.738403
1425922706.726,-14.531738
1425922706.742,-11.246826
1425922706.757,-7.911377
1425922706.773,-3.34906
1425922706.788,3.3292542
1425922706.804,12.267944
1425922706.82,22.821472
1425922706.835,33.805573
1425922706.851,44.047394
1425922706.867,52.874664
1425922706.882,60.397034
1425922706.898,67.474
1425922706.913,75.3125
1425922706.929,85.075134
1425922706.945,97.41449
1425922706.96,112.04886
1425922706.976,127.443146
1425922706.992,140.7749
1425922707.007,148.29758
1425922707.023,146.28317
1425922707.038,132.26349
1425922707.054,106.16623
1425922707.07,70.677216
1425922707.085,30.565216
1425922707.101,-8.74588
1425922707.117,-42.88614
1425922707.132,-69.50046
1425922707.148,-88.362976
1425922707.164,-100.57599
1425922707.179,-107.51932
1425922707.195,-110.213104
1425922707.21,-109.23538
1425922707.226,-105.14957
1425922707.242,-98.80328
1425922707.257,-91.37903
1425922707.273,-84.00574
1425922707.289,-77.33035
1425922707.304,-71.29031
1425922707.32,-65.296936
1425922707.335,-58.75653
1425922707.351,-51.45581
1425922707.367,-43.850616
1425922707.382,-36.768646
1425922707.398,-30.947601
1425922707.414,-26.515198
1425922707.429,-22.817352
1425922707.445,-18.555634
1425922707.46,-12.440613
1425922707.476,-3.7441711
1425922707.492,7.2740173
1425922707.507,19.479065
1425922707.523,31.329529
1425922707.539,41.59659
1425922707.554,49.882294
1425922707.57,56.842712
1425922707.585,63.90924
1425922707.601,72.85434
1425922707.617,85.09604
1425922707.632,101.12164
1425922707.648,119.88925
1425922707.664,138.6217
1425922707.679,153.06699
1425922707.695,158.50839
1425922707.71,151.15065
1425922707.726,129.63864
1425922707.742,95.72386
1425922707.757,53.961304
1425922707.773,10.279999
1425922707.789,-29.86464
1425922707.804,-62.932648
1425922707.82,-87.78259
1425922707.835,-105.156494
1425922707.851,-116.52083
1425922707.867,-123.17276
1425922707.882,-125.86072
1425922707.898,-125.013214
1425922707.914,-121.19414
1425922707.929,-115.40645
1425922707.945,-108.88257
1425922707.96,-102.71193
1425922707.976,-97.32739
1425922707.992,-92.40599
1425922708.007,-87.07538
1425922708.023,-80.4978
1425922708.039,-72.37747
1425922708.054,-63.247406
1425922708.07,-54.307007
1425922708.085,-46.877274
1425922708.101,-41.742584
1425922708.117,-38.67401
1425922708.132,-36.416824
1425922708.148,-33.16548
1425922708.164,-27.263306
1425922708.179,-17.928177
1425922708.195,-5.562317
1425922708.21,8.395477
1425922708.226,22.10817
1425922708.242,34.073257
1425922708.257,43.670715
1425922708.273,51.397232
1425922708.289,58.580963
1425922708.304,66.89453
1425922708.32,77.84857
1425922708.335,92.279816
1425922708.351,109.98029
1425922708.367,129.3762
1425922708.382,147.42874
1425922708.398,159.92142
1425922708.414,162.42085
1425922708.429,151.55536
1425922708.445,126.46335
1425922708.46,89.35395
1425922708.476,45.173576
1425922708.492,0.11828613
1425922708.507,-40.20745
1425922708.523,-72.3501
1425922708.539,-95.47762
1425922708.554,-110.80585
1425922708.57,-120.41714
1425922708.585,-126.079895
1425922708.601,-128.67548
1425922708.617,-128.35425
1425922708.632,-125.08222
1425922708.648,-119.21474
1425922708.664,-111.63531
1425922708.679,-103.54902
1425922708.695,-95.94854
1425922708.71,-89.21967
1425922708.726,-83.02442
1425922708.742,-76.56411
1425922708.757,-69.093575
1425922708.773,-60.42064
1425922708.789,-51.01052
1425922708.804,-41.82391
1425922708.82,-33.791534
1425922708.835,-27.3774
1425922708.851,-22.324852
1425922708.867,-17.77864
1425922708.882,-12.586628
1425922708.898,-5.770649
1425922708.914,3.1974068
1425922708.929,14.19376
1425922708.945,26.557121
1425922708.96,39.291943
1425922708.976,51.394073
1425922708.992,62.17919
1425922709.007,71.5249
1425922709.023,79.90948
1425922709.039,88.31943
1425922709.054,98.00679
1425922709.07,110.16112
1425922709.085,125.5116
1425922709.101,143.86734
1425922709.117,163.65294
1425922709.132,181.71667
1425922709.148,193.65057
1425922709.164,194.8042
1425922709.179,181.81012
1425922709.195,154.00052
1425922709.21,114.04232
1425922709.226,67.34912
1425922709.242,20.42678
1425922709.257,-21.09591
1425922709.273,-54.004314
1425922709.289,-77.75947
1425922709.304,-93.797455
1425922709.32,-104.159874
1425922709.335,-110.42486
1425922709.351,-113.2945
1425922709.367,-112.96564
1425922709.382,-109.70898
1425922709.398,-104.29637
1425922709.414,-97.949326
1425922709.429,-91.90254
1425922709.445,-86.92708
1425922709.46,-83.04874
1425922709.476,-79.63811
1425922709.492,-75.86607
1425922709.507,-71.12456
1425922709.523,-65.38776
1425922709.539,-59.18242
1425922709.554,-53.35967
1425922709.57,-48.605473
1425922709.585,-45.12037
1425922709.601,-42.41256
1425922709.617,-39.406876
1425922709.632,-34.83751
1425922709.648,-27.68515
1425922709.664,-17.615017
1425922709.679,-5.1637115
1425922709.695,8.472153
1425922709.71,21.87635
1425922709.726,33.933723
1425922709.742,44.25077
1425922709.757,53.28074
1425922709.773,61.99919
1425922709.789,71.62924
1425922709.804,83.267525
1425922709.82,97.687775
1425922709.836,115.10767
1425922709.851,134.92365
1425922709.867,155.28513
1425922709.882,172.83249
1425922709.898,183.08676
1425922709.914,181.4997
1425922709.929,165.07663
1425922709.945,133.79868
1425922709.96,91.08019
1425922709.976,42.9283
1425922709.992,-3.9390564
1425922710.007,-44.22043
1425922710.023,-75.31323
1425922710.039,-97.34235
1425922710.054,-112.12593
1425922710.07,-121.716095
1425922710.086,-127.47264
1425922710.101,-129.86237
1425922710.117,-128.96156
1425922710.132,-125.078156
1425922710.148,-119.064514
1425922710.164,-112.07733
1425922710.179,-105.11528
1425922710.195,-98.652466
1425922710.211,-92.55206
1425922710.226,-86.33661
1425922710.242,-79.6169
1425922710.257,-72.34445
1425922710.273,-64.86803
1425922710.289,-57.738663
1425922710.304,-51.45987
1425922710.32,-46.260056
1425922710.336,-41.99617
1425922710.351,-38.211304
1425922710.367,-34.202377
1425922710.382,-29.202728
1425922710.398,-22.55249
1425922710.414,-13.87207
1425922710.429,-3.210556
1425922710.445,8.908371
1425922710.461,21.61618
1425922710.476,33.947372
1425922710.492,45.157684
1425922710.507,54.97632
1425922710.523,63.744247
1425922710.539,72.2596
1425922710.554,81.59578
1425922710.57,92.86876
1425922710.586,106.93945
1425922710.601,124.04979
1425922710.617,143.32434
1425922710.632,162.36978
1425922710.648,177.23099
1425922710.664,183.0961
1425922710.679,175.70218
1425922710.695,153.04378
1425922710.711,116.41911
1425922710.726,70.4913
1425922710.742,21.897293
1425922710.757,-22.835938
1425922710.773,-59.23781
1425922710.789,-85.771194
1425922710.804,-103.4561
1425922710.82,-114.56827
1425922710.836,-121.25752
1425922710.851,-124.81087
1425922710.867,-125.6319
1425922710.882,-123.807785
1425922710.898,-119.664764
1425922710.914,-114.00279
1425922710.929,-107.87958
1425922710.945,-102.20549
1425922710.961,-97.388824
1425922710.976,-93.229965
1425922710.992,-89.15889
1425922711.007,-84.59743
1425922711.023,-79.30629
1425922711.039,-73.45903
1425922711.054,-67.54675
1425922711.07,-62.029724
1425922711.086,-57.108887
1425922711.101,-52.54579
1425922711.117,-47.76416
1425922711.132,-42.06186
1425922711.148,-34.865784
1425922711.164,-25.899261
1425922711.179,-15.258316
1425922711.195,-3.3334656
1425922711.211,9.258636
1425922711.226,21.763275
1425922711.242,33.480103
1425922711.257,43.949448
1425922711.273,53.090927
1425922711.289,61.36461
1425922711.304,69.67102
1425922711.32,79.24437
1425922711.336,91.28345
1425922711.351,106.58354
1425922711.367,124.970535
1425922711.382,144.82404
1425922711.398,162.88197
1425922711.414,174.60953
1425922711.429,175.32312
1425922711.445,161.72485
1425922711.461,133.29977
1425922711.476,92.93474
1425922711.492,46.220764
1425922711.507,-0.2117157
1425922711.523,-40.781036
1425922711.539,-72.33284
1425922711.554,-94.47453
1425922711.57,-108.714584
1425922711.586,-117.1125
1425922711.601,-121.21623
1425922711.617,-121.76073
1425922711.632,-119.00455
1425922711.648,-113.37508
1425922711.664,-105.84421
1425922711.679,-97.76404
1425922711.695,-90.37079
1425922711.711,-84.22682
1425922711.726,-79.00636
1425922711.742,-73.76944
1425922711.757,-67.568115
1425922711.773,-60.03206
1425922711.789,-51.64749
1425922711.804,-43.577408
1425922711.82,-37.051315
1425922711.836,-32.722733
1425922711.851,-30.251587
1425922711.867,-28.359482
1425922711.882,-25.318466
1425922711.898,-19.643356
1425922711.914,-10.687027
1425922711.929,1.0787201
1425922711.945,14.317078
1425922711.961,27.368958
1425922711.976,38.920013
1425922711.992,48.50653
1425922712.007,56.599335
1425922712.023,64.35431
1425922712.039,73.198074
1425922712.054,84.339966
1425922712.07,98.45451
1425922712.086,115.477844
1425922712.101,134.338
1425922712.117,152.72124
1425922712.132,167.14108
1425922712.148,173.42776
1425922712.164,167.92673
1425922712.179,148.75961
1425922712.195,116.91344
1425922712.211,76.232315
1425922712.226,32.38716
1425922712.242,-8.918777
1425922712.257,-43.491165
1425922712.273,-69.46193
1425922712.289,-87.03517
1425922712.304,-97.56874
1425922712.32,-102.60344
1425922712.336,-103.38008
1425922712.351,-100.84857
1425922712.367,-95.93364
1425922712.382,-89.6546
1425922712.398,-82.99031
1425922712.414,-76.56871
1425922712.429,-70.482056
1425922712.445,-64.38161
1425922712.461,-57.847992
1425922712.476,-50.77101
1425922712.492,-43.5614
1425922712.508,-36.981308
1425922712.523,-31.784393
1425922712.539,-28.240616
1425922712.554,-25.899857
1425922712.57,-23.67337
1425922712.586,-20.225784
1425922712.601,-14.506943
1425922712.617,-6.1247864
1425922712.632,4.497818
1425922712.648,16.268234
1425922712.664,27.955124
1425922712.679,38.62114
1425922712.695,48.06604
1425922712.711,56.953354
1425922712.726,66.69087
1425922712.742,78.86925
1425922712.758,94.57518
1425922712.773,113.52861
1425922712.789,133.54987
1425922712.804,150.57883
1425922712.82,159.62329
1425922712.836,156.32901
1425922712.851,138.63104
1425922712.867,107.741516
1425922712.883,67.97246
1425922712.898,25.342346
1425922712.914,-14.352203
1425922712.929,-47.163345
1425922712.945,-71.6156
1425922712.961,-88.2677
1425922712.976,-98.61771
1425922712.992,-104.103745
1425922713.008,-105.641754
1425922713.023,-103.84195
1425922713.039,-99.438995
1425922713.054,-93.55127
1425922713.07,-87.458145
1425922713.086,-82.14917
1425922713.101,-77.83296
1425922713.117,-73.910446
1425922713.133,-69.28053
1425922713.148,-63.0468
1425922713.164,-55.041336
1425922713.179,-46.05612
1425922713.195,-37.51857
1425922713.211,-30.833588
1425922713.226,-26.681503
1425922713.242,-24.582886
1425922713.258,-23.020126
1425922713.273,-20.004074
1425922713.289,-13.888306
1425922713.304,-4.099243
1425922713.32,8.656097
1425922713.336,22.685211
1425922713.351,36.091156
1425922713.367,47.538666
1425922713.383,56.764923
1425922713.398,64.63864
1425922713.414,72.761795
1425922713.429,82.915726
1425922713.445,96.51483
1425922713.461,114.03543
1425922713.476,134.51767
1425922713.492,155.26163
1425922713.508,171.96332
1425922713.523,179.55582
1425922713.539,173.716
1425922713.554,152.509
1425922713.57,117.49048
1425922713.586,73.46011
1425922713.601,27.041962
1425922713.617,-15.496674
1425922713.633,-50.062775
1425922713.648,-75.45444
1425922713.664,-92.75717
1425922713.679,-103.99289
1425922713.695,-110.89679
1425922713.711,-114.347015
1425922713.726,-114.61047
1425922713.742,-111.93927
1425922713.758,-107.0603
1425922713.773,-101.18948
1425922713.789,-95.48508
1425922713.804,-90.63617
1425922713.82,-86.46893
1425922713.836,-82.177704
1425922713.851,-76.78293
1425922713.867,-69.76761
1425922713.883,-61.445007
1425922713.898,-52.900177
1425922713.914,-45.505707
1425922713.929,-40.26483
1425922713.945,-37.220276
1425922713.961,-35.305145
1425922713.976,-32.6893
1425922713.992,-27.514008
1425922714.008,-18.68866
1425922714.023,-6.391083
1425922714.039,7.996216
1425922714.054,22.499786
1425922714.07,35.366028
1425922714.086,45.788116
1425922714.101,54.190308
1425922714.117,61.967926
1425922714.133,70.979126
1425922714.148,82.83655
1425922714.164,98.39279
1425922714.179,117.36218
1425922714.195,138.0433
1425922714.211,157.29245
1425922714.226,170.83511
1425922714.242,174.18503
1425922714.258,164.02649
1425922714.273,139.53055
1425922714.289,103.07843
1425922714.304,59.792786
1425922714.32,16.021637
1425922714.336,-22.681671
1425922714.351,-53.097076
1425922714.367,-74.710785
1425922714.383,-89.00537
1425922714.398,-98.12723
1425922714.414,-103.71115
1425922714.429,-106.45456
1425922714.445,-106.40469
1425922714.461,-103.65173
1425922714.476,-98.75452
1425922714.492,-92.79468
1425922714.508,-86.94382
1425922714.523,-81.97177
1425922714.539,-77.893524
1425922714.554,-74.04819
1425922714.57,-69.4946
1425922714.586,-63.571808
1425922714.601,-56.30188
1425922714.617,-48.45572
1425922714.633,-41.243805
1425922714.648,-35.707245
1425922714.664,-32.175476
1425922714.679,-29.986908
1425922714.695,-27.667145
1425922714.711,-23.532501
1425922714.726,-16.334259
1425922714.742,-5.887787
1425922714.758,6.888733
1425922714.773,20.354218
1425922714.789,32.824432
1425922714.804,43.237488
1425922714.82,51.567474
1425922714.836,58.731964
1425922714.851,66.24069
1425922714.867,75.63959
1425922714.883,88.12463
1425922714.898,104.259735
1425922714.914,123.626465
1425922714.929,144.49362
1425922714.945,163.65173
1425922714.961,176.63785
1425922714.976,178.7698
1425922714.992,166.6521
1425922715.008,139.68155
1425922715.023,100.66589
1425922715.039,55.19763
1425922715.054,9.8975525
1425922715.07,-29.664154
1425922715.086,-60.445374
1425922715.101,-82.16678
1425922715.117,-96.44998
1425922715.133,-105.40939
1425922715.148,-110.64047
1425922715.164,-112.85239
1425922715.179,-112.28778
1425922715.195,-109.26886
1425922715.211,-104.56662
1425922715.226,-99.28088
1425922715.242,-94.38989
1425922715.258,-90.39188
1425922715.273,-87.11853
1425922715.289,-83.88443
1425922715.304,-79.94595
1425922715.32,-74.83548
1425922715.336,-68.67618
1425922715.351,-62.061493
1425922715.367,-55.85315
1425922715.383,-50.75125
1425922715.398,-46.981995
1425922715.414,-44.121887
1425922715.43,-41.206573
1425922715.445,-37.02646
1425922715.461,-30.581024
1425922715.476,-21.518372
1425922715.492,-10.269897
1425922715.508,2.0723267
1425922715.523,14.207336
1425922715.539,25.08957
1425922715.555,34.357086
1425922715.57,42.384155
1425922715.586,50.069397
1425922715.601,58.542877
1425922715.617,68.819214
1425922715.633,81.660034
1425922715.648,97.33374
1425922715.664,115.30252
1425922715.68,133.7933
1425922715.695,149.62512
1425922715.711,158.55212
1425922715.726,156.40814
1425922715.742,140.63278
1425922715.758,111.54938
1425922715.773,72.68201
1425922715.789,29.78946
1425922715.805,-11.045959
1425922715.82,-45.2424
1425922715.836,-70.816345
1425922715.851,-88.174286
1425922715.867,-99.06534
1425922715.883,-105.2861
1425922715.898,-107.96942
1425922715.914,-107.53967
1425922715.93,-104.22342
1425922715.945,-98.56302
1425922715.961,-91.53299
1425922715.976,-84.3483
1425922715.992,-77.96588
1425922716.008,-72.78989
1425922716.023,-68.55936
1425922716.039,-64.59534
1425922716.055,-60.20691
1425922716.07,-55.044464
1425922716.086,-49.31546
1425922716.101,-43.677002
1425922716.117,-38.94635
1425922716.133,-35.674316
1425922716.148,-33.750793
1425922716.164,-32.35681
1425922716.18,-30.161499
1425922716.195,-25.83139
1425922716.211,-18.589264
1425922716.226,-8.512787
1425922716.242,3.4985657
1425922716.258,16.072693
1425922716.273,27.913635
1425922716.289,38.26895
1425922716.305,47.1174
1425922716.32,55.074158
1425922716.336,63.121674
1425922716.351,72.30878
1425922716.367,83.54721
1425922716.383,97.428894
1425922716.398,113.96985
1425922716.414,132.17563
1425922716.43,149.69443
1425922716.445,162.80316
1425922716.461,167.16724
1425922716.476,159.17566
1425922716.492,137.44662
1425922716.508,103.683044
1425922716.523,62.451263
1425922716.539,19.743195
1425922716.555,-18.897888
1425922716.57,-49.90384
1425922716.586,-72.20441
1425922716.601,-86.66043
1425922716.617,-94.91116
1425922716.633,-98.41748
1425922716.648,-98.10794
1425922716.664,-94.64435
1425922716.68,-88.86832
1425922716.695,-82.04709
1425922716.711,-75.56674
1425922716.726,-70.41873
1425922716.742,-66.740875
1425922716.758,-63.775757
1425922716.773,-60.30182
1425922716.789,-55.355743
1425922716.805,-48.77115
1425922716.82,-41.37802
1425922716.836,-34.58673
1425922716.851,-29.673706
1425922716.867,-27.035217
1425922716.883,-25.882446
1425922716.898,-24.482681
1425922716.914,-20.901611
1425922716.93,-13.824646
1425922716.945,-3.182785
1425922716.961,9.885193
1425922716.976,23.52121
1425922716.992,36.00235
1425922717.008,46.39099
1425922717.023,54.92325
1425922717.039,62.814514
1425922717.055,71.78163
1425922717.07,83.37634
1425922717.086,98.45715
1425922717.101,116.69858
1425922717.117,136.32211
1425922717.133,154.0816
1425922717.148,165.74011
1425922717.164,167.04602
1425922717.18,155.15047
1425922717.195,129.74022
1425922717.211,93.522964
1425922717.226,51.6044
1425922717.242,9.939484
1425922717.258,-26.419525
1425922717.273,-54.563324
1425922717.289,-73.98599
1425922717.305,-85.862305
1425922717.32,-91.9783
1425922717.336,-93.829544
1425922717.351,-92.38069
1425922717.367,-88.28604
1425922717.383,-82.28018
1425922717.398,-75.312744
1425922717.414,-68.33426
1425922717.43,-61.95343
1425922717.445,-56.16205
1425922717.461,-50.47397
1425922717.476,-44.28241
1425922717.492,-37.351776
1425922717.508,-30.107452
1425922717.523,-23.515656
1425922717.539,-18.603516
1425922717.555,-15.856689
1425922717.57,-14.815826
1425922717.586,-14.100891
1425922717.601,-11.954468
1425922717.617,-6.977234
1425922717.633,1.2298279
1425922717.648,11.955261
1425922717.664,23.657349
1425922717.68,34.76938
1425922717.695,44.32498
1425922717.711,52.382202
1425922717.726,59.9664
1425922717.742,68.7135
1425922717.758,80.29074
1425922717.773,95.773834
1425922717.789,114.981964
1425922717.805,136.0191
1425922717.82,155.18997
1425922717.836,167.63446
1425922717.851,168.65808
1425922717.867,155.34738
1425922717.883,127.8764
1425922717.898,89.67459
1425922717.914,46.466156
1425922717.93,4.3632813
1425922717.945,-31.944336
1425922717.961,-60.209717
1425922717.976,-80.49182
1425922717.992,-94.15744
1425922718.008,-102.785126
1425922718.023,-107.435486
1425922718.039,-108.709656
1425922718.055,-107.083984
1425922718.07,-103.33984
1425922718.086,-98.54535
1425922718.102,-93.719696
1425922718.117,-89.41809
1425922718.133,-85.46869
1425922718.148,-81.11917
1425922718.164,-75.52457
1425922718.18,-68.29477
1425922718.195,-59.858917
1425922718.211,-51.399017
1425922718.227,-44.305115
1425922718.242,-39.50656
1425922718.258,-36.889496
1425922718.273,-35.216522
1425922718.289,-32.569427
1425922718.305,-27.169006
1425922718.32,-18.169373
1425922718.336,-6.022766
1425922718.352,7.748108
1425922718.367,21.256683
1425922718.383,33.070435
1425922718.398,42.796997
1425922718.414,51.165253
1425922718.43,59.690826
1425922718.445,70.14865
1425922718.461,83.98636
1425922718.477,101.78058
1425922718.492,122.78528
1425922718.508,144.61786
1425922718.523,163.31613
1425922718.539,174.07169
1425922718.555,172.58395
1425922718.57,156.60812
1425922718.586,127.02484
1425922718.602,87.87863
1425922718.617,45.13275
1425922718.633,4.748474
1425922718.648,-29.038483
1425922718.664,-54.599365
1425922718.68,-72.48511
1425922718.695,-84.37082
1425922718.711,-91.88312
1425922718.727,-96.04117
1425922718.742,-97.35312
1425922718.758,-96.29349
1425922718.773,-93.63312
1425922718.789,-90.379974
1425922718.805,-87.346405
1425922718.82,-84.76239
1425922718.836,-82.158295
1425922718.852,-78.64319
1425922718.867,-73.490204
1425922718.883,-66.646454
1425922718.898,-58.916718
1425922718.914,-51.66751
1425922718.93,-46.218292
1425922718.945,-43.159576
1425922718.961,-41.97937
1425922718.977,-41.154846
1425922718.992,-38.772247
1425922719.008,-33.307373
1425922719.023,-24.292023
1425922719.039,-12.522766
1425922719.055,0.3343811
1425922719.07,12.472443
1425922719.086,22.737091
1425922719.102,31.066833
1425922719.117,38.486298
1425922719.133,46.656067
1425922719.148,57.273865
1425922719.164,71.46088
1425922719.18,89.28345
1425922719.195,109.39725
1425922719.211,128.90839
1425922719.227,143.69992
1425922719.242,149.30838
1425922719.258,142.27618
1425922719.273,121.51834
1425922719.289,89.02127
1425922719.305,49.459015
1425922719.32,8.761719
1425922719.336,-27.752106
1425922719.352,-56.85089
1425922719.367,-77.785614
1425922719.383,-91.67871
1425922719.398,-100.32852
1425922719.414,-105.187805
1425922719.43,-107.02017
1425922719.445,-106.13168
1425922719.461,-102.94595
1425922719.477,-98.25394
1425922719.492,-93.122284
1425922719.508,-88.378876
1425922719.523,-84.23605
1425922719.539,-80.176544
1425922719.555,-75.3302
1425922719.57,-69.0271
1425922719.586,-61.312744
1425922719.602,-52.997925
1425922719.617,-45.298676
1425922719.633,-39.224976
1425922719.648,-35.049194
1425922719.664,-32.0636
1425922719.68,-28.91101
1425922719.695,-24.100708
1425922719.711,-16.689423
1425922719.727,-6.6772766
1425922719.742,5.027649
1425922719.758,17.000397
1425922719.773,27.891266
1425922719.789,37.02594
1425922719.805,44.647156
1425922719.82,51.85077
1425922719.836,60.17108
1425922719.852,71.08072
1425922719.867,85.44687
1425922719.883,103.09863
1425922719.898,122.47012
1425922719.914,140.57553
1425922719.93,153.41101
1425922719.945,156.8895
1425922719.961,148.11255
1425922719.977,126.49765
1425922719.992,94.257416
1425922720.008,55.86667
1425922720.023,16.758728
1425922720.039,-18.306458
1425922720.055,-46.374725
1425922720.07,-66.62753
1425922720.086,-79.818085
1425922720.102,-87.4079
1425922720.117,-90.781525
1425922720.133,-90.93472
1425922720.148,-88.6239
1425922720.164,-84.56271
1425922720.18,-79.53281
1425922720.195,-74.21033
1425922720.211,-68.97873
1425922720.227,-63.837097
1425922720.242,-58.496826
1425922720.258,-52.69516
1425922720.273,-46.465454
1425922720.289,-40.249176
1425922720.305,-34.744476
1425922720.32,-30.527771
1425922720.336,-27.688263
1425922720.352,-25.671295
1425922720.367,-23.397614
1425922720.383,-19.697845
1425922720.398,-13.825104
1425922720.414,-5.7162476
1425922720.43,3.948822
1425922720.445,14.127411
1425922720.461,23.884705
1425922720.477,32.816864
1425922720.492,41.242645
1425922720.508,50.102722
1425922720.523,60.68112
1425922720.539,74.09219
1425922720.555,90.6828
1425922720.57,109.41226
1425922720.586,127.61688
1425922720.602,141.24896
1425922720.617,145.89288
1425922720.633,138.23907
1425922720.648,117.45389
1425922720.664,85.78195
1425922720.68,47.980957
1425922720.695,9.813782
1425922720.711,-23.773865
1425922720.727,-49.920654
1425922720.742,-68.128296
1425922720.758,-79.54373
1425922720.774,-85.894196
1425922720.789,-88.63626
1425922720.805,-88.62286
1425922720.82,-86.302704
1425922720.836,-82.052
1425922720.852,-76.3483
1425922720.867,-69.74786
1425922720.883,-62.71875
1425922720.899,-55.5878
1425922720.914,-48.543304
1425922720.93,-41.74179
1425922720.945,-35.384186
1425922720.961,-29.67926
1425922720.977,-24.706177
1425922720.992,-20.325562
1425922721.008,-16.174957
1425922721.024,-11.766785
1425922721.039,-6.6355896
1425922721.055,-0.50949097
1425922721.07,6.6131897
1425922721.086,14.515411
1425922721.102,22.88379
1425922721.117,31.45047
1425922721.133,40.23639
1425922721.149,49.594513
1425922721.164,60.24356
1425922721.18,73.056305
1425922721.195,88.66031
1425922721.211,106.77405
1425922721.227,125.668976
1425922721.242,142.03488
1425922721.258,151.59131
1425922721.274,150.33673
1425922721.289,136.07214
1425922721.305,109.466675
1425922721.32,74.10336
1425922721.336,35.40695
1425922721.352,-1.0697327
1425922721.367,-31.27832
1425922721.383,-53.50232
1425922721.399,-68.189514
1425922721.414,-77.03009
1425922721.43,-81.9057
1425922721.445,-84.21503
1425922721.461,-84.727844
1425922721.477,-83.76044
1425922721.492,-81.49603
1425922721.508,-78.09912
1425922721.524,-73.73718
1425922721.539,-68.52673
1425922721.555,-62.59192
1425922721.57,-56.126038
1425922721.586,-49.478455
1425922721.602,-43.12268
1425922721.617,-37.502136
1425922721.633,-32.810364
1425922721.649,-28.8479
1425922721.664,-25.01416
1425922721.68,-20.530396
1425922721.695,-14.72699
1425922721.711,-7.3344727
1425922721.727,1.4292603
1425922721.742,10.940796
1425922721.758,20.504211
1425922721.774,29.686157
1425922721.789,38.548462
1425922721.805,47.741028
1425922721.82,58.350952
1425922721.836,71.52734
1425922721.852,87.91376
1425922721.867,106.98108
1425922721.883,126.624756
1425922721.899,143.16449
1425922721.914,152.18463
1425922721.93,149.90875
1425922721.945,134.6612
1425922721.961,107.725586
1425922721.977,73.087524
1425922721.992,36.14917
1425922722.008,1.8919678
1425922722.024,-26.486877
1425922722.039,-48.06958
1425922722.055,-63.68634
1425922722.07,-74.838684
1425922722.086,-82.787415
1425922722.102,-88.183105
1425922722.117,-91.261475
1425922722.133,-92.240295
1425922722.149,-91.52826
1425922722.164,-89.66742
1425922722.18,-87.01465
1425922722.195,-83.58453
1425922722.211,-79.064026
1425922722.227,-73.11304
1425922722.242,-65.75287
1425922722.258,-57.563538
1425922722.274,-49.568787
1425922722.289,-42.87732
1425922722.305,-38.11902
1425922722.32,-35.12451
1425922722.336,-32.87628
1425922722.352,-29.884216
1425922722.367,-24.835083
1425922722.383,-17.177124
1425922722.399,-7.338318
1425922722.414,3.4905396
1425922722.43,13.921753
1425922722.445,23.033264
1425922722.461,30.788696
1425922722.477,38.041138
1425922722.492,46.246704
1425922722.508,56.964966
1425922722.524,71.266174
1425922722.539,89.15369
1425922722.555,109.12738
1425922722.57,128.11774
1425922722.586,141.9718
1425922722.602,146.5653
1425922722.617,139.17151
1425922722.633,119.56946
1425922722.649,90.302
1425922722.664,55.872253
1425922722.68,21.237854
1425922722.695,-9.72583
1425922722.711,-35.10376
1425922722.727,-54.834473
1425922722.742,-69.906494
1425922722.758,-81.38837
1425922722.774,-89.78717
1425922722.789,-95.124756
1425922722.805,-97.34253
1425922722.82,-96.754944
1425922722.836,-94.17865
1425922722.852,-90.67914
1425922722.867,-87.135925
1425922722.883,-83.8808
1425922722.899,-80.6521
1425922722.914,-76.84979
1425922722.93,-72.00238
1425922722.945,-66.18445
1425922722.961,-60.038086
1425922722.977,-54.567688
1425922722.992,-50.60211
1425922723.008,-48.34491
1425922723.024,-47.129944
1425922723.039,-45.66394
1425922723.055,-42.50171
1425922723.07,-36.651062
1425922723.086,-28.000732
1425922723.102,-17.364563
1425922723.117,-6.1383057
1425922723.133,4.2664795
1425922723.149,12.991333
1425922723.164,20.035767
1425922723.18,26.195435
1425922723.195,32.786926
1425922723.211,41.195435
1425922723.227,52.443787
1425922723.242,66.893616
1425922723.258,83.8147
1425922723.274,101.224304
1425922723.289,115.94226
1425922723.305,124.17438
1425922723.32,122.58209
1425922723.336,109.50354
1425922723.352,85.77295
1425922723.367,54.692078
1425922723.383,21.040344
1425922723.399,-10.510925
1425922723.414,-36.79712
1425922723.43,-56.747925
1425922723.446,-71.0495
1425922723.461,-81.173584
1425922723.477,-88.357666
1425922723.492,-93.163574
1425922723.508,-95.61682
1425922723.524,-95.686584
1425922723.539,-93.691284
1425922723.555,-90.36548
1425922723.57,-86.543884
1425922723.586,-82.741455
1425922723.602,-78.96814
1425922723.617,-74.82654
1425922723.633,-69.86011
1425922723.649,-63.935425
1425922723.664,-57.45868
1425922723.68,-51.22229
1425922723.696,-46.09662
1425922723.711,-42.624023
1425922723.727,-40.71942
1425922723.742,-39.5932
1425922723.758,-38.010437
1425922723.774,-34.67267
1425922723.789,-28.72461
1425922723.805,-20.085632
1425922723.821,-9.497314
1425922723.836,1.739502
1425922723.852,12.28479
1425922723.867,21.256104
1425922723.883,28.548706
1425922723.899,34.832947
1425922723.914,41.270935
1425922723.93,49.132263
1425922723.946,59.460083
1425922723.961,72.73468
1425922723.977,88.58502
1425922723.992,105.5069
1425922724.008,120.75403
1425922724.024,130.74951
1425922724.039,132.00336
1425922724.055,122.326355
1425922724.071,101.82727
1425922724.086,73.13202
1425922724.102,40.67041
1425922724.117,9.194397
1425922724.133,-17.627441
1425922724.149,-38.02014
1425922724.164,-52.06732
1425922724.18,-60.965942
1425922724.196,-66.084045
1425922724.211,-68.43768
1425922724.227,-68.586426
1425922724.242,-66.89917
1425922724.258,-63.86267
1425922724.274,-60.10962
1425922724.289,-56.26117
1425922724.305,-52.63867
1425922724.321,-49.121277
1425922724.336,-45.264038
1425922724.352,-40.61444
1425922724.367,-35.09845
1425922724.383,-29.229675
1425922724.399,-23.970215
1425922724.414,-20.276733
1425922724.43,-18.595642
1425922724.446,-18.497375
1425922724.461,-18.779419
1425922724.477,-17.916626
1425922724.492,-14.746155
1425922724.508,-8.950073
1425922724.524,-1.1942749
1425922724.539,7.2614136
1425922724.555,15.167969
1425922724.571,21.842651
1425922724.586,27.462158
1425922724.602,32.98413
1425922724.617,39.762756
1425922724.633,49.081238
1425922724.649,61.68347
1425922724.664,77.372314
1425922724.68,94.70126
1425922724.696,110.93677
1425922724.711,122.433075
1425922724.727,125.52872
1425922724.742,117.73401
1425922724.758,98.780365
1425922724.774,70.96228
1425922724.789,38.55255
1425922724.805,6.4096985
1425922724.821,-21.48819
1425922724.836,-43.056213
1425922724.852,-58.167328
1425922724.867,-67.96271
1425922724.883,-73.906586
1425922724.899,-77.063354
1425922724.914,-78.004425
1425922724.93,-77.04712
1425922724.946,-74.57761
1425922724.961,-71.15073
1425922724.977,-67.328125
1425922724.992,-63.42752
1425922725.008,-59.405853
1425922725.024,-55.013947
1425922725.039,-50.07019
1425922725.055,-44.69168
1425922725.071,-39.34543
1425922725.086,-34.65161
1425922725.102,-31.055206
1425922725.117,-28.532959
1425922725.133,-26.515808
1425922725.149,-24.01181
1425922725.164,-20.016418
1425922725.18,-13.920776
1425922725.196,-5.767395
1425922725.211,3.7424011
1425922725.227,13.521088
1425922725.242,22.556458
1425922725.258,30.343292
1425922725.274,37.110565
1425922725.289,43.804688
1425922725.305,51.773315
1425922725.321,62.26999
1425922725.336,75.8468
1425922725.352,91.78198
1425922725.367,107.844055
1425922725.383,120.56885
1425922725.399,126.1369
1425922725.414,121.64285
1425922725.43,106.222565
1425922725.446,81.569305
1425922725.461,51.46054
1425922725.477,20.519562
1425922725.492,-7.294861
1425922725.508,-29.657227
1425922725.524,-46.14572
1425922725.539,-57.58795
1425922725.555,-65.23871
1425922725.571,-70.004974
1425922725.586,-72.36151
1425922725.602,-72.531494
1425922725.617,-70.85443
1425922725.633,-67.9061
1425922725.649,-64.38266
1425922725.664,-60.77658
1425922725.68,-57.19458
1425922725.696,-53.361755
1425922725.711,-48.86029
1425922725.727,-43.475983
1425922725.742,-37.44583
1425922725.758,-31.483734
1425922725.774,-26.502014
1425922725.789,-23.162598
1425922725.805,-21.511261
1425922725.821,-20.771515
1425922725.836,-19.625824
1425922725.852,-16.694733
1425922725.867,-11.170593
1425922725.883,-3.1339111
1425922725.899,6.46521
1425922725.914,16.250305
1425922725.93,25.022522
1425922725.946,32.238953
1425922725.961,38.21704
1425922725.977,43.964584
1425922725.992,50.824387
1425922726.008,60.032013
1425922726.024,72.21182
1425922726.039,87.01187
1425922726.055,102.73894
1425922726.071,116.45174
1425922726.086,124.523575
1425922726.102,123.676254
1425922726.117,112.20628
1425922726.133,90.809906
1425922726.149,62.528778
1425922726.164,31.820404
1425922726.18,3.0455017
1425922726.196,-20.822647
1425922726.211,-38.75525
1425922726.227,-51.342148
1425922726.242,-59.875412
1425922726.258,-65.495895
1425922726.274,-68.812836
1425922726.289,-69.993286
1425922726.305,-69.21353
1425922726.321,-66.90782
1425922726.336,-63.79413
1425922726.352,-60.61064
1425922726.368,-57.8033
1425922726.383,-55.348404
1425922726.399,-52.81633
1425922726.414,-49.62886
1425922726.43,-45.3891
1425922726.446,-40.122177
1425922726.461,-34.35721
1425922726.477,-28.9272
1425922726.493,-24.621796
1425922726.508,-21.791504
1425922726.524,-20.10469
1425922726.539,-18.576218
1425922726.555,-15.9133
1425922726.571,-11.082687
1425922726.586,-3.7553864
1425922726.602,5.4927826
1425922726.618,15.424088
1425922726.633,24.680466
1425922726.649,32.34086
1425922726.664,38.324318
1425922726.68,43.326828
1425922726.696,48.51429
1425922726.711,55.096382
1425922726.727,63.955467
1425922726.743,75.37527
1425922726.758,88.83703
1425922726.774,102.799675
1425922726.789,114.71532
1425922726.805,121.34282
1425922726.821,119.65815
1425922726.836,107.9196
1425922726.852,86.56124
1425922726.868,58.316284
1425922726.883,27.437141
1425922726.899,-1.7279434
1425922726.914,-26.038208
1425922726.93,-44.283707
1425922726.946,-56.86326
1425922726.961,-65.05054
1425922726.977,-70.041374
1425922726.993,-72.58125
1425922727.008,-72.967995
1425922727.024,-71.504585
1425922727.039,-68.70749
1425922727.055,-65.37509
1425922727.071,-62.28583
1425922727.086,-59.910442
1425922727.102,-58.219532
1425922727.118,-56.73207
1425922727.133,-54.73699
1425922727.149,-51.685936
1425922727.164,-47.43091
1425922727.18,-42.380913
1425922727.196,-37.33966
1425922727.211,-33.167767
1425922727.227,-30.325851
1425922727.243,-28.613424
1425922727.258,-27.12223
1425922727.274,-24.614267
1425922727.289,-19.993181
1425922727.305,-12.786541
1425922727.321,-3.354928
1425922727.336,7.250197
1425922727.352,17.735462
1425922727.368,27.040096
1425922727.383,34.715275
1425922727.399,41.028473
1425922727.414,46.803925
1425922727.43,53.0764
1425922727.446,60.804695
1425922727.461,70.60823
1425922727.477,82.56511
1425922727.493,95.94863
1425922727.508,109.070656
1425922727.524,119.267555
1425922727.539,123.40737
1425922727.555,118.7647
1425922727.571,104.12349
1425922727.586,80.47622
1425922727.602,50.95545
1425922727.618,19.922073
1425922727.633,-8.4605255
1425922727.649,-31.452015
1425922727.664,-48.203953
1425922727.68,-59.382034
1425922727.696,-66.239044
1425922727.711,-69.8548
1425922727.727,-70.78667
1425922727.743,-69.31441
1425922727.758,-65.83668
1425922727.774,-61.142227
1425922727.789,-56.277687
1425922727.805,-52.135338
1425922727.821,-49.056717
1425922727.836,-46.739998
1425922727.852,-44.412743
1425922727.868,-41.32727
1425922727.883,-37.185585
1425922727.899,-32.327385
1425922727.914,-27.580482
1425922727.93,-23.834648
1425922727.946,-21.592094
1425922727.961,-20.633087
1425922727.977,-20.028542
1425922727.993,-18.517128
1425922728.008,-15.020287
1425922728.024,-9.140503
1425922728.039,-1.2939148
1425922728.055,7.434128
1425922728.071,15.876678
1425922728.086,23.215729
1425922728.102,29.382187
1425922728.118,34.99283
1425922728.133,41.095657
1425922728.149,48.805832
1425922728.164,58.916122
1425922728.18,71.6413
1425922728.196,86.32347
1425922728.211,101.254105
1425922728.227,113.70769
1425922728.243,120.39725
1425922728.258,118.39128
1425922728.274,106.196915
1425922728.289,84.528885
1425922728.305,56.30481
1425922728.321,25.87735
1425922728.336,-2.405365
1425922728.352,-25.362396
1425922728.368,-41.683075
1425922728.383,-51.702072
1425922728.399,-56.749374
1425922728.414,-58.317276
1425922728.43,-57.58725
1425922728.446,-55.321228
1425922728.461,-52.067535
1425922728.477,-48.292618
1425922728.493,-44.4319
1425922728.508,-40.799088
1425922728.524,-37.480774
1425922728.539,-34.30327
1425922728.555,-31.027771
1425922728.571,-27.533829
1425922728.586,-23.950775
1425922728.602,-20.650375
1425922728.618,-18.047714
1425922728.633,-16.278442
1425922728.649,-15.05835
1425922728.664,-13.676331
1425922728.68,-11.258713
1425922728.696,-7.1536255
1425922728.711,-1.1895447
1425922728.727,6.235733
1425922728.743,14.380081
1425922728.758,22.459198
1425922728.774,29.986008
1425922728.789,36.957
1425922728.805,43.857178
1425922728.821,51.56302
1425922728.836,61.01581
1425922728.852,72.78322
1425922728.868,86.50267
1425922728.883,100.509094
1425922728.899,111.84706
1425922728.914,116.940506
1425922728.93,112.743546
1425922728.946,97.98389
1425922728.961,73.87605
1425922728.977,43.945084
1425922728.993,12.903656
1425922729.008,-14.832413
1425922729.024,-36.41359
1425922729.04,-50.996017
1425922729.055,-59.41812
1425922729.071,-63.281708
1425922729.086,-64.143616
1425922729.102,-63.013596
1425922729.118,-60.438614
1425922729.133,-56.68463
1425922729.149,-52.005966
1425922729.165,-46.705276
1425922729.18,-41.03775
1425922729.196,-35.143234
1425922729.211,-29.053207
1425922729.227,-22.843628
1425922729.243,-16.763199
1425922729.258,-11.19635
1425922729.274,-6.5632477
1425922729.29,-3.023056
1425922729.305,-0.39711
1425922729.321,1.8644562
1425922729.336,4.39534
1425922729.352,7.7123566
1425922729.368,12.003708
1425922729.383,17.185196
1425922729.399,22.97554
1425922729.415,29.086624
1425922729.43,35.328827
1425922729.446,41.691467
1425922729.461,48.414078
1425922729.477,56.054398
1425922729.493,65.32544
1425922729.508,76.7189
1425922729.524,89.90265
1425922729.54,103.20715
1425922729.555,113.567856
1425922729.571,117.333954
1425922729.586,111.52495
1425922729.602,95.177505
1425922729.618,69.95465
1425922729.633,39.751007
1425922729.649,9.367798
1425922729.665,-17.06108
1425922729.68,-37.20694
1425922729.696,-50.784134
1425922729.711,-59.005325
1425922729.727,-63.596695
1425922729.743,-66.02359
1425922729.758,-67.070435
1425922729.774,-67.00331
1425922729.79,-65.84448
1425922729.805,-63.64215
1425922729.821,-60.512955
1425922729.836,-56.58487
1425922729.852,-51.898148
1425922729.868,-46.419357
1425922729.883,-40.198914
1425922729.899,-33.49408
1425922729.915,-26.813461
1425922729.93,-20.775726
1425922729.946,-15.826477
1425922729.961,-12.013489
1425922729.977,-8.865662
1425922729.993,-5.5955505
1425922730.008,-1.4156342
1425922730.024,4.060959
1425922730.04,10.675842
1425922730.055,17.830887
1425922730.071,24.78238
1425922730.086,31.022003
1425922730.102,36.555664
1425922730.118,41.94052
1425922730.133,48.18576
1425922730.149,56.427094
1425922730.165,67.49121
1425922730.18,81.335236
1425922730.196,96.65251
1425922730.211,110.79559
1425922730.227,120.2155
1425922730.243,121.46303
1425922730.258,112.40364
1425922730.274,93.124146
1425922730.29,66.08673
1425922730.305,35.385788
1425922730.321,5.3990936
1425922730.336,-20.502823
1425922730.352,-40.680054
1425922730.368,-55.171356
1425922730.383,-64.99153
1425922730.399,-71.38962
1425922730.415,-75.29224
1425922730.43,-77.28081
1425922730.446,-77.72171
1425922730.461,-77.014206
1425922730.477,-75.5501
1425922730.493,-73.64662
1425922730.508,-71.31566
1425922730.524,-68.318695
1425922730.54,-64.305435
1425922730.555,-59.108047
1425922730.571,-52.952698
1425922730.586,-46.50344
1425922730.602,-40.654427
1425922730.618,-36.138054
1425922730.633,-33.154816
1425922730.649,-31.180664
1425922730.665,-29.111427
1425922730.68,-25.669205
1425922730.696,-19.997208
1425922730.711,-12.003769
1425922730.727,-2.4315872
1425922730.743,7.501343
1425922730.758,16.658134
1425922730.774,24.466293
1425922730.79,31.14225
1425922730.805,37.57361
1425922730.821,45.017815
1425922730.836,54.633705
1425922730.852,67.06781
1425922730.868,81.98591
1425922730.883,97.78803
1425922730.899,111.59899
1425922730.915,119.81658
1425922730.93,119.10518
1425922730.946,107.63515
1425922730.961,85.93221
1425922730.977,56.931053
1425922730.993,25.080017
1425922731.008,-5.134659
1425922731.024,-30.504402
1425922731.04,-49.756397
1425922731.055,-63.307747
1425922731.071,-72.404175
1425922731.086,-78.25135
1425922731.102,-81.56358
1425922731.118,-82.67236
1425922731.133,-81.83909
1425922731.149,-79.59233
1425922731.165,-76.689835
1425922731.18,-73.827194
1425922731.196,-71.30882
1425922731.211,-68.88504
1425922731.227,-65.90889
1425922731.243,-61.717464
1425922731.258,-56.05743
1425922731.274,-49.301315
1425922731.29,-42.378525
1425922731.305,-36.41204
1425922731.321,-32.174522
1425922731.336,-29.674511
1425922731.352,-28.06474
1425922731.368,-25.927471
1425922731.383,-21.854881
1425922731.399,-15.056854
1425922731.415,-5.7114716
1425922731.43,5.11565
1425922731.446,15.97831
1425922731.461,25.649357
1425922731.477,33.64659
1425922731.493,40.3713
1425922731.508,46.91011
1425922731.524,54.619774
1425922731.54,64.68419
1425922731.555,77.697525
1425922731.571,93.32602
1425922731.586,110.00824
1425922731.602,124.944916
1425922731.618,134.5255
1425922731.633,135.28297
1425922731.649,125.02777
1425922731.665,103.85034
1425922731.68,74.3285
1425922731.696,40.82165
1425922731.712,8.047195
1425922731.727,-20.27505
1425922731.743,-42.319912
1425922731.758,-58.111763
1425922731.774,-68.78943
1425922731.79,-75.647224
1425922731.805,-79.58943
1425922731.821,-81.03496
1425922731.837,-80.24489
1425922731.852,-77.67711
1425922731.868,-74.0712
1425922731.883,-70.24536
1425922731.899,-66.71532
1425922731.915,-63.48991
1425922731.93,-60.138466
1425922731.946,-56.079945
1425922731.962,-51.030804
1425922731.977,-45.256363
1425922731.993,-39.51539
1425922732.008,-34.670067
1425922732.024,-31.206131
1425922732.04,-28.86352
1425922732.055,-26.66993
1425922732.071,-23.266752
1425922732.087,-17.573862
1425922732.102,-9.273132
1425922732.118,1.0210733
1425922732.133,12.031042
1425922732.149,22.36857
1425922732.165,31.130386
1425922732.18,38.262817
1425922732.196,44.58693
1425922732.212,51.423378
1425922732.227,60.18195
1425922732.243,71.81549
1425922732.258,86.382256
1425922732.274,102.67825
1425922732.29,118.14416
1425922732.305,129.22237
1425922732.321,132.18253
1425922732.337,124.38293
1425922732.352,105.337845
1425922732.368,77.13875
1425922732.383,43.995342
1425922732.399,10.82689
1425922732.415,-18.173576
1425922732.43,-40.675922
1425922732.446,-56.339153
1425922732.462,-66.230675
1425922732.477,-71.87575
1425922732.493,-74.55805
1425922732.508,-75.08446
1425922732.524,-73.93094
1425922732.54,-71.52689
1425922732.555,-68.348114
1425922732.571,-64.7691
1425922732.587,-60.978447
1425922732.602,-56.89459
1425922732.618,-52.32773
1425922732.633,-47.21129
1425922732.649,-41.79241
1425922732.665,-36.583454
1425922732.68,-32.15574
1425922732.696,-28.808575
1425922732.712,-26.3498
1425922732.727,-24.0888
1425922732.743,-21.055319
1425922732.758,-16.409729
1425922732.774,-9.776657
1425922732.79,-1.3951397
1425922732.805,7.992367
1425922732.821,17.497074
1425922732.837,26.456978
1425922732.852,34.73035
1425922732.868,42.753086
1425922732.883,51.44492
1425922732.899,61.90467
1425922732.915,75.00563
1425922732.93,90.81384
1425922732.946,108.07091
1425922732.962,124.0141
1425922732.977,134.78004
1425922732.993,136.45743
1425922733.008,126.46078
1425922733.024,104.71098
1425922733.04,73.89096
1425922733.055,38.680573
1425922733.071,4.2315254
1425922733.087,-25.401955
1425922733.102,-48.22333
1425922733.118,-64.23789
1425922733.133,-74.675186
1425922733.149,-81.059746
1425922733.165,-84.52564
1425922733.18,-85.764404
1425922733.196,-85.20851
1425922733.212,-83.357185
1425922733.227,-80.73198
1425922733.243,-77.73597
1425922733.258,-74.43434
1425922733.274,-70.512375
1425922733.29,-65.51925
1425922733.305,-59.223007
1425922733.321,-51.91381
1425922733.337,-44.38363
1425922733.352,-37.672043
1425922733.368,-32.541435
1425922733.383,-29.04998
1425922733.399,-26.442986
1425922733.415,-23.371529
1425922733.43,-18.504814
1425922733.446,-11.098816
1425922733.462,-1.3658905
1425922733.477,9.670837
1425922733.493,20.646553
1425922733.508,30.499664
1425922733.524,38.963768
1425922733.54,46.679512
1425922733.555,54.918144
1425922733.571,65.13434
1425922733.587,78.39462
1425922733.602,94.83346
1425922733.618,113.17964
1425922733.633,130.65225
1425922733.649,143.31523
1425922733.665,147.08978
1425922733.68,139.08359
1425922733.696,118.8548
1425922733.712,88.78438
1425922733.727,53.47245
1425922733.743,18.155975
1425922733.758,-12.884254
1425922733.774,-37.465317
1425922733.79,-55.47786
1425922733.805,-68.12834
1425922733.821,-76.8736
1425922733.837,-82.729774
1425922733.852,-86.15468
1425922733.868,-87.372284
1425922733.883,-86.68117
1425922733.899,-84.62314
1425922733.915,-81.79808
1425922733.93,-78.648895
1425922733.946,-75.29141
1425922733.962,-71.57715
1425922733.977,-67.26366
1425922733.993,-62.245804
1425922734.008,-56.728073
1425922734.024,-51.211502
1425922734.04,-46.329086
1425922734.055,-42.545135
1425922734.071,-39.8246
1425922734.087,-37.496735
1425922734.102,-34.376312
1425922734.118,-29.227127
1425922734.133,-21.30513
1425922734.149,-10.7569275
1425922734.165,1.369812
1425922734.18,13.542633
1425922734.196,24.375214
1425922734.212,33.240463
1425922734.227,40.533203
1425922734.243,47.478134
1425922734.258,55.783707
1425922734.274,66.96297
1425922734.29,81.736725
1425922734.305,99.497696
1425922734.321,118.03085
1425922734.337,133.67064
1425922734.352,142.1172
1425922734.368,139.6928
1425922734.384,124.70259
1425922734.399,98.21333
1425922734.415,63.939926
1425922734.43,27.050476
1425922734.446,-7.4358063
1425922734.462,-36.105286
1425922734.477,-57.78282
1425922734.493,-73.16432
1425922734.508,-83.82991
1425922734.524,-91.1853
1425922734.54,-95.92537
1425922734.555,-98.12689
1425922734.571,-97.72902
1425922734.587,-95.02849
1425922734.602,-90.81894
1425922734.618,-86.16327
1425922734.634,-81.90459
1425922734.649,-78.31146
1425922734.665,-74.979996
1425922734.68,-71.114334
1425922734.696,-66.0244
1425922734.712,-59.57823
1425922734.727,-52.31871
1425922734.743,-45.29724
1425922734.759,-39.559433
1425922734.774,-35.635056
1425922734.79,-33.22461
1425922734.805,-31.285614
1425922734.821,-28.393448
1425922734.837,-23.338287
1425922734.852,-15.592606
1425922734.868,-5.5827026
1425922734.884,5.529953
1425922734.899,16.28685
1425922734.915,25.555405
1425922734.93,32.934235
1425922734.946,38.907745
1425922734.962,44.588165
1425922734.977,51.320694
1425922734.993,60.26242
1425922735.009,72.11252
1425922735.024,86.83969
1425922735.04,103.400665
1425922735.055,119.54318
1425922735.071,131.91805
1425922735.087,136.70886
1425922735.102,130.8024
1425922735.118,113.01709
1425922735.134,84.84686
1425922735.149,50.208908
1425922735.165,14.245468
1425922735.18,-18.310501
1425922735.196,-44.476456
1425922735.212,-63.475998
1425922735.227,-76.182175
1425922735.243,-84.13382
1425922735.259,-88.61415
1425922735.274,-90.282166
1425922735.29,-89.404816
1425922735.305,-86.30472
1425922735.321,-81.668304
1425922735.337,-76.50563
1425922735.352,-71.81084
1425922735.368,-68.12782
1425922735.384,-65.31088
1425922735.399,-62.68428
1425922735.415,-59.374863
1425922735.43,-54.912384
1425922735.446,-49.446457
1425922735.462,-43.764786
1425922735.477,-38.883026
1425922735.493,-35.561142
1425922735.509,-33.83989
1425922735.524,-32.900826
1425922735.54,-31.364464
1425922735.555,-27.808327
1425922735.571,-21.304558
1425922735.587,-11.8280945
1425922735.602,-0.27201843
1425922735.618,11.911705
1425922735.634,23.225098
1425922735.649,32.698982
1425922735.665,40.218132
1425922735.68,46.485916
1425922735.696,52.768867
1425922735.712,60.43244
1425922735.727,70.57504
1425922735.743,83.69264
1425922735.759,99.39548
1425922735.774,116.1365
1425922735.79,131.17648
1425922735.805,140.89005
1425922735.821,141.68057
1425922735.837,131.17581
1425922735.852,109.27767
1425922735.868,78.52561
1425922735.884,43.400017
1425922735.899,8.902557
1425922735.915,-20.930374
1425922735.93,-43.989647
1425922735.946,-60.09548
1425922735.962,-70.299614
1425922735.977,-75.98406
1425922735.993,-78.25768
1425922736.009,-77.8209
1425922736.024,-75.26096
1425922736.04,-71.257416
1425922736.055,-66.69256
1425922736.071,-62.355873
1425922736.087,-58.66458
1425922736.102,-55.4842
1425922736.118,-52.229393
1425922736.134,-48.230225
1425922736.149,-43.152473
1425922736.165,-37.298737
1425922736.18,-31.527771
1425922736.196,-26.828293
1425922736.212,-23.829773
1425922736.227,-22.37925
1425922736.243,-21.51027
1425922736.259,-19.81181
1425922736.274,-16.071625
1425922736.29,-9.783108
1425922736.305,-1.3618088
1425922736.321,8.117996
1425922736.337,17.412067
1425922736.352,25.691616
1425922736.368,32.843437
1425922736.384,39.533733
1425922736.399,46.904167
1425922736.415,56.215763
1425922736.43,68.34659
1425922736.446,83.349335
1425922736.462,100.10499
1425922736.477,116.13072
1425922736.493,127.8476
1425922736.509,131.44615
1425922736.524,124.04607
1425922736.54,104.87622
1425922736.555,75.84259
1425922736.571,41.110714
1425922736.587,5.853035
1425922736.602,-25.285496
1425922736.618,-49.437153
1425922736.634,-65.906494
1425922736.649,-75.66792
1425922736.665,-80.39729
1425922736.68,-81.68279
1425922736.696,-80.53395
1425922736.712,-77.53339
1425922736.727,-73.10814
1425922736.743,-67.749374
1425922736.759,-61.986347
1425922736.774,-56.18877
1425922736.79,-50.42594
1425922736.805,-44.54416
1425922736.821,-38.35721
1425922736.837,-31.984756
1425922736.852,-25.878284
1425922736.868,-20.763006
1425922736.884,-17.164515
1425922736.899,-15.095617
1425922736.915,-13.895823
1425922736.93,-12.411636
1425922736.946,-9.484238
1425922736.962,-4.4019566
1425922736.977,2.79702
1425922736.993,11.38979
1425922737.009,20.34787
1425922737.024,28.744133
1425922737.04,36.119385
1425922737.055,42.667248
1425922737.071,49.19976
1425922737.087,56.895035
1425922737.102,66.98998
1425922737.118,80.14866
1425922737.134,95.89255
1425922737.149,112.13406
1425922737.165,125.347755
1425922737.18,131.36456
1425922737.196,126.78953
1425922737.212,110.35494
1425922737.227,83.680984
1425922737.243,50.854256
1425922737.259,17.075132
1425922737.274,-13.048395
1425922737.29,-36.811844
1425922737.306,-53.753212
1425922737.321,-64.93744
1425922737.337,-71.929886
1425922737.352,-75.858604
1425922737.368,-77.24165
1425922737.384,-76.26027
1425922737.399,-73.31405
1425922737.415,-69.197464
1425922737.431,-64.93794
1425922737.446,-61.27274
1425922737.462,-58.30996
1425922737.477,-55.491867
1425922737.493,-52.005386
1425922737.509,-47.292355
1425922737.524,-41.465485
1425922737.54,-35.334038
1425922737.556,-30.016684
1425922737.571,-26.35723
1425922737.587,-24.470915
1425922737.602,-23.57044
1425922737.618,-22.265125
1425922737.634,-19.069881
1425922737.649,-13.091886
1425922737.665,-4.3621807
1425922737.681,6.1384487
1425922737.696,16.952908
1425922737.712,26.735966
1425922737.727,34.87457
1425922737.743,41.661186
1425922737.759,48.17742
1425922737.774,55.865494
1425922737.79,66.01805
1425922737.806,79.25435
1425922737.821,95.18742
1425922737.837,112.132324
1425922737.852,127.14996
1425922737.868,136.54364
1425922737.884,136.81873
1425922737.899,125.88774
1425922737.915,104.02439
1425922737.931,73.996605
1425922737.946,40.291466
1425922737.962,7.6565857
1425922737.977,-20.323822
1425922737.993,-42.037655
1425922738.009,-57.655834
1425922738.024,-68.360085
1425922738.04,-75.40097
1425922738.056,-79.57236
1425922738.071,-81.20423
1425922738.087,-80.5359
1425922738.102,-78.06108
1425922738.118,-74.57637
1425922738.134,-70.933846
1425922738.149,-67.68164
1425922738.165,-64.82742
1425922738.181,-61.876747
1425922738.196,-58.12377
1425922738.212,-53.11666
1425922738.227,-46.93952
1425922738.243,-40.35972
1425922738.259,-34.451675
1425922738.274,-30.192768
1425922738.29,-27.889019
1425922738.306,-26.986027
1425922738.321,-26.182207
1425922738.337,-23.971247
1425922738.352,-19.251839
1425922738.368,-11.780733
1425922738.384,-2.2175941
1425922738.399,8.181587
1425922738.415,18.083649
1425922738.431,26.584705
1425922738.446,33.49979
1425922738.462,39.371742
1425922738.477,45.269234
1425922738.493,52.44462
1425922738.509,62.022453
1425922738.524,74.52674
1425922738.54,89.51716
1425922738.556,105.249756
1425922738.571,118.771194
1425922738.587,126.438095
1425922738.602,125.010254
1425922738.618,112.83442
1425922738.634,90.63018
1425922738.649,61.45974
1425922738.665,29.788303
1425922738.681,0.039844513
1425922738.696,-24.695522
1425922738.712,-43.309498
1425922738.727,-56.385353
1425922738.743,-65.408936
1425922738.759,-71.71013
1425922738.774,-75.98503
1425922738.79,-78.265755
1425922738.806,-78.374756
1425922738.821,-76.3947
1425922738.837,-72.898315
1425922738.852,-68.81851
1425922738.868,-65.06851
1425922738.884,-62.113773
1425922738.899,-59.825096
1425922738.915,-57.582535
1425922738.931,-54.689198
1425922738.946,-50.81143
1425922738.962,-46.23584
1425922738.977,-41.75061
1425922738.993,-38.25566
1425922739.009,-36.24063
1425922739.024,-35.485344
1425922739.04,-35.007545
1425922739.056,-33.47647
1425922739.071,-29.731129
1425922739.087,-23.220833
1425922739.102,-14.271442
1425922739.118,-3.871767
1425922739.134,6.6617737
1425922739.149,16.215965
1425922739.165,24.250309
1425922739.181,30.919117
1425922739.196,36.953514
1425922739.212,43.395294
1425922739.227,51.251564
1425922739.243,61.266384
1425922739.259,73.71316
1425922739.274,88.11824
1425922739.29,103.00666
1425922739.306,115.83332
1425922739.321,123.33017
1425922739.337,122.344925
1425922739.352,111.00851
1425922739.368,89.59347
1425922739.384,60.76632
1425922739.399,28.833656
1425922739.415,-1.6314106
1425922739.431,-27.18174
1425922739.446,-46.279232
1425922739.462,-59.247314
1425922739.477,-67.46697
1425922739.493,-72.446
1425922739.509,-75.16824
1425922739.524,-75.99987
1425922739.54,-75.00738
1425922739.556,-72.38024
1425922739.571,-68.65141
1425922739.587,-64.57365
1425922739.602,-60.79775
1425922739.618,-57.57301
1425922739.634,-54.63036
1425922739.649,-51.369473
1425922739.665,-47.20659
1425922739.681,-42.03956
1425922739.696,-36.34154
1425922739.712,-31.069504
1425922739.727,-27.185837
1425922739.743,-25.172396
1425922739.759,-24.692087
1425922739.774,-24.643671
1425922739.79,-23.554466
1425922739.806,-20.18416
1425922739.821,-14.062464
1425922739.837,-5.6506157
1425922739.852,3.847849
1425922739.868,13.016199
1425922739.884,20.850378
1425922739.899,27.090199
1425922739.915,32.310272
1425922739.931,37.584972
1425922739.946,44.115646
1425922739.962,52.83394
1425922739.978,64.21821
1425922739.993,78.06645
1425922740.009,93.29469
1425922740.024,107.77513
1425922740.04,118.486084
1425922740.056,122.08917
1425922740.071,116.00882
1425922740.087,99.52089
1425922740.103,74.27963
1425922740.118,44.023087
1425922740.134,13.391521
1425922740.149,-13.61911
1425922740.165,-34.693123
1425922740.181,-49.504154
1425922740.196,-59.082546
1425922740.212,-64.84793
1425922740.228,-67.85963
1425922740.243,-68.593216
1425922740.259,-67.20423
1425922740.274,-64.01579
1425922740.29,-59.6877
1425922740.306,-55.115353
1425922740.321,-51.041958
1425922740.337,-47.696907
1425922740.353,-44.771324
1425922740.368,-41.65444
1425922740.384,-37.83902
1425922740.399,-33.295105
1425922740.415,-28.544106
1425922740.431,-24.41877
1425922740.446,-21.592934
1425922740.462,-20.170143
1425922740.478,-19.478806
1425922740.493,-18.313416
1425922740.509,-15.387878
1425922740.524,-9.969315
1425922740.54,-2.1769867
1425922740.556,6.973297
1425922740.571,16.09414
1425922740.587,23.981094
1425922740.603,30.17463
1425922740.618,35.101593
1425922740.634,39.914185
1425922740.649,45.999367
1425922740.665,54.498703
1425922740.681,65.96006
1425922740.696,80.02316
1425922740.712,95.239655
1425922740.728,109.07905
1425922740.743,118.23094
1425922740.759,119.4372
1425922740.774,110.52718
1425922740.79,91.43056
1425922740.806,64.45724
1425922740.821,33.738136
1425922740.837,3.857933
1425922740.853,-21.558731
1425922740.868,-40.79406
1425922740.884,-54.001755
1425922740.899,-62.45986
1425922740.915,-67.54913
1425922740.931,-70.13487
1425922740.946,-70.511604
1425922740.962,-68.839645
1425922740.978,-65.54216
1425922740.993,-61.426384
1425922741.009,-57.390053
1425922741.024,-54.048035
1425922741.04,-51.41034
1425922741.056,-48.959732
1425922741.071,-45.949974
1425922741.087,-41.903732
1425922741.103,-36.8655
1425922741.118,-31.53592
1425922741.134,-26.87165
1425922741.149,-23.69934
1425922741.165,-22.195961
1425922741.181,-21.721825
1425922741.196,-20.968666
1425922741.212,-18.501015
1425922741.228,-13.340477
1425922741.243,-5.415535
1425922741.259,4.4046936
1425922741.274,14.675255
1425922741.29,24.016945
1425922741.306,31.66896
1425922741.321,37.800278
1425922741.337,43.343414
1425922741.353,49.683792
1425922741.368,58.12551
1425922741.384,69.52605
1425922741.399,83.89279
1425922741.415,100.10989
1425922741.431,115.788704
1425922741.446,127.52164
1425922741.462,131.61414
1425922741.478,125.29178
1425922741.493,107.77469
1425922741.509,80.87691
1425922741.524,48.575623
1425922741.54,15.792824
1425922741.556,-13.203453
1425922741.571,-35.935265
1425922741.587,-52.07125
1425922741.603,-62.799767
1425922741.618,-69.82945
1425922741.634,-74.44597
1425922741.649,-77.20143
1425922741.665,-78.09733
1425922741.681,-77.09682
1425922741.696,-74.49275
1425922741.712,-70.98014
1425922741.728,-67.39189
1425922741.743,-64.33919
1425922741.759,-61.879105
1425922741.774,-59.557617
1425922741.79,-56.683853
1425922741.806,-52.758224
1425922741.821,-47.791733
1425922741.837,-42.398895
1425922741.853,-37.478745
1425922741.868,-33.820206
1425922741.884,-31.651886
1425922741.899,-30.494064
1425922741.915,-29.303268
1425922741.931,-26.85315
1425922741.946,-22.206055
1425922741.962,-15.053253
1425922741.978,-5.805191
1425922741.993,4.571106
1425922742.009,14.936386
1425922742.024,24.391129
1425922742.04,32.548874
1425922742.056,39.66133
1425922742.071,46.504074
1425922742.087,54.101105
1425922742.103,63.49298
1425922742.118,75.4435
1425922742.134,90.147964
1425922742.149,106.81879
1425922742.165,123.414246
1425922742.181,136.63347
1425922742.196,142.59572
1425922742.212,137.96062
1425922742.228,121.28168
1425922742.243,93.76402
1425922742.259,59.15419
1425922742.274,22.588318
1425922742.29,-11.069748
1425922742.306,-38.561813
1425922742.321,-58.812805
1425922742.337,-72.57446
1425922742.353,-81.48459
1425922742.368,-87.16109
1425922742.384,-90.72693
1425922742.399,-92.769196
1425922742.415,-93.5956
1425922742.431,-93.49687
1425922742.446,-92.77638
1425922742.462,-91.75311
1425922742.478,-90.58333
1425922742.493,-89.283905
1425922742.509,-87.71689
1425922742.524,-85.71416
1425922742.54,-83.16127
1425922742.556,-80.10805
1425922742.571,-76.75258
1425922742.587,-73.40869
1425922742.603,-70.3618
1425922742.618,-67.69913
1425922742.634,-65.229065
1425922742.65,-62.468765
1425922742.665,-58.768692
1425922742.681,-53.53018
1425922742.696,-46.367767
1425922742.712,-37.26877
1425922742.728,-26.578568
1425922742.743,-14.932892
1425922742.759,-3.088272
1425922742.775,8.273315
1425922742.79,18.687744
1425922742.806,28.020233
1425922742.821,36.49858
1425922742.837,44.6868
1425922742.853,53.362885
1425922742.868,63.39688
1425922742.884,75.50313
1425922742.9,89.915665
1425922742.915,105.994995
1425922742.931,121.93628
1425922742.946,134.80447
1425922742.962,141.08972
1425922742.978,137.77228
1425922742.993,123.460205
1425922743.009,99.121185
1425922743.025,67.98291
1425922743.04,34.61438
1425922743.056,3.4484558
1425922743.071,-22.4328
1425922743.087,-41.849365
1425922743.103,-55.247925
1425922743.118,-63.852936
1425922743.134,-68.79776
1425922743.15,-70.72589
1425922743.165,-69.86728
1425922743.181,-66.4827
1425922743.196,-61.207703
1425922743.212,-55.094116
1425922743.228,-49.286285
1425922743.243,-44.59485
1425922743.259,-41.15213
1425922743.275,-38.455994
1425922743.29,-35.64273
1425922743.306,-31.991028
1425922743.321,-27.261261
1425922743.337,-21.835052
1425922743.353,-16.47647
1425922743.368,-11.951599
1425922743.384,-8.598175
1425922743.4,-6.1438293
1425922743.415,-3.7461548
1425922743.431,-0.29553223
1425922743.446,5.179016
1425922743.462,13.082001
1425922743.478,23.104279
1425922743.493,34.290985
1425922743.509,45.34488
1425922743.525,55.152374
1425922743.54,63.164154
1425922743.556,69.55319
1425922743.571,75.11734
1425922743.587,80.92404
1425922743.603,87.99719
1425922743.618,96.98111
1425922743.634,107.99826
1425922743.65,120.366516
1425922743.665,132.45001
1425922743.681,141.6265
1425922743.696,144.7356
1425922743.712,138.90646
1425922743.728,122.64935
1425922743.743,96.66791
1425922743.759,63.911774
1425922743.775,28.796692
1425922743.79,-4.1301575
1425922743.806,-31.535095
1425922743.821,-51.933197
1425922743.837,-65.55954
1425922743.853,-73.61929
1425922743.868,-77.486694
1425922743.884,-78.16742
1425922743.9,-76.30521
1425922743.915,-72.46124
1425922743.931,-67.349396
1425922743.946,-61.800232
1425922743.962,-56.53409
1425922743.978,-51.842804
1425922743.993,-47.498444
1425922744.009,-42.936462
1425922744.025,-37.67578
1425922744.04,-31.674194
1425922744.056,-25.45819
1425922744.071,-19.882843
1425922744.087,-15.658142
1425922744.103,-12.897461
1425922744.118,-10.977081
1425922744.134,-8.755615
1425922744.15,-5.0821533
1425922744.165,0.6767578
1425922744.181,8.357849
1425922744.196,17.135803
1425922744.212,25.865112
1425922744.228,33.604523
1425922744.243,39.99185
1425922744.259,45.383636
1425922744.275,50.682465
1425922744.29,57.077393
1425922744.306,65.60309
1425922744.321,76.77219
1425922744.337,90.13132
1425922744.353,104.07492
1425922744.368,115.84775
1425922744.384,122.093475
1425922744.4,119.7735
1425922744.415,107.294586
1425922744.431,85.212494
1425922744.446,56.266937
1425922744.462,24.583313
1425922744.478,-5.5566406
1425922744.493,-30.986816
1425922744.509,-50.233917
1425922744.525,-63.40381
1425922744.54,-71.533936
1425922744.556,-75.80725
1425922744.571,-77.10443
1425922744.587,-75.97696
1425922744.603,-72.87872
1425922744.618,-68.38272
1425922744.634,-63.159546
1425922744.65,-57.821777
1425922744.665,-52.68933
1425922744.681,-47.780334
1425922744.696,-42.89572
1425922744.712,-37.919525
1425922744.728,-32.966278
1425922744.743,-28.398895
1425922744.759,-24.569366
1425922744.775,-21.625763
1425922744.79,-19.241638
1425922744.806,-16.724579
1425922744.821,-13.22821
1425922744.837,-8.138489
1425922744.853,-1.3305969
1425922744.868,6.7742615
1425922744.884,15.400299
1425922744.9,23.76059
1425922744.915,31.428345
1425922744.931,38.530426
1425922744.946,45.809845
1425922744.962,54.350983
1425922744.978,65.241
1425922744.993,78.93912
1425922745.009,94.76947
1425922745.025,110.605316
1425922745.04,123.07446
1425922745.056,128.34692
1425922745.071,123.41504
1425922745.087,107.266205
1425922745.103,81.41968
1425922745.118,49.600647
1425922745.134,16.529419
1425922745.15,-13.553986
1425922745.165,-37.960785
1425922745.181,-55.860626
1425922745.196,-67.80145
1425922745.212,-74.90866
1425922745.228,-78.21936
1425922745.243,-78.48331
1425922745.259,-76.284454
1425922745.275,-72.3689
1425922745.29,-67.61359
1425922745.306,-62.896667
1425922745.322,-58.719727
1425922745.337,-55.0589
1425922745.353,-51.40268
1425922745.368,-47.155426
1425922745.384,-42.058105
1425922745.4,-36.417633
1425922745.415,-31.067596
1425922745.431,-26.937317
1425922745.446,-24.574005
1425922745.462,-23.7417
1425922745.478,-23.428833
1425922745.493,-22.216248
1425922745.509,-18.881104
1425922745.525,-12.913055
1425922745.54,-4.652527
1425922745.556,4.8780212
1425922745.572,14.509201
1425922745.587,23.403076
1425922745.603,31.375702
1425922745.618,38.885834
1425922745.634,46.908844
1425922745.65,56.572906
1425922745.665,68.747086
1425922745.681,83.482956
1425922745.697,99.588196
1425922745.712,114.44978
1425922745.728,124.427155
1425922745.743,125.841995
1425922745.759,116.33151
1425922745.775,95.86087
1425922745.79,66.97647
1425922745.806,34.046234
1425922745.822,1.8507233
1425922745.837,-25.926102
1425922745.853,-47.420578
1425922745.868,-62.587875
1425922745.884,-72.37044
1425922745.9,-77.910706
1425922745.915,-80.03816
1425922745.931,-79.25311
1425922745.947,-76.08028
1425922745.962,-71.336395
1425922745.978,-66.08125
1425922745.993,-61.348007
1425922746.009,-57.709244
1425922746.025,-55.074005
1425922746.04,-52.741867
1425922746.056,-49.797638
1425922746.072,-45.619522
1425922746.087,-40.243973
1425922746.103,-34.36769
1425922746.118,-29.070404
1425922746.134,-25.236938
1425922746.15,-23.072876
1425922746.165,-21.874802
1425922746.181,-20.281525
1425922746.197,-16.813278
1425922746.212,-10.51004
1425922746.228,-1.33107
1425922746.243,9.810257
1425922746.259,21.454987
1425922746.275,32.20865
1425922746.29,41.24469
1425922746.306,48.586334
1425922746.322,55.025177
1425922746.337,61.835327
1425922746.353,70.396515
1425922746.368,81.74519
1425922746.384,96.15062
1425922746.4,112.69147
1425922746.415,129.0374
1425922746.431,141.67578
1425922746.447,146.69475
1425922746.462,140.99869
1425922746.478,123.51981
1425922746.493,95.78386
1425922746.509,61.601868
1425922746.525,25.863564
1425922746.54,-7.015724
1425922746.556,-34.25859
1425922746.572,-55.105064
1425922746.587,-70.31308
1425922746.603,-81.22282
1425922746.618,-88.922676
1425922746.634,-93.89369
1425922746.65,-96.22858
1425922746.665,-96.02388
1425922746.681,-93.757545
1425922746.697,-90.29434
1425922746.712,-86.59198
1425922746.728,-83.30762
1425922746.743,-80.536606
1425922746.759,-77.81568
1425922746.775,-74.45228
1425922746.79,-69.97023
1425922746.806,-64.42641
1425922746.822,-58.446163
1425922746.837,-52.97795
1425922746.853,-48.74948
1425922746.868,-45.915802
1425922746.884,-43.839764
1425922746.9,-41.351128
1425922746.915,-37.16158
1425922746.931,-30.450638
1425922746.947,-21.15596
1425922746.962,-10.049187
1425922746.978,1.6382408
1425922746.993,12.70023
1425922747.009,22.427868
1425922747.025,30.805374
1425922747.04,38.493786
1425922747.056,46.531136
1425922747.072,55.964287
1425922747.087,67.62993
1425922747.103,81.87001
1425922747.118,98.297905
1425922747.134,115.516205
1425922747.15,130.97694
1425922747.165,141.22824
1425922747.181,142.73785
1425922747.197,133.04524
1425922747.212,111.84895
1425922747.228,81.45046
1425922747.243,46.176056
1425922747.259,11.027036
1425922747.275,-19.86453
1425922747.29,-44.291283
1425922747.306,-62.104694
1425922747.322,-74.49946
1425922747.337,-82.98112
1425922747.353,-88.57551
1425922747.368,-91.63569
1425922747.384,-92.16986
1425922747.4,-90.365
1425922747.415,-86.823135
1425922747.431,-82.512505
1425922747.447,-78.32914
1425922747.462,-74.73726
1425922747.478,-71.59248
1425922747.493,-68.313385
1425922747.509,-64.25218
1425922747.525,-59.136578
1425922747.54,-53.24904
1425922747.556,-47.345085
1425922747.572,-42.28677
1425922747.587,-38.65799
1425922747.603,-36.462444
1425922747.618,-35.067318
1425922747.634,-33.420914
1425922747.65,-30.389883
1425922747.665,-25.175917
1425922747.681,-17.599304
1425922747.697,-8.16618
1425922747.712,2.1036015
1425922747.728,12.065004
1425922747.743,20.867476
1425922747.759,28.27486
1425922747.775,34.7079
1425922747.79,41.072746
1425922747.806,48.383614
1425922747.822,57.50987
1425922747.837,68.95641
1425922747.853,82.68254
1425922747.868,97.853714
1425922747.884,112.62598
1425922747.9,124.13319
1425922747.915,128.96873
1425922747.931,124.183136
1425922747.947,108.45837
1425922747.962,82.872375
1425922747.978,50.827187
1425922747.994,16.958107
1425922748.009,-14.309456
1425922748.025,-40.056168
1425922748.04,-59.304962
1425922748.056,-72.66141
1425922748.072,-81.34658
1425922748.087,-86.42694
1425922748.103,-88.458595
1425922748.118,-87.66806
1425922748.134,-84.396645
1425922748.15,-79.375854
1425922748.165,-73.62248
1425922748.181,-68.14043
1425922748.197,-63.49823
1425922748.212,-59.60661
1425922748.228,-55.858547
1425922748.244,-51.502304
1425922748.259,-46.133747
1425922748.275,-39.99724
1425922748.29,-33.915726
1425922748.306,-28.945396
1425922748.322,-25.748058
1425922748.337,-24.185291
1425922748.353,-23.201332
1425922748.369,-21.272417
1425922748.384,-17.003365
1425922748.4,-9.789003
1425922748.415,-0.075899124
1425922748.431,10.851154
1425922748.447,21.400414
1425922748.462,30.377285
1425922748.478,37.44301
1425922748.494,43.17282
1425922748.509,48.80939
1425922748.525,55.821167
1425922748.54,65.39369
1425922748.556,78.05475
1425922748.572,93.314514
1425922748.587,109.50549
1425922748.603,123.778534
1425922748.619,132.58844
1425922748.634,132.55414
1425922748.65,121.514
1425922748.665,99.46089
1425922748.681,68.76001
1425922748.697,33.58269
1425922748.712,-1.339407
1425922748.728,-32.040768
1425922748.744,-56.218086
1425922748.759,-73.35431
1425922748.775,-84.196495
1425922748.79,-90.021675
1425922748.806,-92.02718
1425922748.822,-91.14333
1425922748.837,-88.13921
1425922748.853,-83.73718
1425922748.869,-78.65887
1425922748.884,-73.46765
1425922748.9,-68.41667
1425922748.915,-63.37178
1425922748.931,-57.964706
1425922748.947,-51.858448
1425922748.962,-45.06856
1425922748.978,-38.017895
1425922748.994,-31.509342
1425922749.009,-26.307768
1425922749.025,-22.76432
1425922749.04,-20.532951
1425922749.056,-18.610806
1425922749.072,-15.716278
1425922749.087,-10.811485
1425922749.103,-3.6043816
1425922749.119,5.3562794
1425922749.134,14.911564
1425922749.15,23.815945
1425922749.165,31.338154
1425922749.181,37.51146
1425922749.197,43.22262
1425922749.212,49.8242
1425922749.228,58.704502
1425922749.244,70.64563
1425922749.259,85.33205
1425922749.275,100.96173
1425922749.29,114.31191
1425922749.306,121.37161
1425922749.322,118.52408
1425922749.337,103.86113
1425922749.353,78.07247
1425922749.369,44.468983
1425922749.384,7.999463
1425922749.4,-26.359879
1425922749.415,-55.064293
1425922749.431,-76.73593
1425922749.447,-91.890915
1425922749.462,-102.05757
1425922749.478,-108.683815
1425922749.494,-112.60213
1425922749.509,-113.93905
1425922749.525,-112.61784
1425922749.54,-108.7854
1425922749.556,-103.03007
1425922749.572,-96.1748
1425922749.587,-88.93255
1425922749.603,-81.524216
1425922749.619,-73.60793
1425922749.634,-64.582504
1425922749.65,-54.061966
1425922749.665,-42.26169
1425922749.681,-30.138172
1425922749.697,-19.0593
1425922749.712,-10.266621
1425922749.728,-4.277893
1425922749.744,-0.6403465
1425922749.759,1.9085464
1425922749.775,4.9121933
1425922749.79,9.579346
1425922749.806,16.31448
1425922749.822,24.674984
1425922749.837,33.59498
1425922749.853,41.931656
1425922749.869,48.880714
1425922749.884,54.356815
1425922749.9,59.016483
1425922749.915,64.06111
1425922749.931,70.865
1425922749.947,80.54643
1425922749.962,93.52068
1425922749.978,109.145905
1425922749.994,125.52496
1425922750.009,139.60626
1425922750.025,147.71143
1425922750.04,146.46957
1425922750.056,133.89157
1425922750.072,110.2379
1425922750.087,78.15879
1425922750.103,41.9989
1425922750.119,6.551857
1425922750.134,-24.27797
1425922750.15,-48.348038
1425922750.165,-65.34937
1425922750.181,-76.20855
1425922750.197,-82.197975
1425922750.212,-84.39301
1425922750.228,-83.424576
1425922750.244,-79.775734
1425922750.259,-74.034836
1425922750.275,-67.084435
1425922750.29,-59.88199
1425922750.306,-53.184288
1425922750.322,-47.23397
1425922750.337,-41.75036
1425922750.353,-36.14614
1425922750.369,-29.968742
1425922750.384,-23.23307
1425922750.4,-16.569489
1425922750.415,-10.93969
1425922750.431,-7.202408
1425922750.447,-5.5541687
1425922750.462,-5.3742065
1425922750.478,-5.3258286
1425922750.494,-3.937645
1425922750.509,-0.23475647
1425922750.525,5.79583
1425922750.54,13.248589
1425922750.556,20.684166
1425922750.572,26.840424
1425922750.587,31.16066
1425922750.603,34.091797
1425922750.619,36.8695
1425922750.634,41.099792
1425922750.65,48.18625
1425922750.665,58.836327
