1435359910.097,0.0
1435359910.113,0.0
1435359910.129,0.0
1435359910.144,0.0
1435359910.16,0.0
1435359910.175,0.0
1435359910.191,0.0
1435359910.207,0.0
1435359910.222,0.0
1435359910.238,-0.0032634074
1435359910.254,-0.0062531424
1435359910.269,-0.0049457583
1435359910.285,0.0037409505
1435359910.3,0.018280668
1435359910.316,0.030172357
1435359910.332,0.026055217
1435359910.347,-0.005406419
1435359910.363,-0.065514885
1435359910.379,-0.14542523
1435359910.394,-0.22117339
1435359910.41,-0.27210784
1435359910.425,-0.2947852
1435359910.441,-0.3114722
1435359910.457,-0.36572382
1435359910.472,-0.5048398
1435359910.488,-0.75726855
1435359910.504,-1.1171515
1435359910.519,-1.5532005
1435359910.535,-2.0017903
1435359910.55,-2.4077513
1435359910.566,-2.7473938
1435359910.582,-3.0410972
1435359910.597,-3.3458116
1435359910.613,-3.7279103
1435359910.629,-4.2277465
1435359910.644,-4.8337255
1435359910.66,-5.5026455
1435359910.675,-6.1205206
1435359910.691,-6.5887957
1435359910.707,-6.8715906
1435359910.722,-7.03051
1435359910.738,-7.2167945
1435359910.754,-7.6117897
1435359910.769,-8.338789
1435359910.785,-9.391165
1435359910.8,-10.666788
1435359910.816,-11.897151
1435359910.832,-12.849071
1435359910.847,-13.44567
1435359910.863,-13.846182
1435359910.879,-14.416492
1435359910.894,-15.579384
1435359910.91,-17.60593
1435359910.926,-20.456724
1435359910.941,-23.840729
1435359910.957,-27.157507
1435359910.972,-29.894913
1435359910.988,-31.88155
1435359911.004,-33.425606
1435359911.019,-35.227295
1435359911.035,-38.071182
1435359911.05,-42.433987
1435359911.066,-48.2096
1435359911.082,-54.802326
1435359911.097,-61.152462
1435359911.113,-66.37688
1435359911.129,-70.18671
1435359911.144,-73.07875
1435359911.16,-76.15442
1435359911.176,-80.61494
1435359911.191,-87.16752
1435359911.207,-95.05188
1435359911.222,-103.98452
1435359911.238,-113.18637
1435359911.254,-121.97984
1435359911.269,-129.6927
1435359911.285,-135.45049
1435359911.301,-138.27654
1435359911.316,-137.65645
1435359911.332,-134.23332
1435359911.347,-129.96414
1435359911.363,-127.36095
1435359911.379,-127.628525
1435359911.394,-129.3886
1435359911.41,-128.45897
1435359911.426,-119.28747
1435359911.441,-97.37037
1435359911.457,-61.30684
1435359911.472,-13.327179
1435359911.488,41.93486
1435359911.504,99.535126
1435359911.519,156.15259
1435359911.535,210.39452
1435359911.551,261.92688
1435359911.566,310.13574
1435359911.582,353.35696
1435359911.597,389.14203
1435359911.613,415.23853
1435359911.629,430.41248
1435359911.644,434.90057
1435359911.66,430.02942
1435359911.676,417.36624
1435359911.691,398.04828
1435359911.707,372.55447
1435359911.722,340.9405
1435359911.738,303.48016
1435359911.754,261.1969
1435359911.769,216.04166
1435359911.785,170.61438
1435359911.801,127.55713
1435359911.816,88.82764
1435359911.832,55.22931
1435359911.847,26.404633
1435359911.863,1.3122253
1435359911.879,-21.156921
1435359911.894,-41.59041
1435359911.91,-59.862976
1435359911.926,-75.296906
1435359911.941,-87.097
1435359911.957,-94.72447
1435359911.972,-98.14925
1435359911.988,-97.9068
1435359912.004,-95.036896
1435359912.019,-91.05083
1435359912.035,-87.749176
1435359912.051,-86.86676
1435359912.066,-89.54292
1435359912.082,-95.83865
1435359912.097,-104.56635
1435359912.113,-113.6621
1435359912.129,-120.96212
1435359912.144,-125.05074
1435359912.16,-125.70516
1435359912.176,-123.75986
1435359912.191,-120.47354
1435359912.207,-116.80112
1435359912.222,-113.012436
1435359912.238,-108.74493
1435359912.254,-103.49361
1435359912.269,-97.0467
1435359912.285,-89.678696
1435359912.301,-82.00427
1435359912.316,-74.62424
1435359912.332,-67.844055
1435359912.347,-61.556976
1435359912.363,-55.477615
1435359912.379,-49.230354
1435359912.394,-42.745987
1435359912.41,-36.36175
1435359912.426,-30.694166
1435359912.441,-26.338226
1435359912.457,-23.573872
1435359912.472,-22.21701
1435359912.488,-21.681635
1435359912.504,-21.169493
1435359912.519,-20.01007
1435359912.535,-17.884577
1435359912.551,-14.920532
1435359912.566,-11.577831
1435359912.582,-8.421619
1435359912.597,-5.894741
1435359912.613,-4.1356277
1435359912.629,-2.9519424
1435359912.644,-1.9702759
1435359912.66,-0.8528023
1435359912.676,0.49697876
1435359912.691,1.9175224
1435359912.707,3.1327324
1435359912.722,3.9221
1435359912.738,4.305279
1435359912.754,4.482456
1435359912.769,4.705448
1435359912.785,5.1141815
1435359912.801,5.6494217
1435359912.816,6.106186
1435359912.832,6.291874
1435359912.847,6.101753
1435359912.863,5.51812
1435359912.879,4.564781
1435359912.894,3.228138
1435359912.91,1.5041504
1435359912.926,-0.5415878
1435359912.941,-2.6152992
1435359912.957,-4.296089
1435359912.972,-5.18882
1435359912.988,-5.1308327
1435359913.004,-4.2624626
1435359913.019,-2.988943
1435359913.035,-1.7032394
1435359913.051,-0.6490326
1435359913.066,0.15039635
1435359913.082,0.7901745
1435359913.097,1.3345623
1435359913.113,1.727869
1435359913.129,1.8677101
1435359913.144,1.6878586
1435359913.16,1.2486553
1435359913.176,0.73670197
1435359913.191,0.33208084
1435359913.207,0.120630264
1435359913.222,0.10582352
1435359913.238,0.20741272
1435359913.254,0.41591263
1435359913.269,0.7700596
1435359913.285,1.3100834
1435359913.301,1.9817352
1435359913.316,2.6529884
1435359913.332,3.2217617
1435359913.347,3.6828384
1435359913.363,4.0771923
1435359913.379,4.451498
1435359913.394,4.727539
1435359913.41,4.7389584
1435359913.426,4.3126926
1435359913.441,3.4720974
1435359913.457,2.4601212
1435359913.472,1.6886768
1435359913.488,1.5061893
1435359913.504,2.0214958
1435359913.519,2.9981346
1435359913.535,3.983612
1435359913.551,4.489645
1435359913.566,4.2210236
1435359913.582,3.1113033
1435359913.598,1.334261
1435359913.613,-0.8332424
1435359913.629,-3.0495281
1435359913.644,-5.023981
1435359913.66,-6.4701576
1435359913.676,-7.188101
1435359913.691,-7.0695477
1435359913.707,-6.1735344
1435359913.722,-4.627413
1435359913.738,-2.7243443
1435359913.754,-0.7849312
1435359913.769,0.8916645
1435359913.785,2.0923367
1435359913.801,2.7073784
1435359913.816,2.7334232
1435359913.832,2.2509422
1435359913.848,1.4138985
1435359913.863,0.42248726
1435359913.879,-0.46884537
1435359913.894,-1.021656
1435359913.91,-1.0725689
1435359913.926,-0.63567924
1435359913.941,0.1465702
1435359913.957,1.0063896
1435359913.973,1.7276154
1435359913.988,2.2143555
1435359914.004,2.5394154
1435359914.019,2.8324146
1435359914.035,3.1861038
1435359914.051,3.6026535
1435359914.066,3.9746037
1435359914.082,4.1898975
1435359914.098,4.225954
1435359914.113,4.150219
1435359914.129,4.11944
1435359914.144,4.254303
1435359914.16,4.6881332
1435359914.176,5.4096394
1435359914.191,6.2824173
1435359914.207,6.978285
1435359914.223,7.093878
1435359914.238,6.244547
1435359914.254,4.305437
1435359914.269,1.5033264
1435359914.285,-1.5756245
1435359914.301,-4.218874
1435359914.316,-5.8421803
1435359914.332,-6.2501373
1435359914.348,-5.599657
1435359914.363,-4.3031178
1435359914.379,-2.7485943
1435359914.394,-1.1808434
1435359914.41,0.3383007
1435359914.426,1.7785625
1435359914.441,3.1090298
1435359914.457,4.142561
1435359914.473,4.6751175
1435359914.488,4.552723
1435359914.504,3.7875595
1435359914.519,2.5062256
1435359914.535,0.93569565
1435359914.551,-0.6372795
1435359914.566,-1.9651508
1435359914.582,-2.9195328
1435359914.598,-3.4946918
1435359914.613,-3.7972927
1435359914.629,-3.9762745
1435359914.644,-4.176819
1435359914.66,-4.4587765
1435359914.676,-4.8353367
1435359914.691,-5.276188
1435359914.707,-5.759573
1435359914.723,-6.270956
1435359914.738,-6.8151226
1435359914.754,-7.314026
1435359914.769,-7.735365
1435359914.785,-7.9925594
1435359914.801,-8.060301
1435359914.816,-7.9056892
1435359914.832,-7.589363
1435359914.848,-7.194376
1435359914.863,-6.9450874
1435359914.879,-7.047859
1435359914.894,-7.7173424
1435359914.91,-8.997927
1435359914.926,-10.716901
1435359914.941,-12.420855
1435359914.957,-13.583423
1435359914.973,-13.779505
1435359914.988,-12.724925
1435359915.004,-10.48041
1435359915.019,-7.3846073
1435359915.035,-3.897396
1435359915.051,-0.5010958
1435359915.066,2.4758701
1435359915.082,4.8789787
1435359915.098,6.710784
1435359915.113,8.014043
1435359915.129,8.872937
1435359915.144,9.257891
1435359915.16,9.167494
1435359915.176,8.641034
1435359915.191,7.8358197
1435359915.207,6.9975567
1435359915.223,6.4161687
1435359915.238,6.225341
1435359915.254,6.3622947
1435359915.269,6.631523
1435359915.285,6.728263
1435359915.301,6.4995475
1435359915.316,6.024781
1435359915.332,5.529003
1435359915.348,5.285138
1435359915.363,5.412463
1435359915.379,5.941824
1435359915.394,6.6935983
1435359915.41,7.447084
1435359915.426,7.9371853
1435359915.441,7.9694443
1435359915.457,7.4826365
1435359915.473,6.5896783
1435359915.488,5.571695
1435359915.504,4.7944837
1435359915.519,4.534687
1435359915.535,4.858167
1435359915.551,5.5123644
1435359915.566,6.014355
1435359915.582,5.8138833
1435359915.598,4.5152225
1435359915.613,2.0670009
1435359915.629,-1.2088783
1435359915.644,-4.755712
1435359915.66,-7.9201856
1435359915.676,-10.227434
1435359915.691,-11.461117
1435359915.707,-11.709535
1435359915.723,-11.221646
1435359915.738,-10.311092
1435359915.754,-9.217522
1435359915.769,-7.996462
1435359915.785,-6.638197
1435359915.801,-5.16249
1435359915.816,-3.6992204
1435359915.832,-2.5000992
1435359915.848,-1.8457296
1435359915.863,-1.9075222
1435359915.879,-2.6203012
1435359915.894,-3.7321115
1435359915.91,-4.8903575
1435359915.926,-5.8482604
1435359915.941,-6.508076
1435359915.957,-6.9712186
1435359915.973,-7.320415
1435359915.988,-7.6068234
1435359916.004,-7.7384443
1435359916.019,-7.5359874
1435359916.035,-6.8040557
1435359916.051,-5.4457483
1435359916.066,-3.5354557
1435359916.082,-1.2971487
1435359916.098,1.0162396
1435359916.113,3.212535
1435359916.129,5.2096725
1435359916.144,7.0137105
1435359916.16,8.699194
1435359916.176,10.311412
1435359916.191,11.896911
1435359916.207,13.52648
1435359916.223,15.334384
1435359916.238,17.479801
1435359916.254,20.10125
1435359916.269,23.140076
1435359916.285,26.288652
1435359916.301,28.996973
1435359916.316,30.59232
1435359916.332,30.45234
1435359916.348,28.224064
1435359916.363,23.891468
1435359916.379,17.810514
1435359916.394,10.612975
1435359916.41,3.0665884
1435359916.426,-4.107456
1435359916.441,-10.298685
1435359916.457,-15.142578
1435359916.473,-18.532433
1435359916.488,-20.573997
1435359916.504,-21.521511
1435359916.52,-21.681774
1435359916.535,-21.327888
1435359916.551,-20.702332
1435359916.566,-20.016705
1435359916.582,-19.48787
1435359916.598,-19.241125
1435359916.613,-19.30242
1435359916.629,-19.544048
1435359916.645,-19.756334
1435359916.66,-19.73026
1435359916.676,-19.399778
1435359916.691,-18.839706
1435359916.707,-18.202805
1435359916.723,-17.57694
1435359916.738,-16.927673
1435359916.754,-16.09653
1435359916.77,-14.9129095
1435359916.785,-13.300882
1435359916.801,-11.299978
1435359916.816,-9.00845
1435359916.832,-6.5191956
1435359916.848,-3.8641567
1435359916.863,-1.0972347
1435359916.879,1.7100563
1435359916.895,4.3925743
1435359916.91,6.799843
1435359916.926,8.837412
1435359916.941,10.572449
1435359916.957,12.204447
1435359916.973,14.022802
1435359916.988,16.316887
1435359917.004,19.253359
1435359917.02,22.723837
1435359917.035,26.306107
1435359917.051,29.273417
1435359917.066,30.782515
1435359917.082,30.132803
1435359917.098,27.044874
1435359917.113,21.778797
1435359917.129,15.086456
1435359917.145,7.9271393
1435359917.16,1.183342
1435359917.176,-4.570181
1435359917.191,-9.112131
1435359917.207,-12.46912
1435359917.223,-14.724388
1435359917.238,-15.937065
1435359917.254,-16.12178
1435359917.27,-15.395817
1435359917.285,-14.053955
1435359917.301,-12.590652
1435359917.316,-11.528694
1435359917.332,-11.274986
1435359917.348,-11.905975
1435359917.363,-13.1859665
1435359917.379,-14.636097
1435359917.395,-15.782135
1435359917.41,-16.321407
1435359917.426,-16.20428
1435359917.441,-15.59164
1435359917.457,-14.696659
1435359917.473,-13.655392
1435359917.488,-12.512444
1435359917.504,-11.213516
1435359917.52,-9.70224
1435359917.535,-7.9615784
1435359917.551,-6.043724
1435359917.566,-4.036995
1435359917.582,-2.0510063
1435359917.598,-0.17702484
1435359917.613,1.5173988
1435359917.629,3.0551567
1435359917.645,4.494652
1435359917.66,5.9791145
1435359917.676,7.665531
1435359917.691,9.687481
1435359917.707,12.126957
1435359917.723,14.947044
1435359917.738,17.959122
1435359917.754,20.821815
1435359917.77,23.031445
1435359917.785,24.034302
1435359917.801,23.373077
1435359917.816,20.927322
1435359917.832,16.938988
1435359917.848,12.016609
1435359917.863,6.8637466
1435359917.879,2.0549545
1435359917.895,-2.1365738
1435359917.91,-5.6535645
1435359917.926,-8.508217
1435359917.941,-10.601585
1435359917.957,-11.721046
1435359917.973,-11.684082
1435359917.988,-10.551346
1435359918.004,-8.722282
1435359918.02,-6.831085
1435359918.035,-5.5344086
1435359918.051,-5.226097
1435359918.066,-5.9280243
1435359918.082,-7.3571854
1435359918.098,-9.045074
1435359918.113,-10.601944
1435359918.129,-11.761452
1435359918.145,-12.42598
1435359918.16,-12.589699
1435359918.176,-12.285927
1435359918.191,-11.529678
1435359918.207,-10.273941
1435359918.223,-8.462013
1435359918.238,-6.08387
1435359918.254,-3.2440414
1435359918.27,-0.22012329
1435359918.285,2.600296
1435359918.301,4.856781
1435359918.316,6.4064713
1435359918.332,7.397934
1435359918.348,8.275787
1435359918.363,9.550194
1435359918.379,11.616623
1435359918.395,14.532555
1435359918.41,17.985405
1435359918.426,21.382385
1435359918.441,24.033958
1435359918.457,25.343468
1435359918.473,24.953941
1435359918.488,22.799103
1435359918.504,19.080605
1435359918.52,14.188133
1435359918.535,8.637856
1435359918.551,2.977295
1435359918.566,-2.2581024
1435359918.582,-6.6570053
1435359918.598,-9.895401
1435359918.613,-11.822113
1435359918.629,-12.426384
1435359918.645,-11.841743
1435359918.66,-10.334099
1435359918.676,-8.256058
1435359918.691,-6.0453186
1435359918.707,-4.1186523
1435359918.723,-2.8500443
1435359918.738,-2.438202
1435359918.754,-2.8555984
1435359918.77,-3.8196335
1435359918.785,-4.9010544
1435359918.801,-5.662445
1435359918.816,-5.823532
1435359918.832,-5.389084
1435359918.848,-4.5443497
1435359918.863,-3.5695572
1435359918.879,-2.6098557
1435359918.895,-1.5978851
1435359918.91,-0.2979889
1435359918.926,1.5675507
1435359918.941,4.096863
1435359918.957,7.125046
1435359918.973,10.263748
1435359918.988,13.142975
1435359919.004,15.577927
1435359919.02,17.692657
1435359919.035,19.830551
1435359919.051,22.289215
1435359919.066,25.024246
1435359919.082,27.507126
1435359919.098,28.84491
1435359919.113,28.125885
1435359919.129,24.875061
1435359919.145,19.324219
1435359919.16,12.3515625
1435359919.176,5.175659
1435359919.192,-1.1382599
1435359919.207,-5.997162
1435359919.223,-9.32843
1435359919.238,-11.371613
1435359919.254,-12.382782
1435359919.27,-12.40741
1435359919.285,-11.385315
1435359919.301,-9.329651
1435359919.317,-6.546234
1435359919.332,-3.6738434
1435359919.348,-1.494873
1435359919.363,-0.5978241
1435359919.379,-1.1091156
1435359919.395,-2.6516876
1435359919.41,-4.5441895
1435359919.426,-6.067383
1435359919.442,-6.7761536
1435359919.457,-6.570877
1435359919.473,-5.651062
1435359919.488,-4.31929
1435359919.504,-2.834549
1435359919.52,-1.3300781
1435359919.535,0.15119934
1435359919.551,1.6440277
1435359919.567,3.1810303
1435359919.582,4.796875
1435359919.598,6.5635834
1435359919.613,8.615814
1435359919.629,11.100494
1435359919.645,14.104553
1435359919.66,17.52713
1435359919.676,21.009811
1435359919.692,23.961868
1435359919.707,25.709824
1435359919.723,25.699493
1435359919.738,23.66214
1435359919.754,19.723358
1435359919.77,14.344482
1435359919.785,8.182602
1435359919.801,1.943222
1435359919.817,-3.7705536
1435359919.832,-8.512955
1435359919.848,-12.027786
1435359919.863,-14.221558
1435359919.879,-15.137405
1435359919.895,-14.909561
1435359919.91,-13.755539
1435359919.926,-11.950195
1435359919.942,-9.825989
1435359919.957,-7.75605
1435359919.973,-6.1008987
1435359919.988,-5.1295547
1435359920.004,-4.9277496
1435359920.02,-5.3713303
1435359920.035,-6.1601715
1435359920.051,-6.9113235
1435359920.067,-7.289604
1435359920.082,-7.1098557
1435359920.098,-6.3400803
1435359920.113,-5.084984
1435359920.129,-3.52417
1435359920.145,-1.7842636
1435359920.16,0.002380371
1435359920.176,1.8444061
1435359920.192,3.8210983
1435359920.207,6.1143646
1435359920.223,8.933327
1435359920.238,12.421898
1435359920.254,16.58574
1435359920.27,21.179543
1435359920.285,25.693161
1435359920.301,29.42894
1435359920.317,31.621506
1435359920.332,31.636871
1435359920.348,29.15432
1435359920.363,24.314842
1435359920.379,17.69468
1435359920.395,10.200233
1435359920.41,2.7904282
1435359920.426,-3.7330475
1435359920.442,-8.913139
1435359920.457,-12.6056595
1435359920.473,-14.914146
1435359920.488,-16.002602
1435359920.504,-16.02594
1435359920.52,-15.149246
1435359920.535,-13.580246
1435359920.551,-11.653183
1435359920.567,-9.775879
1435359920.582,-8.343681
1435359920.598,-7.5868454
1435359920.613,-7.5127335
1435359920.629,-7.9502335
1435359920.645,-8.534439
1435359920.66,-8.900169
1435359920.676,-8.705231
1435359920.692,-7.788643
1435359920.707,-6.1662827
1435359920.723,-4.072792
1435359920.738,-1.8350296
1435359920.754,0.25177765
1435359920.77,2.0653076
1435359920.785,3.6843033
1435359920.801,5.328247
1435359920.817,7.2092667
1435359920.832,9.447166
1435359920.848,12.015358
1435359920.863,14.810768
1435359920.879,17.726974
1435359920.895,20.657898
1435359920.91,23.416466
1435359920.926,25.6932
1435359920.942,26.98169
1435359920.957,26.740173
1435359920.973,24.573326
1435359920.988,20.460495
1435359921.004,14.7905655
1435359921.02,8.258354
1435359921.035,1.6701126
1435359921.051,-4.29924
1435359921.067,-9.205818
1435359921.082,-12.832527
1435359921.098,-15.135551
1435359921.113,-16.166176
1435359921.129,-16.081627
1435359921.145,-15.164749
1435359921.16,-13.83226
1435359921.176,-12.535568
1435359921.192,-11.67746
1435359921.207,-11.461777
1435359921.223,-11.864365
1435359921.238,-12.671642
1435359921.254,-13.606659
1435359921.27,-14.43845
1435359921.285,-15.025177
1435359921.301,-15.280563
1435359921.317,-15.153908
1435359921.332,-14.591095
1435359921.348,-13.580051
1435359921.363,-12.125973
1435359921.379,-10.3147545
1435359921.395,-8.249428
1435359921.41,-6.041645
1435359921.426,-3.76688
1435359921.442,-1.4653397
1435359921.457,0.8742523
1435359921.473,3.315796
1435359921.488,5.9799805
1435359921.504,8.9735565
1435359921.52,12.362358
1435359921.535,16.096077
1435359921.551,19.969303
1435359921.567,23.625263
1435359921.582,26.649174
1435359921.598,28.603733
1435359921.613,29.128456
1435359921.629,27.990002
1435359921.645,25.105324
1435359921.66,20.60276
1435359921.676,14.843916
1435359921.692,8.377974
1435359921.707,1.8797722
1435359921.723,-4.028406
1435359921.738,-8.906654
1435359921.754,-12.555742
1435359921.77,-14.993109
1435359921.785,-16.360277
1435359921.801,-16.83576
1435359921.817,-16.589346
1435359921.832,-15.806408
1435359921.848,-14.7667885
1435359921.864,-13.744656
1435359921.879,-13.004265
1435359921.895,-12.711697
1435359921.91,-12.886267
1435359921.926,-13.425413
1435359921.942,-14.176525
1435359921.957,-14.969994
1435359921.973,-15.673052
1435359921.989,-16.154812
1435359922.004,-16.29793
1435359922.02,-15.989173
1435359922.035,-15.159842
1435359922.051,-13.788166
1435359922.067,-11.940976
1435359922.082,-9.712397
1435359922.098,-7.2335625
1435359922.114,-4.614446
1435359922.129,-1.9800963
1435359922.145,0.57324505
1435359922.16,2.946475
1435359922.176,5.0821366
1435359922.192,7.0141788
1435359922.207,8.907561
1435359922.223,11.0134735
1435359922.239,13.584776
1435359922.254,16.74489
1435359922.27,20.350473
1435359922.285,23.947699
1435359922.301,26.870007
1435359922.317,28.413597
1435359922.332,28.069004
1435359922.348,25.651417
1435359922.364,21.344662
1435359922.379,15.618074
1435359922.395,9.106665
1435359922.41,2.4282541
1435359922.426,-3.8328133
1435359922.442,-9.220663
1435359922.457,-13.398586
1435359922.473,-16.19485
1435359922.489,-17.598969
1435359922.504,-17.793941
1435359922.52,-17.124336
1435359922.535,-16.034174
1435359922.551,-14.957587
1435359922.567,-14.284899
1435359922.582,-14.225671
1435359922.598,-14.817079
1435359922.614,-15.883314
1435359922.629,-17.17523
1435359922.645,-18.38244
1435359922.66,-19.300716
1435359922.676,-19.83052
1435359922.692,-19.96774
1435359922.707,-19.689783
1435359922.723,-18.954967
1435359922.739,-17.677603
1435359922.754,-15.844105
1435359922.77,-13.540949
1435359922.785,-10.994715
1435359922.801,-8.482666
1435359922.817,-6.217945
1435359922.832,-4.274105
1435359922.848,-2.614006
1435359922.864,-1.1422081
1435359922.879,0.21338272
1435359922.895,1.5546341
1435359922.91,3.0117168
1435359922.926,4.838461
1435359922.942,7.2938976
1435359922.957,10.541546
1435359922.973,14.516134
1435359922.989,18.855862
1435359923.004,22.967884
1435359923.02,26.18758
1435359923.035,27.93385
1435359923.051,27.840105
1435359923.067,25.784206
1435359923.082,21.962889
1435359923.098,16.803574
1435359923.114,10.938433
1435359923.129,5.0106163
1435359923.145,-0.3909378
1435359923.16,-4.8983536
1435359923.176,-8.342146
1435359923.192,-10.746138
1435359923.207,-12.191849
1435359923.223,-12.8196945
1435359923.239,-12.786631
1435359923.254,-12.314142
1435359923.27,-11.660059
1435359923.285,-11.0867195
1435359923.301,-10.831213
1435359923.317,-10.968323
1435359923.332,-11.510485
1435359923.348,-12.399374
1435359923.364,-13.514967
1435359923.379,-14.796463
1435359923.395,-16.169172
1435359923.41,-17.52972
1435359923.426,-18.63096
1435359923.442,-19.10913
1435359923.457,-18.527348
1435359923.473,-16.567184
1435359923.489,-13.180311
1435359923.504,-8.72435
1435359923.52,-3.913683
1435359923.535,0.4009018
1435359923.551,3.5397377
1435359923.567,5.260668
1435359923.582,5.805443
1435359923.598,5.7808857
1435359923.614,5.886465
1435359923.629,6.6468163
1435359923.645,8.290951
1435359923.66,10.745413
1435359923.676,13.766127
1435359923.692,16.997978
1435359923.707,20.066368
1435359923.723,22.535866
1435359923.739,23.930328
1435359923.754,23.797226
1435359923.77,21.820091
1435359923.785,17.945522
1435359923.801,12.458325
1435359923.817,6.0252047
1435359923.832,-0.49912167
1435359923.848,-6.310464
1435359923.864,-10.786173
1435359923.879,-13.678426
1435359923.895,-15.033608
1435359923.91,-15.090821
1435359923.926,-14.124302
1435359923.942,-12.439464
1435359923.957,-10.329974
1435359923.973,-8.188903
1435359923.989,-6.460742
1435359924.004,-5.5421066
1435359924.02,-5.629097
1435359924.035,-6.6297054
1435359924.051,-8.16427
1435359924.067,-9.742323
1435359924.082,-10.943672
1435359924.098,-11.560164
1435359924.114,-11.593333
1435359924.129,-11.168171
1435359924.145,-10.368548
1435359924.16,-9.214575
1435359924.176,-7.6657686
1435359924.192,-5.705284
1435359924.207,-3.4065704
1435359924.223,-0.9404125
1435359924.239,1.514678
1435359924.254,3.8343658
1435359924.27,5.99814
1435359924.285,8.0619335
1435359924.301,10.180374
1435359924.317,12.506921
1435359924.332,15.144726
1435359924.348,18.071774
1435359924.364,21.074087
1435359924.379,23.737682
1435359924.395,25.510162
1435359924.41,25.82402
1435359924.426,24.303446
1435359924.442,20.896914
1435359924.457,15.924367
1435359924.473,9.989698
1435359924.489,3.8355792
1435359924.504,-1.8792619
1435359924.52,-6.675103
1435359924.536,-10.296478
1435359924.551,-12.647882
1435359924.567,-13.782356
1435359924.582,-13.780816
1435359924.598,-12.870267
1435359924.614,-11.364396
1435359924.629,-9.663871
1435359924.645,-8.167657
1435359924.66,-7.232907
1435359924.676,-7.0236316
1435359924.692,-7.464096
1435359924.707,-8.225736
1435359924.723,-8.87718
1435359924.739,-9.068674
1435359924.754,-8.667279
1435359924.77,-7.8095427
1435359924.786,-6.7821264
1435359924.801,-5.837372
1435359924.817,-5.0348387
1435359924.832,-4.2050004
1435359924.848,-3.0871809
1435359924.864,-1.4857008
1435359924.879,0.58578587
1435359924.895,2.9267669
1435359924.911,5.261072
1435359924.926,7.42403
1435359924.942,9.452692
1435359924.957,11.565798
1435359924.973,14.003501
1435359924.989,16.871572
1435359925.004,19.979675
1435359925.02,22.905617
1435359925.036,25.04029
1435359925.051,25.788956
1435359925.067,24.68892
1435359925.082,21.630686
1435359925.098,16.823147
1435359925.114,10.790089
1435359925.129,4.2618876
1435359925.145,-1.9836769
1435359925.161,-7.29039
1435359925.176,-11.23056
1435359925.192,-13.692974
1435359925.207,-14.805395
1435359925.223,-14.861395
1435359925.239,-14.186466
1435359925.254,-13.086476
1435359925.27,-11.819635
1435359925.286,-10.633928
1435359925.301,-9.782679
1435359925.317,-9.486369
1435359925.332,-9.829678
1435359925.348,-10.721882
1435359925.364,-11.869393
1435359925.379,-12.890429
1435359925.395,-13.499346
1435359925.411,-13.562861
1435359925.426,-13.172098
1435359925.442,-12.514281
1435359925.457,-11.721813
1435359925.473,-10.793287
1435359925.489,-9.58567
1435359925.504,-7.9579563
1435359925.52,-5.7721176
1435359925.536,-3.030654
1435359925.551,0.13791752
1435359925.567,3.490213
1435359925.582,6.726742
1435359925.598,9.58498
1435359925.614,11.954165
1435359925.629,13.933439
1435359925.645,15.809229
1435359925.661,17.949482
1435359925.676,20.580164
1435359925.692,23.604004
1435359925.707,26.570477
1435359925.723,28.748802
1435359925.739,29.40965
1435359925.754,28.064432
1435359925.77,24.641396
1435359925.786,19.477825
1435359925.801,13.210879
1435359925.817,6.524534
1435359925.832,0.060729027
1435359925.848,-5.696276
1435359925.864,-10.393048
1435359925.879,-13.798486
1435359925.895,-15.82294
1435359925.911,-16.461914
1435359925.926,-15.891888
1435359925.942,-14.429081
1435359925.957,-12.529936
1435359925.973,-10.704329
1435359925.989,-9.400525
1435359926.004,-8.907498
1435359926.02,-9.28037
1435359926.036,-10.339073
1435359926.051,-11.743983
1435359926.067,-13.113601
1435359926.082,-14.142953
1435359926.098,-14.669353
1435359926.114,-14.660763
1435359926.129,-14.187563
1435359926.145,-13.324432
1435359926.161,-12.101851
1435359926.176,-10.517484
1435359926.192,-8.548878
1435359926.207,-6.229602
1435359926.223,-3.6813393
1435359926.239,-1.0733843
1435359926.254,1.404418
1435359926.27,3.631402
1435359926.286,5.5769157
1435359926.301,7.3526134
1435359926.317,9.124805
1435359926.332,11.117251
1435359926.348,13.516768
1435359926.364,16.424347
1435359926.379,19.762785
1435359926.395,23.27132
1435359926.411,26.447128
1435359926.426,28.657024
1435359926.442,29.277222
1435359926.457,27.885529
1435359926.473,24.39721
1435359926.489,19.13281
1435359926.504,12.720278
1435359926.52,5.9410257
1435359926.536,-0.49421692
1435359926.551,-6.0569534
1435359926.567,-10.485386
1435359926.582,-13.70947
1435359926.598,-15.78069
1435359926.614,-16.818705
1435359926.629,-16.993782
1435359926.645,-16.56122
1435359926.661,-15.846132
1435359926.676,-15.2146435
1435359926.692,-14.983319
1435359926.707,-15.297943
1435359926.723,-16.129791
1435359926.739,-17.191296
1435359926.754,-18.12211
1435359926.77,-18.571447
1435359926.786,-18.406301
1435359926.801,-17.72236
1435359926.817,-16.815937
1435359926.832,-15.983374
1435359926.848,-15.401306
1435359926.864,-15.052298
1435359926.879,-14.7373905
1435359926.895,-14.152002
1435359926.911,-13.008383
1435359926.926,-11.12015
1435359926.942,-8.470736
1435359926.957,-5.222584
1435359926.973,-1.6845322
1435359926.989,1.803421
1435359927.004,4.939377
1435359927.02,7.615059
1435359927.036,9.882576
1435359927.051,11.93751
1435359927.067,14.020002
1435359927.082,16.313604
1435359927.098,18.899403
1435359927.114,21.737286
1435359927.129,24.733877
1435359927.145,27.705227
1435359927.161,30.33731
1435359927.176,32.181778
1435359927.192,32.695736
1435359927.207,31.43168
1435359927.223,28.203737
1435359927.239,23.241596
1435359927.254,17.134289
1435359927.27,10.700148
1435359927.286,4.6895294
1435359927.301,-0.38443756
1435359927.317,-4.393074
1435359927.332,-7.4893494
1435359927.348,-9.938198
1435359927.364,-11.913975
1435359927.379,-13.417812
1435359927.395,-14.296291
1435359927.411,-14.405098
1435359927.426,-13.769825
1435359927.442,-12.705425
1435359927.458,-11.689148
1435359927.473,-11.225643
1435359927.489,-11.598324
1435359927.504,-12.754532
1435359927.52,-14.325764
1435359927.536,-15.814049
1435359927.551,-16.802582
1435359927.567,-17.083298
1435359927.583,-16.652512
1435359927.598,-15.650986
1435359927.614,-14.225327
1435359927.629,-12.528564
1435359927.645,-10.674252
1435359927.661,-8.77058
1435359927.676,-6.89513
1435359927.692,-5.0913086
1435359927.708,-3.3341713
1435359927.723,-1.5832214
1435359927.739,0.20491028
1435359927.754,2.0173912
1435359927.77,3.8072128
1435359927.786,5.531521
1435359927.801,7.2361603
1435359927.817,9.042458
1435359927.833,11.105129
1435359927.848,13.554176
1435359927.864,16.370811
1435359927.879,19.36499
1435359927.895,22.194313
1435359927.911,24.372707
1435359927.926,25.392002
1435359927.942,24.803436
1435359927.958,22.503654
1435359927.973,18.74667
1435359927.989,14.132648
1435359928.004,9.364342
1435359928.02,4.963009
1435359928.036,1.0853882
1435359928.051,-2.4133492
1435359928.067,-5.765568
1435359928.083,-8.974239
1435359928.098,-11.755009
1435359928.114,-13.628258
1435359928.129,-14.256939
1435359928.145,-13.6788025
1435359928.161,-12.378513
1435359928.176,-11.05653
1435359928.192,-10.318161
1435359928.208,-10.379818
1435359928.223,-11.069027
1435359928.239,-11.94257
1435359928.254,-12.583817
1435359928.27,-12.809383
1435359928.286,-12.703186
1435359928.301,-12.479485
1435359928.317,-12.324024
1435359928.333,-12.255375
1435359928.348,-12.062611
1435359928.364,-11.4435425
1435359928.379,-10.170929
1435359928.395,-8.190983
1435359928.411,-5.697521
1435359928.426,-2.9894447
1435359928.442,-0.3767662
1435359928.458,1.9792519
1435359928.473,4.0700874
1435359928.489,6.0298653
1435359928.504,8.018665
1435359928.52,10.156158
1435359928.536,12.502373
1435359928.551,15.058178
1435359928.567,17.7752
1435359928.583,20.575035
1435359928.598,23.265167
1435359928.614,25.523087
1435359928.629,26.90126
1435359928.645,26.941704
1435359928.661,25.27951
1435359928.676,21.869034
1435359928.692,16.95823
1435359928.708,11.1230545
1435359928.723,5.073929
1435359928.739,-0.49300385
1435359928.754,-5.078682
1435359928.77,-8.4472885
1435359928.786,-10.593246
1435359928.801,-11.649933
1435359928.817,-11.792221
1435359928.833,-11.199669
1435359928.848,-10.074165
1435359928.864,-8.672554
1435359928.879,-7.3110123
1435359928.895,-6.298378
1435359928.911,-5.875023
1435359928.926,-6.0999756
1435359928.942,-6.8642044
1435359928.958,-7.902931
1435359928.973,-8.9197235
1435359928.989,-9.657822
1435359929.004,-9.982033
1435359929.02,-9.827766
1435359929.036,-9.203499
1435359929.051,-8.153023
1435359929.067,-6.743202
1435359929.083,-5.1099396
1435359929.098,-3.4365616
1435359929.114,-1.896225
1435359929.129,-0.58177185
1435359929.145,0.57442474
1435359929.161,1.7411804
1435359929.176,3.2410355
1435359929.192,5.350464
1435359929.208,8.241318
1435359929.223,11.850357
1435359929.239,15.883003
1435359929.254,19.860062
1435359929.27,23.223007
1435359929.286,25.469154
1435359929.301,26.242882
1435359929.317,25.388275
1435359929.333,22.932442
1435359929.348,19.068222
1435359929.364,14.127365
1435359929.379,8.557137
1435359929.395,2.8884354
1435359929.411,-2.3445282
1435359929.426,-6.655281
1435359929.442,-9.730995
1435359929.458,-11.450005
1435359929.473,-11.904137
1435359929.489,-11.337273
1435359929.504,-10.084953
1435359929.52,-8.471832
1435359929.536,-6.8186417
1435359929.551,-5.397621
1435359929.567,-4.395012
1435359929.583,-3.9008179
1435359929.598,-3.903389
1435359929.614,-4.2968445
1435359929.629,-4.9222107
1435359929.645,-5.5696106
1435359929.661,-6.030052
1435359929.676,-6.1106033
1435359929.692,-5.684143
1435359929.708,-4.712448
1435359929.723,-3.2843323
1435359929.739,-1.5957108
1435359929.754,0.12847137
1435359929.77,1.6897812
1435359929.786,3.0430603
1435359929.801,4.3035355
1435359929.817,5.719055
1435359929.833,7.558647
1435359929.848,9.97612
1435359929.864,12.91497
1435359929.879,16.066818
1435359929.895,18.983353
1435359929.911,21.127243
1435359929.926,22.02678
1435359929.942,21.383995
1435359929.958,19.132904
1435359929.973,15.459717
1435359929.989,10.77713
1435359930.004,5.678688
1435359930.02,0.79209137
1435359930.036,-3.3159637
1435359930.051,-6.2961655
1435359930.067,-8.059731
1435359930.083,-8.749535
1435359930.098,-8.634079
1435359930.114,-7.984726
1435359930.13,-7.0136795
1435359930.145,-5.8928146
1435359930.161,-4.7932053
1435359930.176,-3.9226913
1435359930.192,-3.4692993
1435359930.208,-3.5118484
1435359930.223,-3.93441
1435359930.239,-4.46196
1435359930.255,-4.74543
1435359930.27,-4.58535
1435359930.286,-3.9354706
1435359930.301,-2.974617
1435359930.317,-1.9307785
1435359930.333,-0.9753418
1435359930.348,-0.09779358
1435359930.364,0.81949615
1435359930.38,1.9794846
1435359930.395,3.6272202
1435359930.411,5.9529457
1435359930.426,9.052063
1435359930.442,12.856136
1435359930.458,17.04866
1435359930.473,21.066868
1435359930.489,24.180817
1435359930.505,25.71645
1435359930.52,25.217434
1435359930.536,22.638447
1435359930.551,18.286118
1435359930.567,12.744247
1435359930.583,6.6998405
1435359930.598,0.7856407
1435359930.614,-4.5066185
1435359930.63,-8.773369
1435359930.645,-11.76659
1435359930.661,-13.327396
1435359930.676,-13.476185
1435359930.692,-12.408173
1435359930.708,-10.519917
1435359930.723,-8.312729
1435359930.739,-6.2808228
1435359930.755,-4.772064
1435359930.77,-3.9449043
1435359930.786,-3.6736183
1435359930.801,-3.7013512
1435359930.817,-3.7520332
1435359930.833,-3.6636581
1435359930.848,-3.44479
1435359930.864,-3.2442513
1435359930.88,-3.162426
1435359930.895,-3.1318054
1435359930.911,-2.8638039
1435359930.926,-1.9392967
1435359930.942,0.0055999756
1435359930.958,3.072651
1435359930.973,7.042061
1435359930.989,11.393394
1435359931.005,15.484043
1435359931.02,18.74101
1435359931.036,20.786718
1435359931.051,21.438929
1435359931.067,20.646936
1435359931.083,18.448837
1435359931.098,14.913626
1435359931.114,10.232714
1435359931.13,4.767378
1435359931.145,-0.94394493
1435359931.161,-6.227812
1435359931.176,-10.444395
1435359931.192,-13.126482
1435359931.208,-14.114901
1435359931.223,-13.513088
1435359931.239,-11.626469
1435359931.255,-8.848907
1435359931.27,-5.6319466
1435359931.286,-2.463519
1435359931.301,0.108335495
1435359931.317,1.5665455
1435359931.333,1.5801458
1435359931.348,0.19413996
1435359931.364,-2.1570106
1435359931.38,-4.7200756
1435359931.395,-6.7559404
1435359931.411,-7.7629814
1435359931.426,-7.663148
1435359931.442,-6.692231
1435359931.458,-5.21488
1435359931.473,-3.4741964
1435359931.489,-1.5184755
1435359931.505,0.79993963
1435359931.52,3.6242466
1435359931.536,6.9800005
1435359931.551,10.65761
1435359931.567,14.237138
1435359931.583,17.14292
1435359931.598,18.7682
1435359931.614,18.669098
1435359931.63,16.676096
1435359931.645,12.973534
1435359931.661,8.042929
1435359931.676,2.4900208
1435359931.692,-3.0976448
1435359931.708,-8.321928
1435359931.723,-12.912468
1435359931.739,-16.69918
1435359931.755,-19.453445
1435359931.77,-20.93834
1435359931.786,-20.970356
1435359931.801,-19.607227
1435359931.817,-17.228935
1435359931.833,-14.465324
1435359931.848,-12.006704
1435359931.864,-10.348473
1435359931.88,-9.626366
1435359931.895,-9.63242
1435359931.911,-9.917423
1435359931.926,-10.041012
1435359931.942,-9.708782
1435359931.958,-8.846691
1435359931.973,-7.523609
1435359931.989,-5.911518
1435359932.005,-4.12059
1435359932.02,-2.2177925
1435359932.036,-0.20008087
1435359932.051,1.964859
1435359932.067,4.323757
1435359932.083,6.894226
1435359932.098,9.708427
1435359932.114,12.760441
1435359932.13,16.017178
1435359932.145,19.315575
1435359932.161,22.32537
1435359932.176,24.517109
1435359932.192,25.299778
1435359932.208,24.166275
1435359932.223,20.969967
1435359932.239,15.977619
1435359932.255,9.826523
1435359932.27,3.3082848
1435359932.286,-2.861145
1435359932.301,-8.216381
1435359932.317,-12.517517
1435359932.333,-15.667625
1435359932.348,-17.596855
1435359932.364,-18.246357
1435359932.38,-17.650047
1435359932.395,-16.073368
1435359932.411,-13.965485
1435359932.426,-11.917107
1435359932.442,-10.449265
1435359932.458,-9.857033
1435359932.473,-10.108528
1435359932.489,-10.900627
1435359932.505,-11.781425
1435359932.52,-12.329231
1435359932.536,-12.269852
1435359932.551,-11.543404
1435359932.567,-10.254791
1435359932.583,-8.616943
1435359932.598,-6.817726
1435359932.614,-4.9871445
1435359932.63,-3.1371918
1435359932.645,-1.2129898
1435359932.661,0.8917694
1435359932.676,3.2823257
1435359932.692,6.0596313
1435359932.708,9.271057
1435359932.723,12.870163
1435359932.739,16.646729
1435359932.755,20.231003
1435359932.77,23.081535
1435359932.786,24.631401
1435359932.802,24.40226
1435359932.817,22.194199
1435359932.833,18.094559
1435359932.848,12.541237
1435359932.864,6.181343
1435359932.88,-0.22434998
1435359932.895,-5.953842
1435359932.911,-10.434761
1435359932.927,-13.332794
1435359932.942,-14.532288
1435359932.958,-14.188606
1435359932.973,-12.615761
1435359932.989,-10.288773
1435359933.005,-7.738312
1435359933.02,-5.531708
1435359933.036,-4.1074524
1435359933.052,-3.74366
1435359933.067,-4.436035
1435359933.083,-5.9210205
1435359933.098,-7.725174
1435359933.114,-9.345535
1435359933.13,-10.369774
1435359933.145,-10.594482
1435359933.161,-9.992905
1435359933.177,-8.680038
1435359933.192,-6.842186
1435359933.208,-4.677162
1435359933.223,-2.3598938
1435359933.239,-0.046913147
1435359933.255,2.2121353
1435359933.27,4.464363
1435359933.286,6.8742294
1435359933.302,9.626251
1435359933.317,12.810425
1435359933.333,16.288513
1435359933.348,19.694923
1435359933.364,22.453148
1435359933.38,23.932121
1435359933.395,23.597282
1435359933.411,21.18203
1435359933.427,16.74749
1435359933.442,10.74678
1435359933.458,3.894165
1435359933.473,-2.9947739
1435359933.489,-9.192764
1435359933.505,-14.196617
1435359933.52,-17.802353
1435359933.536,-19.991684
1435359933.552,-20.874367
1435359933.567,-20.599754
1435359933.583,-19.396912
1435359933.598,-17.580727
1435359933.614,-15.612953
1435359933.63,-13.950554
1435359933.645,-12.965523
1435359933.661,-12.779686
1435359933.677,-13.248596
1435359933.692,-14.053818
1435359933.708,-14.841713
1435359933.723,-15.304329
1435359933.739,-15.267525
1435359933.755,-14.649551
1435359933.77,-13.451508
1435359933.786,-11.716049
1435359933.802,-9.556473
1435359933.817,-7.128357
1435359933.833,-4.616043
1435359933.848,-2.1851196
1435359933.864,0.062286377
1435359933.88,2.1465302
1435359933.895,4.173462
1435359933.911,6.364273
1435359933.927,8.952179
1435359933.942,12.123138
1435359933.958,15.921936
1435359933.973,20.14029
1435359933.989,24.288742
1435359934.005,27.662079
1435359934.02,29.490158
1435359934.036,29.175613
1435359934.052,26.507217
1435359934.067,21.703003
1435359934.083,15.34256
1435359934.098,8.22142
1435359934.114,1.100769
1435359934.13,-5.386566
1435359934.145,-10.7969055
1435359934.161,-14.866272
1435359934.177,-17.516693
1435359934.192,-18.802444
1435359934.208,-18.970825
1435359934.223,-18.366867
1435359934.239,-17.393204
1435359934.255,-16.371323
1435359934.27,-15.556641
1435359934.286,-15.046005
1435359934.302,-14.882462
1435359934.317,-15.051987
1435359934.333,-15.518372
1435359934.348,-16.174927
1435359934.364,-16.864243
1435359934.38,-17.360031
1435359934.395,-17.484589
1435359934.411,-17.111618
1435359934.427,-16.20288
1435359934.442,-14.762833
1435359934.458,-12.823547
1435359934.473,-10.409485
1435359934.489,-7.6067505
1435359934.505,-4.580551
1435359934.52,-1.5514984
1435359934.536,1.2595215
1435359934.552,3.7376404
1435359934.567,5.966675
1435359934.583,8.181976
1435359934.598,10.704239
1435359934.614,13.75415
1435359934.63,17.339935
1435359934.645,21.155014
1435359934.661,24.643326
1435359934.677,27.112122
1435359934.692,27.938751
1435359934.708,26.735062
1435359934.723,23.497375
1435359934.739,18.605179
1435359934.755,12.72023
1435359934.77,6.585327
1435359934.786,0.833725
1435359934.802,-4.1511536
1435359934.817,-8.2365265
1435359934.833,-11.458817
1435359934.848,-13.884567
1435359934.864,-15.570877
1435359934.88,-16.528427
1435359934.895,-16.791473
1435359934.911,-16.415558
1435359934.927,-15.558609
1435359934.942,-14.45047
1435359934.958,-13.418961
1435359934.973,-12.807419
1435359934.989,-12.883774
1435359935.005,-13.703217
1435359935.02,-15.043045
1435359935.036,-16.446487
1435359935.052,-17.389557
1435359935.067,-17.531342
1435359935.083,-16.86818
1435359935.098,-15.658356
1435359935.114,-14.284607
1435359935.13,-12.970833
1435359935.145,-11.683907
1435359935.161,-10.21402
1435359935.177,-8.394218
1435359935.192,-6.2036057
1435359935.208,-3.7835999
1435359935.223,-1.2493362
1435359935.239,1.4175873
1435359935.255,4.3750916
1435359935.27,7.7829895
1435359935.286,11.662338
1435359935.302,15.817596
1435359935.317,19.924728
1435359935.333,23.645042
1435359935.348,26.6969
1435359935.364,28.817451
1435359935.38,29.727753
1435359935.395,29.10241
1435359935.411,26.764244
1435359935.427,22.77018
1435359935.442,17.528854
1435359935.458,11.668465
1435359935.474,5.8470383
1435359935.489,0.5113907
1435359935.505,-4.1396713
1435359935.52,-8.11467
1435359935.536,-11.437782
1435359935.552,-14.066963
1435359935.567,-15.901474
1435359935.583,-16.907951
1435359935.598,-17.152695
1435359935.614,-16.857468
1435359935.63,-16.304466
1435359935.645,-15.762833
1435359935.661,-15.387329
1435359935.677,-15.265579
1435359935.692,-15.4162445
1435359935.708,-15.831284
1435359935.724,-16.471626
1435359935.739,-17.225426
1435359935.755,-17.904114
1435359935.77,-18.298622
1435359935.786,-18.211601
1435359935.802,-17.555649
1435359935.817,-16.395554
1435359935.833,-14.893723
1435359935.849,-13.207161
1435359935.864,-11.424194
1435359935.88,-9.48465
1435359935.895,-7.289955
1435359935.911,-4.7676926
1435359935.927,-1.9950027
1435359935.942,0.82523346
1435359935.958,3.4306183
1435359935.974,5.677643
1435359935.989,7.5902557
1435359936.005,9.383751
1435359936.02,11.310425
1435359936.036,13.59256
1435359936.052,16.330246
1435359936.067,19.497604
1435359936.083,22.940498
1435359936.099,26.375992
1435359936.114,29.355179
1435359936.13,31.296692
1435359936.145,31.579826
1435359936.161,29.809105
1435359936.177,25.932922
1435359936.192,20.357483
1435359936.208,13.818932
1435359936.224,7.1466217
1435359936.239,1.0089645
1435359936.255,-4.165554
1435359936.27,-8.224823
1435359936.286,-11.188091
1435359936.302,-13.129765
1435359936.317,-14.167042
1435359936.333,-14.462158
1435359936.349,-14.191353
1435359936.364,-13.580166
1435359936.38,-12.869606
1435359936.395,-12.296558
1435359936.411,-12.030479
1435359936.427,-12.177563
1435359936.442,-12.711746
1435359936.458,-13.496071
1435359936.474,-14.323315
1435359936.489,-14.990715
1435359936.505,-15.3456955
1435359936.52,-15.341019
1435359936.536,-14.952049
1435359936.552,-14.1898575
1435359936.567,-13.037918
1435359936.583,-11.560127
1435359936.599,-9.859669
1435359936.614,-8.160599
1435359936.63,-6.655369
1435359936.645,-5.4478226
1435359936.661,-4.4466896
1435359936.677,-3.42564
1435359936.692,-2.123415
1435359936.708,-0.37303352
1435359936.724,1.8492126
1435359936.739,4.4044876
1435359936.755,7.089512
1435359936.77,9.699625
1435359936.786,12.092749
1435359936.802,14.223928
1435359936.817,16.167511
1435359936.833,18.085083
1435359936.849,20.192392
1435359936.864,22.625599
1435359936.88,25.338936
1435359936.895,28.000141
1435359936.911,30.09593
1435359936.927,31.013737
1435359936.942,30.277437
1435359936.958,27.659124
1435359936.974,23.27585
1435359936.989,17.51564
1435359937.005,10.966803
1435359937.02,4.267232
1435359937.036,-1.9711528
1435359937.052,-7.2897053
1435359937.067,-11.396357
1435359937.083,-14.184263
1435359937.099,-15.635625
1435359937.114,-15.832927
1435359937.13,-14.916712
1435359937.145,-13.177469
1435359937.161,-11.052265
1435359937.177,-9.106995
1435359937.192,-7.8702435
1435359937.208,-7.6518955
1435359937.224,-8.394619
1435359937.239,-9.72272
1435359937.255,-11.095837
1435359937.27,-12.071128
1435359937.286,-12.428405
1435359937.302,-12.227859
1435359937.317,-11.655849
1435359937.333,-10.907814
1435359937.349,-10.067757
1435359937.364,-9.107651
1435359937.38,-7.9120007
1435359937.395,-6.392996
1435359937.411,-4.526869
1435359937.427,-2.3994904
1435359937.442,-0.16739464
1435359937.458,1.974659
1435359937.474,3.9044914
1435359937.489,5.602997
1435359937.505,7.170988
1435359937.52,8.76186
1435359937.536,10.532242
1435359937.552,12.565868
1435359937.567,14.889528
1435359937.583,17.43137
1435359937.599,20.04446
1435359937.614,22.455341
1435359937.63,24.272617
1435359937.645,24.999634
1435359937.661,24.202293
1435359937.677,21.640873
1435359937.692,17.422192
1435359937.708,12.000633
1435359937.724,6.0811806
1435359937.739,0.3889351
1435359937.755,-4.481247
1435359937.77,-8.19627
1435359937.786,-10.67717
1435359937.802,-12.031185
1435359937.817,-12.440762
1435359937.833,-12.112526
1435359937.849,-11.246235
1435359937.864,-10.068775
1435359937.88,-8.835224
1435359937.895,-7.8187256
1435359937.911,-7.20282
1435359937.927,-7.043701
1435359937.942,-7.204464
1435359937.958,-7.428665
1435359937.974,-7.4733276
1435359937.989,-7.226673
1435359938.005,-6.723572
1435359938.02,-6.110859
1435359938.036,-5.4760094
1435359938.052,-4.7939034
1435359938.067,-3.9056435
1435359938.083,-2.6741066
1435359938.099,-1.0525932
1435359938.114,0.8235054
1435359938.13,2.737999
1435359938.145,4.4918365
1435359938.161,6.012169
1435359938.177,7.36248
1435359938.192,8.729904
1435359938.208,10.325737
1435359938.224,12.360077
1435359938.239,14.926308
1435359938.255,17.937668
1435359938.27,21.033997
1435359938.286,23.628166
1435359938.302,25.01133
1435359938.317,24.611702
1435359938.333,22.209618
1435359938.349,18.04715
1435359938.364,12.749779
1435359938.38,7.090088
1435359938.396,1.7184372
1435359938.411,-2.9282303
1435359938.427,-6.6716156
1435359938.442,-9.438461
1435359938.458,-11.18084
1435359938.474,-11.855072
1435359938.489,-11.4869
1435359938.505,-10.245918
1435359938.521,-8.489838
1435359938.536,-6.660881
1435359938.552,-5.1726074
1435359938.567,-4.255287
1435359938.583,-3.9698105
1435359938.599,-4.1720657
1435359938.614,-4.650543
1435359938.63,-5.1941147
1435359938.646,-5.6398315
1435359938.661,-5.887001
1435359938.677,-5.8731384
1435359938.692,-5.5174103
1435359938.708,-4.757698
1435359938.724,-3.5368118
1435359938.739,-1.877327
1435359938.755,0.12831879
1435359938.771,2.2751389
1435359938.786,4.377571
1435359938.802,6.304405
1435359938.817,8.080086
1435359938.833,9.854988
1435359938.849,11.882256
1435359938.864,14.37426
1435359938.88,17.387886
1435359938.896,20.724007
1435359938.911,23.938385
1435359938.927,26.415787
1435359938.942,27.544388
1435359938.958,26.892937
1435359938.974,24.36882
1435359938.989,20.234703
1435359939.005,15.0577545
1435359939.021,9.483589
1435359939.036,4.139702
1435359939.052,-0.5759506
1435359939.067,-4.4536133
1435359939.083,-7.448387
1435359939.099,-9.56852
1435359939.114,-10.848503
1435359939.13,-11.308258
1435359939.146,-10.958611
1435359939.161,-9.8331375
1435359939.177,-8.049515
1435359939.192,-5.8527374
1435359939.208,-3.6572113
1435359939.224,-1.9397125
1435359939.239,-1.1357651
1435359939.255,-1.4170151
1435359939.271,-2.6217957
1435359939.286,-4.2689514
1435359939.302,-5.7723465
1435359939.317,-6.651222
1435359939.333,-6.7230606
1435359939.349,-6.06514
1435359939.364,-4.914711
1435359939.38,-3.4927216
1435359939.396,-1.911972
1435359939.411,-0.17771149
1435359939.427,1.7548828
1435359939.442,3.9003296
1435359939.458,6.2645493
1435359939.474,8.892265
1435359939.489,11.856537
1435359939.505,15.209099
1435359939.521,18.771332
1435359939.536,22.16397
1435359939.552,24.743858
1435359939.567,25.84497
1435359939.583,24.973335
1435359939.599,22.043686
1435359939.614,17.40393
1435359939.63,11.731987
1435359939.646,5.7985153
1435359939.661,0.25380707
1435359939.677,-4.485916
1435359939.692,-8.211136
1435359939.708,-10.828735
1435359939.724,-12.254578
1435359939.739,-12.466202
1435359939.755,-11.587219
1435359939.771,-9.9487
1435359939.786,-8.038818
1435359939.802,-6.389656
1435359939.817,-5.3387985
1435359939.833,-4.9768677
1435359939.849,-5.1488953
1435359939.864,-5.592888
1435359939.88,-6.0729904
1435359939.896,-6.4359207
1435359939.911,-6.5866547
1435359939.927,-6.450035
1435359939.942,-5.924942
1435359939.958,-4.918335
1435359939.974,-3.4047852
1435359939.989,-1.4923401
1435359940.005,0.65470886
1435359940.021,2.8419113
1435359940.036,4.960747
1435359940.052,7.0219345
1435359940.067,9.181946
1435359940.083,11.642239
1435359940.099,14.583904
1435359940.114,18.003399
1435359940.13,21.627651
1435359940.146,24.87455
1435359940.161,26.976776
1435359940.177,27.23111
1435359940.192,25.269718
1435359940.208,21.231216
1435359940.224,15.722828
1435359940.239,9.604961
1435359940.255,3.692276
1435359940.271,-1.4739456
1435359940.286,-5.618622
1435359940.302,-8.698986
1435359940.317,-10.733456
1435359940.333,-11.781124
1435359940.349,-11.911465
1435359940.364,-11.300606
1435359940.38,-10.225853
1435359940.396,-9.05653
1435359940.411,-8.136387
1435359940.427,-7.7184067
1435359940.442,-7.867691
1435359940.458,-8.469067
1435359940.474,-9.213951
1435359940.489,-9.739101
1435359940.505,-9.714081
1435359940.521,-9.008736
1435359940.536,-7.7037983
1435359940.552,-6.084959
1435359940.567,-4.429495
1435359940.583,-2.886858
1435359940.599,-1.3693886
1435359940.614,0.34310532
1435359940.63,2.4916954
1435359940.646,5.1576405
1435359940.661,8.305819
1435359940.677,11.803465
1435359940.692,15.516859
1435359940.708,19.314472
1435359940.724,23.014778
1435359940.739,26.246838
1435359940.755,28.453754
1435359940.771,29.005787
1435359940.786,27.445894
1435359940.802,23.713858
1435359940.817,18.216013
1435359940.833,11.68377
1435359940.849,4.962497
1435359940.864,-1.2556999
1435359940.88,-6.5392303
1435359940.896,-10.710094
1435359940.911,-13.707289
1435359940.927,-15.537411
1435359940.942,-16.219957
1435359940.958,-15.861212
1435359940.974,-14.707804
1435359940.989,-13.1621895
1435359941.005,-11.670817
1435359941.021,-10.622783
1435359941.036,-10.163035
1435359941.052,-10.197505
1435359941.068,-10.453202
1435359941.083,-10.666129
1435359941.099,-10.64419
1435359941.114,-10.369741
1435359941.13,-9.89168
1435359941.146,-9.253244
1435359941.161,-8.450508
1435359941.177,-7.42231
1435359941.193,-6.086979
1435359941.208,-4.369644
1435359941.224,-2.186636
1435359941.239,0.53866005
1435359941.255,3.858389
1435359941.271,7.7085876
1435359941.286,11.904358
1435359941.302,16.093948
1435359941.318,19.863075
1435359941.333,22.780632
1435359941.349,24.496506
1435359941.364,24.744003
1435359941.38,23.385181
1435359941.396,20.401516
1435359941.411,16.014606
1435359941.427,10.64563
1435359941.443,4.878643
1435359941.458,-0.69955826
1435359941.474,-5.6367188
1435359941.489,-9.729698
1435359941.505,-12.949993
1435359941.521,-15.359154
1435359941.536,-16.974712
1435359941.552,-17.767567
1435359941.568,-17.727032
1435359941.583,-17.00481
1435359941.599,-15.862473
1435359941.614,-14.690399
1435359941.63,-13.853706
1435359941.646,-13.557678
1435359941.661,-13.777916
1435359941.677,-14.32299
1435359941.693,-14.890076
1435359941.708,-15.187721
1435359941.724,-15.010841
1435359941.739,-14.265068
1435359941.755,-12.9403305
1435359941.771,-11.098251
1435359941.786,-8.774231
1435359941.802,-6.063553
1435359941.818,-3.076706
1435359941.833,0.017822266
1435359941.849,3.039589
1435359941.864,5.8476257
1435359941.88,8.464996
1435359941.896,11.04863
1435359941.911,13.8270035
1435359941.927,16.942894
1435359941.943,20.309952
1435359941.958,23.541504
1435359941.974,26.043045
1435359941.989,27.162544
1435359942.005,26.419525
1435359942.021,23.621826
1435359942.036,18.955078
1435359942.052,12.899628
1435359942.068,6.130356
1435359942.083,-0.6545639
1435359942.099,-6.829529
1435359942.114,-11.917656
1435359942.13,-15.620491
1435359942.146,-17.838745
1435359942.161,-18.628685
1435359942.177,-18.246536
1435359942.193,-17.084595
1435359942.208,-15.621674
1435359942.224,-14.309021
1435359942.239,-13.485741
1435359942.255,-13.313095
1435359942.271,-13.769203
1435359942.286,-14.686615
1435359942.302,-15.841248
1435359942.318,-17.014816
1435359942.333,-18.030388
1435359942.349,-18.698082
1435359942.364,-18.867577
1435359942.38,-18.384422
1435359942.396,-17.183617
1435359942.411,-15.274635
1435359942.427,-12.805313
1435359942.443,-9.995354
1435359942.458,-7.097992
1435359942.474,-4.3329544
1435359942.489,-1.8412399
1435359942.505,0.37708282
1435359942.521,2.454361
1435359942.536,4.6548615
1435359942.552,7.2790527
1435359942.568,10.5336685
1435359942.583,14.330978
1435359942.599,18.288055
1435359942.614,21.702515
1435359942.63,23.781403
1435359942.646,23.846245
1435359942.661,21.555977
1435359942.677,16.969772
1435359942.693,10.572876
1435359942.708,3.1770477
1435359942.724,-4.200821
1435359942.739,-10.595703
1435359942.755,-15.296707
1435359942.771,-18.045135
1435359942.786,-19.0428
1435359942.802,-18.840729
1435359942.818,-18.074677
1435359942.833,-17.269379
1435359942.849,-16.689606
1435359942.864,-16.414276
1435359942.88,-16.434402
1435359942.896,-16.72438
1435359942.911,-17.230011
1435359942.927,-17.819351
1435359942.943,-18.258865
1435359942.958,-18.273315
1435359942.974,-17.713898
1435359942.989,-16.639755
1435359943.005,-15.308151
1435359943.021,-14.013535
1435359943.036,-12.931824
1435359943.052,-12.018051
1435359943.068,-11.045532
1435359943.083,-9.788498
1435359943.099,-8.071808
1435359943.114,-5.9149933
1435359943.13,-3.4586487
1435359943.146,-0.9371948
1435359943.161,1.4965286
1435359943.177,3.7796783
1435359943.193,5.9915543
1435359943.208,8.305283
1435359943.224,10.915718
1435359943.239,13.920364
1435359943.255,17.263832
1435359943.271,20.662598
1435359943.286,23.667221
1435359943.302,25.696518
1435359943.318,26.182571
1435359943.333,24.689117
1435359943.349,21.063736
1435359943.364,15.53125
1435359943.38,8.700417
1435359943.396,1.4324722
1435359943.411,-5.3516006
1435359943.427,-10.914215
1435359943.443,-14.825417
1435359943.458,-17.014725
1435359943.474,-17.640343
1435359943.489,-17.0094
1435359943.505,-15.479401
1435359943.521,-13.469955
1435359943.536,-11.454811
1435359943.552,-9.905823
1435359943.568,-9.164192
1435359943.583,-9.347214
1435359943.599,-10.262917
1435359943.614,-11.522743
1435359943.63,-12.691933
1435359943.646,-13.490936
1435359943.661,-13.795959
1435359943.677,-13.658012
1435359943.693,-13.150406
1435359943.708,-12.285561
1435359943.724,-10.997292
1435359943.74,-9.214813
1435359943.755,-6.9496994
1435359943.771,-4.366211
1435359943.786,-1.7307587
1435359943.802,0.6880264
1435359943.818,2.722824
1435359943.833,4.3725433
1435359943.849,5.839752
1435359943.865,7.4300537
1435359943.88,9.466644
1435359943.896,12.148895
1435359943.911,15.447685
1435359943.927,19.049362
1435359943.943,22.430939
1435359943.958,24.940697
1435359943.974,25.987976
1435359943.99,25.195671
1435359944.005,22.50415
1435359944.021,18.17183
1435359944.036,12.732712
1435359944.052,6.8115387
1435359944.068,1.0352173
1435359944.083,-4.131386
1435359944.099,-8.346596
1435359944.115,-11.428574
1435359944.13,-13.273628
1435359944.146,-13.906044
1435359944.161,-13.490906
1435359944.177,-12.344162
1435359944.193,-10.891426
1435359944.208,-9.551437
1435359944.224,-8.607437
1435359944.24,-8.177444
1435359944.255,-8.222275
1435359944.271,-8.664734
1435359944.286,-9.423874
1435359944.302,-10.447418
1435359944.318,-11.615456
1435359944.333,-12.7388
1435359944.349,-13.540741
1435359944.365,-13.744957
1435359944.38,-13.170174
1435359944.396,-11.779366
1435359944.411,-9.618706
1435359944.427,-6.820801
1435359944.443,-3.5594559
1435359944.458,-0.06162262
1435359944.474,3.421875
1435359944.49,6.6625595
1435359944.505,9.567032
1435359944.521,12.224106
1435359944.536,14.859062
1435359944.552,17.658691
1435359944.568,20.65245
1435359944.583,23.57203
1435359944.599,25.97882
1435359944.615,27.355461
1435359944.63,27.299042
1435359944.646,25.576363
1435359944.661,22.195816
1435359944.677,17.370903
1435359944.693,11.545376
1435359944.708,5.317093
1435359944.724,-0.64216614
1435359944.74,-5.7473526
1435359944.755,-9.614742
1435359944.771,-12.153057
1435359944.786,-13.468105
1435359944.802,-13.776875
1435359944.818,-13.309475
1435359944.833,-12.287819
1435359944.849,-10.964222
1435359944.865,-9.63279
1435359944.88,-8.600857
1435359944.896,-8.122421
1435359944.911,-8.273766
1435359944.927,-8.937393
1435359944.943,-9.855179
1435359944.958,-10.734951
1435359944.974,-11.308182
1435359944.99,-11.413433
1435359945.005,-10.969593
1435359945.021,-9.955772
1435359945.036,-8.389488
1435359945.052,-6.353939
1435359945.068,-3.968998
1435359945.083,-1.4280624
1435359945.099,1.0864983
1435359945.115,3.4458008
1435359945.13,5.6676903
1435359945.146,7.906292
1435359945.161,10.458557
1435359945.177,13.566643
1435359945.193,17.300121
1435359945.208,21.410053
1435359945.224,25.335262
1435359945.24,28.304745
1435359945.255,29.605667
1435359945.271,28.765808
1435359945.286,25.698761
1435359945.302,20.699604
1435359945.318,14.354561
1435359945.333,7.3743973
1435359945.349,0.5063095
1435359945.365,-5.6238747
1435359945.38,-10.546936
1435359945.396,-14.042425
1435359945.411,-16.109982
1435359945.427,-16.956148
1435359945.443,-16.889286
1435359945.458,-16.229189
1435359945.474,-15.2424965
1435359945.49,-14.133257
1435359945.505,-13.042011
1435359945.521,-12.089453
1435359945.536,-11.326841
1435359945.552,-10.7723465
1435359945.568,-10.384661
1435359945.583,-10.125347
1435359945.599,-9.958147
1435359945.615,-9.859858
1435359945.63,-9.765642
1435359945.646,-9.576345
1435359945.661,-9.120323
1435359945.677,-8.252682
1435359945.693,-6.900385
1435359945.708,-5.1201744
1435359945.724,-3.0079403
1435359945.74,-0.7091141
1435359945.755,1.7041111
1435359945.771,4.199443
1435359945.786,6.80009
1435359945.802,9.566795
1435359945.818,12.558388
1435359945.833,15.804637
1435359945.849,19.237408
1435359945.865,22.612053
1435359945.88,25.472778
1435359945.896,27.160769
1435359945.911,27.097439
1435359945.927,24.926998
1435359945.943,20.73348
1435359945.958,15.046647
1435359945.974,8.682295
1435359945.99,2.4690862
1435359946.005,-2.9595194
1435359946.021,-7.3062897
1435359946.036,-10.56341
1435359946.052,-12.878659
1435359946.068,-14.4426155
1435359946.083,-15.380734
1435359946.099,-15.723945
1435359946.115,-15.516478
1435359946.13,-14.846562
1435359946.146,-13.903477
1435359946.161,-12.894422
1435359946.177,-12.005028
1435359946.193,-11.311287
1435359946.208,-10.8358555
1435359946.224,-10.561697
1435359946.24,-10.506036
1435359946.255,-10.67715
1435359946.271,-11.038676
1435359946.286,-11.411601
1435359946.302,-11.5105715
1435359946.318,-11.00158
1435359946.333,-9.687327
1435359946.349,-7.5696
1435359946.365,-4.9014397
1435359946.38,-2.0366306
1435359946.396,0.6746712
1435359946.412,3.0676727
1435359946.427,5.182621
1435359946.443,7.2324677
1435359946.458,9.496864
1435359946.474,12.249325
1435359946.49,15.582087
1435359946.505,19.337978
1435359946.521,23.036654
1435359946.536,25.976358
1435359946.552,27.409866
1435359946.568,26.802725
1435359946.583,24.003176
1435359946.599,19.332731
1435359946.615,13.452648
1435359946.63,7.168421
1435359946.646,1.2094326
1435359946.662,-3.895525
1435359946.677,-7.8805504
1435359946.693,-10.676338
1435359946.708,-12.3701935
1435359946.724,-13.108646
1435359946.74,-13.096519
1435359946.755,-12.570488
1435359946.771,-11.811291
1435359946.787,-11.116444
1435359946.802,-10.794922
1435359946.818,-11.047348
1435359946.833,-11.932976
1435359946.849,-13.247906
1435359946.865,-14.646515
1435359946.88,-15.710556
1435359946.896,-16.119343
1435359946.912,-15.712955
1435359946.927,-14.5139885
1435359946.943,-12.641342
1435359946.958,-10.287334
1435359946.974,-7.6691284
1435359946.99,-5.024925
1435359947.005,-2.5891304
1435359947.021,-0.5458107
1435359947.037,1.09935
1435359947.052,2.5099182
1435359947.068,3.9786682
1435359947.083,5.7477913
1435359947.099,7.9697037
1435359947.115,10.605118
1435359947.13,13.525829
1435359947.146,16.584572
1435359947.162,19.631
1435359947.177,22.422966
1435359947.193,24.608383
1435359947.208,25.747757
1435359947.224,25.52047
1435359947.24,23.833038
1435359947.255,20.843506
1435359947.271,16.900604
1435359947.287,12.39373
1435359947.302,7.620987
1435359947.318,2.8025284
1435359947.333,-1.8616867
1435359947.349,-6.113991
1435359947.365,-9.642151
1435359947.38,-12.14563
1435359947.396,-13.449669
1435359947.412,-13.534637
1435359947.427,-12.591362
1435359947.443,-10.94883
1435359947.458,-9.06398
1435359947.474,-7.3642044
1435359947.49,-6.2328568
1435359947.505,-5.8591614
1435359947.521,-6.2203217
1435359947.537,-7.109108
1435359947.552,-8.208206
1435359947.568,-9.183685
1435359947.583,-9.777786
1435359947.599,-9.761543
1435359947.615,-8.99765
1435359947.63,-7.4441223
1435359947.646,-5.220497
1435359947.662,-2.5784836
1435359947.677,0.13322449
1435359947.693,2.6193771
1435359947.708,4.7262726
1435359947.724,6.5196686
1435359947.74,8.2099
1435359947.755,10.044868
1435359947.771,12.179726
1435359947.787,14.642052
1435359947.802,17.262787
1435359947.818,19.693062
1435359947.833,21.443886
1435359947.849,21.96466
1435359947.865,20.803879
1435359947.88,17.78444
1435359947.896,13.10611
1435359947.912,7.3431015
1435359947.927,1.3092117
1435359947.943,-4.189438
1435359947.958,-8.570854
1435359947.974,-11.50071
1435359947.99,-12.951706
1435359948.005,-13.064125
1435359948.021,-12.079628
1435359948.037,-10.296234
1435359948.052,-8.044327
1435359948.068,-5.6801224
1435359948.083,-3.5720596
1435359948.099,-2.0223846
1435359948.115,-1.2292557
1435359948.13,-1.2217026
1435359948.146,-1.8499527
1435359948.162,-2.7793655
1435359948.177,-3.607376
1435359948.193,-3.9753265
1435359948.208,-3.722374
1435359948.224,-2.9007874
1435359948.24,-1.7448578
1435359948.255,-0.48593903
1435359948.271,0.7258377
1435359948.287,1.9095306
1435359948.302,3.179428
1435359948.318,4.6622543
1435359948.333,6.4070587
1435359948.349,8.437126
1435359948.365,10.7664795
1435359948.38,13.473358
1435359948.396,16.579536
1435359948.412,19.98803
1435359948.427,23.342583
1435359948.443,26.045197
1435359948.458,27.392715
1435359948.474,26.797752
1435359948.49,23.999512
1435359948.505,19.20198
1435359948.521,13.003571
1435359948.537,6.28273
1435359948.552,-0.06993103
1435359948.568,-5.337967
1435359948.583,-9.169067
1435359948.599,-11.552734
1435359948.615,-12.74678
1435359948.63,-13.082794
1435359948.646,-12.831802
1435359948.662,-12.150696
1435359948.677,-11.137421
1435359948.693,-9.89505
1435359948.708,-8.612228
1435359948.724,-7.4766846
1435359948.74,-6.6315765
1435359948.755,-6.1243744
1435359948.771,-5.9009705
1435359948.787,-5.8504486
1435359948.802,-5.85141
1435359948.818,-5.779007
1435359948.833,-5.510559
1435359948.849,-4.9089966
1435359948.865,-3.8818817
1435359948.88,-2.4006348
1435359948.896,-0.58354187
1435359948.912,1.4098053
1435359948.927,3.4028778
1435359948.943,5.3355865
1435359948.958,7.284317
1435359948.974,9.438156
1435359948.99,11.954254
1435359949.005,14.883179
1435359949.021,18.058914
1435359949.037,21.13179
1435359949.052,23.603958
1435359949.068,24.95877
1435359949.084,24.741837
1435359949.099,22.746704
1435359949.115,19.02179
1435359949.13,13.939606
1435359949.146,8.086594
1435359949.162,2.1828918
1435359949.177,-3.134491
1435359949.193,-7.390152
1435359949.208,-10.391342
1435359949.224,-12.186966
1435359949.24,-12.96933
1435359949.255,-12.967148
1435359949.271,-12.366531
1435359949.287,-11.280716
1435359949.302,-9.848038
1435359949.318,-8.277237
1435359949.334,-6.906128
1435359949.349,-6.081131
1435359949.365,-6.05571
1435359949.38,-6.8376465
1435359949.396,-8.153381
1435359949.412,-9.546616
1435359949.427,-10.5364685
1435359949.443,-10.756668
1435359949.459,-10.084244
1435359949.474,-8.552689
1435359949.49,-6.3388367
1435359949.505,-3.6649475
1435359949.521,-0.77104187
1435359949.537,2.1457062
1435359949.552,4.8984222
1435359949.568,7.3999634
1435359949.584,9.664642
1435359949.599,11.842987
1435359949.615,14.145874
1435359949.63,16.76764
1435359949.646,19.722504
1435359949.662,22.797974
1435359949.677,25.510864
1435359949.693,27.21431
1435359949.709,27.27446
1435359949.724,25.298798
1435359949.74,21.281158
1435359949.755,15.6453705
1435359949.771,9.128265
1435359949.787,2.574646
1435359949.802,-3.302124
1435359949.818,-8.031593
1435359949.834,-11.459335
1435359949.849,-13.608795
1435359949.865,-14.617683
1435359949.88,-14.658112
1435359949.896,-13.931808
1435359949.912,-12.6792755
1435359949.927,-11.208603
1435359949.943,-9.81752
1435359949.959,-8.7456665
1435359949.974,-8.141861
1435359949.99,-8.022537
1435359950.005,-8.317787
1435359950.021,-8.879852
1435359950.037,-9.451942
1435359950.052,-9.743256
1435359950.068,-9.48774
1435359950.084,-8.569496
1435359950.099,-7.0524216
1435359950.115,-5.177635
1435359950.13,-3.198265
1435359950.146,-1.2995758
1435359950.162,0.49585724
1435359950.177,2.2983627
1435359950.193,4.2455063
1435359950.209,6.4242783
1435359950.224,8.893692
1435359950.24,11.689667
1435359950.255,14.83313
1435359950.271,18.251106
1435359950.287,21.680504
1435359950.302,24.5924
1435359950.318,26.31157
1435359950.334,26.213104
1435359950.349,23.981003
1435359950.365,19.730453
1435359950.38,13.984047
1435359950.396,7.473442
1435359950.412,0.9985428
1435359950.427,-4.7834473
1435359950.443,-9.424316
1435359950.459,-12.702042
1435359950.474,-14.589401
1435359950.49,-15.231483
1435359950.505,-14.885735
1435359950.521,-13.87355
1435359950.537,-12.53508
1435359950.552,-11.198723
1435359950.568,-10.160309
1435359950.584,-9.654404
1435359950.599,-9.763893
1435359950.615,-10.409348
1435359950.63,-11.350319
1435359950.646,-12.279327
1435359950.662,-12.943115
1435359950.677,-13.208519
1435359950.693,-13.059975
1435359950.709,-12.528847
1435359950.724,-11.6036
1435359950.74,-10.24884
1435359950.755,-8.445679
1435359950.771,-6.290161
1435359950.787,-3.9693604
1435359950.802,-1.7252655
1435359950.818,0.30178833
1435359950.834,2.1168518
1435359950.849,3.8815613
1435359950.865,5.821869
1435359950.88,8.117126
1435359950.896,10.88607
1435359950.912,14.166458
1435359950.927,17.845634
1435359950.943,21.626549
1435359950.959,24.93805
1435359950.974,27.016342
1435359950.99,27.093246
1435359951.005,24.69883
1435359951.021,19.870361
1435359951.037,13.254082
1435359951.052,5.8671875
1435359951.068,-1.1714935
1435359951.084,-7.0102234
1435359951.099,-11.227707
1435359951.115,-13.844131
1435359951.13,-15.111771
1435359951.146,-15.347839
1435359951.162,-14.769173
1435359951.177,-13.527046
1435359951.193,-11.814491
1435359951.209,-9.9381485
1435359951.224,-8.279228
1435359951.24,-7.213112
1435359951.255,-6.9310913
1435359951.271,-7.4070587
1435359951.287,-8.368965
1435359951.302,-9.468857
1435359951.318,-10.417313
1435359951.334,-11.053795
1435359951.349,-11.298859
1435359951.365,-11.102592
1435359951.38,-10.403114
1435359951.396,-9.164139
1435359951.412,-7.403702
1435359951.427,-5.309723
1435359951.443,-3.1545181
1435359951.459,-1.1763687
1435359951.474,0.5119629
1435359951.49,2.0220947
1435359951.505,3.5957947
1435359951.521,5.521881
1435359951.537,8.070183
1435359951.552,11.289932
1435359951.568,14.97271
1435359951.584,18.584396
1435359951.599,21.443611
1435359951.615,22.816284
1435359951.63,22.240639
1435359951.646,19.608246
1435359951.662,15.223854
1435359951.677,9.654907
1435359951.693,3.5847397
1435359951.709,-2.2968292
1435359951.724,-7.3264923
1435359951.74,-10.955101
1435359951.755,-12.829643
1435359951.771,-12.949089
1435359951.787,-11.693039
1435359951.802,-9.76162
1435359951.818,-7.9038544
1435359951.834,-6.682602
1435359951.849,-6.2932816
1435359951.865,-6.5996475
1435359951.88,-7.294319
1435359951.896,-8.136505
1435359951.912,-8.930893
1435359951.927,-9.586891
1435359951.943,-10.014732
1435359951.959,-10.117905
1435359951.974,-9.827621
1435359951.99,-9.136253
1435359952.006,-8.116699
1435359952.021,-6.912918
1435359952.037,-5.6381454
1435359952.052,-4.3632736
1435359952.068,-3.0977097
1435359952.084,-1.8287125
1435359952.099,-0.4391861
1435359952.115,1.180893
1435359952.131,3.1629257
1435359952.146,5.586273
1435359952.162,8.485191
1435359952.177,11.7660675
1435359952.193,15.233337
1435359952.209,18.55577
1435359952.224,21.305695
1435359952.24,22.99179
1435359952.256,23.168556
1435359952.271,21.561752
1435359952.287,18.20768
1435359952.302,13.458717
1435359952.318,7.9208527
1435359952.334,2.2797089
1435359952.349,-2.8404236
1435359952.365,-6.997017
1435359952.381,-9.927124
1435359952.396,-11.56723
1435359952.412,-11.974213
1435359952.427,-11.370941
1435359952.443,-10.0802765
1435359952.459,-8.484833
1435359952.474,-6.911972
1435359952.49,-5.60096
1435359952.506,-4.687683
1435359952.521,-4.2633514
1435359952.537,-4.352867
1435359952.552,-4.9317627
1435359952.568,-5.8393173
1435359952.584,-6.811943
1435359952.599,-7.5100403
1435359952.615,-7.671486
1435359952.631,-7.2098694
1435359952.646,-6.2469635
1435359952.662,-4.952446
1435359952.677,-3.4731674
1435359952.693,-1.8229675
1435359952.709,0.051597595
1435359952.724,2.200035
1435359952.74,4.5663223
1435359952.756,7.043701
1435359952.771,9.539436
1435359952.787,12.061043
1435359952.802,14.67115
1435359952.818,17.359924
1435359952.834,19.92591
1435359952.849,21.973412
1435359952.865,22.965622
1435359952.881,22.44542
1435359952.896,20.1576
1435359952.912,16.202324
1435359952.927,10.977516
1435359952.943,5.1208954
1435359952.959,-0.6579819
1435359952.974,-5.736374
1435359952.99,-9.733124
1435359953.006,-12.510353
1435359953.021,-14.128731
1435359953.037,-14.677368
1435359953.052,-14.220924
1435359953.068,-12.805313
1435359953.084,-10.606476
1435359953.099,-8.015221
1435359953.115,-5.6356125
1435359953.131,-4.0895233
1435359953.146,-3.7723045
1435359953.162,-4.6217003
1435359953.177,-6.160095
1435359953.193,-7.679577
1435359953.209,-8.55254
1435359953.224,-8.392292
1435359953.24,-7.184452
1435359953.256,-5.1495323
1435359953.271,-2.6715355
1435359953.287,-0.11141586
1435359953.302,2.2238007
1435359953.318,4.1539955
1435359953.334,5.655285
1435359953.349,6.864361
1435359953.365,8.030502
1435359953.381,9.447281
1435359953.396,11.351921
1435359953.412,13.896393
1435359953.427,17.013824
1435359953.443,20.367004
1435359953.459,23.316906
1435359953.474,25.056065
1435359953.49,24.779781
1435359953.506,22.02969
1435359953.521,16.901348
1435359953.537,10.080742
1435359953.552,2.639
1435359953.568,-4.3245163
1435359953.584,-9.987545
1435359953.599,-13.945171
1435359953.615,-16.17398
1435359953.631,-16.881252
1435359953.646,-16.366493
1435359953.662,-14.914631
1435359953.677,-12.851109
1435359953.693,-10.517536
1435359953.709,-8.303078
1435359953.724,-6.56176
1435359953.74,-5.5767975
1435359953.756,-5.4614563
1435359953.771,-6.14167
1435359953.787,-7.3110046
1435359953.802,-8.556469
1435359953.818,-9.427284
1435359953.834,-9.63303
1435359953.849,-9.093773
1435359953.865,-7.94796
1435359953.881,-6.420025
1435359953.896,-4.7104187
1435359953.912,-2.8901749
1435359953.927,-0.93026733
1435359953.943,1.2488823
1435359953.959,3.6755085
1435359953.974,6.3623924
1435359953.99,9.287127
1435359954.006,12.460442
1435359954.021,15.865364
1435359954.037,19.409916
1435359954.052,22.787626
1435359954.068,25.501165
1435359954.084,26.920826
1435359954.099,26.479416
1435359954.115,23.901823
1435359954.131,19.30923
1435359954.146,13.218988
1435359954.162,6.464567
1435359954.177,-0.08374596
1435359954.193,-5.7149334
1435359954.209,-10.035627
1435359954.224,-12.971371
1435359954.24,-14.686497
1435359954.256,-15.418854
1435359954.271,-15.369804
1435359954.287,-14.658836
1435359954.302,-13.420703
1435359954.318,-11.835262
1435359954.334,-10.2195
1435359954.349,-8.913825
1435359954.365,-8.23234
1435359954.381,-8.285066
1435359954.396,-8.953846
1435359954.412,-9.900368
1435359954.427,-10.706812
1435359954.443,-11.008295
1435359954.459,-10.624564
1435359954.474,-9.5955105
1435359954.49,-8.110593
1435359954.506,-6.3984227
1435359954.521,-4.645082
1435359954.537,-2.8579583
1435359954.552,-0.9607115
1435359954.568,1.1644177
1435359954.584,3.5547073
1435359954.599,6.1748276
1435359954.615,8.956978
1435359954.631,11.87208
1435359954.646,14.929348
1435359954.662,18.091738
1435359954.678,21.099155
1435359954.693,23.446148
1435359954.709,24.458744
1435359954.724,23.577473
1435359954.74,20.589392
1435359954.756,15.763811
1435359954.771,9.7607
1435359954.787,3.401473
1435359954.803,-2.6109114
1435359954.818,-7.8061533
1435359954.834,-11.958991
1435359954.849,-14.997864
1435359954.865,-16.928612
1435359954.881,-17.782795
1435359954.896,-17.65099
1435359954.912,-16.646065
1435359954.928,-14.964616
1435359954.943,-12.846612
1435359954.959,-10.605338
1435359954.974,-8.6224575
1435359954.99,-7.275034
1435359955.006,-6.8162518
1435359955.021,-7.262762
1435359955.037,-8.333796
1435359955.053,-9.533674
1435359955.068,-10.333786
1435359955.084,-10.384096
1435359955.099,-9.566366
1435359955.115,-8.024708
1435359955.131,-6.0247097
1435359955.146,-3.8183498
1435359955.162,-1.5319767
1435359955.178,0.8113022
1435359955.193,3.2756214
1435359955.209,5.9422417
1435359955.224,8.908592
1435359955.24,12.23535
1435359955.256,15.94932
1435359955.271,19.929167
1435359955.287,23.886862
1435359955.303,27.272234
1435359955.318,29.374403
1435359955.334,29.485273
1435359955.349,27.172327
1435359955.365,22.45051
1435359955.381,15.86705
1435359955.396,8.33585
1435359955.412,0.87145996
1435359955.428,-5.7005234
1435359955.443,-10.880287
1435359955.459,-14.497948
1435359955.474,-16.583298
1435359955.49,-17.279118
1435359955.506,-16.83295
1435359955.521,-15.619854
1435359955.537,-14.088875
1435359955.553,-12.751686
1435359955.568,-11.957005
1435359955.584,-11.847347
1435359955.599,-12.316986
1435359955.615,-13.139645
1435359955.631,-14.056461
1435359955.646,-14.866261
1435359955.662,-15.384495
1435359955.678,-15.4366455
1435359955.693,-14.885811
1435359955.709,-13.68737
1435359955.724,-11.909935
1435359955.74,-9.813637
1435359955.756,-7.661766
1435359955.771,-5.6892624
1435359955.787,-3.9735718
1435359955.803,-2.4588394
1435359955.818,-0.99347305
1435359955.834,0.55913544
1435359955.849,2.372055
1435359955.865,4.6016808
1435359955.881,7.3836937
1435359955.896,10.770676
1435359955.912,14.631004
1435359955.928,18.572407
1435359955.943,21.997982
1435359955.959,24.234108
1435359955.974,24.71362
1435359955.99,23.152493
1435359956.006,19.611328
1435359956.021,14.445839
1435359956.037,8.283314
1435359956.053,1.8137093
1435359956.068,-4.280632
1435359956.084,-9.452435
1435359956.099,-13.319717
1435359956.115,-15.74527
1435359956.131,-16.757175
1435359956.146,-16.560337
1435359956.162,-15.487999
1435359956.178,-13.901146
1435359956.193,-12.161907
1435359956.209,-10.574181
1435359956.224,-9.309311
1435359956.24,-8.46838
1435359956.256,-8.077103
1435359956.271,-8.1375885
1435359956.287,-8.606312
1435359956.303,-9.397907
1435359956.318,-10.30637
1435359956.334,-11.067043
1435359956.349,-11.398193
1435359956.365,-11.125423
1435359956.381,-10.236969
1435359956.396,-8.872112
1435359956.412,-7.17437
1435359956.428,-5.263832
1435359956.443,-3.1545868
1435359956.459,-0.81641006
1435359956.474,1.7899361
1435359956.49,4.640831
1435359956.506,7.699711
1435359956.521,10.90683
1435359956.537,14.181583
1435359956.553,17.35136
1435359956.568,20.07763
1435359956.584,21.879349
1435359956.599,22.286541
1435359956.615,20.950542
1435359956.631,17.825947
1435359956.646,13.208664
1435359956.662,7.6289825
1435359956.678,1.7130814
1435359956.693,-3.9379082
1435359956.709,-8.836933
1435359956.724,-12.625702
1435359956.74,-15.075413
1435359956.756,-16.120007
1435359956.771,-15.870541
1435359956.787,-14.550907
1435359956.803,-12.530815
1435359956.818,-10.233131
1435359956.834,-8.110043
1435359956.849,-6.5341988
1435359956.865,-5.7428703
1435359956.881,-5.764538
1435359956.896,-6.437126
1435359956.912,-7.4379654
1435359956.928,-8.420322
1435359956.943,-9.086891
1435359956.959,-9.271145
1435359956.974,-8.865177
1435359956.99,-7.829441
1435359957.006,-6.174179
1435359957.021,-4.0217476
1435359957.037,-1.5387306
1435359957.053,1.0379715
1435359957.068,3.536213
1435359957.084,5.9192085
1435359957.099,8.302059
1435359957.115,10.857674
1435359957.131,13.730148
1435359957.146,16.921833
1435359957.162,20.305424
1435359957.178,23.552898
1435359957.193,26.169865
1435359957.209,27.53238
1435359957.224,27.011417
1435359957.24,24.16969
1435359957.256,18.995079
1435359957.271,11.991711
1435359957.287,4.113243
1435359957.303,-3.5370293
1435359957.318,-10.02095
1435359957.334,-14.827999
1435359957.35,-17.857796
1435359957.365,-19.304264
1435359957.381,-19.425999
1435359957.396,-18.492752
1435359957.412,-16.737972
1435359957.428,-14.491745
1435359957.443,-12.168655
1435359957.459,-10.24786
1435359957.474,-9.1287
1435359957.49,-8.993214
1435359957.506,-9.704826
1435359957.521,-10.883831
1435359957.537,-11.933495
1435359957.553,-12.313831
1435359957.568,-11.695068
1435359957.584,-10.131252
1435359957.6,-7.9429855
1435359957.615,-5.632946
1435359957.631,-3.5848083
1435359957.646,-1.9104729
1435359957.662,-0.46196365
1435359957.678,1.0534782
1435359957.693,2.909565
1435359957.709,5.2688446
1435359957.725,8.231323
1435359957.74,11.86121
1435359957.756,16.16132
1435359957.771,20.917053
1435359957.787,25.61008
1435359957.803,29.396301
1435359957.818,31.351223
1435359957.834,30.775452
1435359957.85,27.502037
1435359957.865,21.95163
1435359957.881,15.006931
1435359957.896,7.6540756
1435359957.912,0.7860794
1435359957.928,-5.025692
1435359957.943,-9.492157
1435359957.959,-12.541687
1435359957.975,-14.246529
1435359957.99,-14.766647
1435359958.006,-14.32523
1435359958.021,-13.20013
1435359958.037,-11.69936
1435359958.053,-10.119743
1435359958.068,-8.705509
1435359958.084,-7.682976
1435359958.1,-7.1322327
1435359958.115,-7.0717354
1435359958.131,-7.404606
1435359958.146,-7.9585304
1435359958.162,-8.501343
1435359958.178,-8.827446
1435359958.193,-8.72665
1435359958.209,-8.081795
1435359958.225,-6.8749275
1435359958.24,-5.20842
1435359958.256,-3.2831573
1435359958.271,-1.3056679
1435359958.287,0.6399727
1435359958.303,2.5942535
1435359958.318,4.7141113
1435359958.334,7.1604652
1435359958.35,10.049465
1435359958.365,13.370972
1435359958.381,17.026466
1435359958.396,20.775322
1435359958.412,24.237091
1435359958.428,26.848915
1435359958.443,27.978489
1435359958.459,27.076244
1435359958.475,23.929565
1435359958.49,18.78141
1435359958.506,12.30658
1435359958.521,5.396965
1435359958.537,-1.1221924
1435359958.553,-6.685585
1435359958.568,-11.034889
1435359958.584,-14.137032
1435359958.6,-16.073822
1435359958.615,-16.971031
1435359958.631,-16.99366
1435359958.646,-16.365181
1435359958.662,-15.296387
1435359958.678,-14.02655
1435359958.693,-12.757805
1435359958.709,-11.694847
1435359958.725,-11.010742
1435359958.74,-10.8255005
1435359958.756,-11.123459
1435359958.771,-11.726501
1435359958.787,-12.336472
1435359958.803,-12.651901
1435359958.818,-12.513687
1435359958.834,-11.948837
1435359958.85,-11.074005
1435359958.865,-10.008743
1435359958.881,-8.731529
1435359958.896,-7.1088486
1435359958.912,-4.913582
1435359958.928,-2.0047379
1435359958.943,1.6297379
1435359958.959,5.808922
1435359958.975,10.234749
1435359958.99,14.589699
1435359959.006,18.608315
1435359959.021,22.080002
1435359959.037,24.830826
1435359959.053,26.615463
1435359959.068,27.08377
1435359959.084,25.845596
1435359959.1,22.677483
1435359959.115,17.637848
1435359959.131,11.226135
1435359959.146,4.259102
1435359959.162,-2.3608475
1435359959.178,-7.956154
1435359959.193,-12.1851425
1435359959.209,-15.008667
1435359959.225,-16.450447
1435359959.24,-16.518044
1435359959.256,-15.23777
1435359959.271,-12.825127
1435359959.287,-9.831917
1435359959.303,-7.0770645
1435359959.318,-5.390335
1435359959.334,-5.291687
1435359959.35,-6.753357
1435359959.365,-9.255028
1435359959.381,-12.020012
1435359959.396,-14.346962
1435359959.412,-15.80928
1435359959.428,-16.286453
1435359959.443,-15.845505
1435359959.459,-14.640747
1435359959.475,-12.81366
1435359959.49,-10.523788
1435359959.506,-7.9728317
1435359959.521,-5.383629
1435359959.537,-2.9362183
1435359959.553,-0.6996918
1435359959.568,1.4079666
1435359959.584,3.574974
1435359959.6,6.1236725
1435359959.615,9.314613
1435359959.631,13.252319
1435359959.646,17.706772
1435359959.662,22.118652
1435359959.678,25.591248
1435359959.693,27.199318
1435359959.709,26.262184
1435359959.725,22.63269
1435359959.74,16.752659
1435359959.756,9.546711
1435359959.771,2.126213
1435359959.787,-4.4931755
1435359959.803,-9.652103
1435359959.818,-13.101982
1435359959.834,-14.967766
1435359959.85,-15.577084
1435359959.865,-15.334503
1435359959.881,-14.5784645
1435359959.896,-13.564934
1435359959.912,-12.46291
1435359959.928,-11.42934
1435359959.943,-10.593479
1435359959.959,-10.080215
1435359959.975,-9.9123955
1435359959.99,-10.016403
1435359960.006,-10.228016
1435359960.022,-10.336357
1435359960.037,-10.181366
1435359960.053,-9.688808
1435359960.068,-8.864048
1435359960.084,-7.761299
1435359960.1,-6.42778
1435359960.115,-4.8867607
1435359960.131,-3.1495018
1435359960.146,-1.2652931
1435359960.162,0.76428604
1435359960.178,2.940422
1435359960.193,5.3133163
1435359960.209,7.950901
1435359960.225,10.917946
1435359960.24,14.1720085
1435359960.256,17.566658
1435359960.272,20.767372
1435359960.287,23.296112
1435359960.303,24.594254
1435359960.318,24.162727
1435359960.334,21.72406
1435359960.35,17.403522
1435359960.365,11.704063
1435359960.381,5.3923073
1435359960.397,-0.73648834
1435359960.412,-6.0432167
1435359960.428,-10.185036
1435359960.443,-13.038624
1435359960.459,-14.617584
1435359960.475,-14.998249
1435359960.49,-14.333157
1435359960.506,-12.87196
1435359960.522,-10.9801445
1435359960.537,-9.041645
1435359960.553,-7.373047
1435359960.568,-6.1520576
1435359960.584,-5.4513206
1435359960.6,-5.220772
1435359960.615,-5.4157906
1435359960.631,-5.9297676
1435359960.647,-6.6047287
1435359960.662,-7.211792
1435359960.678,-7.5022697
1435359960.693,-7.271229
1435359960.709,-6.4227104
1435359960.725,-4.9241447
1435359960.74,-2.8293724
1435359960.756,-0.24777603
1435359960.772,2.6511955
1435359960.787,5.646763
1435359960.803,8.47205
1435359960.818,10.953865
1435359960.834,13.08791
1435359960.85,15.075817
1435359960.865,17.227566
1435359960.881,19.751713
1435359960.897,22.527431
1435359960.912,25.11277
1435359960.928,26.81136
1435359960.943,26.91637
1435359960.959,24.97073
1435359960.975,20.947556
1435359960.99,15.2346115
1435359961.006,8.545696
1435359961.022,1.7112045
1435359961.037,-4.547493
1435359961.053,-9.721802
1435359961.068,-13.542606
1435359961.084,-15.96674
1435359961.1,-17.012093
1435359961.115,-16.784473
1435359961.131,-15.4850235
1435359961.147,-13.483881
1435359961.162,-11.254457
1435359961.178,-9.325794
1435359961.193,-8.092314
1435359961.209,-7.715458
1435359961.225,-8.079922
1435359961.24,-8.879404
1435359961.256,-9.743032
1435359961.272,-10.369036
1435359961.287,-10.488686
1435359961.303,-9.976843
1435359961.318,-8.806719
1435359961.334,-7.091505
1435359961.35,-5.0743885
1435359961.365,-3.0536995
1435359961.381,-1.2439556
1435359961.397,0.3252182
1435359961.412,1.8286476
1435359961.428,3.5559864
1435359961.443,5.757765
1435359961.459,8.518728
1435359961.475,11.784283
1435359961.49,15.392714
1435359961.506,19.151728
1435359961.522,22.828844
1435359961.537,26.102362
1435359961.553,28.47845
1435359961.568,29.366806
1435359961.584,28.207998
1435359961.6,24.71073
1435359961.615,19.004366
1435359961.631,11.709141
1435359961.647,3.7735481
1435359961.662,-3.7011795
1435359961.678,-9.793806
1435359961.693,-13.981327
1435359961.709,-16.230259
1435359961.725,-16.878998
1435359961.74,-16.485846
1435359961.756,-15.590111
1435359961.772,-14.573462
1435359961.787,-13.667234
1435359961.803,-12.997946
1435359961.818,-12.672623
1435359961.834,-12.755571
1435359961.85,-13.197481
1435359961.865,-13.82168
1435359961.881,-14.363716
1435359961.897,-14.616659
1435359961.912,-14.504368
1435359961.928,-14.138433
1435359961.943,-13.666998
1435359961.959,-13.13942
1435359961.975,-12.441984
1435359961.99,-11.340654
1435359962.006,-9.62553
1435359962.022,-7.2678547
1435359962.037,-4.3840313
1435359962.053,-1.2293663
1435359962.068,1.9548683
1435359962.084,4.9750404
1435359962.1,7.748171
1435359962.115,10.261236
1435359962.131,12.602779
1435359962.147,14.936718
1435359962.162,17.491241
1435359962.178,20.43614
1435359962.193,23.756762
1435359962.209,27.13767
1435359962.225,30.04828
1435359962.24,31.78467
1435359962.256,31.704277
1435359962.272,29.410398
1435359962.287,24.865122
1435359962.303,18.43691
1435359962.318,10.843414
1435359962.334,2.9766483
1435359962.35,-4.286663
1435359962.365,-10.254242
1435359962.381,-14.555433
1435359962.397,-17.171412
1435359962.412,-18.265753
1435359962.428,-18.14653
1435359962.443,-17.145485
1435359962.459,-15.616268
1435359962.475,-13.944606
1435359962.49,-12.543662
1435359962.506,-11.743117
1435359962.522,-11.712572
1435359962.537,-12.387168
1435359962.553,-13.5149355
1435359962.568,-14.7701
1435359962.584,-15.881095
1435359962.6,-16.647675
1435359962.615,-16.970272
1435359962.631,-16.799026
1435359962.647,-16.12004
1435359962.662,-14.914292
1435359962.678,-13.204857
1435359962.693,-11.042392
1435359962.709,-8.529507
1435359962.725,-5.810272
1435359962.74,-3.079505
1435359962.756,-0.55320454
1435359962.772,1.6133242
1435359962.787,3.437952
1435359962.803,5.098238
1435359962.818,6.9083652
1435359962.834,9.156031
1435359962.85,11.987125
1435359962.865,15.305619
1435359962.881,18.867596
1435359962.897,22.345797
1435359962.912,25.434689
1435359962.928,27.839169
1435359962.944,29.208344
1435359962.959,29.129873
1435359962.975,27.299513
1435359962.99,23.617208
1435359963.006,18.351889
1435359963.022,12.070694
1435359963.037,5.5329285
1435359963.053,-0.58563924
1435359963.069,-5.797241
1435359963.084,-9.872034
1435359963.1,-12.773636
1435359963.115,-14.560716
1435359963.131,-15.333953
1435359963.147,-15.234637
1435359963.162,-14.392006
1435359963.178,-13.003486
1435359963.194,-11.343742
1435359963.209,-9.794614
1435359963.225,-8.760715
1435359963.24,-8.567467
1435359963.256,-9.290659
1435359963.272,-10.718365
1435359963.287,-12.356794
1435359963.303,-13.672376
1435359963.319,-14.30419
1435359963.334,-14.246549
1435359963.35,-13.709391
1435359963.365,-12.990741
1435359963.381,-12.201183
1435359963.397,-11.196043
1435359963.412,-9.693268
1435359963.428,-7.460685
1435359963.444,-4.5007133
1435359963.459,-1.11267
1435359963.475,2.2704134
1435359963.49,5.270281
1435359963.506,7.7638216
1435359963.522,9.873284
1435359963.537,11.974848
1435359963.553,14.433369
1435359963.569,17.472122
1435359963.584,21.051592
1435359963.6,24.875444
1435359963.615,28.414799
1435359963.631,31.066992
1435359963.647,32.250126
1435359963.662,31.5414
1435359963.678,28.75705
1435359963.694,24.039474
1435359963.709,17.846134
1435359963.725,10.903459
1435359963.74,3.9977884
1435359963.756,-2.198554
1435359963.772,-7.310671
1435359963.787,-11.20662
1435359963.803,-13.980356
1435359963.819,-15.757433
1435359963.834,-16.64492
1435359963.85,-16.733555
1435359963.865,-16.190086
1435359963.881,-15.270275
1435359963.897,-14.267351
1435359963.912,-13.372068
1435359963.928,-12.641281
1435359963.944,-12.004192
1435359963.959,-11.413746
1435359963.975,-10.888069
1435359963.99,-10.589716
1435359964.006,-10.653822
1435359964.022,-11.098637
1435359964.037,-11.713955
1435359964.053,-12.134281
1435359964.069,-11.975363
1435359964.084,-10.991724
1435359964.1,-9.084883
1435359964.115,-6.36125
1435359964.131,-3.0422306
1435359964.147,0.58185387
1435359964.162,4.1859627
1435359964.178,7.4682007
1435359964.194,10.2434025
1435359964.209,12.479975
1435359964.225,14.37496
1435359964.24,16.24552
1435359964.256,18.421703
1435359964.272,20.995186
1435359964.287,23.816475
1435359964.303,26.401321
1435359964.319,28.08112
1435359964.334,28.189442
1435359964.35,26.304205
1435359964.365,22.342022
1435359964.381,16.675661
1435359964.397,9.98889
1435359964.412,3.1230164
1435359964.428,-3.142767
1435359964.444,-8.247202
1435359964.459,-11.917009
1435359964.475,-14.060471
1435359964.49,-14.771982
1435359964.506,-14.246004
1435359964.522,-12.8467045
1435359964.537,-11.016985
1435359964.553,-9.304012
1435359964.569,-8.158981
1435359964.584,-7.8639336
1435359964.6,-8.42704
1435359964.615,-9.624624
1435359964.631,-11.088457
1435359964.647,-12.424088
1435359964.662,-13.26326
1435359964.678,-13.3776245
1435359964.694,-12.680599
1435359964.709,-11.274769
1435359964.725,-9.374102
1435359964.74,-7.2875404
1435359964.756,-5.258499
1435359964.772,-3.427618
1435359964.787,-1.7917023
1435359964.803,-0.23983002
1435359964.819,1.3806591
1435359964.834,3.1865215
1435359964.85,5.3304386
1435359964.865,7.9361362
1435359964.881,11.131687
1435359964.897,14.910416
1435359964.912,19.102398
1435359964.928,23.247183
1435359964.944,26.685795
1435359964.959,28.675232
1435359964.975,28.611866
1435359964.99,26.212555
1435359965.006,21.620049
1435359965.022,15.365368
1435359965.037,8.322414
1435359965.053,1.4159775
1435359965.069,-4.5721474
1435359965.084,-9.196617
1435359965.1,-12.322037
1435359965.115,-14.073524
1435359965.131,-14.636677
1435359965.147,-14.191494
1435359965.162,-12.901249
1435359965.178,-11.008255
1435359965.194,-8.878155
1435359965.209,-6.9521675
1435359965.225,-5.5279007
1435359965.24,-4.7014008
1435359965.256,-4.3219566
1435359965.272,-4.1375847
1435359965.287,-3.9517174
1435359965.303,-3.701271
1435359965.319,-3.4437447
1435359965.334,-3.2388802
1435359965.35,-3.086132
1435359965.365,-2.8941002
1435359965.381,-2.521759
1435359965.397,-1.8941994
1435359965.412,-0.8779259
1435359965.428,0.65971375
1435359965.444,2.8848877
1435359965.459,5.8830338
1435359965.475,9.6070175
1435359965.49,13.72632
1435359965.506,17.69026
1435359965.522,20.821535
1435359965.537,22.48419
1435359965.553,22.235668
1435359965.569,19.946106
1435359965.584,15.836117
1435359965.6,10.499657
1435359965.616,4.7300034
1435359965.631,-0.7074013
1435359965.647,-5.329777
1435359965.662,-8.9607315
1435359965.678,-11.725765
1435359965.694,-13.757843
1435359965.709,-15.066868
1435359965.725,-15.47488
1435359965.741,-14.823099
1435359965.756,-13.148928
1435359965.772,-10.781813
1435359965.787,-8.229778
1435359965.803,-5.962206
1435359965.819,-4.2321625
1435359965.834,-3.0634365
1435359965.85,-2.3327103
1435359965.866,-1.9577255
1435359965.881,-1.8913441
1435359965.897,-2.1289043
1435359965.912,-2.5686302
1435359965.928,-2.98386
1435359965.944,-3.0597038
1435359965.959,-2.5437546
1435359965.975,-1.2159481
1435359965.991,0.94760895
1435359966.006,3.8513699
1435359966.022,7.266632
1435359966.037,10.928036
1435359966.053,14.509649
1435359966.069,17.687136
1435359966.084,20.14233
1435359966.1,21.522465
1435359966.116,21.488352
1435359966.131,19.801346
1435359966.147,16.434692
1435359966.162,11.768944
1435359966.178,6.4783974
1435359966.194,1.353941
1435359966.209,-3.0284557
1435359966.225,-6.4767437
1435359966.241,-9.195099
1435359966.256,-11.492168
1435359966.272,-13.501003
1435359966.287,-15.0396
1435359966.303,-15.722246
1435359966.319,-15.259926
1435359966.334,-13.731115
1435359966.35,-11.552563
1435359966.366,-9.377579
1435359966.381,-7.775652
1435359966.397,-7.0224323
1435359966.412,-7.0420513
1435359966.428,-7.518202
1435359966.444,-8.054855
1435359966.459,-8.345224
1435359966.475,-8.215601
1435359966.491,-7.618557
1435359966.506,-6.589802
1435359966.522,-5.2298794
1435359966.537,-3.5839157
1435359966.553,-1.6912918
1435359966.569,0.41586113
1435359966.584,2.7152157
1435359966.6,5.217594
1435359966.616,7.936203
1435359966.631,10.917307
1435359966.647,14.147753
1435359966.662,17.45197
1435359966.678,20.401731
1435359966.694,22.398773
1435359966.709,22.83928
1435359966.725,21.426245
1435359966.741,18.22722
1435359966.756,13.664541
1435359966.772,8.331556
1435359966.787,2.7833672
1435359966.803,-2.5699196
1435359966.819,-7.400984
1435359966.834,-11.423449
1435359966.85,-14.361277
1435359966.866,-15.999901
1435359966.881,-16.29179
1435359966.897,-15.401411
1435359966.912,-13.595751
1435359966.928,-11.205402
1435359966.944,-8.578329
1435359966.959,-6.0697575
1435359966.975,-4.0444527
1435359966.991,-2.8588448
1435359967.006,-2.6843662
1435359967.022,-3.4138927
1435359967.037,-4.6736965
1435359967.053,-5.943222
1435359967.069,-6.805813
1435359967.084,-7.0706825
1435359967.1,-6.6788464
1435359967.116,-5.6790133
1435359967.131,-4.090932
1435359967.147,-1.937129
1435359967.162,0.7383919
1435359967.178,3.772174
1435359967.194,6.998784
1435359967.209,10.285554
1435359967.225,13.60197
1435359967.241,16.952303
1435359967.256,20.231234
1435359967.272,23.131105
1435359967.287,25.211712
1435359967.303,25.955772
1435359967.319,24.971714
1435359967.334,22.081059
1435359967.35,17.403185
1435359967.366,11.310032
1435359967.381,4.411294
1435359967.397,-2.5647936
1435359967.412,-8.875776
1435359967.428,-13.908309
1435359967.444,-17.285522
1435359967.459,-18.908966
1435359967.475,-18.836147
1435359967.491,-17.282562
1435359967.506,-14.597582
1435359967.522,-11.289544
1435359967.537,-8.014652
1435359967.553,-5.4886236
1435359967.569,-4.258052
1435359967.584,-4.541979
1435359967.6,-6.1194553
1435359967.616,-8.435901
1435359967.631,-10.790264
1435359967.647,-12.552628
1435359967.662,-13.248014
1435359967.678,-12.668745
1435359967.694,-10.867325
1435359967.709,-8.133125
1435359967.725,-4.9231176
1435359967.741,-1.7234602
1435359967.756,1.1303825
1435359967.772,3.549605
1435359967.787,5.700894
1435359967.803,7.870813
1435359967.819,10.344994
1435359967.834,13.248776
1435359967.85,16.600494
1435359967.866,20.205547
1435359967.881,23.664291
1435359967.897,26.321152
1435359967.912,27.419893
1435359967.928,26.266598
1435359967.944,22.574223
1435359967.959,16.617142
1435359967.975,9.203465
1435359967.991,1.4203117
1435359968.006,-5.7274513
1435359968.022,-11.537321
1435359968.037,-15.589832
1435359968.053,-17.739431
1435359968.069,-18.01777
1435359968.084,-16.682974
1435359968.1,-14.232754
1435359968.116,-11.382859
1435359968.131,-8.876693
1435359968.147,-7.255151
1435359968.162,-6.6997056
1435359968.178,-7.035268
1435359968.194,-7.8835306
1435359968.209,-8.86488
1435359968.225,-9.624205
1435359968.241,-9.917583
1435359968.256,-9.600725
1435359968.272,-8.628733
1435359968.288,-7.0942936
1435359968.303,-5.227963
1435359968.319,-3.298664
1435359968.334,-1.512095
1435359968.35,0.1028018
1435359968.366,1.7062378
1435359968.381,3.568738
1435359968.397,5.924213
1435359968.413,8.934459
1435359968.428,12.6064205
1435359968.444,16.794197
1435359968.459,21.181158
1435359968.475,25.304863
1435359968.491,28.52774
1435359968.506,30.188438
1435359968.522,29.70198
1435359968.538,26.783611
1435359968.553,21.553488
1435359968.569,14.5747385
1435359968.584,6.7202625
1435359968.6,-0.9825382
1435359968.616,-7.642068
1435359968.631,-12.687833
1435359968.647,-15.9838915
1435359968.663,-17.68517
1435359968.678,-18.136772
1435359968.694,-17.657335
1435359968.709,-16.502934
1435359968.725,-14.911443
1435359968.741,-13.181176
1435359968.756,-11.68296
1435359968.772,-10.802448
1435359968.788,-10.718641
1435359968.803,-11.346317
1435359968.819,-12.332649
1435359968.834,-13.260551
1435359968.85,-13.77866
1435359968.866,-13.764456
1435359968.881,-13.262114
1435359968.897,-12.385225
1435359968.913,-11.217447
1435359968.928,-9.776621
1435359968.944,-8.046415
1435359968.959,-6.0463276
1435359968.975,-3.7609882
1435359968.991,-1.1794395
1435359969.006,1.7381058
1435359969.022,4.980465
1435359969.038,8.541018
1435359969.053,12.322023
1435359969.069,16.211632
1435359969.084,20.039734
1435359969.1,23.54692
1435359969.116,26.310017
1435359969.131,27.786419
1435359969.147,27.41609
1435359969.163,24.954384
1435359969.178,20.55723
1435359969.194,14.80818
1435359969.209,8.508642
1435359969.225,2.3825111
1435359969.241,-3.1300163
1435359969.256,-7.854273
1435359969.272,-11.76693
1435359969.288,-14.795225
1435359969.303,-16.788664
1435359969.319,-17.616022
1435359969.334,-17.349728
1435359969.35,-16.285538
1435359969.366,-14.918913
1435359969.381,-13.720873
1435359969.397,-12.985884
1435359969.413,-12.753227
1435359969.428,-12.882355
1435359969.444,-13.16633
1435359969.459,-13.475569
1435359969.475,-13.769104
1435359969.491,-14.054338
1435359969.506,-14.29435
1435359969.522,-14.399296
1435359969.538,-14.1369705
1435359969.553,-13.286188
1435359969.569,-11.687786
1435359969.584,-9.383692
1435359969.6,-6.583519
1435359969.616,-3.6298656
1435359969.631,-0.82831955
1435359969.647,1.6574936
1435359969.663,3.8591347
1435359969.678,5.9661865
1435359969.694,8.260624
1435359969.709,11.032553
1435359969.725,14.507269
1435359969.741,18.68543
1435359969.756,23.285658
1435359969.772,27.611843
1435359969.788,30.760595
1435359969.803,31.759495
1435359969.819,30.002892
1435359969.834,25.470194
1435359969.85,18.775011
1435359969.866,10.972946
1435359969.881,3.1639252
1435359969.897,-3.790409
1435359969.913,-9.412201
1435359969.928,-13.53866
1435359969.944,-16.175201
1435359969.959,-17.41254
1435359969.975,-17.376194
1435359969.991,-16.369122
1435359970.006,-14.839592
1435359970.022,-13.360296
1435359970.038,-12.45216
1435359970.053,-12.463512
1435359970.069,-13.429464
1435359970.084,-15.114033
1435359970.1,-16.977068
1435359970.116,-18.442799
1435359970.131,-19.058157
1435359970.147,-18.681757
1435359970.163,-17.485357
1435359970.178,-15.88974
1435359970.194,-14.311609
1435359970.209,-12.960379
1435359970.225,-11.773422
1435359970.241,-10.495768
1435359970.256,-8.850805
1435359970.272,-6.735899
1435359970.288,-4.171118
1435359970.303,-1.3086185
1435359970.319,1.7067509
1435359970.334,4.731827
1435359970.35,7.6624565
1435359970.366,10.359414
1435359970.381,12.732567
1435359970.397,14.792764
1435359970.413,16.725368
1435359970.428,18.839764
1435359970.444,21.391478
1435359970.459,24.374336
1435359970.475,27.440592
1435359970.491,29.917303
1435359970.506,30.997074
1435359970.522,30.019894
1435359970.538,26.720343
1435359970.553,21.327942
1435359970.569,14.51708
1435359970.584,7.1481895
1435359970.6,0.074113846
1435359970.616,-6.094737
1435359970.631,-10.992242
1435359970.647,-14.532083
1435359970.663,-16.71165
1435359970.678,-17.658966
1435359970.694,-17.564522
1435359970.709,-16.745266
1435359970.725,-15.594183
1435359970.741,-14.571535
1435359970.756,-14.05366
1435359970.772,-14.218674
1435359970.788,-15.0442295
1435359970.803,-16.30421
1435359970.819,-17.674065
1435359970.834,-18.840668
1435359970.85,-19.521711
1435359970.866,-19.574177
1435359970.881,-18.980286
1435359970.897,-17.847307
1435359970.913,-16.303423
1435359970.928,-14.421971
1435359970.944,-12.167231
1435359970.96,-9.459518
1435359970.975,-6.3166947
1435359970.991,-2.917036
1435359971.006,0.39880657
1435359971.022,3.2403636
1435359971.038,5.370654
1435359971.053,6.8092995
1435359971.069,7.848766
1435359971.084,8.86171
1435359971.1,10.234606
1435359971.116,12.17185
1435359971.131,14.763739
1435359971.147,17.950104
1435359971.163,21.577793
1435359971.178,25.31144
1435359971.194,28.647299
1435359971.21,30.920967
1435359971.225,31.5588
1435359971.241,30.200901
1435359971.256,26.823391
1435359971.272,21.761345
1435359971.288,15.552186
1435359971.303,8.816137
1435359971.319,2.1289387
1435359971.335,-4.0540047
1435359971.35,-9.373917
1435359971.366,-13.565264
1435359971.381,-16.464006
1435359971.397,-18.039873
1435359971.413,-18.375294
1435359971.428,-17.729677
1435359971.444,-16.451326
1435359971.46,-14.944632
1435359971.475,-13.602104
1435359971.491,-12.731434
1435359971.506,-12.478886
1435359971.522,-12.824818
1435359971.538,-13.584484
1435359971.553,-14.46419
1435359971.569,-15.15984
1435359971.585,-15.494186
1435359971.6,-15.3437195
1435359971.616,-14.731405
1435359971.631,-13.711241
1435359971.647,-12.367712
1435359971.663,-10.743408
1435359971.678,-8.882359
1435359971.694,-6.8128204
1435359971.71,-4.5984497
1435359971.725,-2.3179245
1435359971.741,-0.068180084
1435359971.756,2.0599403
1435359971.772,4.0007057
1435359971.788,5.7457733
1435359971.803,7.325264
1435359971.819,8.838062
1435359971.835,10.420338
1435359971.85,12.261364
1435359971.866,14.505169
1435359971.881,17.21167
1435359971.897,20.209824
1435359971.913,23.073269
1435359971.928,25.135857
1435359971.944,25.715092
1435359971.96,24.352325
1435359971.975,21.052177
1435359971.991,16.271614
1435359972.006,10.737377
1435359972.022,5.134598
1435359972.038,-0.06367493
1435359972.053,-4.68869
1435359972.069,-8.67968
1435359972.085,-11.93684
1435359972.1,-14.233898
1435359972.116,-15.316475
1435359972.131,-15.077293
1435359972.147,-13.68671
1435359972.163,-11.565296
1435359972.178,-9.25597
1435359972.194,-7.248661
1435359972.21,-5.886154
1435359972.225,-5.315525
1435359972.241,-5.553158
1435359972.256,-6.4794693
1435359972.272,-7.876999
1435359972.288,-9.445503
1435359972.303,-10.820206
1435359972.319,-11.731773
1435359972.335,-12.091965
1435359972.35,-11.860512
1435359972.366,-11.0047
1435359972.381,-9.479965
1435359972.397,-7.291252
1435359972.413,-4.598755
1435359972.428,-1.7403946
1435359972.444,0.96704865
1435359972.46,3.3025436
1435359972.475,5.2116013
1435359972.491,6.8419647
1435359972.506,8.459335
1435359972.522,10.27729
1435359972.538,12.469109
1435359972.553,15.042793
1435359972.569,17.883194
1435359972.585,20.929253
1435359972.6,23.959824
1435359972.616,26.431557
1435359972.631,27.630058
1435359972.647,26.938644
1435359972.663,24.029366
1435359972.678,19.094826
1435359972.694,12.725426
1435359972.71,5.737671
1435359972.725,-0.54037476
1435359972.741,-5.112732
1435359972.756,-7.7521133
1435359972.772,-8.885239
1435359972.788,-9.055412
1435359972.803,-8.812187
1435359972.819,-8.297775
1435359972.835,-7.610405
1435359972.85,-6.914482
1435359972.866,-5.568634
1435359972.881,-3.3024063
1435359972.897,-0.72914124
1435359972.913,1.1628189
1435359972.928,1.879364
1435359972.944,1.3480606
1435359972.96,0.20648193
1435359972.975,-1.105629
1435359972.991,-2.5155563
1435359973.006,-2.7045288
1435359973.022,-0.79777527
1435359973.038,2.6819382
1435359973.053,6.407234
1435359973.069,9.445747
1435359973.085,11.182182
1435359973.1,12.19178
1435359973.116,12.981407
1435359973.131,13.949646
1435359973.147,17.227264
1435359973.163,24.424255
1435359973.178,35.13462
1435359973.194,47.748398
1435359973.21,61.10914
1435359973.225,74.39517
1435359973.241,88.018326
1435359973.256,101.921265
1435359973.272,103.834366
1435359973.288,87.49302
1435359973.303,58.24443
1435359973.319,27.297272
1435359973.335,1.7472839
1435359973.35,-13.629105
1435359973.366,-23.295044
1435359973.381,-29.871063
1435359973.397,-34.672104
1435359973.413,-38.1224
1435359973.428,-39.541428
1435359973.444,-37.734413
1435359973.46,-33.271347
1435359973.475,-27.936287
1435359973.491,-23.193058
1435359973.506,-20.215893
1435359973.522,-18.825329
1435359973.538,-18.947067
1435359973.553,-20.623562
1435359973.569,-22.365269
1435359973.585,-22.773445
1435359973.6,-21.80655
1435359973.616,-20.369247
1435359973.631,-19.154388
1435359973.647,-18.763908
1435359973.663,-18.736053
1435359973.678,-18.743793
1435359973.694,-18.591301
1435359973.71,-17.323017
1435359973.725,-14.299572
1435359973.741,-10.020725
1435359973.756,-5.663864
1435359973.772,-2.123478
1435359973.788,0.076581955
1435359973.803,1.4378281
1435359973.819,2.5425758
1435359973.835,3.8726997
1435359973.85,6.153599
1435359973.866,9.691292
1435359973.882,13.949686
1435359973.897,17.767399
1435359973.913,20.083918
1435359973.928,20.13271
1435359973.944,17.941164
1435359973.96,13.9159355
1435359973.975,8.640358
1435359973.991,2.8235607
1435359974.007,-2.9591389
1435359974.022,-8.39127
1435359974.038,-13.164812
1435359974.053,-16.833273
1435359974.069,-18.953407
1435359974.085,-19.288185
1435359974.1,-18.08252
1435359974.116,-16.031359
1435359974.132,-13.943579
1435359974.147,-12.389476
1435359974.163,-11.514452
1435359974.178,-11.128823
1435359974.194,-10.943518
1435359974.21,-10.792898
1435359974.225,-10.627579
1435359974.241,-10.471013
1435359974.257,-10.26268
1435359974.272,-9.87796
1435359974.288,-9.196991
1435359974.303,-8.129143
1435359974.319,-6.7092957
1435359974.335,-5.0244713
1435359974.35,-3.1785011
1435359974.366,-1.2555103
1435359974.382,0.6701722
1435359974.397,2.560007
1435359974.413,4.517392
1435359974.428,6.7532854
1435359974.444,9.567443
1435359974.46,13.191756
1435359974.475,17.65796
1435359974.491,22.673304
1435359974.507,27.660904
1435359974.522,31.873613
1435359974.538,34.5282
1435359974.553,35.008972
1435359974.569,32.95823
1435359974.585,28.399883
1435359974.6,21.807026
1435359974.616,13.997114
1435359974.632,5.934581
1435359974.647,-1.5211515
1435359974.663,-7.8064413
1435359974.678,-12.677199
1435359974.694,-16.094236
1435359974.71,-18.105436
1435359974.725,-18.743046
1435359974.741,-18.091621
1435359974.757,-16.42371
1435359974.772,-14.242876
1435359974.788,-12.160034
1435359974.803,-10.728064
1435359974.819,-10.226627
1435359974.835,-10.620184
1435359974.85,-11.625393
1435359974.866,-12.871424
1435359974.882,-14.037161
1435359974.897,-14.867931
1435359974.913,-15.188398
1435359974.928,-14.821911
1435359974.944,-13.673826
1435359974.96,-11.717653
1435359974.975,-9.040506
1435359974.991,-5.8457184
1435359975.007,-2.4257011
1435359975.022,0.9078789
1435359975.038,3.9009361
1435359975.053,6.4455185
1435359975.069,8.606581
1435359975.085,10.642845
1435359975.1,12.870209
1435359975.116,15.596729
1435359975.132,18.92099
1435359975.147,22.689674
1435359975.163,26.47802
1435359975.178,29.665
1435359975.194,31.569366
1435359975.21,31.60104
1435359975.225,29.424469
1435359975.241,25.082336
1435359975.257,18.981514
1435359975.272,11.852577
1435359975.288,4.5079155
1435359975.303,-2.3270607
1435359975.319,-8.2019005
1435359975.335,-12.943218
1435359975.35,-16.490551
1435359975.366,-18.817223
1435359975.382,-19.881481
1435359975.397,-19.709583
1435359975.413,-18.511261
1435359975.428,-16.712765
1435359975.444,-14.876709
1435359975.46,-13.495983
1435359975.475,-12.871319
1435359975.491,-12.998631
1435359975.507,-13.693214
1435359975.522,-14.659122
1435359975.538,-15.547436
1435359975.553,-16.072388
1435359975.569,-16.044418
1435359975.585,-15.389858
1435359975.6,-14.174889
1435359975.616,-12.538666
1435359975.632,-10.638287
1435359975.647,-8.578625
1435359975.663,-6.3970146
1435359975.678,-4.0937576
1435359975.694,-1.6927223
1435359975.71,0.78704834
1435359975.725,3.4187393
1435359975.741,6.3543777
1435359975.757,9.784393
1435359975.772,13.840843
1435359975.788,18.401855
1435359975.803,23.094063
1435359975.819,27.315605
1435359975.835,30.405998
1435359975.85,31.767052
1435359975.866,31.036911
1435359975.882,28.072342
1435359975.897,23.011986
1435359975.913,16.314476
1435359975.928,8.703407
1435359975.944,1.042366
1435359975.96,-5.841881
1435359975.975,-11.370758
1435359975.991,-15.311371
1435359976.007,-17.75666
1435359976.022,-18.98529
1435359976.038,-19.31794
1435359976.053,-19.005577
1435359976.069,-18.275826
1435359976.085,-17.342659
1435359976.1,-16.39299
1435359976.116,-15.597778
1435359976.132,-15.078186
1435359976.147,-14.87854
1435359976.163,-14.954857
1435359976.178,-15.234268
1435359976.194,-15.618736
1435359976.21,-16.01194
1435359976.225,-16.332321
1435359976.241,-16.489174
1435359976.257,-16.372368
1435359976.272,-15.814491
1435359976.288,-14.626656
1435359976.303,-12.669678
1435359976.319,-9.962723
1435359976.335,-6.723175
1435359976.35,-3.3123856
1435359976.366,-0.12802124
1435359976.382,2.5883484
1435359976.397,4.8259964
1435359976.413,6.801903
1435359976.428,8.8732605
1435359976.444,11.35215
1435359976.46,14.407928
1435359976.475,18.021584
1435359976.491,21.9599
1435359976.507,25.751839
1435359976.522,28.761581
1435359976.538,30.239655
1435359976.554,29.55127
1435359976.569,26.362251
1435359976.585,20.81614
1435359976.6,13.544151
1435359976.616,5.5365677
1435359976.632,-2.1555634
1435359976.647,-8.683777
1435359976.663,-13.5125885
1435359976.679,-16.502716
1435359976.694,-17.801552
1435359976.71,-17.74517
1435359976.725,-16.713959
1435359976.741,-15.134781
1435359976.757,-13.427185
1435359976.772,-12.002823
1435359976.788,-11.257309
1435359976.804,-11.412933
1435359976.819,-12.492401
1435359976.835,-14.221237
1435359976.85,-16.07122
1435359976.866,-17.472885
1435359976.882,-18.040504
1435359976.897,-17.698563
1435359976.913,-16.667892
1435359976.929,-15.293045
1435359976.944,-13.810234
1435359976.96,-12.252281
1435359976.975,-10.545853
1435359976.991,-8.585739
1435359977.007,-6.4145966
1435359977.022,-4.1687317
1435359977.038,-1.9616241
1435359977.054,0.21923828
1435359977.069,2.4992142
1435359977.085,5.0695496
1435359977.1,8.062172
1435359977.116,11.517723
1435359977.132,15.35733
1435359977.147,19.38079
1435359977.163,23.214241
1435359977.179,26.318329
1435359977.194,28.022957
1435359977.21,27.730835
1435359977.225,25.206375
1435359977.241,20.683327
1435359977.257,14.804375
1435359977.272,8.36515
1435359977.288,2.0110168
1435359977.304,-3.8622513
1435359977.319,-9.052361
1435359977.335,-13.370186
1435359977.35,-16.575874
1435359977.366,-18.409973
1435359977.382,-18.824448
1435359977.397,-18.048729
1435359977.413,-16.52761
1435359977.429,-14.775459
1435359977.444,-13.183945
1435359977.46,-11.934456
1435359977.475,-11.100159
1435359977.491,-10.680954
1435359977.507,-10.675972
1435359977.522,-11.050964
1435359977.538,-11.706642
1435359977.554,-12.423996
1435359977.569,-12.990402
1435359977.585,-13.203651
1435359977.6,-12.899513
1435359977.616,-11.974663
1435359977.632,-10.380745
1435359977.647,-8.157249
1435359977.663,-5.4622803
1435359977.679,-2.5589142
1435359977.694,0.27314758
1435359977.71,2.8457642
1435359977.725,5.0998917
1435359977.741,7.137253
1435359977.757,9.134499
1435359977.772,11.299011
1435359977.788,13.845833
1435359977.804,16.88742
1435359977.819,20.299202
1435359977.835,23.650322
1435359977.85,26.158508
1435359977.866,26.94291
1435359977.882,25.32608
1435359977.897,21.17891
1435359977.913,15.025497
1435359977.929,7.891159
1435359977.944,0.8858795
1435359977.96,-5.133209
1435359977.975,-9.71785
1435359977.991,-12.810684
1435359978.007,-14.527481
1435359978.022,-15.020424
1435359978.038,-14.438927
1435359978.054,-12.958427
1435359978.069,-10.905319
1435359978.085,-8.734543
1435359978.1,-6.959915
1435359978.116,-5.9727325
1435359978.132,-5.957672
1435359978.147,-6.808487
1435359978.163,-8.137009
1435359978.179,-9.41428
1435359978.194,-10.151722
1435359978.21,-10.069778
1435359978.225,-9.174255
1435359978.241,-7.717762
1435359978.257,-6.049507
1435359978.272,-4.4505463
1435359978.288,-3.0634575
1435359978.304,-1.8317451
1435359978.319,-0.63594437
1435359978.335,0.7108841
1435359978.35,2.3987694
1435359978.366,4.6093674
1435359978.382,7.457443
1435359978.397,10.9616585
1435359978.413,14.986675
1435359978.429,19.230385
1435359978.444,23.239399
1435359978.46,26.473888
1435359978.475,28.371044
1435359978.491,28.447685
1435359978.507,26.40768
1435359978.522,22.27298
1435359978.538,16.462704
1435359978.554,9.742207
1435359978.569,3.023716
1435359978.585,-2.858265
1435359978.6,-7.387535
1435359978.616,-10.413208
1435359978.632,-12.08123
1435359978.647,-12.651203
1435359978.663,-12.384953
1435359978.679,-11.479774
1435359978.694,-10.129021
1435359978.71,-8.561737
1435359978.725,-7.0013924
1435359978.741,-5.6617775
1435359978.757,-4.7205315
1435359978.772,-4.266201
1435359978.788,-4.330265
1435359978.804,-4.803993
1435359978.819,-5.4890747
1435359978.835,-6.093296
1435359978.85,-6.3605194
1435359978.866,-6.1278877
1435359978.882,-5.4127007
1435359978.897,-4.3199387
1435359978.913,-2.9066162
1435359978.929,-1.1222191
1435359978.944,1.1678734
1435359978.96,4.076439
1435359978.975,7.567993
1435359978.991,11.457653
1435359979.007,15.484936
1435359979.022,19.449032
1435359979.038,23.175346
1435359979.054,26.504131
1435359979.069,29.086143
1435359979.085,30.426838
1435359979.1,30.025513
1435359979.116,27.58178
1435359979.132,23.190739
1435359979.147,17.337791
1435359979.163,10.779884
1435359979.179,4.291027
1435359979.194,-1.5165138
1435359979.21,-6.276558
1435359979.226,-9.837513
1435359979.241,-12.176399
1435359979.257,-13.359695
1435359979.272,-13.455429
1435359979.288,-12.593445
1435359979.304,-10.963478
1435359979.319,-8.929432
1435359979.335,-6.9752693
1435359979.351,-5.625065
1435359979.366,-5.2536354
1435359979.382,-5.9273834
1435359979.397,-7.332859
1435359979.413,-8.906971
1435359979.429,-10.069725
1435359979.444,-10.446209
1435359979.46,-9.9851
1435359979.476,-8.820663
1435359979.491,-7.168251
1435359979.507,-5.199005
1435359979.522,-2.985939
1435359979.538,-0.59007263
1435359979.554,1.9627304
1435359979.569,4.629448
1435359979.585,7.43314
1435359979.601,10.407772
1435359979.616,13.61478
1435359979.632,16.990753
1435359979.647,20.328754
1435359979.663,23.303837
1435359979.679,25.497864
1435359979.694,26.47293
1435359979.71,25.833511
1435359979.726,23.343353
1435359979.741,19.007061
1435359979.757,13.16124
1435359979.772,6.4591904
1435359979.788,-0.3169136
1435359979.804,-6.4244156
1435359979.819,-11.388912
1435359979.835,-15.014069
1435359979.851,-17.273655
1435359979.866,-18.193253
1435359979.882,-17.847809
1435359979.897,-16.395294
1435359979.913,-14.22892
1435359979.929,-11.945824
1435359979.944,-10.197258
1435359979.96,-9.458664
1435359979.976,-9.809517
1435359979.991,-10.906265
1435359980.007,-12.174965
1435359980.022,-13.074768
1435359980.038,-13.284027
1435359980.054,-12.76992
1435359980.069,-11.699608
1435359980.085,-10.295586
1435359980.101,-8.717781
1435359980.116,-7.0129547
1435359980.132,-5.1539764
1435359980.147,-3.0794144
1435359980.163,-0.7605896
1435359980.179,1.8531647
1435359980.194,4.8255463
1435359980.21,8.250748
1435359980.226,12.268791
1435359980.241,16.908897
1435359980.257,21.943016
1435359980.272,26.832062
1435359980.288,30.765297
1435359980.304,32.87169
1435359980.319,32.506485
1435359980.335,29.492256
1435359980.351,24.140854
1435359980.366,17.196823
1435359980.382,9.554535
1435359980.397,2.0973053
1435359980.413,-4.4764633
1435359980.429,-9.703766
1435359980.444,-13.397278
1435359980.46,-15.586174
1435359980.476,-16.49501
1435359980.491,-16.49427
1435359980.507,-15.995621
1435359980.522,-15.362129
1435359980.538,-14.874115
1435359980.554,-14.668396
1435359980.569,-14.808182
1435359980.585,-15.267075
1435359980.601,-15.937447
1435359980.616,-16.643158
1435359980.632,-17.205093
1435359980.647,-17.442085
1435359980.663,-17.272621
1435359980.679,-16.69069
1435359980.694,-15.731049
1435359980.71,-14.434235
1435359980.726,-12.817253
1435359980.741,-10.853714
1435359980.757,-8.556267
1435359980.772,-6.026825
1435359980.788,-3.3817825
1435359980.804,-0.75491333
1435359980.819,1.776474
1435359980.835,4.2571106
1435359980.851,6.8180084
1435359980.866,9.651779
1435359980.882,12.912575
1435359980.897,16.67389
1435359980.913,20.794868
1435359980.929,24.935997
1435359980.944,28.509262
1435359980.96,30.827873
1435359980.976,31.328857
1435359980.991,29.693115
1435359981.007,25.974274
1435359981.022,20.570465
1435359981.038,14.114304
1435359981.054,7.2854843
1435359981.069,0.67235565
1435359981.085,-5.2969284
1435359981.101,-10.398567
1435359981.116,-14.505363
1435359981.132,-17.57888
1435359981.147,-19.555641
1435359981.163,-20.370613
1435359981.179,-20.020386
1435359981.194,-18.6922
1435359981.21,-16.808617
1435359981.226,-14.974213
1435359981.241,-13.785263
1435359981.257,-13.592766
1435359981.272,-14.349884
1435359981.288,-15.671165
1435359981.304,-16.991013
1435359981.319,-17.878555
1435359981.335,-18.16642
1435359981.351,-17.893974
1435359981.366,-17.179626
1435359981.382,-16.114784
1435359981.397,-14.633041
1435359981.413,-12.62484
1435359981.429,-10.027977
1435359981.444,-6.921997
1435359981.46,-3.5486908
1435359981.476,-0.2740326
1435359981.491,2.5731125
1435359981.507,4.776535
1435359981.522,6.3666916
1435359981.538,7.698906
1435359981.554,9.302559
1435359981.569,11.694649
1435359981.585,15.142014
1435359981.601,19.508537
1435359981.616,24.26548
1435359981.632,28.638603
1435359981.647,31.842033
1435359981.663,33.2371
1435359981.679,32.482635
1435359981.694,29.513878
1435359981.71,24.584953
1435359981.726,18.24511
1435359981.741,11.246231
1435359981.757,4.3750534
1435359981.772,-1.73423
1435359981.788,-6.7864456
1435359981.804,-10.76754
1435359981.819,-13.8465805
1435359981.835,-16.136734
1435359981.851,-17.636398
1435359981.866,-18.240364
1435359981.882,-17.961708
1435359981.898,-17.04741
1435359981.913,-15.959755
1435359981.929,-15.225334
1435359981.944,-15.204933
1435359981.96,-15.901321
1435359981.976,-17.01371
1435359981.991,-18.049759
1435359982.007,-18.620583
1435359982.022,-18.58622
1435359982.038,-18.075844
1435359982.054,-17.343094
1435359982.069,-16.60965
1435359982.085,-15.925179
1435359982.101,-15.139046
1435359982.116,-14.005096
1435359982.132,-12.32531
1435359982.148,-10.038246
1435359982.163,-7.244339
1435359982.179,-4.1514664
1435359982.194,-1.0228958
1435359982.21,1.9371262
1435359982.226,4.5513
1435359982.241,6.768715
1435359982.257,8.638786
1435359982.273,10.375908
1435359982.288,12.332405
1435359982.304,14.864372
1435359982.319,18.150963
1435359982.335,22.028824
1435359982.351,25.96138
1435359982.366,29.149261
1435359982.382,30.784775
1435359982.398,30.316162
1435359982.413,27.563591
1435359982.429,22.789497
1435359982.444,16.552338
1435359982.46,9.60701
1435359982.476,2.739914
1435359982.491,-3.33844
1435359982.507,-8.125694
1435359982.523,-11.418762
1435359982.538,-13.308113
1435359982.554,-14.101501
1435359982.569,-14.194313
1435359982.585,-13.912933
1435359982.601,-13.515465
1435359982.616,-13.1670685
1435359982.632,-13.0315895
1435359982.648,-13.257198
1435359982.663,-13.886345
1435359982.679,-14.812611
1435359982.694,-15.812065
1435359982.71,-16.60426
1435359982.726,-17.023891
1435359982.741,-17.051804
1435359982.757,-16.819778
1435359982.773,-16.462074
1435359982.788,-16.006062
1435359982.804,-15.330528
1435359982.819,-14.253609
1435359982.835,-12.679695
1435359982.851,-10.655575
1435359982.866,-8.3765335
1435359982.882,-6.0936127
1435359982.898,-3.9395485
1435359982.913,-1.8666496
1435359982.929,0.33443832
1435359982.944,2.895317
1435359982.96,5.9395523
1435359982.976,9.361462
1435359982.991,12.927025
1435359983.007,16.359562
1435359983.023,19.508945
1435359983.038,22.407555
1435359983.054,25.1148
1435359983.069,27.490467
1435359983.085,29.084175
1435359983.101,29.229855
1435359983.116,27.34481
1435359983.132,23.276028
1435359983.148,17.464458
1435359983.163,10.755161
1435359983.179,4.104603
1435359983.194,-1.7749557
1435359983.21,-6.5350113
1435359983.226,-10.0896
1435359983.241,-12.42704
1435359983.257,-13.542429
1435359983.273,-13.455793
1435359983.288,-12.348394
1435359983.304,-10.644209
1435359983.319,-8.936859
1435359983.335,-7.806143
1435359983.351,-7.650564
1435359983.366,-8.518265
1435359983.382,-10.197659
1435359983.398,-12.277607
1435359983.413,-14.275715
1435359983.429,-15.743584
1435359983.444,-16.400873
1435359983.46,-16.165747
1435359983.476,-15.1873
1435359983.491,-13.707808
1435359983.507,-11.986294
1435359983.523,-10.162756
1435359983.538,-8.273295
1435359983.554,-6.2743206
1435359983.569,-4.179538
1435359983.585,-2.0731516
1435359983.601,-0.032626152
1435359983.616,1.9171562
1435359983.632,3.8657942
1435359983.648,5.9902163
1435359983.663,8.472452
1435359983.679,11.434166
1435359983.694,14.877602
1435359983.71,18.662127
1435359983.726,22.466513
1435359983.741,25.85296
1435359983.757,28.255398
1435359983.773,29.151747
1435359983.788,28.214024
1435359983.804,25.415577
1435359983.819,21.025188
1435359983.835,15.49855
1435359983.851,9.360371
1435359983.866,3.1238065
1435359983.882,-2.729498
1435359983.898,-7.727869
1435359983.913,-11.478286
1435359983.929,-13.714272
1435359983.944,-14.438934
1435359983.96,-13.887005
1435359983.976,-12.453029
1435359983.991,-10.556677
1435359984.007,-8.586436
1435359984.023,-6.8491125
1435359984.038,-5.634145
1435359984.054,-5.1463184
1435359984.069,-5.471052
1435359984.085,-6.478792
1435359984.101,-7.8485622
1435359984.116,-9.165813
1435359984.132,-10.067524
1435359984.148,-10.382566
1435359984.163,-10.094362
1435359984.179,-9.2673855
1435359984.194,-7.979748
1435359984.21,-6.266037
1435359984.226,-4.1722164
1435359984.241,-1.8004322
1435359984.257,0.68203354
1435359984.273,3.0897388
1435359984.288,5.2719746
1435359984.304,7.200056
1435359984.319,8.971525
1435359984.335,10.822697
1435359984.351,13.0889435
1435359984.366,16.04921
1435359984.382,19.724323
1435359984.398,23.714483
1435359984.413,27.203701
1435359984.429,29.172031
1435359984.444,28.78479
1435359984.46,25.76471
1435359984.476,20.500645
1435359984.491,13.927246
1435359984.507,7.1140366
