1433979783.687,0.0
1433979783.702,0.0
1433979783.718,0.0
1433979783.734,0.0
1433979783.749,0.0
1433979783.765,0.0
1433979783.78,0.0
1433979783.796,0.0
1433979783.812,0.0
1433979783.827,0.0022315353
1433979783.843,-0.0045169927
1433979783.859,-0.011265522
1433979783.874,-0.011383951
1433979783.89,0.0011864507
1433979783.905,0.025910312
1433979783.921,0.050634187
1433979783.937,0.051362894
1433979783.952,-0.0014929791
1433979783.968,-0.1302426
1433979783.984,-0.35562757
1433979783.999,-0.6591247
1433979784.015,-1.0095103
1433979784.03,-1.3709826
1433979784.046,-1.7197359
1433979784.062,-2.0551105
1433979784.077,-2.39945
1433979784.093,-2.7866635
1433979784.109,-3.2399073
1433979784.124,-3.796012
1433979784.14,-4.418684
1433979784.155,-5.0592937
1433979784.171,-5.6644096
1433979784.187,-6.2021537
1433979784.202,-6.6808796
1433979784.218,-7.149598
1433979784.234,-7.6782336
1433979784.249,-8.310739
1433979784.265,-9.143657
1433979784.28,-10.089731
1433979784.296,-11.041313
1433979784.312,-11.8842125
1433979784.327,-12.564316
1433979784.343,-13.13563
1433979784.359,-13.760044
1433979784.374,-14.65232
1433979784.39,-15.962056
1433979784.405,-17.914442
1433979784.421,-20.317299
1433979784.437,-22.903854
1433979784.452,-25.37947
1433979784.468,-27.578028
1433979784.484,-29.57246
1433979784.499,-31.675173
1433979784.515,-34.3178
1433979784.53,-37.813618
1433979784.546,-42.541233
1433979784.562,-48.1463
1433979784.577,-54.104755
1433979784.593,-59.83309
1433979784.609,-64.972374
1433979784.624,-69.58293
1433979784.64,-74.14353
1433979784.655,-79.344986
1433979784.671,-85.70726
1433979784.687,-93.76193
1433979784.702,-102.99779
1433979784.718,-112.61757
1433979784.734,-121.73034
1433979784.749,-129.76602
1433979784.765,-136.75102
1433979784.78,-143.30344
1433979784.796,-150.74623
1433979784.812,-157.77356
1433979784.827,-166.64323
1433979784.843,-177.94798
1433979784.859,-191.79102
1433979784.874,-206.96808
1433979784.89,-220.56592
1433979784.906,-228.24644
1433979784.921,-225.36154
1433979784.937,-208.53198
1433979784.952,-176.87024
1433979784.968,-132.76222
1433979784.984,-80.04997
1433979784.999,-23.069275
1433979785.015,34.94339
1433979785.031,92.43695
1433979785.046,149.15695
1433979785.062,205.22772
1433979785.077,260.36963
1433979785.093,313.74133
1433979785.109,363.87396
1433979785.124,409.83353
1433979785.14,450.90775
1433979785.156,486.50244
1433979785.171,515.73865
1433979785.187,537.2274
1433979785.202,549.22
1433979785.218,549.9613
1433979785.234,538.367
1433979785.249,514.2055
1433979785.265,478.674
1433979785.281,433.87952
1433979785.296,382.45126
1433979785.312,327.02106
1433979785.327,269.84186
1433979785.343,212.63379
1433979785.359,156.6594
1433979785.374,102.95233
1433979785.39,52.373596
1433979785.406,5.9046936
1433979785.421,-35.580414
1433979785.437,-71.42584
1433979785.452,-101.35184
1433979785.468,-125.50113
1433979785.484,-144.3797
1433979785.499,-158.69403
1433979785.515,-169.15071
1433979785.531,-176.3711
1433979785.546,-180.75139
1433979785.562,-182.57419
1433979785.577,-182.06863
1433979785.593,-179.5066
1433979785.609,-175.23325
1433979785.624,-169.65286
1433979785.64,-163.17691
1433979785.656,-156.14568
1433979785.671,-148.80681
1433979785.687,-141.29686
1433979785.702,-133.68983
1433979785.718,-126.01962
1433979785.734,-118.33268
1433979785.749,-110.68864
1433979785.765,-103.15572
1433979785.781,-95.80455
1433979785.796,-88.684166
1433979785.812,-81.82744
1433979785.827,-75.24594
1433979785.843,-68.9526
1433979785.859,-62.949085
1433979785.874,-57.247494
1433979785.89,-51.857185
1433979785.906,-46.78282
1433979785.921,-42.02776
1433979785.937,-37.58521
1433979785.952,-33.451748
1433979785.968,-29.613855
1433979785.984,-26.070963
1433979785.999,-22.808779
1433979786.015,-19.824995
1433979786.031,-17.113392
1433979786.046,-14.666497
1433979786.062,-12.47932
1433979786.077,-10.538469
1433979786.093,-8.833674
1433979786.109,-7.3478527
1433979786.124,-6.067689
1433979786.14,-4.9734216
1433979786.156,-4.04625
1433979786.171,-3.267365
1433979786.187,-2.6211028
1433979786.202,-2.0884275
1433979786.218,-1.6511009
1433979786.234,-1.2984953
1433979786.249,-1.015844
1433979786.265,-0.79190874
1433979786.281,-0.6128857
1433979786.296,-0.4728108
1433979786.312,-0.3650247
1433979786.327,-0.28303564
1433979786.343,-0.22861862
1433979786.359,-0.19030088
1433979786.374,-0.16119921
1433979786.39,-0.12999594
1433979786.406,-0.08979529
1433979786.421,-0.037445784
1433979786.437,0.027771175
1433979786.452,0.09126058
1433979786.468,0.1409767
1433979786.484,0.16665502
1433979786.499,0.1676379
1433979786.515,0.15800501
1433979786.531,0.15058538
1433979786.546,0.16675249
1433979786.562,0.20325528
1433979786.577,0.26312068
1433979786.593,0.32280532
1433979786.609,0.36597025
1433979786.624,0.3732071
1433979786.64,0.35336885
1433979786.656,0.32260525
1433979786.671,0.3125678
1433979786.687,0.3506409
1433979786.702,0.45041063
1433979786.718,0.59703946
1433979786.734,0.7536533
1433979786.749,0.8697821
1433979786.765,0.91035056
1433979786.781,0.87705404
1433979786.796,0.8155836
1433979786.812,0.8039129
1433979786.827,0.91149443
1433979786.843,1.1671817
1433979786.859,1.5367937
1433979786.874,1.9215502
1433979786.89,2.2092037
1433979786.906,2.3050597
1433979786.921,2.225333
1433979786.937,2.0730586
1433979786.952,2.0229034
1433979786.968,2.2229462
1433979786.984,2.7449927
1433979786.999,3.5075881
1433979787.015,4.3148413
1433979787.031,4.9293237
1433979787.046,5.1857944
1433979787.062,5.0895863
1433979787.077,4.8240347
1433979787.093,4.690153
1433979787.109,4.969157
1433979787.124,5.768793
1433979787.14,6.987052
1433979787.156,8.298048
1433979787.171,9.355758
1433979787.187,9.898915
1433979787.202,9.9160385
1433979787.218,9.606284
1433979787.234,9.316663
1433979787.249,9.373066
1433979787.265,10.025901
1433979787.281,11.402423
1433979787.296,13.488614
1433979787.312,16.019611
1433979787.327,18.358946
1433979787.343,19.526367
1433979787.359,18.473255
1433979787.374,14.522681
1433979787.39,7.853224
1433979787.406,-0.37858582
1433979787.421,-8.3782425
1433979787.437,-14.4363365
1433979787.452,-17.612726
1433979787.468,-18.109869
1433979787.484,-16.936642
1433979787.499,-15.3290825
1433979787.515,-14.083742
1433979787.531,-13.304327
1433979787.546,-12.569704
1433979787.562,-11.440605
1433979787.578,-9.726379
1433979787.593,-7.658327
1433979787.609,-5.651064
1433979787.624,-4.070816
1433979787.64,-3.084303
1433979787.656,-2.731577
1433979787.671,-2.9557858
1433979787.687,-3.7768059
1433979787.703,-5.179188
1433979787.718,-7.111046
1433979787.734,-9.320374
1433979787.749,-11.435444
1433979787.765,-12.964924
1433979787.781,-13.528236
1433979787.796,-12.913807
1433979787.812,-11.176151
1433979787.828,-8.602535
1433979787.843,-5.673977
1433979787.859,-2.8309746
1433979787.874,-0.44618607
1433979787.89,1.3047104
1433979787.906,2.4204483
1433979787.921,3.027542
1433979787.937,3.2858276
1433979787.953,3.386219
1433979787.968,3.433796
1433979787.984,3.5006714
1433979787.999,3.5710754
1433979788.015,3.5753098
1433979788.031,3.4359474
1433979788.046,3.1421127
1433979788.062,2.710556
1433979788.078,2.2723083
1433979788.093,1.9328232
1433979788.109,1.721817
1433979788.124,1.5197601
1433979788.14,1.1214142
1433979788.156,0.30867004
1433979788.171,-1.0193596
1433979788.187,-2.8104324
1433979788.203,-4.8441544
1433979788.218,-6.8321075
1433979788.234,-8.49752
1433979788.249,-9.737724
1433979788.265,-10.608376
1433979788.281,-11.3414955
1433979788.296,-12.314697
1433979788.312,-13.950195
1433979788.328,-16.529484
1433979788.343,-20.094414
1433979788.359,-24.33244
1433979788.374,-28.597324
1433979788.39,-32.136208
1433979788.406,-34.257286
1433979788.421,-34.54731
1433979788.437,-33.006367
1433979788.453,-29.966766
1433979788.468,-25.921711
1433979788.484,-21.348469
1433979788.499,-16.68287
1433979788.515,-11.960409
1433979788.531,-7.2102737
1433979788.546,-2.4676285
1433979788.562,2.151411
1433979788.578,6.4637566
1433979788.593,10.2390175
1433979788.609,13.333658
1433979788.624,15.691959
1433979788.64,17.345528
1433979788.656,18.390398
1433979788.671,18.891792
1433979788.687,18.902517
1433979788.703,18.507452
1433979788.718,17.858576
1433979788.734,17.146877
1433979788.749,16.546055
1433979788.765,16.179287
1433979788.781,15.995459
1433979788.796,15.9018135
1433979788.812,15.71709
1433979788.828,15.336982
1433979788.843,14.7486925
1433979788.859,14.047732
1433979788.874,13.359115
1433979788.89,12.798062
1433979788.906,12.388723
1433979788.921,12.055261
1433979788.937,11.567936
1433979788.953,10.588467
1433979788.968,8.794708
1433979788.984,5.97437
1433979788.999,2.18072
1433979789.015,-2.259768
1433979789.031,-6.8158407
1433979789.046,-10.860774
1433979789.062,-13.924792
1433979789.078,-15.750992
1433979789.093,-16.322609
1433979789.109,-15.850071
1433979789.124,-14.64935
1433979789.14,-13.028128
1433979789.156,-11.253086
1433979789.171,-9.49776
1433979789.187,-7.9198904
1433979789.203,-6.6455073
1433979789.218,-5.837583
1433979789.234,-5.5606704
1433979789.249,-5.8558884
1433979789.265,-6.6310377
1433979789.281,-7.70065
1433979789.296,-8.812365
1433979789.312,-9.76874
1433979789.328,-10.47497
1433979789.343,-10.991548
1433979789.359,-11.416924
1433979789.374,-11.759893
1433979789.39,-11.949715
1433979789.406,-11.892878
1433979789.421,-11.5515785
1433979789.437,-11.001705
1433979789.453,-10.368252
1433979789.468,-9.720928
1433979789.484,-8.900642
1433979789.499,-8.043652
1433979789.515,-6.936037
1433979789.531,-5.372074
1433979789.546,-3.2853775
1433979789.562,-0.82803917
1433979789.578,1.6750259
1433979789.593,3.9051132
1433979789.609,5.6909046
1433979789.624,7.06106
1433979789.64,8.2060795
1433979789.656,9.390488
1433979789.671,10.790161
1433979789.687,12.455437
1433979789.703,14.356773
1433979789.718,16.422215
1433979789.734,18.61847
1433979789.749,20.89846
1433979789.765,23.215229
1433979789.781,25.49522
1433979789.796,27.770523
1433979789.812,30.15379
1433979789.828,32.842022
1433979789.843,36.025852
1433979789.859,39.683594
1433979789.874,43.43168
1433979789.89,46.491604
1433979789.906,47.849407
1433979789.921,46.59308
1433979789.937,42.275623
1433979789.953,35.04059
1433979789.968,25.60159
1433979789.984,14.963749
1433979789.999,4.1377525
1433979790.015,-6.0685043
1433979790.031,-15.165382
1433979790.046,-22.898167
1433979790.062,-29.144852
1433979790.078,-33.818535
1433979790.093,-36.91023
1433979790.109,-38.520336
1433979790.124,-38.891685
1433979790.14,-38.412346
1433979790.156,-37.54876
1433979790.171,-36.73423
1433979790.187,-36.21296
1433979790.203,-35.986195
1433979790.218,-35.839485
1433979790.234,-35.464924
1433979790.25,-34.668736
1433979790.265,-33.46222
1433979790.281,-32.103096
1433979790.296,-30.893421
1433979790.312,-30.007824
1433979790.328,-29.340786
1433979790.343,-28.549133
1433979790.359,-27.196049
1433979790.374,-25.029945
1433979790.39,-22.064846
1433979790.406,-18.600754
1433979790.421,-15.019402
1433979790.437,-11.590927
1433979790.453,-8.387817
1433979790.468,-5.3160324
1433979790.484,-2.2306824
1433979790.5,0.932312
1433979790.515,4.13533
1433979790.531,7.2577057
1433979790.546,10.177193
1433979790.562,12.772362
1433979790.578,15.032272
1433979790.593,16.976982
1433979790.609,18.716782
1433979790.625,20.37741
1433979790.64,22.170876
1433979790.656,24.24881
1433979790.671,26.726791
1433979790.687,29.564125
1433979790.703,32.49981
1433979790.718,35.04496
1433979790.734,36.544197
1433979790.75,36.30339
1433979790.765,33.83029
1433979790.781,29.001503
1433979790.796,22.17028
1433979790.812,14.0774765
1433979790.828,5.6314545
1433979790.843,-2.3645248
1433979790.859,-9.401108
1433979790.875,-15.3105545
1433979790.89,-20.153046
1433979790.906,-24.060318
1433979790.921,-27.099602
1433979790.937,-29.265068
1433979790.953,-30.553337
1433979790.968,-31.019241
1433979790.984,-30.81668
1433979791,-30.173233
1433979791.015,-29.303574
1433979791.031,-28.394989
1433979791.046,-27.519455
1433979791.062,-26.709976
1433979791.078,-25.964508
1433979791.093,-25.286514
1433979791.109,-24.66423
1433979791.125,-24.077255
1433979791.14,-23.422882
1433979791.156,-22.584839
1433979791.171,-21.431305
1433979791.187,-19.894104
1433979791.203,-17.995163
1433979791.218,-15.838593
1433979791.234,-13.561798
1433979791.25,-11.237946
1433979791.265,-8.867889
1433979791.281,-6.4115906
1433979791.296,-3.770218
1433979791.312,-0.94818115
1433979791.328,1.9781494
1433979791.343,4.868393
1433979791.359,7.5588226
1433979791.375,9.943634
1433979791.39,12.027283
1433979791.406,13.942902
1433979791.421,15.908463
1433979791.437,18.144028
1433979791.453,20.791168
1433979791.468,23.830063
1433979791.484,27.095032
1433979791.5,30.22728
1433979791.515,32.795593
1433979791.531,34.31143
1433979791.546,34.342834
1433979791.562,32.581528
1433979791.578,28.937485
1433979791.593,23.613342
1433979791.609,17.12445
1433979791.625,10.178513
1433979791.64,3.52565
1433979791.656,-2.27388
1433979791.671,-6.9354706
1433979791.687,-10.496857
1433979791.703,-13.14679
1433979791.718,-15.084579
1433979791.734,-16.39296
1433979791.75,-17.049774
1433979791.765,-17.022614
1433979791.781,-16.41005
1433979791.796,-15.436539
1433979791.812,-14.418518
1433979791.828,-13.610168
1433979791.843,-13.094482
1433979791.859,-12.759613
1433979791.875,-12.399384
1433979791.89,-11.817352
1433979791.906,-10.939453
1433979791.921,-9.79538
1433979791.937,-8.465363
1433979791.953,-7.0047913
1433979791.968,-5.460602
1433979791.984,-3.82547
1433979792,-2.1444092
1433979792.015,-0.51501465
1433979792.031,0.95236206
1433979792.046,2.1991272
1433979792.062,3.2789307
1433979792.078,4.3605957
1433979792.093,5.6551514
1433979792.109,7.3119507
1433979792.125,9.308716
1433979792.14,11.484192
1433979792.156,13.584656
1433979792.171,15.425262
1433979792.187,16.940979
1433979792.203,18.218536
1433979792.218,19.456268
1433979792.234,20.89737
1433979792.25,22.763733
1433979792.265,25.198853
1433979792.281,28.155853
1433979792.296,31.339172
1433979792.312,34.144043
1433979792.328,35.81299
1433979792.343,35.64084
1433979792.359,33.249115
1433979792.375,28.782013
1433979792.39,22.875854
1433979792.406,16.393402
1433979792.421,10.140533
1433979792.437,4.6259766
1433979792.453,0.019439697
1433979792.468,-3.730072
1433979792.484,-6.69989
1433979792.5,-8.912872
1433979792.515,-10.328369
1433979792.531,-10.926971
1433979792.546,-10.811066
1433979792.562,-10.215454
1433979792.578,-9.424408
1433979792.593,-8.7421875
1433979792.609,-8.358734
1433979792.625,-8.345398
1433979792.64,-8.634216
1433979792.656,-9.080597
1433979792.671,-9.524353
1433979792.687,-9.854889
1433979792.703,-10.013031
1433979792.718,-9.986511
1433979792.734,-9.75885
1433979792.75,-9.285278
1433979792.765,-8.482147
1433979792.781,-7.319519
1433979792.796,-5.831726
1433979792.812,-4.141571
1433979792.828,-2.388031
1433979792.843,-0.6744995
1433979792.859,1.0277405
1433979792.875,2.8102722
1433979792.89,4.8094788
1433979792.906,7.0381165
1433979792.922,9.426178
1433979792.937,11.77594
1433979792.953,13.895538
1433979792.968,15.675873
1433979792.984,17.164856
1433979793,18.520508
1433979793.015,20.003265
1433979793.031,21.875702
1433979793.046,24.327423
1433979793.062,27.355835
1433979793.078,30.746979
1433979793.093,34.040955
1433979793.109,36.61029
1433979793.125,37.768127
1433979793.14,36.996246
1433979793.156,34.082184
1433979793.172,29.237976
1433979793.187,23.053345
1433979793.203,16.379486
1433979793.218,10.048248
1433979793.234,4.6929626
1433979793.25,0.6107483
1433979793.265,-2.2528992
1433979793.281,-4.168457
1433979793.297,-5.435608
1433979793.312,-6.260559
1433979793.328,-6.7292175
1433979793.343,-6.8499146
1433979793.359,-6.6920776
1433979793.375,-6.432892
1433979793.39,-6.337036
1433979793.406,-6.612549
1433979793.422,-7.309143
1433979793.437,-8.251282
1433979793.453,-9.1128235
1433979793.468,-9.585541
1433979793.484,-9.48468
1433979793.5,-8.82254
1433979793.515,-7.763977
1433979793.531,-6.5413513
1433979793.547,-5.3378296
1433979793.562,-4.2545166
1433979793.578,-3.2861328
1433979793.593,-2.3688354
1433979793.609,-1.3999329
1433979793.625,-0.2765808
1433979793.64,1.1013184
1433979793.656,2.7701416
1433979793.672,4.73645
1433979793.687,6.9533997
1433979793.703,9.322235
1433979793.718,11.683075
1433979793.734,13.904999
1433979793.75,15.872803
1433979793.765,17.609863
1433979793.781,19.214142
1433979793.797,20.924957
1433979793.812,23.014343
1433979793.828,25.710571
1433979793.843,29.09372
1433979793.859,33.010864
1433979793.875,36.99356
1433979793.89,40.304504
1433979793.906,42.091064
1433979793.922,41.60605
1433979793.937,38.53131
1433979793.953,33.106506
1433979793.968,26.117065
1433979793.984,18.621796
1433979794,11.616943
1433979794.015,5.7733765
1433979794.031,1.2732849
1433979794.047,-2.0009766
1433979794.062,-4.348358
1433979794.078,-5.990814
1433979794.093,-7.069763
1433979794.109,-7.6677246
1433979794.125,-7.892914
1433979794.14,-7.9213867
1433979794.156,-7.9885254
1433979794.172,-8.3220215
1433979794.187,-9.036713
1433979794.203,-10.1026
1433979794.218,-11.34552
1433979794.234,-12.451813
1433979794.25,-13.109589
1433979794.265,-13.084839
1433979794.281,-12.362488
1433979794.297,-11.133026
1433979794.312,-9.763916
1433979794.328,-8.569733
1433979794.343,-7.7214966
1433979794.359,-7.0818176
1433979794.375,-6.338806
1433979794.39,-5.1344604
1433979794.406,-3.293457
1433979794.422,-0.8607483
1433979794.437,1.9249268
1433979794.453,4.7752075
1433979794.468,7.510559
1433979794.484,10.109375
1433979794.5,12.673279
1433979794.515,15.327179
1433979794.531,18.134033
1433979794.547,21.136047
1433979794.562,24.394196
1433979794.578,28.06778
1433979794.593,32.325287
1433979794.609,37.226196
1433979794.625,42.508545
1433979794.64,47.503906
1433979794.656,51.233093
1433979794.672,52.69043
1433979794.687,51.209686
1433979794.703,46.682404
1433979794.718,39.615692
1433979794.734,30.922913
1433979794.75,21.634064
1433979794.765,12.599335
1433979794.781,4.363617
1433979794.797,-2.8388672
1433979794.812,-8.950195
1433979794.828,-13.967926
1433979794.843,-17.951813
1433979794.859,-20.921875
1433979794.875,-22.983765
1433979794.89,-24.300537
1433979794.906,-25.111023
1433979794.922,-25.679626
1433979794.937,-26.228363
1433979794.953,-26.904358
1433979794.968,-27.729202
1433979794.984,-28.588333
1433979795,-29.27597
1433979795.015,-29.52864
1433979795.031,-29.18103
1433979795.047,-28.19101
1433979795.062,-26.69754
1433979795.078,-24.913239
1433979795.093,-23.048111
1433979795.109,-21.1669
1433979795.125,-19.185669
1433979795.14,-16.895859
1433979795.156,-14.125824
1433979795.172,-10.820557
1433979795.187,-7.108185
1433979795.203,-3.2300262
1433979795.218,0.54185486
1433979795.234,4.039673
1433979795.25,7.238678
1433979795.265,10.221146
1433979795.281,13.147125
1433979795.297,16.20633
1433979795.312,19.578262
1433979795.328,23.487427
1433979795.343,28.113678
1433979795.359,33.526535
1433979795.375,39.47563
1433979795.39,45.34372
1433979795.406,50.106964
1433979795.422,52.643143
1433979795.437,51.972443
1433979795.453,47.714706
1433979795.468,40.187515
1433979795.484,30.368011
1433979795.5,19.538818
1433979795.515,8.911194
1433979795.531,-0.6987457
1433979795.547,-8.959656
1433979795.562,-15.882736
1433979795.578,-21.559662
1433979795.593,-26.014923
1433979795.609,-29.158852
1433979795.625,-30.981033
1433979795.64,-31.664078
1433979795.656,-31.705719
1433979795.672,-31.694794
1433979795.687,-32.17923
1433979795.703,-33.31408
1433979795.718,-34.901176
1433979795.734,-36.434494
1433979795.75,-37.37977
1433979795.765,-37.3944
1433979795.781,-36.448364
1433979795.797,-34.770546
1433979795.812,-32.694542
1433979795.828,-30.513573
1433979795.844,-28.336891
1433979795.859,-26.10955
1433979795.875,-23.64975
1433979795.89,-20.70375
1433979795.906,-17.065613
1433979795.922,-12.614128
1433979795.937,-7.4381485
1433979795.953,-1.8126526
1433979795.969,3.792076
1433979795.984,8.896805
1433979796,13.144863
1433979796.015,16.482407
1433979796.031,19.191917
1433979796.047,21.833447
1433979796.062,25.041115
1433979796.078,29.315056
1433979796.094,34.82337
1433979796.109,41.263344
1433979796.125,47.852192
1433979796.14,53.406612
1433979796.156,56.593468
1433979796.172,56.322018
1433979796.187,52.036716
1433979796.203,43.968792
1433979796.219,33.054573
1433979796.234,20.685965
1433979796.25,8.225596
1433979796.265,-3.2801447
1433979796.281,-13.220967
1433979796.297,-21.334919
1433979796.312,-27.5646
1433979796.328,-31.894524
1433979796.344,-34.406563
1433979796.359,-35.31876
1433979796.375,-35.054577
1433979796.39,-34.197845
1433979796.406,-33.356865
1433979796.422,-33.00986
1433979796.437,-33.407814
1433979796.453,-34.502354
1433979796.469,-35.99402
1433979796.484,-37.416573
1433979796.5,-38.291847
1433979796.515,-38.24408
1433979796.531,-37.17388
1433979796.547,-35.238987
1433979796.562,-32.785294
1433979796.578,-30.15327
1433979796.594,-27.522316
1433979796.609,-24.823193
1433979796.625,-21.80481
1433979796.64,-18.21642
1433979796.656,-13.981602
1433979796.672,-9.228474
1433979796.687,-4.251152
1433979796.703,0.60648346
1433979796.719,5.061226
1433979796.734,9.02256
1433979796.75,12.545944
1433979796.765,15.881248
1433979796.781,19.36293
1433979796.797,23.387749
1433979796.812,28.238777
1433979796.828,34.018723
1433979796.844,40.461365
1433979796.859,46.890984
1433979796.875,52.249016
1433979796.89,55.307915
1433979796.906,54.986343
1433979796.922,50.679024
1433979796.937,42.4886
1433979796.953,31.277664
1433979796.969,18.411804
1433979796.984,5.399658
1433979797,-6.496895
1433979797.015,-16.472107
1433979797.031,-24.261497
1433979797.047,-29.915222
1433979797.062,-33.664406
1433979797.078,-35.734627
1433979797.094,-36.399292
1433979797.109,-35.985107
1433979797.125,-34.96257
1433979797.14,-33.851868
1433979797.156,-33.144066
1433979797.172,-33.13469
1433979797.187,-33.840828
1433979797.203,-34.999367
1433979797.219,-36.193092
1433979797.234,-36.986977
1433979797.25,-37.102547
1433979797.265,-36.47918
1433979797.281,-35.25641
1433979797.297,-33.632874
1433979797.312,-31.766037
1433979797.328,-29.63089
1433979797.344,-27.066635
1433979797.359,-23.853394
1433979797.375,-19.856018
1433979797.39,-15.149277
1433979797.406,-9.993378
1433979797.422,-4.739929
1433979797.437,0.26145935
1433979797.453,4.8343353
1433979797.469,8.957382
1433979797.484,12.781723
1433979797.5,16.605011
1433979797.515,20.777298
1433979797.531,25.575943
1433979797.547,31.140808
1433979797.562,37.292114
1433979797.578,43.49893
1433979797.594,48.89807
1433979797.609,52.46974
1433979797.625,53.22824
1433979797.64,50.554077
1433979797.656,44.33188
1433979797.672,35.08362
1433979797.687,23.807602
1433979797.703,11.778168
1433979797.719,0.21922302
1433979797.734,-9.928818
1433979797.75,-18.161667
1433979797.765,-24.334213
1433979797.781,-28.601242
1433979797.797,-31.207016
1433979797.812,-32.469406
1433979797.828,-32.72693
1433979797.844,-32.36499
1433979797.859,-31.786682
1433979797.875,-31.362122
1433979797.89,-31.301804
1433979797.906,-31.602554
1433979797.922,-32.036728
1433979797.937,-32.300186
1433979797.953,-32.134415
1433979797.969,-31.40744
1433979797.984,-30.158356
1433979798,-28.493057
1433979798.015,-26.488495
1433979798.031,-24.157272
1433979798.047,-21.401901
1433979798.062,-18.119766
1433979798.078,-14.280762
1433979798.094,-9.978348
1433979798.109,-5.4147644
1433979798.125,-0.843338
1433979798.14,3.5518188
1433979798.156,7.679962
1433979798.172,11.583817
1433979798.187,15.416611
1433979798.203,19.377243
1433979798.219,23.717209
1433979798.234,28.612335
1433979798.25,34.04564
1433979798.265,39.656967
1433979798.281,44.668472
1433979798.297,47.991806
1433979798.312,48.5298
1433979798.328,45.594696
1433979798.344,39.20482
1433979798.359,30.135468
1433979798.375,19.647354
1433979798.39,9.031296
1433979798.406,-0.7465973
1433979798.422,-9.205948
1433979798.437,-16.244095
1433979798.453,-21.88591
1433979798.469,-26.123428
1433979798.484,-28.892532
1433979798.5,-30.21405
1433979798.516,-30.299927
1433979798.531,-29.566498
1433979798.547,-28.516373
1433979798.562,-27.537766
1433979798.578,-26.79541
1433979798.594,-26.247437
1433979798.609,-25.717499
1433979798.625,-25.03975
1433979798.641,-24.151382
1433979798.656,-23.05774
1433979798.672,-21.804428
1433979798.687,-20.374878
1433979798.703,-18.704468
1433979798.719,-16.616806
1433979798.734,-13.889801
1433979798.75,-10.371063
1433979798.766,-6.057434
1433979798.781,-1.1832123
1433979798.797,3.8713531
1433979798.812,8.672684
1433979798.828,12.97908
1433979798.844,16.826736
1433979798.859,20.541672
1433979798.875,24.582092
1433979798.891,29.311752
1433979798.906,34.76738
1433979798.922,40.567184
1433979798.937,45.88739
1433979798.953,49.658035
1433979798.969,50.861282
1433979798.984,48.79666
1433979799,43.327927
1433979799.016,34.944016
1433979799.031,24.601028
1433979799.047,13.461258
1433979799.062,2.5769348
1433979799.078,-7.2983246
1433979799.094,-15.792221
1433979799.109,-22.69017
1433979799.125,-27.85382
1433979799.141,-31.19513
1433979799.156,-32.743668
1433979799.172,-32.801773
1433979799.187,-31.983215
1433979799.203,-30.98793
1433979799.219,-30.388885
1433979799.234,-30.374939
1433979799.25,-30.720993
1433979799.266,-30.948837
1433979799.281,-30.650558
1433979799.297,-29.659882
1433979799.312,-28.142654
1433979799.328,-26.435593
1433979799.344,-24.802002
1433979799.359,-23.277817
1433979799.375,-21.638977
1433979799.391,-19.553345
1433979799.406,-16.757935
1433979799.422,-13.212372
1433979799.437,-9.10878
1433979799.453,-4.7657623
1433979799.469,-0.5029297
1433979799.484,3.5302582
1433979799.5,7.360382
1433979799.516,11.176422
1433979799.531,15.246979
1433979799.547,19.82344
1433979799.562,25.118866
1433979799.578,31.184814
1433979799.594,37.79837
1433979799.609,44.360382
1433979799.625,49.86235
1433979799.641,53.046646
1433979799.656,52.782166
1433979799.672,48.49385
1433979799.687,40.42993
1433979799.703,29.668655
1433979799.719,17.74614
1433979799.734,6.1569214
1433979799.75,-4.0925293
1433979799.766,-12.626358
1433979799.781,-19.57022
1433979799.797,-25.218079
1433979799.812,-29.784424
1433979799.828,-33.249664
1433979799.844,-35.499542
1433979799.859,-36.46953
1433979799.875,-36.31273
1433979799.891,-35.409058
1433979799.906,-34.259583
1433979799.922,-33.31221
1433979799.937,-32.766632
1433979799.953,-32.54982
1433979799.969,-32.356842
1433979799.984,-31.82161
1433979800,-30.677536
1433979800.016,-28.895035
1433979800.031,-26.651268
1433979800.047,-24.244644
1433979800.062,-21.937874
1433979800.078,-19.78228
1433979800.094,-17.643433
1433979800.109,-15.212257
1433979800.125,-12.20517
1433979800.141,-8.487877
1433979800.156,-4.1602173
1433979800.172,0.4612732
1433979800.187,4.9940567
1433979800.203,9.145401
1433979800.219,12.825836
1433979800.234,16.193207
1433979800.25,19.56218
1433979800.266,23.29509
1433979800.281,27.694061
1433979800.297,32.94232
1433979800.312,39.019768
1433979800.328,45.69361
1433979800.344,52.41384
1433979800.359,58.326233
1433979800.375,62.325356
1433979800.391,63.360016
1433979800.406,60.731125
1433979800.422,54.398933
1433979800.437,45.022316
1433979800.453,33.765755
1433979800.469,21.911995
1433979800.484,10.560898
1433979800.5,0.37579346
1433979800.516,-8.354416
1433979800.531,-15.584183
1433979800.547,-21.352715
1433979800.562,-25.691109
1433979800.578,-28.664398
1433979800.594,-30.399536
1433979800.609,-31.153923
1433979800.625,-31.277023
1433979800.641,-31.159744
1433979800.656,-31.152573
1433979800.672,-31.47699
1433979800.687,-32.172134
1433979800.703,-33.08139
1433979800.719,-33.86856
1433979800.734,-34.140976
1433979800.75,-33.60974
1433979800.766,-32.16153
1433979800.781,-29.940292
1433979800.797,-27.236565
1433979800.812,-24.346504
1433979800.828,-21.44625
1433979800.844,-18.563293
1433979800.859,-15.578026
1433979800.875,-12.358414
1433979800.891,-8.828285
1433979800.906,-5.0146866
1433979800.922,-0.9960823
1433979800.937,3.102913
1433979800.953,7.187958
1433979800.969,11.167385
1433979800.984,14.982788
1433979801,18.600483
1433979801.016,22.028591
1433979801.031,25.36298
1433979801.047,28.843906
1433979801.062,32.77018
1433979801.078,37.415413
1433979801.094,42.834206
1433979801.109,48.697437
1433979801.125,54.176342
1433979801.141,58.088276
1433979801.156,59.237217
1433979801.172,56.80651
1433979801.188,50.68916
1433979801.203,41.553802
1433979801.219,30.628212
1433979801.234,19.283863
1433979801.25,8.6344795
1433979801.266,-0.6815033
1433979801.281,-8.507957
1433979801.297,-14.9484825
1433979801.313,-20.194843
1433979801.328,-24.331436
1433979801.344,-27.386578
1433979801.359,-29.373775
1433979801.375,-30.409746
1433979801.391,-30.716944
1433979801.406,-30.605234
1433979801.422,-30.39609
1433979801.438,-30.332796
1433979801.453,-30.515373
1433979801.469,-30.906113
1433979801.484,-31.328238
1433979801.5,-31.57571
1433979801.516,-31.474442
1433979801.531,-30.967426
1433979801.547,-29.978998
1433979801.563,-28.468107
1433979801.578,-26.352184
1433979801.594,-23.633192
1433979801.609,-20.405685
1433979801.625,-16.91801
1433979801.641,-13.470696
1433979801.656,-10.279961
1433979801.672,-7.3289013
1433979801.688,-4.4009066
1433979801.703,-1.2201967
1433979801.719,2.3770847
1433979801.734,6.338849
1433979801.75,10.41507
1433979801.766,14.318629
1433979801.781,17.883112
1433979801.797,21.170937
1433979801.813,24.436554
1433979801.828,28.028477
1433979801.844,32.251278
1433979801.859,37.254135
1433979801.875,42.847973
1433979801.891,48.48896
1433979801.906,53.245026
1433979801.922,56.002285
1433979801.938,55.757088
1433979801.953,52.003098
1433979801.969,44.918518
1433979801.984,35.36821
1433979802,24.639278
1433979802.016,14.01452
1433979802.031,4.457445
1433979802.047,-3.56431
1433979802.063,-10.046362
1433979802.078,-15.201944
1433979802.094,-19.311302
1433979802.109,-22.561666
1433979802.125,-25.025854
1433979802.141,-26.722425
1433979802.156,-27.732096
1433979802.172,-28.212946
1433979802.188,-28.3924
1433979802.203,-28.492199
1433979802.219,-28.628263
1433979802.234,-28.777317
1433979802.25,-28.83434
1433979802.266,-28.641016
1433979802.281,-28.138187
1433979802.297,-27.365448
1433979802.313,-26.426155
1433979802.328,-25.41048
1433979802.344,-24.322338
1433979802.359,-23.03115
1433979802.375,-21.343296
1433979802.391,-19.09264
1433979802.406,-16.215939
1433979802.422,-12.826111
1433979802.438,-9.17561
1433979802.453,-5.5606422
1433979802.469,-2.206482
1433979802.484,0.8336983
1433979802.5,3.6859474
1433979802.516,6.5814095
1433979802.531,9.700687
1433979802.547,13.11121
1433979802.563,16.761864
1433979802.578,20.587044
1433979802.594,24.613148
1433979802.609,28.99796
1433979802.625,33.914932
1433979802.641,39.35624
1433979802.656,44.978592
1433979802.672,50.02895
1433979802.688,53.497852
1433979802.703,54.437428
1433979802.719,52.26314
1433979802.734,46.994377
1433979802.75,39.226295
1433979802.766,29.978996
1433979802.781,20.349861
1433979802.797,11.26236
1433979802.813,3.2801056
1433979802.828,-3.3917847
1433979802.844,-8.778076
1433979802.859,-12.9668045
1433979802.875,-16.020866
1433979802.891,-17.988647
1433979802.906,-18.974953
1433979802.922,-19.23565
1433979802.938,-19.13388
1433979802.953,-19.053177
1433979802.969,-19.27098
1433979802.984,-19.83931
1433979803,-20.59555
1433979803.016,-21.249283
1433979803.031,-21.519218
1433979803.047,-21.211288
1433979803.063,-20.313385
1433979803.078,-18.93386
1433979803.094,-17.243523
1433979803.109,-15.370453
1433979803.125,-13.351837
1433979803.141,-11.09874
1433979803.156,-8.473343
1433979803.172,-5.367508
1433979803.188,-1.7765808
1433979803.203,2.1526794
1433979803.219,6.1709976
1433979803.234,10.004402
1433979803.25,13.470734
1433979803.266,16.541634
1433979803.281,19.319061
1433979803.297,22.061401
1433979803.313,25.050735
1433979803.328,28.563072
1433979803.344,32.73931
1433979803.359,37.510506
1433979803.375,42.471794
1433979803.391,46.93228
1433979803.406,49.95977
1433979803.422,50.66854
1433979803.438,48.45484
1433979803.453,43.22622
1433979803.469,35.450462
1433979803.484,26.051582
1433979803.5,16.103516
1433979803.516,6.5635834
1433979803.531,-1.926094
1433979803.547,-9.059898
1433979803.563,-14.765205
1433979803.578,-19.051048
1433979803.594,-21.890762
1433979803.609,-23.24424
1433979803.625,-23.19204
1433979803.641,-22.030716
1433979803.656,-20.312378
1433979803.672,-18.690277
1433979803.688,-17.713974
1433979803.703,-17.583885
1433979803.719,-18.107574
1433979803.734,-18.808334
1433979803.75,-19.177803
1433979803.766,-18.920044
1433979803.781,-18.054916
1433979803.797,-16.842987
1433979803.813,-15.590233
1433979803.828,-14.406174
1433979803.844,-13.175461
1433979803.86,-11.598206
1433979803.875,-9.404564
1433979803.891,-6.476967
1433979803.906,-2.9671707
1433979803.922,0.7944565
1433979803.938,4.4440002
1433979803.953,7.72274
1433979803.969,10.572624
1433979803.984,13.166389
1433979804,15.822815
1433979804.016,18.908127
1433979804.031,22.71923
1433979804.047,27.345848
1433979804.063,32.6028
1433979804.078,37.978592
1433979804.094,42.682564
1433979804.11,45.792053
1433979804.125,46.47744
1433979804.141,44.281265
1433979804.156,39.252136
1433979804.172,31.965668
1433979804.188,23.330387
1433979804.203,14.354221
1433979804.219,5.8508377
1433979804.235,-1.6304169
1433979804.25,-7.8160896
1433979804.266,-12.6086235
1433979804.281,-15.947739
1433979804.297,-17.84299
1433979804.313,-18.40593
1433979804.328,-17.910172
1433979804.344,-16.791931
1433979804.36,-15.554676
1433979804.375,-14.616699
1433979804.391,-14.19207
1433979804.406,-14.276661
1433979804.422,-14.687607
1433979804.438,-15.2073555
1433979804.453,-15.66333
1433979804.469,-15.963242
1433979804.485,-16.015541
1433979804.5,-15.7090645
1433979804.516,-14.876736
1433979804.531,-13.390903
1433979804.547,-11.212456
1433979804.563,-8.424042
1433979804.578,-5.2714996
1433979804.594,-2.0095139
1433979804.61,1.1822815
1433979804.625,4.2380486
1433979804.641,7.245163
1433979804.656,10.359047
1433979804.672,13.775877
1433979804.688,17.642775
1433979804.703,22.070417
1433979804.719,26.98501
1433979804.735,32.062984
1433979804.75,36.632294
1433979804.766,39.721832
1433979804.781,40.289284
1433979804.797,37.589104
1433979804.813,31.544268
1433979804.828,22.87767
1433979804.844,12.9267235
1433979804.86,3.1770315
1433979804.875,-5.251606
1433979804.891,-11.891859
1433979804.906,-16.93423
1433979804.922,-20.870396
1433979804.938,-24.135117
1433979804.953,-26.807415
1433979804.969,-28.708437
1433979804.985,-29.561008
1433979805,-29.30917
1433979805.016,-28.189646
1433979805.031,-26.681509
1433979805.047,-25.280125
1433979805.063,-24.296331
1433979805.078,-23.791489
1433979805.094,-23.617851
1433979805.11,-23.496391
1433979805.125,-23.157337
1433979805.141,-22.372875
1433979805.156,-21.010775
1433979805.172,-18.962837
1433979805.188,-16.270245
1433979805.203,-12.998959
1433979805.219,-9.293004
1433979805.235,-5.3160133
1433979805.25,-1.2429781
1433979805.266,2.8174458
1433979805.281,6.8258677
1433979805.297,10.868449
1433979805.313,15.139532
1433979805.328,19.865986
1433979805.344,25.186981
1433979805.36,31.006792
1433979805.375,36.908012
1433979805.391,42.137302
1433979805.406,45.72245
1433979805.422,46.721344
1433979805.438,44.466507
1433979805.453,38.8415
1433979805.469,30.328123
1433979805.485,19.945704
1433979805.5,8.974457
1433979805.516,-1.345665
1433979805.531,-10.127987
1433979805.547,-16.935133
1433979805.563,-21.785088
1433979805.578,-24.959177
1433979805.594,-26.837454
1433979805.61,-27.781738
1433979805.625,-28.070412
1433979805.641,-27.938213
1433979805.656,-27.626953
1433979805.672,-27.286243
1433979805.688,-27.006004
1433979805.703,-26.759842
1433979805.719,-26.460224
1433979805.735,-25.983028
1433979805.75,-25.303127
1433979805.766,-24.423294
1433979805.781,-23.406563
1433979805.797,-22.258434
1433979805.813,-20.921776
1433979805.828,-19.231361
1433979805.844,-16.96516
1433979805.86,-13.929142
1433979805.875,-10.024551
1433979805.891,-5.3659363
1433979805.906,-0.28809738
1433979805.922,4.75959
1433979805.938,9.337833
1433979805.953,13.2439995
1433979805.969,16.620762
1433979805.985,19.937618
1433979806,23.82343
1433979806.016,28.769241
1433979806.031,34.82073
1433979806.047,41.42041
1433979806.063,47.454266
1433979806.078,51.54063
1433979806.094,52.403267
1433979806.11,49.350544
1433979806.125,42.46943
1433979806.141,32.632282
1433979806.156,21.19743
1433979806.172,9.574429
1433979806.188,-1.187458
1433979806.203,-10.556545
1433979806.219,-18.45708
1433979806.235,-24.96703
1433979806.25,-30.093025
1433979806.266,-33.717827
1433979806.281,-35.737156
1433979806.297,-36.23711
1433979806.313,-35.62288
1433979806.328,-34.53371
1433979806.344,-33.61136
1433979806.36,-33.23571
1433979806.375,-33.40716
1433979806.391,-33.79027
1433979806.406,-33.944794
1433979806.422,-33.512554
1433979806.438,-32.406624
1433979806.453,-30.786503
1433979806.469,-28.969448
1433979806.485,-27.211308
1433979806.5,-25.59959
1433979806.516,-23.947105
1433979806.531,-21.903095
1433979806.547,-19.083027
1433979806.563,-15.279156
1433979806.578,-10.5429
1433979806.594,-5.190609
1433979806.61,0.34114838
1433979806.625,5.6345863
1433979806.641,10.431705
1433979806.656,14.670624
1433979806.672,18.468235
1433979806.688,22.067894
1433979806.703,25.804653
1433979806.719,30.01793
1433979806.735,34.944088
1433979806.75,40.565193
1433979806.766,46.47668
1433979806.782,51.827236
1433979806.797,55.461334
1433979806.813,56.22849
1433979806.828,53.3681
1433979806.844,46.80016
1433979806.86,37.225853
1433979806.875,25.873146
1433979806.891,14.153526
1433979806.907,3.2019234
1433979806.922,-6.364544
1433979806.938,-14.417797
1433979806.953,-21.099125
1433979806.969,-26.546268
1433979806.985,-30.71059
1433979807,-33.439594
1433979807.016,-34.665077
1433979807.032,-34.617218
1433979807.047,-33.829018
1433979807.063,-32.99819
1433979807.078,-32.647038
1433979807.094,-32.924904
1433979807.11,-33.568493
1433979807.125,-34.10418
1433979807.141,-34.128242
1433979807.157,-33.51743
1433979807.172,-32.425102
1433979807.188,-31.140606
1433979807.203,-29.86298
1433979807.219,-28.605457
1433979807.235,-27.175968
1433979807.25,-25.307678
1433979807.266,-22.745949
1433979807.282,-19.367203
1433979807.297,-15.17889
1433979807.313,-10.315109
1433979807.328,-5.0175514
1433979807.344,0.40088654
1433979807.36,5.664528
1433979807.375,10.539661
1433979807.391,14.937756
1433979807.407,18.934105
1433979807.422,22.747032
1433979807.438,26.68948
1433979807.453,31.067173
1433979807.469,36.098175
1433979807.485,41.804173
1433979807.5,47.910698
1433979807.516,53.779762
1433979807.532,58.44619
1433979807.547,60.805016
1433979807.563,59.880013
1433979807.578,55.195755
1433979807.594,46.97348
1433979807.61,36.138687
1433979807.625,24.042225
1433979807.641,12.067013
1433979807.657,1.2090416
1433979807.672,-8.040962
1433979807.688,-15.654007
1433979807.703,-21.832453
1433979807.719,-26.76901
1433979807.735,-30.488148
1433979807.75,-32.944073
1433979807.766,-34.139954
1433979807.782,-34.272583
1433979807.797,-33.71769
1433979807.813,-32.93847
1433979807.828,-32.284325
1433979807.844,-31.89009
1433979807.86,-31.65571
1433979807.875,-31.333176
1433979807.891,-30.667887
1433979807.907,-29.512337
1433979807.922,-27.838491
1433979807.938,-25.77292
1433979807.953,-23.496351
1433979807.969,-21.18951
1433979807.985,-18.928003
1433979808,-16.664314
1433979808.016,-14.1746855
1433979808.032,-11.213994
1433979808.047,-7.6124425
1433979808.063,-3.4298744
1433979808.078,1.0413895
1433979808.094,5.384845
1433979808.11,9.279601
1433979808.125,12.649144
1433979808.141,15.6995125
1433979808.157,18.833895
1433979808.172,22.469322
1433979808.188,26.886866
1433979808.203,32.17295
1433979808.219,38.18277
1433979808.235,44.582157
1433979808.25,50.752163
1433979808.266,55.847004
1433979808.282,58.86004
1433979808.297,58.882633
1433979808.313,55.41832
1433979808.328,48.603493
1433979808.344,39.246555
1433979808.36,28.584248
1433979808.375,17.87042
1433979808.391,8.019445
1433979808.407,-0.53011155
1433979808.422,-7.770786
1433979808.438,-13.858067
1433979808.453,-18.88834
1433979808.469,-22.80915
1433979808.485,-25.470682
1433979808.5,-26.84591
1433979808.516,-27.12222
1433979808.532,-26.762014
1433979808.547,-26.303196
1433979808.563,-26.15345
1433979808.578,-26.399044
1433979808.594,-26.77619
1433979808.61,-26.836674
1433979808.625,-26.207275
1433979808.641,-24.785538
1433979808.657,-22.767189
1433979808.672,-20.536224
1433979808.688,-18.44862
1433979808.703,-16.610262
1433979808.719,-14.874086
1433979808.735,-12.873854
1433979808.75,-10.240624
1433979808.766,-6.791522
1433979808.782,-2.632637
1433979808.797,1.8761492
1433979808.813,6.3044996
1433979808.828,10.304744
1433979808.844,13.770479
1433979808.86,16.88124
1433979808.875,19.963772
1433979808.891,23.372204
1433979808.907,27.328445
1433979808.922,31.920944
1433979808.938,37.03159
1433979808.953,42.388653
1433979808.969,47.4986
1433979808.985,51.660995
1433979809,53.973675
1433979809.016,53.59982
1433979809.032,49.994606
1433979809.047,43.272823
1433979809.063,34.19297
1433979809.078,23.98624
1433979809.094,13.930835
1433979809.11,4.9414024
1433979809.125,-2.6038055
1433979809.141,-8.783531
1433979809.157,-13.86123
1433979809.172,-18.015621
1433979809.188,-21.235247
1433979809.203,-23.398647
1433979809.219,-24.490585
1433979809.235,-24.731298
1433979809.25,-24.56504
1433979809.266,-24.48217
1433979809.282,-24.79401
1433979809.297,-25.48685
1433979809.313,-26.25005
1433979809.328,-26.656147
1433979809.344,-26.3906
1433979809.36,-25.448019
1433979809.375,-24.115835
1433979809.391,-22.802118
1433979809.407,-21.81281
1433979809.422,-21.11215
1433979809.438,-20.356974
1433979809.454,-19.064024
1433979809.469,-16.84988
1433979809.485,-13.623494
1433979809.5,-9.642207
1433979809.516,-5.385523
1433979809.532,-1.3708785
1433979809.547,2.049953
1433979809.563,4.771644
1433979809.579,6.9454193
1433979809.594,8.914376
1433979809.61,11.095744
1433979809.625,13.892453
1433979809.641,17.544178
1433979809.657,22.018427
1433979809.672,26.919619
1433979809.688,31.486868
1433979809.704,34.72117
1433979809.719,35.633232
1433979809.735,33.547195
1433979809.75,28.310318
1433979809.766,20.349548
1433979809.782,10.562831
1433979809.797,0.058034897
1433979809.813,-10.132837
1433979809.829,-19.274023
1433979809.844,-26.986713
1433979809.86,-33.203648
1433979809.875,-38.04894
1433979809.891,-41.708893
1433979809.907,-44.383533
1433979809.922,-46.279774
1433979809.938,-47.638172
1433979809.954,-48.718353
1433979809.969,-49.78297
1433979809.985,-50.955833
1433979810,-52.197784
1433979810.016,-53.292778
1433979810.032,-54.028404
1433979810.047,-54.25621
1433979810.063,-54.037796
1433979810.079,-53.565746
1433979810.094,-53.03755
1433979810.11,-52.472797
1433979810.125,-51.68557
1433979810.141,-50.293312
1433979810.157,-47.92264
1433979810.172,-44.37771
1433979810.188,-39.76988
1433979810.204,-34.50735
1433979810.219,-29.169205
1433979810.235,-24.254673
1433979810.25,-20.041176
1433979810.266,-16.458473
1433979810.282,-13.127541
1433979810.297,-9.514427
1433979810.313,-5.133728
1433979810.329,0.29199982
1433979810.344,6.69825
1433979810.36,13.709473
1433979810.375,20.700012
1433979810.391,26.965866
1433979810.407,31.864227
1433979810.422,34.970688
1433979810.438,36.114174
1433979810.454,35.358482
1433979810.469,32.888123
1433979810.485,28.9375
1433979810.5,23.67369
1433979810.516,17.27803
1433979810.532,10.013123
1433979810.547,2.3564453
1433979810.563,-5.037674
1433979810.579,-11.450897
1433979810.594,-16.350769
1433979810.61,-19.520096
1433979810.625,-21.106659
1433979810.641,-21.452148
1433979810.657,-20.87503
1433979810.672,-19.446167
1433979810.688,-16.977646
1433979810.704,-13.076965
1433979810.719,-7.354126
1433979810.735,0.42276
1433979810.75,10.151932
1433979810.766,21.361786
1433979810.782,33.22148
1433979810.797,44.667206
1433979810.813,54.61212
1433979810.829,62.24051
1433979810.844,67.243744
1433979810.86,69.89386
1433979810.875,70.89984
1433979810.891,71.15549
1433979810.907,71.34662
1433979810.922,71.80592
1433979810.938,72.527664
1433979810.954,73.382965
1433979810.969,74.3306
1433979810.985,75.57233
1433979811,77.450775
1433979811.016,80.264984
1433979811.032,84.01259
1433979811.047,88.24704
1433979811.063,92.057846
1433979811.079,94.2831
1433979811.094,93.75864
1433979811.11,89.677185
1433979811.125,81.81743
1433979811.141,70.59003
1433979811.157,56.956406
1433979811.172,42.12587
1433979811.188,27.252014
1433979811.204,13.20491
1433979811.219,0.46089172
1433979811.235,-10.820251
1433979811.25,-20.675247
1433979811.266,-29.183548
1433979811.282,-36.421616
1433979811.297,-42.500183
1433979811.313,-47.655746
1433979811.329,-52.308823
1433979811.344,-57.04373
1433979811.36,-62.50946
1433979811.375,-69.19386
1433979811.391,-77.15614
1433979811.407,-85.9227
1433979811.422,-94.4828
1433979811.438,-101.53903
1433979811.454,-105.86388
1433979811.469,-106.6691
1433979811.485,-103.81842
1433979811.5,-97.78717
1433979811.516,-89.432205
1433979811.532,-79.66162
1433979811.547,-69.143555
1433979811.563,-58.26828
1433979811.579,-47.171524
1433979811.594,-35.91397
1433979811.61,-24.548813
1433979811.625,-13.113525
1433979811.641,-1.5881958
1433979811.657,10.139069
1433979811.672,22.206665
1433979811.688,34.54805
1433979811.704,46.80513
1433979811.719,58.369644
1433979811.735,68.58737
1433979811.75,77.01239
1433979811.766,83.55904
1433979811.782,88.38019
1433979811.797,91.58252
1433979811.813,92.96565
1433979811.829,92.03587
1433979811.844,88.281784
1433979811.86,81.62764
1433979811.875,72.66464
1433979811.891,62.581055
1433979811.907,52.72168
1433979811.922,44.092117
1433979811.938,36.994186
1433979811.954,31.082947
1433979811.969,25.720627
1433979811.985,20.420563
1433979812,15.09996
1433979812.016,10.073914
1433979812.032,5.777878
1433979812.047,2.4503632
1433979812.063,-0.056655884
1433979812.079,-2.2191925
1433979812.094,-4.6559906
1433979812.11,-7.8078003
1433979812.126,-11.811783
1433979812.141,-16.466843
1433979812.157,-21.34549
1433979812.172,-25.984985
1433979812.188,-30.049698
1433979812.204,-33.34163
1433979812.219,-35.799576
1433979812.235,-37.44246
1433979812.251,-38.361557
1433979812.266,-38.787476
1433979812.282,-39.17784
1433979812.297,-40.149506
1433979812.313,-42.30159
1433979812.329,-45.881744
1433979812.344,-50.5672
1433979812.36,-55.367737
1433979812.376,-58.953064
1433979812.391,-60.029434
1433979812.407,-57.790604
1433979812.422,-52.065857
1433979812.438,-43.271027
1433979812.454,-32.224335
1433979812.469,-19.899216
1433979812.485,-7.411087
1433979812.501,3.9967346
1433979812.516,12.994385
1433979812.532,18.352676
1433979812.547,19.31372
1433979812.563,15.908737
1433979812.579,9.0785675
1433979812.594,0.4136963
1433979812.61,-8.252213
1433979812.626,-15.382278
1433979812.641,-20.027039
1433979812.657,-21.862167
1433979812.672,-20.93367
1433979812.688,-17.5065
1433979812.704,-11.887466
1433979812.719,-4.5162964
1433979812.735,3.9604034
1433979812.751,12.632553
1433979812.766,20.449524
1433979812.782,26.47882
1433979812.797,30.202957
1433979812.813,31.62645
1433979812.829,31.195099
1433979812.844,29.561218
1433979812.86,27.339172
1433979812.876,24.907547
1433979812.891,22.461319
1433979812.907,20.10463
1433979812.922,17.990295
1433979812.938,16.385162
1433979812.954,15.60173
1433979812.969,15.849136
1433979812.985,17.114853
1433979813.001,19.094788
1433979813.016,21.329666
1433979813.032,23.322495
1433979813.047,24.765015
1433979813.063,25.577057
1433979813.079,25.920044
1433979813.094,26.067947
1433979813.11,26.275833
1433979813.126,26.694931
1433979813.141,27.33075
1433979813.157,27.988144
1433979813.172,28.265808
1433979813.188,27.43132
1433979813.204,24.438873
1433979813.219,18.126373
1433979813.235,7.625412
1433979813.251,-7.121689
1433979813.266,-25.063858
1433979813.282,-44.143402
1433979813.297,-61.7677
1433979813.313,-75.64032
1433979813.329,-84.38112
1433979813.344,-87.813095
1433979813.36,-86.75133
1433979813.376,-82.43213
1433979813.391,-75.98117
1433979813.407,-68.04378
1433979813.422,-58.83609
1433979813.438,-48.376007
1433979813.454,-36.792007
1433979813.469,-24.471039
1433979813.485,-11.978561
1433979813.501,0.060775757
1433979813.516,11.108856
1433979813.532,20.707352
1433979813.547,28.465897
1433979813.563,34.058075
1433979813.579,37.307404
1433979813.594,38.341064
1433979813.61,37.714035
1433979813.626,36.33249
1433979813.641,35.234818
1433979813.657,35.229156
1433979813.672,36.684723
1433979813.688,39.457214
1433979813.704,43.078903
1433979813.719,47.072647
1433979813.735,51.17473
1433979813.751,55.39247
1433979813.766,59.901276
1433979813.782,64.83209
1433979813.797,70.14311
1433979813.813,75.48102
1433979813.829,80.225845
1433979813.844,83.543365
1433979813.86,84.562546
1433979813.876,82.585526
1433979813.891,77.30617
1433979813.907,68.94203
1433979813.922,58.24553
1433979813.938,46.33525
1433979813.954,34.40146
1433979813.969,23.43843
1433979813.985,14.087189
1433979814.001,6.5968475
1433979814.016,0.9408417
1433979814.032,-3.074768
1433979814.047,-5.7272034
1433979814.063,-7.3407593
1433979814.079,-8.289978
1433979814.094,-8.947449
1433979814.11,-9.610443
1433979814.126,-10.449341
1433979814.141,-11.4782715
1433979814.157,-12.644638
1433979814.172,-13.853119
1433979814.188,-15.035278
1433979814.204,-16.117645
1433979814.219,-16.98674
1433979814.235,-17.440277
1433979814.251,-17.248909
1433979814.266,-16.206505
1433979814.282,-14.2658
1433979814.297,-11.486443
1433979814.313,-8.077843
1433979814.329,-4.3017273
1433979814.344,-0.45218658
1433979814.36,3.2805405
1433979814.376,6.8103256
1433979814.391,10.234619
1433979814.407,13.806549
1433979814.422,17.884651
1433979814.438,22.746147
1433979814.454,28.406116
1433979814.469,34.43816
1433979814.485,40.000484
1433979814.501,43.960888
1433979814.516,45.19606
1433979814.532,42.91679
1433979814.547,36.93448
1433979814.563,27.73901
1433979814.579,16.396072
1433979814.594,4.234869
1433979814.61,-7.484772
1433979814.626,-17.873024
1433979814.641,-26.475183
1433979814.657,-33.254173
1433979814.672,-38.345978
1433979814.688,-41.957962
1433979814.704,-44.27398
1433979814.719,-45.50691
1433979814.735,-45.946487
1433979814.751,-45.966362
1433979814.766,-45.905228
1433979814.782,-45.994957
1433979814.798,-46.252415
1433979814.813,-46.504864
1433979814.829,-46.50585
1433979814.844,-46.05105
1433979814.86,-45.025394
1433979814.876,-43.444946
1433979814.891,-41.413315
1433979814.907,-39.057755
1433979814.922,-36.46064
1433979814.938,-33.667885
1433979814.954,-30.641602
1433979814.969,-27.337639
1433979814.985,-23.733261
1433979815.001,-19.904564
1433979815.016,-15.966942
1433979815.032,-12.066811
1433979815.048,-8.185265
1433979815.063,-4.14991
1433979815.079,0.3696823
1433979815.094,5.746048
1433979815.11,12.122902
1433979815.126,19.2714
1433979815.141,26.49511
1433979815.157,32.646927
1433979815.173,36.49449
1433979815.188,37.037575
1433979815.204,33.87745
1433979815.219,27.365257
1433979815.235,18.543488
1433979815.251,8.753464
1433979815.266,-0.75149536
1433979815.282,-9.177338
1433979815.298,-16.245422
1433979815.313,-22.08966
1433979815.329,-26.926697
1433979815.344,-30.870102
1433979815.36,-33.86203
1433979815.376,-35.78482
1433979815.391,-36.612442
1433979815.407,-36.51645
1433979815.423,-35.74933
1433979815.438,-34.635483
1433979815.454,-33.387375
1433979815.469,-32.155014
1433979815.485,-30.991074
1433979815.501,-29.907028
1433979815.516,-28.869232
1433979815.532,-27.804245
1433979815.548,-26.593613
1433979815.563,-25.111298
1433979815.579,-23.281525
1433979815.594,-21.053177
1433979815.61,-18.386185
1433979815.626,-15.227615
1433979815.641,-11.538345
1433979815.657,-7.376587
1433979815.673,-2.9284363
1433979815.688,1.4941101
1433979815.704,5.5954895
1433979815.719,9.172073
1433979815.735,12.308731
1433979815.751,15.287949
1433979815.766,18.516647
1433979815.782,22.330536
1433979815.798,26.933472
1433979815.813,32.252213
1433979815.829,37.94934
1433979815.844,43.39563
1433979815.86,47.7034
1433979815.876,49.884003
1433979815.891,49.08107
1433979815.907,44.868668
1433979815.923,37.47003
1433979815.938,27.754257
1433979815.954,16.998825
1433979815.969,6.4619446
1433979815.985,-2.9123077
1433979816.001,-10.723236
1433979816.016,-16.992035
1433979816.032,-21.975113
1433979816.048,-25.889648
1433979816.063,-28.831833
1433979816.079,-30.813446
1433979816.094,-31.911789
1433979816.11,-32.375214
1433979816.126,-32.57483
1433979816.141,-32.87532
1433979816.157,-33.415955
1433979816.173,-34.027878
1433979816.188,-34.330154
1433979816.204,-33.972458
1433979816.219,-32.85179
1433979816.235,-31.165863
1433979816.251,-29.308838
1433979816.266,-27.605331
1433979816.282,-26.11885
1433979816.298,-24.598724
1433979816.313,-22.655472
1433979816.329,-19.945374
1433979816.344,-16.386383
1433979816.36,-12.128281
1433979816.376,-7.4830017
1433979816.391,-2.7682495
1433979816.407,1.7711945
1433979816.423,6.028534
1433979816.438,9.966003
1433979816.454,13.706833
1433979816.469,17.465134
1433979816.485,21.578308
1433979816.501,26.305695
1433979816.516,31.650223
1433979816.532,37.13884
1433979816.548,41.852386
1433979816.563,44.616318
1433979816.579,44.4189
1433979816.594,40.767105
1433979816.61,33.910492
1433979816.626,24.725937
1433979816.641,14.439514
1433979816.657,4.206497
1433979816.673,-5.1374054
1433979816.688,-13.139847
1433979816.704,-19.620895
1433979816.719,-24.517227
1433979816.735,-27.742233
1433979816.751,-29.281952
1433979816.766,-29.301468
1433979816.782,-28.225021
1433979816.798,-26.681305
1433979816.813,-25.33107
1433979816.829,-24.63063
1433979816.844,-24.655746
1433979816.86,-25.150879
1433979816.876,-25.684662
1433979816.891,-25.896576
1433979816.907,-25.672241
1433979816.923,-25.11789
1433979816.938,-24.449509
1433979816.954,-23.781036
1433979816.969,-23.036469
1433979816.985,-21.919922
1433979817.001,-20.096008
1433979817.016,-17.336166
1433979817.032,-13.671707
1433979817.048,-9.386505
1433979817.063,-4.9498444
1433979817.079,-0.794754
1433979817.094,2.812851
1433979817.11,5.933441
1433979817.126,8.844727
1433979817.141,11.994308
1433979817.157,15.761536
1433979817.173,20.340408
1433979817.188,25.63147
1433979817.204,31.210587
1433979817.219,36.370285
1433979817.235,40.217117
1433979817.251,41.90825
1433979817.266,40.79863
1433979817.282,36.684097
1433979817.298,29.865479
1433979817.313,21.084717
1433979817.329,11.325562
1433979817.344,1.5317383
1433979817.36,-7.5668945
1433979817.376,-15.548904
1433979817.391,-22.249756
1433979817.407,-27.691849
1433979817.423,-31.986938
1433979817.438,-35.319794
1433979817.454,-37.947174
1433979817.469,-40.166077
1433979817.485,-42.196518
1433979817.501,-44.181107
1433979817.516,-46.10048
1433979817.532,-47.86461
1433979817.548,-49.33568
1433979817.563,-50.47119
1433979817.579,-51.330666
1433979817.594,-52.094994
1433979817.61,-52.957573
1433979817.626,-54.096107
1433979817.641,-55.478767
1433979817.657,-56.886078
1433979817.673,-57.894966
1433979817.688,-58.022903
1433979817.704,-56.908035
1433979817.72,-54.557976
1433979817.735,-51.47471
1433979817.751,-48.653282
1433979817.766,-47.324303
1433979817.782,-48.424118
1433979817.798,-52.011772
1433979817.813,-56.948586
1433979817.829,-60.932217
1433979817.845,-61.129837
1433979817.86,-55.05965
1433979817.876,-41.526493
1433979817.891,-21.08622
1433979817.907,4.0138664
1433979817.923,30.551455
1433979817.938,55.19768
1433979817.954,75.2634
1433979817.97,89.09044
1433979817.985,96.10898
1433979818.001,96.6214
1433979818.016,91.65485
1433979818.032,82.782074
1433979818.048,71.92986
1433979818.063,61.05233
1433979818.079,51.759872
1433979818.095,44.97367
1433979818.11,40.852577
1433979818.126,38.88865
1433979818.141,38.248657
1433979818.157,38.051197
1433979818.173,37.566307
1433979818.188,36.251213
1433979818.204,33.75254
1433979818.22,29.918102
1433979818.235,24.866467
1433979818.251,18.984283
1433979818.266,12.829514
1433979818.282,6.9517517
1433979818.298,1.7085419
1433979818.313,-2.8793716
1433979818.329,-7.0962677
1433979818.345,-11.502632
1433979818.36,-16.814041
1433979818.376,-23.776665
1433979818.391,-32.84079
1433979818.407,-43.90757
1433979818.423,-55.985046
1433979818.438,-67.30274
1433979818.454,-75.67414
1433979818.47,-79.18224
1433979818.485,-76.762665
1433979818.501,-68.50912
1433979818.516,-55.44861
1433979818.532,-39.063522
1433979818.548,-20.740112
1433979818.563,-1.4722595
1433979818.579,18.13089
1433979818.595,37.624725
1433979818.61,56.481857
1433979818.626,73.899124
1433979818.641,88.81644
1433979818.657,100.01744
1433979818.673,106.43881
1433979818.688,107.47505
1433979818.704,103.27443
1433979818.72,94.779465
1433979818.735,83.54674
1433979818.751,71.287125
1433979818.766,59.43036
1433979818.782,48.874115
1433979818.798,39.989716
1433979818.813,32.807663
1433979818.829,27.261581
1433979818.845,23.245178
1433979818.86,20.61583
1433979818.876,19.070251
1433979818.891,18.165802
1433979818.907,17.352676
1433979818.923,16.146225
1433979818.938,14.2482605
1433979818.954,11.583466
1433979818.97,8.291092
1433979818.985,4.693863
1433979819.001,1.1777802
1433979819.016,-1.9109344
1433979819.032,-4.3743896
1433979819.048,-6.2058563
1433979819.063,-7.66156
1433979819.079,-9.069763
1433979819.095,-10.664154
1433979819.11,-12.431305
1433979819.126,-14.116119
1433979819.141,-15.38446
1433979819.157,-16.119904
1433979819.173,-16.511017
1433979819.188,-17.079315
1433979819.204,-18.41536
1433979819.22,-20.878525
1433979819.235,-24.332855
1433979819.251,-28.206665
1433979819.266,-31.598251
1433979819.282,-33.5804
1433979819.298,-33.34787
1433979819.313,-30.28418
1433979819.329,-23.969635
1433979819.345,-14.222427
1433979819.36,-1.1842651
1433979819.376,14.394424
1433979819.391,31.071747
1433979819.407,46.75653
1433979819.423,59.117477
1433979819.438,66.164825
1433979819.454,66.85306
1433979819.47,61.465637
1433979819.485,51.531082
1433979819.501,39.38112
1433979819.516,27.442017
1433979819.532,17.573853
1433979819.548,10.770889
1433979819.563,7.067581
1433979819.579,5.8380127
1433979819.595,6.13678
1433979819.61,7.0225525
1433979819.626,7.766388
1433979819.641,7.9775696
1433979819.657,7.5754547
1433979819.673,6.7586365
1433979819.688,5.871689
1433979819.704,5.175644
1433979819.72,4.5342712
1433979819.735,3.2822723
1433979819.751,0.23651123
1433979819.766,-5.818924
1433979819.782,-15.4778595
1433979819.798,-28.12207
1433979819.813,-41.775284
1433979819.829,-53.525024
1433979819.845,-60.470825
1433979819.86,-60.702896
1433979819.876,-53.882034
1433979819.891,-41.235077
1433979819.907,-25.002579
1433979819.923,-7.582367
1433979819.938,9.0035095
1433979819.954,23.436127
1433979819.97,35.09558
1433979819.985,43.928024
1433979820.001,50.373108
1433979820.016,55.22229
1433979820.032,59.35411
1433979820.048,63.367737
1433979820.063,67.2408
1433979820.079,70.21149
1433979820.095,71.074265
1433979820.11,68.72008
1433979820.126,62.65361
1433979820.141,53.26184
1433979820.157,41.697937
1433979820.173,29.557617
1433979820.188,18.368729
1433979820.204,9.310989
1433979820.22,2.9967346
1433979820.235,-0.5033722
1433979820.251,-1.5765381
1433979820.266,-0.89941406
1433979820.282,0.7448273
1433979820.298,2.6479645
1433979820.313,4.2684097
1433979820.329,5.2644577
1433979820.345,5.477295
1433979820.36,4.8816757
1433979820.376,3.5444489
1433979820.392,1.6800385
1433979820.407,-0.45868683
1433979820.423,-2.5995865
1433979820.438,-4.5764847
1433979820.454,-6.339714
1433979820.47,-7.921715
1433979820.485,-9.226517
1433979820.501,-10.012787
1433979820.517,-9.925911
1433979820.532,-8.694565
1433979820.548,-6.345413
1433979820.563,-3.232315
1433979820.579,0.043800354
1433979820.595,2.9657593
1433979820.61,5.2779922
1433979820.626,7.1154137
1433979820.642,8.9237175
1433979820.657,11.238884
1433979820.673,14.538429
1433979820.688,18.973309
1433979820.704,24.254204
1433979820.72,29.579248
1433979820.735,33.778133
1433979820.751,35.53092
1433979820.767,33.839962
1433979820.782,28.384766
1433979820.798,19.68061
1433979820.813,8.935986
1433979820.829,-2.3397665
1433979820.845,-12.798512
1433979820.86,-21.539423
1433979820.876,-28.204151
1433979820.892,-32.8758
1433979820.907,-35.887196
1433979820.923,-37.665955
1433979820.938,-38.645576
1433979820.954,-39.186157
1433979820.97,-39.531425
1433979820.985,-39.779648
1433979821.001,-39.906082
1433979821.017,-39.824844
1433979821.032,-39.50855
1433979821.048,-38.93369
1433979821.063,-38.14554
1433979821.079,-37.154675
1433979821.095,-35.961536
1433979821.11,-34.511936
1433979821.126,-32.78554
1433979821.142,-30.752735
1433979821.157,-28.424706
1433979821.173,-25.793495
1433979821.188,-22.83448
1433979821.204,-19.52111
1433979821.22,-15.862297
1433979821.235,-11.886078
1433979821.251,-7.667923
1433979821.267,-3.328064
1433979821.282,0.99346924
1433979821.298,5.233261
1433979821.313,9.446831
1433979821.329,13.843643
1433979821.345,18.68779
1433979821.36,24.110786
1433979821.376,29.838776
1433979821.392,35.133636
1433979821.407,38.85
1433979821.423,39.864037
1433979821.438,37.44648
1433979821.454,31.638672
1433979821.47,23.253647
1433979821.485,13.609245
1433979821.501,4.0142975
1433979821.517,-4.5790024
1433979821.532,-11.763702
1433979821.548,-17.557419
1433979821.563,-22.182533
1433979821.579,-25.79184
1433979821.595,-28.483505
1433979821.61,-30.285034
1433979821.626,-31.315598
1433979821.642,-31.83702
1433979821.657,-32.172745
1433979821.673,-32.5708
1433979821.688,-33.081238
1433979821.704,-33.535553
1433979821.72,-33.651093
1433979821.735,-33.224014
1433979821.751,-32.258392
1433979821.767,-30.930481
1433979821.782,-29.507126
1433979821.798,-28.123566
1433979821.813,-26.700623
1433979821.829,-24.94365
1433979821.845,-22.508377
1433979821.86,-19.15799
1433979821.876,-14.921692
1433979821.892,-10.09256
1433979821.907,-5.1355286
1433979821.923,-0.47502136
1433979821.938,3.6401978
1433979821.954,7.2711945
1433979821.97,10.725067
1433979821.985,14.481979
1433979822.001,18.991638
1433979822.017,24.467667
1433979822.032,30.720657
1433979822.048,37.09784
1433979822.063,42.547714
1433979822.079,45.882767
1433979822.095,46.126083
1433979822.11,42.850845
1433979822.126,36.3347
1433979822.142,27.521286
1433979822.157,17.6837
1433979822.173,8.0603485
1433979822.188,-0.47283936
1433979822.204,-7.5298767
1433979822.22,-13.161621
1433979822.235,-17.562027
1433979822.251,-20.944244
1433979822.267,-23.372345
1433979822.282,-24.83577
1433979822.298,-25.374054
1433979822.313,-25.193985
1433979822.329,-24.628616
1433979822.345,-24.069458
1433979822.36,-23.740875
1433979822.376,-23.632385
1433979822.392,-23.51825
1433979822.407,-23.125153
1433979822.423,-22.267136
1433979822.438,-20.974121
1433979822.454,-19.415237
1433979822.47,-17.755463
1433979822.485,-16.022934
1433979822.501,-14.078629
1433979822.517,-11.710251
1433979822.532,-8.788727
1433979822.548,-5.351013
1433979822.563,-1.6180267
1433979822.579,2.1529999
1433979822.595,5.7507477
1433979822.61,9.115082
1433979822.626,12.337311
1433979822.642,15.631012
1433979822.657,19.25058
1433979822.673,23.442062
1433979822.688,28.248947
1433979822.704,33.4516
1433979822.72,38.384933
1433979822.735,42.096832
1433979822.751,43.555557
1433979822.767,42.007126
1433979822.782,37.30757
1433979822.798,29.971207
1433979822.813,21.020416
1433979822.829,11.653992
1433979822.845,2.838379
1433979822.86,-4.8222046
1433979822.876,-11.127396
1433979822.892,-16.10321
1433979822.907,-19.861984
1433979822.923,-22.48973
1433979822.938,-24.054565
1433979822.954,-24.688354
1433979822.97,-24.61023
1433979822.985,-24.060043
1433979823.001,-23.315369
1433979823.017,-22.51175
1433979823.032,-21.712387
1433979823.048,-20.874191
1433979823.064,-19.929459
1433979823.079,-18.855438
1433979823.095,-17.659973
1433979823.11,-16.340363
1433979823.126,-14.844574
1433979823.142,-13.069962
1433979823.157,-10.872208
1433979823.173,-8.168106
1433979823.189,-4.9931335
1433979823.204,-1.4685669
1433979823.22,2.1975555
1433979823.235,5.8236847
1433979823.251,9.310806
1433979823.267,12.661835
1433979823.282,15.955429
1433979823.298,19.326508
1433979823.314,22.933792
1433979823.329,26.896881
1433979823.345,31.24997
1433979823.36,35.816162
1433979823.376,40.126434
1433979823.392,43.416534
1433979823.407,44.791565
1433979823.423,43.477417
1433979823.439,39.185623
1433979823.454,32.28502
1433979823.47,23.709518
1433979823.485,14.719101
1433979823.501,6.413376
1433979823.517,-0.50102234
1433979823.532,-5.845764
1433979823.548,-9.823212
1433979823.564,-12.7534485
1433979823.579,-14.856888
1433979823.595,-16.226517
1433979823.61,-16.901703
1433979823.626,-16.999771
1433979823.642,-16.773666
1433979823.657,-16.526001
1433979823.673,-16.5018
1433979823.689,-16.776535
1433979823.704,-17.22319
1433979823.72,-17.624878
1433979823.735,-17.757568
1433979823.751,-17.488739
1433979823.767,-16.763596
1433979823.782,-15.596664
1433979823.798,-14.027908
1433979823.814,-12.096664
1433979823.829,-9.855972
1433979823.845,-7.3777466
1433979823.86,-4.73143
1433979823.876,-1.9610901
1433979823.892,0.8998413
1433979823.907,3.8498535
1433979823.923,6.9236145
1433979823.939,10.173721
1433979823.954,13.698242
1433979823.97,17.546722
1433979823.985,21.674316
1433979824.001,25.777771
1433979824.017,29.275085
1433979824.032,31.35492
1433979824.048,31.222504
1433979824.064,28.357697
1433979824.079,22.79068
1433979824.095,15.105988
1433979824.11,6.288971
1433979824.126,-2.5876465
1433979824.142,-10.654175
1433979824.157,-17.393982
1433979824.173,-22.651794
1433979824.189,-26.494629
1433979824.204,-29.094452
1433979824.22,-30.626617
1433979824.235,-31.267822
1433979824.251,-31.201294
1433979824.267,-30.620789
1433979824.282,-29.75122
1433979824.298,-28.786285
1433979824.314,-27.913422
1433979824.329,-27.213806
1433979824.345,-26.725433
1433979824.36,-26.351654
1433979824.376,-25.90213
1433979824.392,-25.111206
1433979824.407,-23.764343
1433979824.423,-21.74347
1433979824.439,-19.12384
1433979824.454,-16.121796
1433979824.47,-12.982727
1433979824.485,-9.836975
1433979824.501,-6.6184998
1433979824.517,-3.098297
1433979824.532,0.9684143
1433979824.548,5.72937
1433979824.564,11.118225
1433979824.579,16.87561
1433979824.595,22.574493
1433979824.61,27.683441
1433979824.626,31.578278
1433979824.642,33.63437
1433979824.657,33.283875
1433979824.673,30.223053
1433979824.689,24.523773
1433979824.704,16.71045
1433979824.72,7.6675415
1433979824.735,-1.5950012
1433979824.751,-10.196838
1433979824.767,-17.55838
1433979824.782,-23.443878
1433979824.798,-27.890808
1433979824.814,-31.069946
1433979824.829,-33.142517
1433979824.845,-34.261017
1433979824.86,-34.524933
1433979824.876,-34.05774
1433979824.892,-33.02722
1433979824.907,-31.672394
1433979824.923,-30.234314
1433979824.939,-28.931305
1433979824.954,-27.839203
1433979824.97,-26.921387
1433979824.985,-26.004913
1433979825.001,-24.898865
1433979825.017,-23.416504
1433979825.032,-21.470245
1433979825.048,-19.0159
1433979825.064,-16.067993
1433979825.079,-12.65329
1433979825.095,-8.851746
1433979825.11,-4.762268
1433979825.126,-0.5628357
1433979825.142,3.5966797
1433979825.157,7.631378
1433979825.173,11.646149
1433979825.189,15.88324
1433979825.204,20.61969
1433979825.22,25.97699
1433979825.235,31.715164
1433979825.251,37.181763
1433979825.267,41.42711
1433979825.282,43.450394
1433979825.298,42.52797
1433979825.314,38.472076
1433979825.329,31.683075
1433979825.345,23.003998
1433979825.36,13.454224
1433979825.376,3.932312
1433979825.392,-4.927536
1433979825.407,-12.796921
1433979825.423,-19.527222
1433979825.439,-25.07248
1433979825.454,-29.36267
1433979825.47,-32.356903
1433979825.485,-34.079895
1433979825.501,-34.679855
1433979825.517,-34.464767
1433979825.532,-33.817307
1433979825.548,-33.08403
1433979825.564,-32.483948
1433979825.579,-31.994461
1433979825.595,-31.454742
1433979825.61,-30.627213
1433979825.626,-29.367615
1433979825.642,-27.647614
1433979825.657,-25.607147
1433979825.673,-23.38057
1433979825.689,-21.03006
1433979825.704,-18.46315
1433979825.72,-15.482788
1433979825.736,-11.894028
1433979825.751,-7.684723
1433979825.767,-3.0294647
1433979825.782,1.7171936
1433979825.798,6.2157593
1433979825.814,10.246536
1433979825.829,13.822556
1433979825.845,17.14386
1433979825.86,20.54007
1433979825.876,24.337753
1433979825.892,28.776062
1433979825.907,33.90074
1433979825.923,39.495377
1433979825.939,44.990387
1433979825.954,49.494263
1433979825.97,51.993774
1433979825.986,51.611664
1433979826.001,47.934235
1433979826.017,41.206757
1433979826.032,32.23758
1433979826.048,22.15152
1433979826.064,11.9895935
1433979826.079,2.469162
1433979826.095,-6.085022
1433979826.111,-13.586792
1433979826.126,-20.03804
1433979826.142,-25.360962
1433979826.157,-29.465225
1433979826.173,-32.275826
1433979826.189,-33.869873
1433979826.204,-34.4775
1433979826.22,-34.425285
1433979826.236,-34.03749
1433979826.251,-33.545708
1433979826.267,-33.025803
1433979826.282,-32.478218
1433979826.298,-31.845467
1433979826.314,-31.105469
1433979826.329,-30.312866
1433979826.345,-29.538765
1433979826.361,-28.818993
1433979826.376,-28.069725
1433979826.392,-27.091621
1433979826.407,-25.658508
1433979826.423,-23.596184
1433979826.439,-20.898407
1433979826.454,-17.751991
1433979826.47,-14.431282
1433979826.486,-11.158127
1433979826.501,-8.017006
1433979826.517,-4.915619
1433979826.532,-1.700119
1433979826.548,1.7933273
1433979826.564,5.594002
1433979826.579,9.603821
1433979826.595,13.639259
1433979826.611,17.502754
1433979826.626,21.064037
1433979826.642,24.29963
1433979826.657,27.323624
1433979826.673,30.352158
1433979826.689,33.660633
1433979826.704,37.51249
1433979826.72,41.989227
1433979826.736,46.852448
1433979826.751,51.46275
1433979826.767,54.91069
1433979826.782,56.1871
1433979826.798,54.589638
1433979826.814,49.936462
1433979826.829,42.692
1433979826.845,33.8009
1433979826.861,24.34255
1433979826.876,15.201652
1433979826.892,6.870487
1433979826.907,-0.53567505
1433979826.923,-7.0798197
1433979826.939,-12.781721
1433979826.954,-17.512493
1433979826.97,-21.078604
1433979826.986,-23.323816
1433979827.001,-24.32576
1433979827.017,-24.40324
1433979827.032,-24.04688
1433979827.048,-23.718172
1433979827.064,-23.694355
1433979827.079,-23.975727
1433979827.095,-24.355686
1433979827.111,-24.5531
1433979827.126,-24.359303
1433979827.142,-23.701935
1433979827.157,-22.650276
1433979827.173,-21.319908
1433979827.189,-19.801273
1433979827.204,-18.109043
1433979827.22,-16.19115
1433979827.236,-13.988667
1433979827.251,-11.511734
1433979827.267,-8.865112
1433979827.282,-6.2161484
1433979827.298,-3.7222977
1433979827.314,-1.4617615
1433979827.329,0.6426773
1433979827.345,2.7825546
1433979827.361,5.1629486
1433979827.376,7.9010315
1433979827.392,10.963287
1433979827.407,14.134872
1433979827.423,17.178154
1433979827.439,19.907875
1433979827.454,22.325844
1433979827.47,24.61647
1433979827.486,27.145744
1433979827.501,30.23922
1433979827.517,34.07847
1433979827.532,38.538696
1433979827.548,43.143364
1433979827.564,47.11035
1433979827.579,49.539154
1433979827.595,49.685852
1433979827.611,47.16484
1433979827.626,42.109314
1433979827.642,35.116394
1433979827.657,27.07161
1433979827.673,18.873474
1433979827.689,11.257393
1433979827.704,4.64357
1433979827.72,-0.8115387
1433979827.736,-5.1395874
1433979827.751,-8.464111
1433979827.767,-10.915405
1433979827.782,-12.643326
1433979827.798,-13.752441
1433979827.814,-14.398392
1433979827.829,-14.715179
1433979827.845,-14.868546
1433979827.861,-15.016495
1433979827.876,-15.269867
1433979827.892,-15.642609
1433979827.907,-16.07634
1433979827.923,-16.424774
1433979827.939,-16.524261
1433979827.954,-16.243515
1433979827.97,-15.515533
1433979827.986,-14.344666
1433979828.001,-12.819153
1433979828.017,-11.0729065
1433979828.032,-9.2921295
1433979828.048,-7.607361
1433979828.064,-6.070755
1433979828.079,-4.613861
1433979828.095,-3.0716858
1433979828.111,-1.25354
1433979828.126,0.9346771
1433979828.142,3.4557343
1433979828.157,6.1701813
1433979828.173,8.892746
1433979828.189,11.474472
1433979828.204,13.855408
1433979828.22,16.045609
1433979828.236,18.13356
1433979828.251,20.239212
1433979828.267,22.553741
1433979828.282,25.299286
1433979828.298,28.63556
1433979828.314,32.50659
1433979828.329,36.532913
1433979828.345,39.992325
1433979828.361,42.0
1433979828.376,41.776657
1433979828.392,38.955353
1433979828.408,33.704163
1433979828.423,26.728302
1433979828.439,18.99974
1433979828.454,11.509689
1433979828.47,4.9562836
1433979828.486,-0.3222351
1433979828.501,-4.3516235
1433979828.517,-7.334259
1433979828.532,-9.507263
1433979828.548,-11.022339
1433979828.564,-11.936981
1433979828.579,-12.243225
1433979828.595,-12.01268
1433979828.611,-11.408768
1433979828.626,-10.7017975
1433979828.642,-10.178925
1433979828.658,-10.056747
1433979828.673,-10.363693
1433979828.689,-10.963516
1433979828.704,-11.559158
1433979828.72,-11.87883
1433979828.736,-11.726364
1433979828.751,-11.095505
1433979828.767,-10.147827
1433979828.783,-9.102829
1433979828.798,-8.132889
1433979828.814,-7.2632446
1433979828.829,-6.383026
1433979828.845,-5.3004913
1433979828.861,-3.860443
1433979828.876,-2.0115356
1433979828.892,0.1741333
1433979828.908,2.533371
1433979828.923,4.9184113
1433979828.939,7.2210693
1433979828.954,9.443237
1433979828.97,11.610794
1433979828.986,13.773407
1433979829.001,15.9405365
1433979829.017,18.135437
1433979829.033,20.442368
1433979829.048,22.960464
1433979829.064,25.74376
1433979829.079,28.710678
1433979829.095,31.506226
1433979829.111,33.549545
1433979829.126,34.178696
1433979829.142,32.90364
1433979829.158,29.604782
1433979829.173,24.667206
1433979829.189,18.805878
1433979829.204,12.868134
1433979829.22,7.4972076
1433979829.236,3.0361938
1433979829.251,-0.5452881
1433979829.267,-3.3941193
1433979829.283,-5.66687
1433979829.298,-7.3895264
1433979829.314,-8.497894
1433979829.329,-8.972183
1433979829.345,-8.914841
1433979829.361,-8.559158
1433979829.376,-8.201828
1433979829.392,-8.056335
1433979829.408,-8.169769
1433979829.423,-8.4453125
1433979829.439,-8.716019
1433979829.454,-8.858994
1433979829.47,-8.847122
1433979829.486,-8.720627
1433979829.501,-8.541504
1433979829.517,-8.298111
1433979829.533,-7.9310455
1433979829.548,-7.2752686
1433979829.564,-6.1959076
1433979829.579,-4.583374
1433979829.595,-2.4379883
1433979829.611,0.12535095
1433979829.626,2.8950348
1433979829.642,5.633377
1433979829.658,8.137909
1433979829.673,10.328491
1433979829.689,12.269104
1433979829.704,14.16626
1433979829.72,16.283188
1433979829.736,18.865738
1433979829.751,21.969025
1433979829.767,25.41272
1433979829.783,28.73143
1433979829.798,31.267273
1433979829.814,32.35318
1433979829.829,31.516144
1433979829.845,28.625107
1433979829.861,23.934692
1433979829.876,18.002396
1433979829.892,11.549393
1433979829.908,5.2490845
1433979829.923,-0.36354065
1433979829.939,-4.9887085
1433979829.954,-8.529419
1433979829.97,-11.044312
1433979829.986,-12.670212
1433979830.001,-13.602814
1433979830.017,-14.024826
1433979830.033,-14.133514
1433979830.048,-14.094528
1433979830.064,-14.040955
1433979830.079,-14.045425
1433979830.095,-14.101105
1433979830.111,-14.126144
1433979830.126,-14.024445
1433979830.142,-13.734131
1433979830.158,-13.283806
1433979830.173,-12.735565
1433979830.189,-12.162529
1433979830.204,-11.505501
1433979830.22,-10.604431
1433979830.236,-9.224846
1433979830.251,-7.229637
1433979830.267,-4.6481094
1433979830.283,-1.6819305
1433979830.298,1.3963852
1433979830.314,4.3752747
1433979830.329,7.178528
1433979830.345,9.835327
1433979830.361,12.44989
1433979830.376,15.101128
1433979830.392,17.924248
1433979830.408,21.042732
1433979830.423,24.579842
1433979830.439,28.465195
1433979830.454,32.32493
1433979830.47,35.43474
1433979830.486,36.881134
1433979830.501,35.91468
1433979830.517,32.275658
1433979830.533,26.314041
1433979830.548,18.897491
1433979830.564,11.056511
1433979830.579,3.6623
1433979830.595,-2.7762222
1433979830.611,-8.079887
1433979830.626,-12.267014
1433979830.642,-15.397652
1433979830.658,-17.520416
1433979830.673,-18.717564
1433979830.689,-19.154915
1433979830.704,-19.09282
1433979830.72,-18.846481
1433979830.736,-18.66483
1433979830.751,-18.688599
1433979830.767,-18.902695
1433979830.783,-19.227867
1433979830.798,-19.506676
1433979830.814,-19.627678
1433979830.829,-19.504436
1433979830.845,-19.078228
1433979830.861,-18.30061
1433979830.876,-17.135864
1433979830.892,-15.532284
1433979830.908,-13.460224
1433979830.923,-10.904896
1433979830.939,-7.9303684
1433979830.954,-4.6720123
1433979830.97,-1.3281498
1433979830.986,1.9087448
1433979831.001,4.9503174
1433979831.017,7.8378086
1433979831.033,10.798765
1433979831.048,14.1532345
1433979831.064,18.190262
1433979831.079,22.994446
1433979831.095,28.33254
1433979831.111,33.58133
1433979831.126,37.837566
1433979831.142,40.16946
1433979831.158,39.863625
1433979831.173,36.68414
1433979831.189,30.908424
1433979831.204,23.261248
1433979831.22,14.633416
1433979831.236,5.913498
1433979831.251,-2.2642307
1433979831.267,-9.484226
1433979831.283,-15.568981
1433979831.298,-20.457108
1433979831.314,-24.129616
1433979831.33,-26.60558
1433979831.345,-27.940083
1433979831.361,-28.269846
1433979831.376,-27.837574
1433979831.392,-26.935719
1433979831.408,-25.884312
1433979831.423,-24.94141
1433979831.439,-24.261765
1433979831.455,-23.858685
1433979831.47,-23.6455
1433979831.486,-23.457848
1433979831.501,-23.093277
1433979831.517,-22.341904
1433979831.533,-21.015701
1433979831.548,-18.966812
1433979831.564,-16.153008
1433979831.58,-12.661606
1433979831.595,-8.721428
1433979831.611,-4.633621
1433979831.626,-0.66812134
1433979831.642,3.0565643
1433979831.658,6.567814
1433979831.673,10.062305
1433979831.689,13.780495
1433979831.705,17.944382
1433979831.72,22.679031
1433979831.736,27.97609
1433979831.751,33.546684
1433979831.767,38.86116
1433979831.783,43.072357
1433979831.798,45.253983
1433979831.814,44.604942
1433979831.83,40.763542
1433979831.845,33.947166
1433979831.861,24.957664
1433979831.876,14.877655
1433979831.892,4.7637177
1433979831.908,-4.667
1433979831.923,-13.036423
1433979831.939,-20.271431
1433979831.955,-26.350235
1433979831.97,-31.206139
1433979831.986,-34.699394
1433979832.001,-36.769905
1433979832.017,-37.544586
1433979832.033,-37.395935
1433979832.048,-36.81691
1433979832.064,-36.24321
1433979832.08,-35.894707
1433979832.095,-35.702873
1433979832.111,-35.4115
1433979832.126,-34.75872
1433979832.142,-33.620056
1433979832.158,-32.081993
1433979832.173,-30.33345
1433979832.189,-28.510147
1433979832.205,-26.574402
1433979832.22,-24.289642
1433979832.236,-21.337128
1433979832.251,-17.503044
1433979832.267,-12.803146
1433979832.283,-7.5478287
1433979832.298,-2.1824799
1433979832.314,2.8237534
1433979832.33,7.2098846
1433979832.345,10.953888
1433979832.361,14.303963
1433979832.376,17.668999
1433979832.392,21.492111
1433979832.408,26.121666
1433979832.423,31.696014
1433979832.439,38.022713
1433979832.455,44.49257
1433979832.47,50.10269
1433979832.486,53.68492
1433979832.501,54.18016
1433979832.517,51.059387
1433979832.533,44.484894
1433979832.548,35.30803
1433979832.564,24.731277
1433979832.58,13.893524
1433979832.595,3.556366
1433979832.611,-5.9575806
1433979832.626,-14.5989685
1433979832.642,-22.320831
1433979832.658,-28.924484
1433979832.673,-34.08754
1433979832.689,-37.582703
1433979832.705,-39.45137
1433979832.72,-40.063095
1433979832.736,-39.984924
1433979832.751,-39.73755
1433979832.767,-39.627106
1433979832.783,-39.675507
1433979832.798,-39.689423
1433979832.814,-39.424164
1433979832.83,-38.708054
1433979832.845,-37.49759
1433979832.861,-35.87236
1433979832.876,-33.945297
1433979832.892,-31.819183
1433979832.908,-29.534378
1433979832.923,-27.06366
1433979832.939,-24.31044
1433979832.955,-21.135391
1433979832.97,-17.429474
1433979832.986,-13.171707
1433979833.001,-8.481689
1433979833.017,-3.6179657
1433979833.033,1.0911255
1433979833.048,5.387039
1433979833.064,9.1826935
1433979833.08,12.6631775
1433979833.095,16.223022
1433979833.111,20.342651
1433979833.126,25.42099
1433979833.142,31.605988
1433979833.158,38.66046
1433979833.173,45.932236
1433979833.189,52.436386
1433979833.205,56.997482
1433979833.22,58.569824
1433979833.236,56.50885
1433979833.251,50.748154
1433979833.267,41.886246
1433979833.283,30.969086
1433979833.298,19.210846
1433979833.314,7.6841125
1433979833.33,-2.8283691
1433979833.345,-11.936874
1433979833.361,-19.511734
1433979833.376,-25.573563
1433979833.392,-30.222229
1433979833.408,-33.58017
1433979833.423,-35.82794
1433979833.439,-37.190445
1433979833.455,-37.924423
1433979833.47,-38.259262
1433979833.486,-38.356323
1433979833.501,-38.299744
1433979833.517,-38.076385
1433979833.533,-37.668777
1433979833.548,-37.07556
1433979833.564,-36.37229
1433979833.58,-35.652695
1433979833.595,-34.981606
1433979833.611,-34.29927
1433979833.626,-33.431526
1433979833.642,-32.118286
1433979833.658,-30.105225
1433979833.673,-27.311401
1433979833.689,-23.834633
1433979833.705,-19.940277
1433979833.72,-15.92672
1433979833.736,-12.020485
1433979833.751,-8.29528
1433979833.767,-4.6406784
1433979833.783,-0.8709564
1433979833.798,3.1960602
1433979833.814,7.5922165
1433979833.83,12.213417
1433979833.845,16.82425
1433979833.861,21.189247
1433979833.876,25.200996
1433979833.892,28.94558
1433979833.908,32.685753
1433979833.923,36.751244
1433979833.939,41.405724
1433979833.955,46.67189
1433979833.97,52.209534
1433979833.986,57.338783
1433979834.002,61.09526
1433979834.017,62.46878
1433979834.033,60.651627
1433979834.048,55.326492
1433979834.064,46.77871
1433979834.08,35.900383
1433979834.095,23.944496
1433979834.111,12.206886
1433979834.127,1.6767731
1433979834.142,-7.146202
1433979834.158,-14.255913
1433979834.173,-19.914856
1433979834.189,-24.429161
1433979834.205,-28.001282
1433979834.22,-30.66008
1433979834.236,-32.391586
1433979834.252,-33.240486
1433979834.267,-33.382874
1433979834.283,-33.121605
1433979834.298,-32.73755
1433979834.314,-32.429398
1433979834.33,-32.209137
1433979834.345,-31.992638
1433979834.361,-31.654488
1433979834.377,-31.121582
1433979834.392,-30.375427
1433979834.408,-29.432457
1433979834.423,-28.248589
1433979834.439,-26.737877
1433979834.455,-24.764725
1433979834.47,-22.302574
1433979834.486,-19.42025
1433979834.502,-16.314476
1433979834.517,-13.192902
1433979834.533,-10.164772
1433979834.548,-7.1487465
1433979834.564,-3.967682
1433979834.58,-0.44784164
1433979834.595,3.3931236
1433979834.611,7.348343
1433979834.627,11.090687
1433979834.642,14.3730545
1433979834.658,17.158222
1433979834.673,19.705639
1433979834.689,22.438381
1433979834.705,25.79945
1433979834.72,30.06675
1433979834.736,35.248814
1433979834.752,41.057873
1433979834.767,46.895737
1433979834.783,51.92229
1433979834.798,55.177803
1433979834.814,55.76075
1433979834.83,53.09946
1433979834.845,47.154995
1433979834.861,38.49854
1433979834.877,28.178127
1433979834.892,17.446968
1433979834.908,7.380562
1433979834.923,-1.3211784
1433979834.939,-8.429279
1433979834.955,-14.01553
1433979834.97,-18.300241
1433979834.986,-21.489563
1433979835.002,-23.753674
1433979835.017,-25.246735
1433979835.033,-26.192587
1433979835.048,-26.849367
1433979835.064,-27.471632
1433979835.08,-28.194334
1433979835.095,-29.026485
1433979835.111,-29.840553
1433979835.127,-30.474339
1433979835.142,-30.785969
1433979835.158,-30.732132
1433979835.173,-30.330519
1433979835.189,-29.641415
1433979835.205,-28.680912
1433979835.22,-27.42524
1433979835.236,-25.759369
1433979835.252,-23.587482
1433979835.267,-20.84417
1433979835.283,-17.622566
1433979835.298,-14.13378
1433979835.314,-10.655445
1433979835.33,-7.4218636
1433979835.345,-4.5091543
1433979835.361,-1.8049183
1433979835.377,0.93595445
1433979835.392,3.9559855
1433979835.408,7.3653092
1433979835.423,11.098329
1433979835.439,14.933232
1433979835.455,18.614273
1433979835.47,21.966011
1433979835.486,24.979446
1433979835.502,27.814686
1433979835.517,30.772053
1433979835.533,34.15909
1433979835.548,38.21627
1433979835.564,42.942947
1433979835.58,48.044197
1433979835.595,52.90786
1433979835.611,56.68018
1433979835.627,58.44698
1433979835.642,57.503704
1433979835.658,53.540443
1433979835.673,46.76761
1433979835.689,37.897644
1433979835.705,27.924143
1433979835.72,17.875803
1433979835.736,8.610767
1433979835.752,0.6640549
1433979835.767,-5.7121086
1433979835.783,-10.515696
1433979835.798,-13.884228
1433979835.814,-16.053492
1433979835.83,-17.280544
1433979835.845,-17.886494
1433979835.861,-18.16627
1433979835.877,-18.397507
1433979835.892,-18.738848
1433979835.908,-19.225346
1433979835.923,-19.77171
1433979835.939,-20.238533
1433979835.955,-20.494242
1433979835.97,-20.48605
1433979835.986,-20.218943
1433979836.002,-19.711271
1433979836.017,-18.934717
1433979836.033,-17.827671
1433979836.048,-16.3011
1433979836.064,-14.329838
1433979836.08,-11.975639
1433979836.095,-9.395126
1433979836.111,-6.7614555
1433979836.127,-4.1904297
1433979836.142,-1.6738205
1433979836.158,0.8712292
1433979836.173,3.5407677
1433979836.189,6.373598
1433979836.205,9.341661
1433979836.22,12.369585
1433979836.236,15.409348
1433979836.252,18.454021
1433979836.267,21.515417
1433979836.283,24.586393
1433979836.298,27.628477
1433979836.314,30.624027
1433979836.33,33.66867
1433979836.345,36.92598
1433979836.361,40.58984
1433979836.377,44.693996
1433979836.392,48.95598
1433979836.408,52.737514
1433979836.423,55.206383
1433979836.439,55.547745
1433979836.455,53.306973
1433979836.47,48.49028
1433979836.486,41.57483
1433979836.502,33.327805
1433979836.517,24.582584
1433979836.533,16.026297
1433979836.548,8.161252
1433979836.564,1.2939358
1433979836.58,-4.385658
1433979836.595,-8.774664
1433979836.611,-11.889725
1433979836.627,-13.890227
1433979836.642,-15.052117
1433979836.658,-15.755608
1433979836.674,-16.34603
1433979836.689,-17.052193
1433979836.705,-17.929552
1433979836.72,-18.886839
1433979836.736,-19.739737
1433979836.752,-20.312563
1433979836.767,-20.489738
1433979836.783,-20.251787
1433979836.798,-19.634693
1433979836.814,-18.740473
1433979836.83,-17.625908
1433979836.845,-16.320335
1433979836.861,-14.77932
1433979836.877,-12.93911
1433979836.892,-10.732037
1433979836.908,-8.158024
1433979836.924,-5.3033257
1433979836.939,-2.3566322
1433979836.955,0.46673584
1433979836.97,3.0124702
1433979836.986,5.3037987
1433979837.002,7.546768
1433979837.017,10.073204
1433979837.033,13.203892
1433979837.049,17.095284
1433979837.064,21.644974
1433979837.08,26.472038
1433979837.095,30.968323
1433979837.111,34.456253
1433979837.127,36.29554
1433979837.142,36.05989
1433979837.158,33.565758
1433979837.174,28.961067
1433979837.189,22.676224
1433979837.205,15.362762
1433979837.22,7.770958
1433979837.236,0.6289139
1433979837.252,-5.5537567
1433979837.267,-10.482727
1433979837.283,-14.141769
1433979837.299,-16.632019
1433979837.314,-18.130424
1433979837.33,-18.809448
1433979837.345,-18.836143
1433979837.361,-18.430153
1433979837.377,-17.877968
1433979837.392,-17.485611
1433979837.408,-17.483444
1433979837.424,-17.917358
1433979837.439,-18.6092
1433979837.455,-19.230942
1433979837.47,-19.451172
1433979837.486,-19.077469
1433979837.502,-18.124725
1433979837.517,-16.737656
1433979837.533,-15.094284
1433979837.549,-13.257095
1433979837.564,-11.191696
1433979837.58,-8.803772
1433979837.595,-6.0763245
1433979837.611,-3.050354
1433979837.627,0.1471405
1433979837.642,3.4334564
1433979837.658,6.769989
1433979837.674,10.222076
1433979837.689,13.903366
1433979837.705,17.904358
1433979837.72,22.213287
1433979837.736,26.658096
1433979837.752,30.828064
1433979837.767,34.124985
1433979837.783,35.812576
1433979837.799,35.232285
1433979837.814,31.97911
1433979837.83,26.066528
1433979837.845,17.978409
1433979837.861,8.57373
1433979837.877,-1.1243286
1433979837.892,-10.1528015
1433979837.908,-17.789017
1433979837.924,-23.65274
1433979837.939,-27.704605
1433979837.955,-30.124786
1433979837.97,-31.232986
1433979837.986,-31.327759
1433979838.002,-30.694687
1433979838.017,-29.5363
1433979838.033,-28.09227
1433979838.049,-26.613998
1433979838.064,-25.35556
1433979838.08,-24.50676
1433979838.095,-24.091797
1433979838.111,-23.941986
1433979838.127,-23.755432
1433979838.142,-23.184387
1433979838.158,-21.991867
1433979838.174,-20.113358
1433979838.189,-17.644653
1433979838.205,-14.753159
1433979838.22,-11.62291
1433979838.236,-8.396988
1433979838.252,-5.1450806
1433979838.267,-1.8389282
1433979838.283,1.5924988
1433979838.299,5.3645935
1433979838.314,9.673721
1433979838.33,14.713928
1433979838.345,20.510864
1433979838.361,26.846237
1433979838.377,33.203476
1433979838.392,38.796036
1433979838.408,42.694565
1433979838.424,44.05966
1433979838.439,42.347153
1433979838.455,37.469162
1433979838.47,29.85762
1433979838.486,20.376099
1433979838.502,10.091202
1433979838.517,0.0284729
1433979838.533,-9.039459
1433979838.549,-16.680054
1433979838.564,-22.784698
1433979838.58,-27.387207
1433979838.595,-30.602936
1433979838.611,-32.540344
1433979838.627,-33.37796
1433979838.642,-33.35309
1433979838.658,-32.79706
1433979838.674,-32.035065
1433979838.689,-31.304077
1433979838.705,-30.67743
1433979838.72,-30.090302
1433979838.736,-29.430695
1433979838.752,-28.596375
1433979838.767,-27.57779
1433979838.783,-26.385498
1433979838.799,-25.002594
1433979838.814,-23.329163
1433979838.83,-21.206635
1433979838.845,-18.487213
1433979838.861,-15.144257
1433979838.877,-11.339844
1433979838.892,-7.3453064
1433979838.908,-3.4554749
1433979838.924,0.20550537
1433979838.939,3.7225952
1433979838.955,7.4172363
1433979838.97,11.6744995
1433979838.986,16.809357
1433979839.002,22.88507
1433979839.017,29.614471
1433979839.033,36.309814
1433979839.049,41.96039
1433979839.064,45.44336
1433979839.08,45.765015
1433979839.095,42.39215
1433979839.111,35.435974
1433979839.127,25.688171
1433979839.142,14.381165
1433979839.158,2.8459473
1433979839.174,-7.856476
1433979839.189,-17.158295
1433979839.205,-24.920593
1433979839.22,-31.262726
1433979839.236,-36.299255
1433979839.252,-40.054474
1433979839.267,-42.494873
1433979839.283,-43.643036
1433979839.299,-43.696503
1433979839.314,-43.033966
1433979839.33,-42.10193
1433979839.346,-41.279755
1433979839.361,-40.71408
1433979839.377,-40.318176
1433979839.392,-39.84427
1433979839.408,-39.03946
1433979839.424,-37.765594
1433979839.439,-36.079468
1433979839.455,-34.151947
1433979839.47,-32.177032
1433979839.486,-30.177979
1433979839.502,-28.007324
1433979839.517,-25.37387
1433979839.533,-22.041595
1433979839.549,-17.934082
1433979839.564,-13.194092
1433979839.58,-8.139893
1433979839.596,-3.1244812
1433979839.611,1.6088257
1433979839.627,5.9720154
1433979839.642,10.063232
1433979839.658,14.097107
1433979839.674,18.397675
1433979839.689,23.268524
1433979839.705,28.92894
1433979839.721,35.383118
1433979839.736,42.289078
1433979839.752,48.910873
1433979839.767,54.1902
1433979839.783,56.988937
1433979839.799,56.381073
1433979839.814,51.92772
1433979839.83,43.889053
1433979839.846,33.117294
1433979839.861,20.871994
1433979839.877,8.441925
1433979839.892,-3.1238098
1433979839.908,-13.233398
1433979839.924,-21.707321
1433979839.939,-28.650604
1433979839.955,-34.1998
1433979839.971,-38.424103
1433979839.986,-41.325928
1433979840.002,-42.946
1433979840.017,-43.446777
1433979840.033,-43.144394
1433979840.049,-42.422455
1433979840.064,-41.593323
1433979840.08,-40.82579
1433979840.096,-40.1503
1433979840.111,-39.522842
1433979840.127,-38.920654
1433979840.142,-38.31299
1433979840.158,-37.645264
1433979840.174,-36.797363
1433979840.189,-35.57498
1433979840.205,-33.80565
1433979840.221,-31.421722
1433979840.236,-28.492264
1433979840.252,-25.186325
1433979840.267,-21.716537
1433979840.283,-18.254242
1433979840.299,-14.843857
1433979840.314,-11.447327
1433979840.33,-7.935425
1433979840.346,-4.1961517
1433979840.361,-0.1379242
1433979840.377,4.2055206
1433979840.392,8.683334
1433979840.408,13.06131
1433979840.424,17.116913
1433979840.439,20.743149
1433979840.455,24.017426
1433979840.471,27.216904
1433979840.486,30.759583
1433979840.502,35.039886
1433979840.517,40.340088
1433979840.533,46.58937
1433979840.549,53.350945
1433979840.564,59.676537
1433979840.58,64.3179
1433979840.596,65.98663
1433979840.611,63.777603
1433979840.627,57.481567
1433979840.642,47.738045
1433979840.658,35.82389
1433979840.674,23.214272
1433979840.689,11.157394
1433979840.705,0.40840912
1433979840.721,-8.765366
1433979840.736,-16.412697
1433979840.752,-22.622086
1433979840.767,-27.404198
1433979840.783,-30.718147
1433979840.799,-32.6046
1433979840.814,-33.285973
1433979840.83,-33.1588
1433979840.846,-32.677467
1433979840.861,-32.196037
1433979840.877,-31.881336
1433979840.892,-31.675404
1433979840.908,-31.405918
1433979840.924,-30.892944
1433979840.939,-30.059391
1433979840.955,-28.900581
1433979840.971,-27.501942
1433979840.986,-25.91454
1433979841.002,-24.141476
1433979841.017,-22.14011
1433979841.033,-19.879826
1433979841.049,-17.336483
1433979841.064,-14.575214
1433979841.08,-11.657219
1433979841.096,-8.63574
1433979841.111,-5.4890633
1433979841.127,-2.1704044
1433979841.142,1.3729897
1433979841.158,5.147627
1433979841.174,9.08246
1433979841.189,13.051994
1433979841.205,16.919533
1433979841.221,20.575235
1433979841.236,23.999905
1433979841.252,27.26593
1433979841.267,30.521698
1433979841.283,33.99501
1433979841.299,37.963257
1433979841.314,42.63499
1433979841.33,48.070175
1433979841.346,53.985382
1433979841.361,59.685867
1433979841.377,64.11568
1433979841.392,66.08573
1433979841.408,64.64969
1433979841.424,59.472332
1433979841.439,50.980587
1433979841.455,40.289112
1433979841.471,28.82151
1433979841.486,17.870335
1433979841.502,8.268993
1433979841.517,0.30656052
1433979841.533,-6.145775
1433979841.549,-11.338108
1433979841.564,-15.451035
1433979841.58,-18.49226
1433979841.596,-20.43789
1433979841.611,-21.349518
1433979841.627,-21.480923
1433979841.642,-21.247814
1433979841.658,-21.071106
1433979841.674,-21.213425
1433979841.689,-21.729729
1433979841.705,-22.45066
1433979841.721,-23.14225
1433979841.736,-23.60608
1433979841.752,-23.75737
1433979841.767,-23.602013
1433979841.783,-23.145798
1433979841.799,-22.340668
1433979841.814,-21.081871
1433979841.83,-19.272156
1433979841.846,-16.925354
1433979841.861,-14.155579
1433979841.877,-11.198402
1433979841.892,-8.252899
1433979841.908,-5.444191
1433979841.924,-2.7202911
1433979841.939,0.066093445
1433979841.955,3.09095
1433979841.971,6.4418488
1433979841.986,10.098305
1433979842.002,13.902832
1433979842.017,17.689316
1433979842.033,21.320656
1433979842.049,24.809837
1433979842.064,28.27494
1433979842.08,31.952003
1433979842.096,36.028824
1433979842.111,40.578384
1433979842.127,45.45861
1433979842.142,50.23336
1433979842.158,54.184532
1433979842.174,56.462837
1433979842.189,56.2629
1433979842.205,53.08712
1433979842.221,46.96415
1433979842.236,38.476547
1433979842.252,28.644173
1433979842.268,18.625626
1433979842.283,9.37162
1433979842.299,1.4507599
1433979842.314,-5.0253143
1433979842.33,-10.205467
1433979842.346,-14.319664
1433979842.361,-17.480736
1433979842.377,-19.730652
1433979842.393,-21.079178
1433979842.408,-21.655884
1433979842.424,-21.702026
1433979842.439,-21.550491
1433979842.455,-21.4776
1433979842.471,-21.590302
1433979842.486,-21.830856
1433979842.502,-22.025055
1433979842.518,-21.989197
1433979842.533,-21.610352
1433979842.549,-20.875
1433979842.564,-19.862244
1433979842.58,-18.636978
1433979842.596,-17.23436
1433979842.611,-15.628479
1433979842.627,-13.755157
1433979842.643,-11.560303
1433979842.658,-9.029907
1433979842.674,-6.1924744
1433979842.689,-3.1030579
1433979842.705,0.15022278
1433979842.721,3.468628
1433979842.736,6.7463226
1433979842.752,9.903809
1433979842.768,12.938278
1433979842.783,15.914917
1433979842.799,18.973007
1433979842.814,22.251389
1433979842.83,25.860016
1433979842.846,29.830841
1433979842.861,34.146667
1433979842.877,38.70369
1433979842.893,43.25058
1433979842.908,47.301865
1433979842.924,50.176132
1433979842.939,51.082916
1433979842.955,49.393204
1433979842.971,44.895477
1433979842.986,37.94754
1433979843.002,29.393616
1433979843.018,20.276703
1433979843.033,11.541916
1433979843.049,3.7923737
1433979843.064,-2.7085419
1433979843.08,-7.937195
1433979843.096,-11.925629
1433979843.111,-14.682617
1433979843.127,-16.208221
1433979843.143,-16.630707
1433979843.158,-16.24884
1433979843.174,-15.503021
1433979843.189,-14.873047
1433979843.205,-14.696915
1433979843.221,-15.076126
1433979843.236,-15.8701935
1433979843.252,-16.791092
1433979843.268,-17.518677
1433979843.283,-17.84137
1433979843.299,-17.710571
1433979843.314,-17.207458
1433979843.33,-16.478546
1433979843.346,-15.649826
1433979843.361,-14.734711
1433979843.377,-13.644089
1433979843.393,-12.223846
1433979843.408,-10.309555
1433979843.424,-7.8192444
1433979843.439,-4.8090973
1433979843.455,-1.4586563
1433979843.471,1.9263153
1433979843.486,5.0961
1433979843.502,7.8963013
1433979843.518,10.403061
1433979843.533,12.857056
1433979843.549,15.596161
1433979843.564,18.916817
1433979843.58,22.96212
1433979843.596,27.66822
1433979843.611,32.71933
1433979843.627,37.56562
1433979843.643,41.476875
1433979843.658,43.64686
1433979843.674,43.40477
1433979843.689,40.393036
1433979843.705,34.755386
1433979843.721,27.127136
1433979843.736,18.535942
1433979843.752,10.031357
1433979843.768,2.4595032
1433979843.783,-3.7687988
1433979843.799,-8.613762
1433979843.814,-12.25486
1433979843.83,-14.885635
1433979843.846,-16.613884
1433979843.861,-17.50196
1433979843.877,-17.67041
1433979843.893,-17.366447
1433979843.908,-16.953362
1433979843.924,-16.749168
1433979843.939,-16.922432
1433979843.955,-17.38134
1433979843.971,-17.865372
1433979843.986,-18.06363
1433979844.002,-17.797935
1433979844.018,-17.075775
1433979844.033,-16.04081
1433979844.049,-14.852768
1433979844.064,-13.554199
1433979844.08,-12.04586
1433979844.096,-10.190384
1433979844.111,-7.905281
1433979844.127,-5.218292
1433979844.143,-2.2848587
1433979844.158,0.69275665
1433979844.174,3.5837173
1433979844.189,6.365608
1433979844.205,9.130646
1433979844.221,12.040878
1433979844.236,15.29715
1433979844.252,19.05346
1433979844.268,23.401665
1433979844.283,28.25193
1433979844.299,33.28482
1433979844.314,37.904472
1433979844.33,41.296745
1433979844.346,42.59274
1433979844.361,41.157776
1433979844.377,36.80136
1433979844.393,29.884365
1433979844.408,21.22855
1433979844.424,11.850624
1433979844.439,2.71875
1433979844.455,-5.463314
1433979844.471,-12.302742
1433979844.486,-17.647545
1433979844.502,-21.465511
1433979844.518,-23.801098
1433979844.533,-24.752766
1433979844.549,-24.5635
1433979844.564,-23.632988
1433979844.58,-22.452679
1433979844.596,-21.454426
1433979844.611,-20.89761
1433979844.627,-20.803349
1433979844.643,-20.993462
1433979844.658,-21.234562
1433979844.674,-21.322954
1433979844.689,-21.17368
1433979844.705,-20.751036
1433979844.721,-20.023386
1433979844.736,-18.894257
1433979844.752,-17.220137
1433979844.768,-14.867243
1433979844.783,-11.817425
1433979844.799,-8.204065
1433979844.814,-4.2814426
1433979844.83,-0.33846283
1433979844.846,3.414875
1433979844.861,6.939391
1433979844.877,10.369037
1433979844.893,13.941445
1433979844.908,17.896507
1433979844.924,22.34111
1433979844.94,27.183197
1433979844.955,32.080624
1433979844.971,36.467564
1433979844.986,39.640682
1433979845.002,40.865467
1433979845.018,39.57312
1433979845.033,35.48845
1433979845.049,28.800417
1433979845.065,20.124065
1433979845.08,10.441312
1433979845.096,0.8114538
1433979845.111,-7.8601656
1433979845.127,-15.036649
1433979845.143,-20.562332
1433979845.158,-24.588661
1433979845.174,-27.373047
1433979845.19,-29.140987
1433979845.205,-30.0452
1433979845.221,-30.213085
1433979845.236,-29.811077
1433979845.252,-29.10697
1433979845.268,-28.3722
1433979845.283,-27.812452
1433979845.299,-27.463251
1433979845.315,-27.222458
1433979845.33,-26.901144
1433979845.346,-26.356525
1433979845.361,-25.514666
1433979845.377,-24.361982
1433979845.393,-22.886103
1433979845.408,-21.023249
1433979845.424,-18.660322
1433979845.44,-15.749992
1433979845.455,-12.322445
1433979845.471,-8.529667
1433979845.486,-4.5853233
1433979845.502,-0.6975975
1433979845.518,3.0310364
1433979845.533,6.6426544
1433979845.549,10.3683815
1433979845.565,14.524086
1433979845.58,19.461136
1433979845.596,25.340511
1433979845.611,32.02612
1433979845.627,38.907795
1433979845.643,44.965477
1433979845.658,48.978924
1433979845.674,49.896435
1433979845.69,47.17652
1433979845.705,41.001633
1433979845.721,32.200825
1433979845.736,21.947166
1433979845.752,11.387386
1433979845.768,1.3968315
1433979845.783,-7.5723724
1433979845.799,-15.335472
1433979845.815,-21.85733
1433979845.83,-27.07645
1433979845.846,-30.944412
1433979845.861,-33.475517
1433979845.877,-34.8462
1433979845.893,-35.41434
1433979845.908,-35.592026
1433979845.924,-35.706894
1433979845.94,-35.85252
1433979845.955,-35.91813
1433979845.971,-35.67486
1433979845.986,-34.93393
1433979846.002,-33.657833
1433979846.018,-31.970512
1433979846.033,-30.083336
1433979846.049,-28.178524
1433979846.065,-26.30812
1433979846.08,-24.348896
1433979846.096,-22.095142
1433979846.111,-19.283745
1433979846.127,-15.759197
1433979846.143,-11.493286
1433979846.158,-6.6539
1433979846.174,-1.5282326
1433979846.19,3.5033836
1433979846.205,8.128342
1433979846.221,12.171955
1433979846.236,15.675358
1433979846.252,18.910553
1433979846.268,22.315807
1433979846.283,26.36213
1433979846.299,31.383213
1433979846.315,37.43484
1433979846.33,44.153217
1433979846.346,50.718765
1433979846.361,56.013313
1433979846.377,58.836704
1433979846.393,58.277035
1433979846.408,53.93911
1433979846.424,46.158348
1433979846.44,35.867157
1433979846.455,24.328232
1433979846.471,12.767075
1433979846.486,2.098236
1433979846.502,-7.234764
1433979846.518,-15.152157
1433979846.533,-21.770107
1433979846.549,-27.220596
1433979846.565,-31.572002
1433979846.58,-34.839375
1433979846.596,-37.10389
1433979846.611,-38.51706
1433979846.627,-39.311737
1433979846.643,-39.69549
1433979846.658,-39.826195
1433979846.674,-39.75586
1433979846.69,-39.49488
1433979846.705,-39.016026
1433979846.721,-38.317623
1433979846.736,-37.408875
1433979846.752,-36.261616
1433979846.768,-34.81717
1433979846.783,-33.009068
1433979846.799,-30.78859
1433979846.815,-28.165302
1433979846.83,-25.195148
1433979846.846,-21.9697
1433979846.861,-18.528393
1433979846.877,-14.874458
1433979846.893,-10.956291
1433979846.908,-6.779339
1433979846.924,-2.3931274
1433979846.94,2.023613
1433979846.955,6.277981
1433979846.971,10.214146
1433979846.986,13.826839
1433979847.002,17.273926
1433979847.018,20.821991
1433979847.033,24.742134
1433979847.049,29.246666
1433979847.065,34.432198
1433979847.08,40.253353
1433979847.096,46.467545
1433979847.111,52.56368
1433979847.127,57.745453
1433979847.143,61.026703
1433979847.158,61.448963
1433979847.174,58.411728
1433979847.19,51.892593
1433979847.205,42.55455
1433979847.221,31.478539
1433979847.236,19.888355
1433979847.252,8.776794
1433979847.268,-1.2539978
1433979847.283,-9.9661255
1433979847.299,-17.354706
1433979847.315,-23.484985
1433979847.33,-28.403393
1433979847.346,-32.150337
1433979847.361,-34.79933
1433979847.377,-36.48661
1433979847.393,-37.429516
1433979847.408,-37.889927
1433979847.424,-38.090973
1433979847.44,-38.187683
1433979847.455,-38.20865
1433979847.471,-38.091003
1433979847.486,-37.700478
1433979847.502,-36.94931
1433979847.518,-35.80544
1433979847.533,-34.321674
1433979847.549,-32.585205
1433979847.565,-30.631777
1433979847.58,-28.455061
1433979847.596,-26.018847
1433979847.612,-23.323757
1433979847.627,-20.407038
1433979847.643,-17.351198
1433979847.658,-14.202274
1433979847.674,-10.934724
1433979847.69,-7.4753666
1433979847.705,-3.7377138
1433979847.721,0.23400307
1433979847.737,4.332103
1433979847.752,8.364735
1433979847.768,12.215194
1433979847.783,15.877471
1433979847.799,19.488453
1433979847.815,23.238651
1433979847.83,27.321278
1433979847.846,31.870771
1433979847.862,36.975754
1433979847.877,42.617645
1433979847.893,48.563503
1433979847.908,54.271618
1433979847.924,58.820545
1433979847.94,61.083862
1433979847.955,60.094284
1433979847.971,55.382813
1433979847.987,47.289185
1433979848.002,36.876087
1433979848.018,25.597742
1433979848.033,14.798313
1433979848.049,5.3288946
1433979848.065,-2.590001
1433979848.08,-9.135414
1433979848.096,-14.624841
1433979848.112,-19.227057
1433979848.127,-22.941486
1433979848.143,-25.686283
1433979848.158,-27.46726
1433979848.174,-28.464615
1433979848.19,-28.986105
1433979848.205,-29.303185
1433979848.221,-29.59289
1433979848.237,-29.83505
1433979848.252,-29.92643
1433979848.268,-29.725607
1433979848.283,-29.173098
1433979848.299,-28.310257
1433979848.315,-27.255905
1433979848.33,-26.095928
1433979848.346,-24.887205
1433979848.362,-23.554483
1433979848.377,-21.99766
1433979848.393,-20.098656
1433979848.408,-17.84747
1433979848.424,-15.314074
1433979848.44,-12.653997
1433979848.455,-9.964813
1433979848.471,-7.249481
1433979848.487,-4.4102707
1433979848.502,-1.2748642
1433979848.518,2.2558708
1433979848.533,6.1479607
1433979848.549,10.244019
1433979848.565,14.31694
1433979848.58,18.190044
1433979848.596,21.788322
1433979848.612,25.198044
1433979848.627,28.618656
1433979848.643,32.29777
1433979848.658,36.459995
1433979848.674,41.169186
1433979848.69,46.211082
1433979848.705,51.001133
1433979848.721,54.63803
1433979848.737,56.107132
1433979848.752,54.59687
1433979848.768,49.839283
1433979848.783,42.250904
1433979848.799,32.829124
1433979848.815,22.783886
1433979848.83,13.199982
1433979848.846,4.7066956
1433979848.862,-2.5086937
1433979848.877,-8.568825
1433979848.893,-13.620743
1433979848.908,-17.716099
1433979848.924,-20.794296
1433979848.94,-22.813705
1433979848.955,-23.894798
1433979848.971,-24.328365
1433979848.987,-24.513226
1433979849.002,-24.78294
1433979849.018,-25.264591
1433979849.033,-25.861427
1433979849.049,-26.325916
1433979849.065,-26.412426
1433979849.08,-25.967842
1433979849.096,-25.034988
1433979849.112,-23.776909
1433979849.127,-22.426735
1433979849.143,-21.142223
1433979849.158,-19.967892
1433979849.174,-18.807865
1433979849.19,-17.466675
1433979849.205,-15.7230835
1433979849.221,-13.428551
1433979849.237,-10.544617
1433979849.252,-7.1774673
1433979849.268,-3.5492249
1433979849.283,0.045604706
1433979849.299,3.3808594
1433979849.315,6.287979
1433979849.33,8.815834
1433979849.346,11.148773
1433979849.362,13.604576
1433979849.377,16.522644
1433979849.393,20.179054
1433979849.408,24.649208
1433979849.424,29.717728
1433979849.44,34.83194
1433979849.455,39.15648
1433979849.471,41.739098
1433979849.487,41.766167
1433979849.502,38.796967
1433979849.518,32.982468
1433979849.533,25.030846
1433979849.549,16.008125
1433979849.565,6.9892044
1433979849.58,-1.2037125
1433979849.596,-8.185776
1433979849.612,-13.906975
1433979849.627,-18.50032
1433979849.643,-22.056389
1433979849.658,-24.557083
1433979849.674,-25.949448
1433979849.69,-26.267288
1433979849.705,-25.738045
1433979849.721,-24.779137
1433979849.737,-23.878197
1433979849.752,-23.41896
1433979849.768,-23.52546
1433979849.783,-24.036812
1433979849.799,-24.589188
1433979849.815,-24.790558
1433979849.83,-24.341812
1433979849.846,-23.18409
1433979849.862,-21.441666
1433979849.877,-19.391396
1433979849.893,-17.265884
1433979849.908,-15.195404
1433979849.924,-13.116821
1433979849.94,-10.887047
1433979849.955,-8.328392
1433979849.971,-5.370476
1433979849.987,-2.0362015
1433979850.002,1.5168762
1433979850.018,5.1151276
1433979850.033,8.608498
1433979850.049,11.878517
1433979850.065,14.8930435
1433979850.08,17.714516
1433979850.096,20.473923
1433979850.112,23.387466
1433979850.127,26.662537
1433979850.143,30.467941
1433979850.158,34.82453
1433979850.174,39.58464
1433979850.19,44.34626
1433979850.205,48.467644
1433979850.221,51.125076
1433979850.237,51.50437
1433979850.252,49.046623
1433979850.268,43.672386
1433979850.284,35.902374
1433979850.299,26.701958
1433979850.315,17.185326
1433979850.33,8.26696
1433979850.346,0.45929718
1433979850.362,-6.12957
1433979850.377,-11.573349
1433979850.393,-15.949486
1433979850.408,-19.22596
1433979850.424,-21.324142
1433979850.44,-22.286583
1433979850.455,-22.361336
1433979850.471,-21.971733
1433979850.487,-21.550438
1433979850.502,-21.419464
1433979850.518,-21.614494
1433979850.534,-21.95295
1433979850.549,-22.136673
1433979850.565,-21.88153
1433979850.58,-21.049416
1433979850.596,-19.713959
1433979850.612,-18.127426
1433979850.627,-16.585289
1433979850.643,-15.312622
1433979850.659,-14.313919
1433979850.674,-13.340187
1433979850.69,-12.016129
1433979850.705,-10.014893
1433979850.721,-7.243805
1433979850.737,-3.8185883
1433979850.752,-0.012962341
1433979850.768,3.908928
1433979850.784,7.74868
1433979850.799,11.421043
1433979850.815,14.889648
1433979850.83,18.183968
1433979850.846,21.397179
1433979850.862,24.749306
1433979850.877,28.564003
1433979850.893,33.05963
1433979850.909,38.173515
1433979850.924,43.377426
1433979850.94,47.72728
1433979850.955,50.109734
1433979850.971,49.63378
1433979850.987,45.95556
1433979851.002,39.37346
1433979851.018,30.740997
1433979851.034,21.135193
1433979851.049,11.583275
1433979851.065,2.8278885
1433979851.08,-4.715164
1433979851.096,-10.920433
1433979851.112,-15.806831
1433979851.127,-19.398537
1433979851.143,-21.720177
1433979851.159,-22.824219
1433979851.174,-22.881615
1433979851.19,-22.249046
1433979851.205,-21.392342
1433979851.221,-20.82
1433979851.237,-20.831444
1433979851.252,-21.440933
1433979851.268,-22.310051
1433979851.284,-22.94625
1433979851.299,-22.902702
1433979851.315,-22.008057
1433979851.33,-20.405128
1433979851.346,-18.492004
1433979851.362,-16.642876
1433979851.377,-15.003822
1433979851.393,-13.426094
1433979851.409,-11.551788
1433979851.424,-9.023323
1433979851.44,-5.7021255
1433979851.455,-1.7599945
1433979851.471,2.4135437
1433979851.487,6.3764343
1433979851.502,9.845169
1433979851.518,12.819969
1433979851.534,15.5054245
1433979851.549,18.293793
1433979851.565,21.548218
1433979851.58,25.54255
1433979851.596,30.310997
1433979851.612,35.632317
1433979851.627,40.949974
1433979851.643,45.471992
1433979851.659,48.30188
1433979851.674,48.661453
1433979851.69,46.1268
1433979851.705,40.809464
1433979851.721,33.30625
1433979851.737,24.561493
1433979851.752,15.597107
1433979851.768,7.271248
1433979851.784,0.09921265
1433979851.799,-5.7050247
1433979851.815,-10.192139
1433979851.83,-13.462288
1433979851.846,-15.648529
1433979851.862,-16.863838
1433979851.877,-17.28421
1433979851.893,-17.165184
1433979851.909,-16.858818
1433979851.924,-16.684746
1433979851.94,-16.830574
1433979851.955,-17.282257
1433979851.971,-17.820091
1433979851.987,-18.174026
1433979852.002,-18.145592
1433979852.018,-17.714699
1433979852.034,-17.001495
1433979852.049,-16.168098
1433979852.065,-15.257492
1433979852.08,-14.162498
1433979852.096,-12.659828
1433979852.112,-10.543732
1433979852.127,-7.779358
1433979852.143,-4.554367
1433979852.159,-1.1889534
1433979852.174,2.0066376
1433979852.19,4.8741646
1433979852.205,7.4683914
1433979852.221,10.035858
1433979852.237,12.908005
1433979852.252,16.389133
1433979852.268,20.678478
1433979852.284,25.765793
1433979852.299,31.352234
1433979852.315,36.830845
1433979852.33,41.335426
1433979852.346,43.914207
1433979852.362,43.778114
1433979852.377,40.539753
1433979852.393,34.35597
1433979852.409,25.890064
1433979852.424,16.138248
1433979852.44,6.149578
1433979852.455,-3.1701202
1433979852.471,-11.216957
1433979852.487,-17.691628
1433979852.502,-22.537542
1433979852.518,-25.835556
1433979852.534,-27.741236
1433979852.549,-28.456264
1433979852.565,-28.263527
1433979852.58,-27.532295
1433979852.596,-26.685017
1433979852.612,-26.088476
1433979852.627,-25.920574
1433979852.643,-26.1074
1433979852.659,-26.36148
1433979852.674,-26.337576
1433979852.69,-25.812836
1433979852.705,-24.794453
1433979852.721,-23.436632
1433979852.737,-21.935112
1433979852.752,-20.363634
1433979852.768,-18.637497
1433979852.784,-16.562847
1433979852.799,-14.001171
1433979852.815,-10.949228
1433979852.83,-7.5022216
1433979852.846,-3.8204644
1433979852.862,-0.02775693
1433979852.877,3.8360043
1433979852.893,7.8136177
1433979852.909,11.976996
1433979852.924,16.458221
1433979852.94,21.352474
1433979852.955,26.65533
1433979852.971,32.090546
1433979852.987,37.093098
1433979853.002,40.758865
1433979853.018,42.129875
1433979853.034,40.496918
1433979853.049,35.67156
1433979853.065,28.121609
1433979853.08,18.82014
1433979853.096,8.896895
1433979853.112,-0.59540653
1433979853.127,-8.983394
1433979853.143,-15.92396
1433979853.159,-21.377182
1433979853.174,-25.422459
1433979853.19,-28.223772
1433979853.206,-29.944843
1433979853.221,-30.79112
1433979853.237,-30.982422
1433979853.252,-30.740202
1433979853.268,-30.27066
1433979853.284,-29.702248
1433979853.299,-29.066345
1433979853.315,-28.34091
1433979853.331,-27.455187
1433979853.346,-26.37127
1433979853.362,-25.095839
1433979853.377,-23.696283
1433979853.393,-22.19976
1433979853.409,-20.579132
1433979853.424,-18.68824
1433979853.44,-16.330532
1433979853.456,-13.356621
1433979853.471,-9.778595
1433979853.487,-5.7829494
1433979853.502,-1.6495724
1433979853.518,2.375904
1433979853.534,6.198162
1433979853.549,9.898724
1433979853.565,13.6844635
1433979853.581,17.821346
1433979853.596,22.52192
1433979853.612,27.883326
1433979853.627,33.769505
1433979853.643,39.735596
1433979853.659,44.99617
1433979853.674,48.56849
1433979853.69,49.482834
1433979853.706,47.13404
1433979853.721,41.471382
1433979853.737,33.082558
1433979853.752,23.007294
1433979853.768,12.419966
1433979853.784,2.3419952
1433979853.799,-6.5492973
1433979853.815,-13.907412
1433979853.831,-19.624968
1433979853.846,-23.732294
1433979853.862,-26.343782
1433979853.877,-27.666552
1433979853.893,-28.021307
1433979853.909,-27.848389
1433979853.924,-27.571487
1433979853.94,-27.538204
1433979853.956,-27.867477
1433979853.971,-28.471046
1433979853.987,-29.059345
1433979854.002,-29.351711
1433979854.018,-29.154837
1433979854.034,-28.481169
1433979854.049,-27.478622
1433979854.065,-26.33123
1433979854.081,-25.106422
1433979854.096,-23.668602
1433979854.112,-21.733517
1433979854.127,-19.02174
1433979854.143,-15.410061
1433979854.159,-11.028959
1433979854.174,-6.249731
1433979854.19,-1.5307693
1433979854.206,2.7583885
1433979854.221,6.4867287
1433979854.237,9.80027
1433979854.252,13.024244
1433979854.268,16.60583
1433979854.284,20.893461
1433979854.299,26.07948
1433979854.315,32.10273
1433979854.331,38.619476
1433979854.346,44.939217
1433979854.362,50.120033
1433979854.377,53.113476
1433979854.393,53.03052
1433979854.409,49.42321
1433979854.424,42.489685
1433979854.44,33.034054
1433979854.456,22.251097
1433979854.471,11.376377
1433979854.487,1.3825378
1433979854.502,-7.174717
1433979854.518,-14.101355
1433979854.534,-19.451912
1433979854.549,-23.334854
1433979854.565,-25.871378
1433979854.581,-27.19669
1433979854.596,-27.499865
1433979854.612,-27.088453
1433979854.627,-26.336433
1433979854.643,-25.596199
1433979854.659,-25.117247
1433979854.674,-24.947123
1433979854.69,-24.9441
1433979854.706,-24.808638
1433979854.721,-24.275988
1433979854.737,-23.210861
1433979854.752,-21.714268
1433979854.768,-20.025648
1433979854.784,-18.41748
1433979854.799,-16.992764
1433979854.815,-15.619736
1433979854.831,-13.9543495
1433979854.846,-11.624355
1433979854.862,-8.3953
1433979854.877,-4.3164024
1433979854.893,0.29602623
1433979854.909,4.950096
1433979854.924,9.193323
1433979854.94,12.771208
1433979854.956,15.748484
1433979854.971,18.425472
1433979854.987,21.259806
1433979855.002,24.666037
1433979855.018,28.879387
1433979855.034,33.831013
1433979855.049,39.134552
1433979855.065,44.10773
1433979855.081,47.866516
1433979855.096,49.507294
1433979855.112,48.331223
1433979855.127,44.031
1433979855.143,36.88305
1433979855.159,27.670324
1433979855.174,17.532711
1433979855.19,7.6153717
1433979855.206,-1.1885681
1433979855.221,-8.423111
1433979855.237,-14.0137005
1433979855.252,-18.13767
1433979855.268,-21.008312
1433979855.284,-22.808746
1433979855.299,-23.684149
1433979855.315,-23.830803
1433979855.331,-23.524467
1433979855.346,-23.12564
1433979855.362,-22.954006
1433979855.377,-23.162971
1433979855.393,-23.660343
1433979855.409,-24.182453
1433979855.424,-24.395264
1433979855.44,-24.105652
1433979855.456,-23.298328
1433979855.471,-22.161247
1433979855.487,-20.913181
1433979855.502,-19.681717
1433979855.518,-18.35888
1433979855.534,-16.67992
1433979855.549,-14.331146
1433979855.565,-11.153267
1433979855.581,-7.2620583
1433979855.596,-3.0348358
1433979855.612,1.0383301
1433979855.627,4.5665245
1433979855.643,7.433319
1433979855.659,9.832924
1433979855.674,12.153427
1433979855.69,14.810768
1433979855.706,18.066952
1433979855.721,21.971321
1433979855.737,26.373795
1433979855.752,30.89544
1433979855.768,35.002296
1433979855.784,37.981018
1433979855.799,39.047684
1433979855.815,37.554104
1433979855.831,33.20321
1433979855.846,26.215492
1433979855.862,17.340126
1433979855.878,7.6264267
1433979855.893,-1.8625412
1433979855.909,-10.346535
1433979855.924,-17.41019
1433979855.94,-22.959011
1433979855.956,-27.037918
1433979855.971,-29.735632
1433979855.987,-31.113503
1433979856.003,-31.339584
1433979856.018,-30.653627
1433979856.034,-29.465761
1433979856.049,-28.183542
1433979856.065,-27.144966
1433979856.081,-26.508177
1433979856.096,-26.228233
1433979856.112,-26.1025
1433979856.128,-25.890413
1433979856.143,-25.397966
1433979856.159,-24.546198
1433979856.174,-23.373386
1433979856.19,-22.013437
1433979856.206,-20.540041
1433979856.221,-18.986076
1433979856.237,-17.241247
1433979856.253,-15.113203
1433979856.268,-12.39399
1433979856.284,-8.9868965
1433979856.299,-4.9631653
1433979856.315,-0.6056328
1433979856.331,3.7085266
1433979856.346,7.6615467
1433979856.362,11.140934
1433979856.378,14.274828
1433979856.393,17.416515
1433979856.409,20.951988
1433979856.424,25.14938
1433979856.44,30.01714
1433979856.456,35.280575
1433979856.471,40.38048
1433979856.487,44.65278
1433979856.503,47.369144
1433979856.518,47.94557
1433979856.534,45.99629
1433979856.549,41.479023
1433979856.565,34.69722
1433979856.581,26.302755
1433979856.596,17.116028
1433979856.612,7.947279
1433979856.628,-0.598084
1433979856.643,-8.15558
1433979856.659,-14.594612
1433979856.674,-19.899565
1433979856.69,-24.070978
1433979856.706,-27.083824
1433979856.721,-28.951023
1433979856.737,-29.785725
1433979856.753,-29.814123
1433979856.768,-29.3676
1433979856.784,-28.761826
1433979856.799,-28.193195
1433979856.815,-27.71627
1433979856.831,-27.224213
1433979856.846,-26.562075
1433979856.862,-25.573605
1433979856.878,-24.221325
1433979856.893,-22.563915
1433979856.909,-20.743382
1433979856.924,-18.91641
1433979856.94,-17.140491
1433979856.956,-15.323224
1433979856.971,-13.246207
1433979856.987,-10.663369
1433979857.003,-7.4230614
1433979857.018,-3.5660229
1433979857.034,0.6119385
1433979857.049,4.7370377
1433979857.065,8.438648
1433979857.081,11.581858
1433979857.096,14.256611
1433979857.112,16.805704
1433979857.128,19.64633
1433979857.143,23.156572
1433979857.159,27.523052
1433979857.174,32.652584
1433979857.19,38.16471
1433979857.206,43.3954
1433979857.221,47.481194
1433979857.237,49.53405
1433979857.253,48.840416
1433979857.268,45.104424
1433979857.284,38.569138
1433979857.299,30.017168
1433979857.315,20.537643
1433979857.331,11.214685
1433979857.346,2.8143444
1433979857.362,-4.31287
1433979857.378,-10.186684
1433979857.393,-14.949917
1433979857.409,-18.695492
1433979857.424,-21.400848
1433979857.44,-23.04581
1433979857.456,-23.725792
1433979857.471,-23.73819
1433979857.487,-23.50159
1433979857.503,-23.378265
1433979857.518,-23.517292
1433979857.534,-23.825397
1433979857.549,-24.042492
1433979857.565,-23.910233
1433979857.581,-23.315922
1433979857.596,-22.284279
1433979857.612,-20.957687
1433979857.628,-19.481247
1433979857.643,-17.96576
1433979857.659,-16.416943
1433979857.674,-14.777275
1433979857.69,-12.928574
1433979857.706,-10.716869
1433979857.721,-8.024662
1433979857.737,-4.8097
1433979857.753,-1.1985207
1433979857.768,2.5674553
1433979857.784,6.1731186
1433979857.799,9.424305
1433979857.815,12.302242
1433979857.831,14.989365
1433979857.846,17.772663
1433979857.862,20.895168
1433979857.878,24.50777
1433979857.893,28.611652
1433979857.909,33.15013
1433979857.924,37.98968
1433979857.94,42.87766
1433979857.956,47.33206
1433979857.971,50.619827
1433979857.987,51.887897
1433979858.003,50.397617
1433979858.018,45.867035
1433979858.034,38.61266
1433979858.049,29.543537
1433979858.065,19.821457
1433979858.081,10.51358
1433979858.096,2.293953
1433979858.112,-4.63089
1433979858.128,-10.358559
1433979858.143,-15.078308
1433979858.159,-18.848179
1433979858.174,-21.609604
1433979858.19,-23.28497
