1427148717.092,0.0
1427148717.108,0.0
1427148717.124,0.0
1427148717.139,0.0
1427148717.155,0.0
1427148717.171,0.0
1427148717.186,0.0
1427148717.202,0.0
1427148717.217,0.0
1427148717.233,0.0022315353
1427148717.249,-0.0045169927
1427148717.264,-0.011265522
1427148717.28,-0.011383951
1427148717.296,0.0011864507
1427148717.311,0.025910312
1427148717.327,0.050634187
1427148717.342,0.051362894
1427148717.358,-0.0014929791
1427148717.374,-0.1302426
1427148717.389,-0.35562757
1427148717.405,-0.6591247
1427148717.421,-1.0095103
1427148717.436,-1.3709826
1427148717.452,-1.7197359
1427148717.467,-2.0551105
1427148717.483,-2.39945
1427148717.499,-2.7866635
1427148717.514,-3.2399073
1427148717.53,-3.796012
1427148717.546,-4.418684
1427148717.561,-5.0592937
1427148717.577,-5.6644096
1427148717.592,-6.2021537
1427148717.608,-6.6808796
1427148717.624,-7.149598
1427148717.639,-7.6782336
1427148717.655,-8.310739
1427148717.671,-9.143657
1427148717.686,-10.089731
1427148717.702,-11.041313
1427148717.717,-11.8842125
1427148717.733,-12.564316
1427148717.749,-13.13563
1427148717.764,-13.760044
1427148717.78,-14.65232
1427148717.796,-15.962056
1427148717.811,-17.914442
1427148717.827,-20.317299
1427148717.842,-22.903854
1427148717.858,-25.37947
1427148717.874,-27.578028
1427148717.889,-29.57246
1427148717.905,-31.675173
1427148717.921,-34.3178
1427148717.936,-37.813618
1427148717.952,-42.541233
1427148717.967,-48.1463
1427148717.983,-54.104755
1427148717.999,-59.83309
1427148718.014,-64.972374
1427148718.03,-69.58293
1427148718.046,-74.14353
1427148718.061,-79.344986
1427148718.077,-85.70726
1427148718.092,-93.76193
1427148718.108,-102.99779
1427148718.124,-112.61757
1427148718.139,-121.73034
1427148718.155,-129.76602
1427148718.171,-136.75102
1427148718.186,-143.30344
1427148718.202,-150.74623
1427148718.217,-157.77356
1427148718.233,-166.64323
1427148718.249,-177.94798
1427148718.264,-191.79102
1427148718.28,-206.96808
1427148718.296,-220.56592
1427148718.311,-228.24644
1427148718.327,-225.36154
1427148718.342,-208.53198
1427148718.358,-176.87024
1427148718.374,-132.76222
1427148718.389,-80.04997
1427148718.405,-23.069275
1427148718.421,34.94339
1427148718.436,92.43695
1427148718.452,149.15695
1427148718.468,205.22772
1427148718.483,260.36963
1427148718.499,313.74133
1427148718.514,363.87396
1427148718.53,409.83353
1427148718.546,450.90775
1427148718.561,486.50244
1427148718.577,515.73865
1427148718.592,537.2274
1427148718.608,549.22
1427148718.624,549.9613
1427148718.639,538.367
1427148718.655,514.2055
1427148718.671,478.674
1427148718.686,433.87952
1427148718.702,382.45126
1427148718.718,327.02106
1427148718.733,269.84186
1427148718.749,212.63379
1427148718.764,156.6594
1427148718.78,102.95233
1427148718.796,52.373596
1427148718.811,5.9046936
1427148718.827,-35.580414
1427148718.843,-71.42584
1427148718.858,-101.35184
1427148718.874,-125.50113
1427148718.889,-144.3797
1427148718.905,-158.69403
1427148718.921,-169.15071
1427148718.936,-176.3711
1427148718.952,-180.75139
1427148718.968,-182.57419
1427148718.983,-182.06863
1427148718.999,-179.5066
1427148719.014,-175.23325
1427148719.03,-169.65286
1427148719.046,-163.17691
1427148719.061,-156.14568
1427148719.077,-148.80681
1427148719.093,-141.29686
1427148719.108,-133.68983
1427148719.124,-126.01962
1427148719.139,-118.33268
1427148719.155,-110.68864
1427148719.171,-103.15572
1427148719.186,-95.80455
1427148719.202,-88.684166
1427148719.218,-81.82744
1427148719.233,-75.24594
1427148719.249,-68.9526
1427148719.264,-62.949085
1427148719.28,-57.247494
1427148719.296,-51.857185
1427148719.311,-46.78282
1427148719.327,-42.02776
1427148719.343,-37.58521
1427148719.358,-33.451748
1427148719.374,-29.613855
1427148719.389,-26.070963
1427148719.405,-22.808779
1427148719.421,-19.824995
1427148719.436,-17.113392
1427148719.452,-14.666497
1427148719.468,-12.47932
1427148719.483,-10.538469
1427148719.499,-8.833674
1427148719.514,-7.3478527
1427148719.53,-6.067689
1427148719.546,-4.9734235
1427148719.561,-4.046258
1427148719.577,-3.2673752
1427148719.593,-2.6211367
1427148719.608,-2.088365
1427148719.624,-1.6507506
1427148719.639,-1.2976913
1427148719.655,-1.0147024
1427148719.671,-0.79105926
1427148719.686,-0.6133206
1427148719.702,-0.47516227
1427148719.718,-0.3684653
1427148719.733,-0.28461677
1427148719.749,-0.22397345
1427148719.764,-0.17647654
1427148719.78,-0.14055526
1427148719.796,-0.11251485
1427148719.811,-0.0926249
1427148719.827,-0.07977182
1427148719.843,-0.06783539
1427148719.858,-0.05929327
1427148719.874,-0.052183747
1427148719.889,-0.046860814
1427148719.905,-0.044131815
1427148719.921,-0.040358156
1427148719.936,-0.039164305
1427148719.952,-0.034330726
1427148719.968,-0.03515649
1427148719.983,-0.03181714
1427148719.999,-0.030750751
1427148720.014,-0.02810505
1427148720.03,-0.029290557
1427148720.046,-0.027453512
1427148720.061,-0.026081413
1427148720.077,-0.023851603
1427148720.093,-0.022989094
1427148720.108,-0.022172749
1427148720.124,-0.022157341
1427148720.139,-0.020828396
1427148720.155,-0.020277172
1427148720.171,-0.01940465
1427148720.186,-0.018795371
1427148720.202,-0.019169807
1427148720.218,-0.017195046
1427148720.233,-0.016264498
1427148720.249,-0.01676847
1427148720.264,-0.016039208
1427148720.28,-0.016356274
1427148720.296,-0.012255222
1427148720.311,-0.014531761
1427148720.327,-0.013970271
1427148720.343,-0.0151048
1427148720.358,-0.011057541
1427148720.374,-0.0131264925
1427148720.389,-0.011830375
1427148720.405,-0.011561602
1427148720.421,-0.011305705
1427148720.436,-0.011727303
1427148720.452,-0.011188552
1427148720.468,-0.00897336
1427148720.483,-0.0100701
1427148720.499,-0.010106817
1427148720.514,-0.00829272
1427148720.53,-0.012381226
1427148720.546,-0.009308472
1427148720.561,-0.009468168
1427148720.577,-0.0076998025
1427148720.593,-0.008273825
1427148720.608,-0.006166175
1427148720.624,-0.011123031
1427148720.639,-0.0061910003
1427148720.655,-0.0064854324
1427148720.671,-0.0073835254
1427148720.686,-0.006791368
1427148720.702,-0.006267488
1427148720.718,-0.0057594776
1427148720.733,-0.009421483
1427148720.749,-0.002789989
1427148720.764,-0.0063465983
1427148720.78,-0.002417013
1427148720.796,-0.0069177896
1427148720.811,-0.010156333
1427148720.827,-0.008801088
1427148720.843,-0.0101480335
1427148720.858,-0.016283661
1427148720.874,-0.019285798
1427148720.889,-0.034400046
1427148720.905,-0.05970943
1427148720.921,-0.09540449
1427148720.936,-0.13164887
1427148720.952,-0.16606161
1427148720.968,-0.17628339
1427148720.983,-0.15257132
1427148720.999,-0.10585274
1427148721.014,-0.04959765
1427148721.03,-0.002604425
1427148721.046,0.009875476
1427148721.061,-0.016515553
1427148721.077,-0.072830155
1427148721.093,-0.13812885
1427148721.108,-0.17587149
1427148721.124,-0.17495298
1427148721.139,-0.14352006
1427148721.155,-0.089225605
1427148721.171,-0.062428564
1427148721.186,-0.08487144
1427148721.202,-0.1614663
1427148721.218,-0.27706915
1427148721.233,-0.39232862
1427148721.249,-0.45721036
1427148721.264,-0.4308403
1427148721.28,-0.34276885
1427148721.296,-0.22806284
1427148721.311,-0.17157283
1427148721.327,-0.24600059
1427148721.343,-0.46195883
1427148721.358,-0.7750679
1427148721.374,-1.0723604
1427148721.39,-1.219347
1427148721.405,-1.1473393
1427148721.421,-0.8722845
1427148721.436,-0.52691257
1427148721.452,-0.31365398
1427148721.468,-0.40066683
1427148721.483,-0.83548385
1427148721.499,-1.50278
1427148721.515,-2.1411285
1427148721.53,-2.4873643
1427148721.546,-2.3453465
1427148721.561,-1.7770871
1427148721.577,-1.0270822
1427148721.593,-0.48912638
1427148721.608,-0.49498588
1427148721.624,-1.1368644
1427148721.64,-2.22471
1427148721.655,-3.3226297
1427148721.671,-3.957718
1427148721.686,-3.8225567
1427148721.702,-2.9923186
1427148721.718,-1.8544449
1427148721.733,-0.98935914
1427148721.749,-0.8106633
1427148721.765,-1.4462186
1427148721.78,-2.6025465
1427148721.796,-3.7092843
1427148721.811,-4.168657
1427148721.827,-3.4282684
1427148721.843,-1.1459365
1427148721.858,2.9277933
1427148721.874,8.694656
1427148721.89,15.440569
1427148721.905,21.670742
1427148721.921,25.443813
1427148721.936,24.984224
1427148721.952,19.660984
1427148721.968,10.563057
1427148721.983,0.1762948
1427148721.999,-8.565647
1427148722.015,-13.58555
1427148722.03,-14.462977
1427148722.046,-12.31955
1427148722.061,-9.017679
1427148722.077,-6.024789
1427148722.093,-3.9289336
1427148722.108,-2.4452195
1427148722.124,-1.0916309
1427148722.14,0.31896234
1427148722.155,1.4741714
1427148722.171,1.9228746
1427148722.186,1.4286462
1427148722.202,0.28546286
1427148722.218,-0.88742685
1427148722.233,-1.4875884
1427148722.249,-1.1494808
1427148722.265,-0.011789799
1427148722.28,1.4658122
1427148722.296,2.7101498
1427148722.311,3.3020678
1427148722.327,3.1521215
1427148722.343,2.4377098
1427148722.358,1.516376
1427148722.374,0.7769885
1427148722.39,0.50028706
1427148722.405,0.7603717
1427148722.421,1.4525008
1427148722.436,2.3628292
1427148722.452,3.2276955
1427148722.468,3.789651
1427148722.483,3.8696735
1427148722.499,3.3799176
1427148722.515,2.33286
1427148722.53,0.72933006
1427148722.546,-1.3337159
1427148722.561,-3.769403
1427148722.577,-6.3516684
1427148722.593,-8.843277
1427148722.608,-10.914839
1427148722.624,-12.3187
1427148722.64,-12.913187
1427148722.655,-12.763635
1427148722.671,-12.02833
1427148722.686,-10.997644
1427148722.702,-9.926356
1427148722.718,-9.007186
1427148722.733,-8.378376
1427148722.749,-8.1143055
1427148722.765,-8.239148
1427148722.78,-8.703705
1427148722.796,-9.377411
1427148722.811,-10.168419
1427148722.827,-10.941101
1427148722.843,-11.671265
1427148722.858,-12.363286
1427148722.874,-13.064481
1427148722.89,-13.797074
1427148722.905,-14.519072
1427148722.921,-15.199156
1427148722.936,-15.719141
1427148722.952,-15.941402
1427148722.968,-15.760658
1427148722.983,-15.182537
1427148722.999,-14.378363
1427148723.015,-13.612087
1427148723.03,-13.18084
1427148723.046,-13.230104
1427148723.061,-13.686846
1427148723.077,-14.232267
1427148723.093,-14.466553
1427148723.108,-14.055222
1427148723.124,-12.89455
1427148723.14,-11.129356
1427148723.155,-9.150803
1427148723.171,-7.3649635
1427148723.186,-6.099102
1427148723.202,-5.442314
1427148723.218,-5.2219353
1427148723.233,-5.0727463
1427148723.249,-4.5957756
1427148723.265,-3.5684357
1427148723.28,-2.0679245
1427148723.296,-0.4607544
1427148723.311,0.7418823
1427148723.327,1.1669884
1427148723.343,0.78113556
1427148723.358,-0.01568985
1427148723.374,-0.5753784
1427148723.39,-0.25405884
1427148723.405,1.1925201
1427148723.421,3.6020432
1427148723.436,6.409134
1427148723.452,8.925377
1427148723.468,10.696602
1427148723.483,11.615509
1427148723.499,11.856941
1427148723.515,11.780411
1427148723.53,11.8144
1427148723.546,12.520515
1427148723.561,14.608498
1427148723.577,18.711487
1427148723.593,24.978127
1427148723.608,32.684418
1427148723.624,40.183174
1427148723.64,45.419624
1427148723.655,46.806625
1427148723.671,43.99743
1427148723.686,38.05829
1427148723.702,30.926888
1427148723.718,24.40554
1427148723.733,19.388092
1427148723.749,15.657028
1427148723.765,12.436386
1427148723.78,9.058868
1427148723.796,5.5601196
1427148723.811,2.5371552
1427148723.827,0.70049286
1427148723.843,0.3060608
1427148723.858,1.0434189
1427148723.874,2.1828537
1427148723.89,2.9488068
1427148723.905,2.5756454
1427148723.921,0.48306274
1427148723.936,-3.713066
1427148723.952,-10.090408
1427148723.968,-18.27008
1427148723.983,-27.23999
1427148723.999,-35.673912
1427148724.015,-42.30381
1427148724.03,-46.42195
1427148724.046,-48.17827
1427148724.062,-48.440086
1427148724.077,-48.343452
1427148724.093,-48.62329
1427148724.108,-49.169754
1427148724.124,-49.008026
1427148724.14,-46.810425
1427148724.155,-41.652054
1427148724.171,-33.625626
1427148724.187,-23.936905
1427148724.202,-14.379028
1427148724.218,-6.593216
1427148724.233,-1.3316345
1427148724.249,1.6853027
1427148724.265,3.5365906
1427148724.28,5.2191315
1427148724.296,7.1819305
1427148724.312,9.11676
1427148724.327,10.425751
1427148724.343,10.770172
1427148724.358,10.444534
1427148724.374,10.274033
1427148724.39,11.117752
1427148724.405,13.333176
1427148724.421,16.579437
1427148724.437,20.03894
1427148724.452,22.901901
1427148724.468,24.674622
1427148724.483,25.493866
1427148724.499,25.908478
1427148724.515,26.61502
1427148724.53,28.136139
1427148724.546,30.605713
1427148724.562,33.66246
1427148724.577,36.60257
1427148724.593,38.565735
1427148724.608,38.814972
1427148724.624,36.96707
1427148724.64,33.066376
1427148724.655,27.59108
1427148724.671,21.25801
1427148724.687,14.819382
1427148724.702,8.854904
1427148724.718,3.6882172
1427148724.733,-0.54003906
1427148724.749,-3.8836517
1427148724.765,-6.386978
1427148724.78,-8.1441345
1427148724.796,-9.203293
1427148724.812,-9.696381
1427148724.827,-9.792419
1427148724.843,-9.712418
1427148724.858,-9.706772
1427148724.874,-10.005707
1427148724.89,-10.701233
1427148724.905,-11.769608
1427148724.921,-13.060181
1427148724.937,-14.349548
1427148724.952,-15.463165
1427148724.968,-16.315094
1427148724.983,-16.93657
1427148724.999,-17.421967
1427148725.015,-17.83493
1427148725.03,-18.18274
1427148725.046,-18.34674
1427148725.062,-18.239792
1427148725.077,-17.762955
1427148725.093,-16.953842
1427148725.108,-15.936707
1427148725.124,-14.912262
1427148725.14,-14.013641
1427148725.155,-13.234894
1427148725.171,-12.4019165
1427148725.187,-11.263504
1427148725.202,-9.638382
1427148725.218,-7.563904
1427148725.233,-5.291168
1427148725.249,-3.196106
1427148725.265,-1.5670013
1427148725.28,-0.4764862
1427148725.296,0.25398254
1427148725.312,0.93374634
1427148725.327,1.8233337
1427148725.343,3.0098114
1427148725.358,4.4485016
1427148725.374,5.9721527
1427148725.39,7.5427704
1427148725.405,9.141968
1427148725.421,10.836731
1427148725.437,12.670685
1427148725.452,14.638977
1427148725.468,16.71283
1427148725.483,18.921783
1427148725.499,21.332672
1427148725.515,24.051514
1427148725.53,27.101715
1427148725.546,30.385864
1427148725.562,33.61325
1427148725.577,36.314514
1427148725.593,37.916626
1427148725.608,37.90988
1427148725.624,36.003784
1427148725.64,32.266296
1427148725.655,27.125732
1427148725.671,21.26706
1427148725.687,15.402924
1427148725.702,10.088867
1427148725.718,5.6104126
1427148725.733,2.0221252
1427148725.749,-0.7250061
1427148725.765,-2.6979065
1427148725.78,-3.9482422
1427148725.796,-4.609894
1427148725.812,-4.9741516
1427148725.827,-5.4325867
1427148725.843,-6.372406
1427148725.858,-7.948303
1427148725.874,-10.017151
1427148725.89,-12.139832
1427148725.905,-13.826721
1427148725.921,-14.726501
1427148725.937,-14.786407
1427148725.952,-14.2247925
1427148725.968,-13.410492
1427148725.983,-12.649109
1427148725.999,-12.077301
1427148726.015,-11.591827
1427148726.03,-11.017944
1427148726.046,-10.216003
1427148726.062,-9.175995
1427148726.077,-8.011688
1427148726.093,-6.908142
1427148726.108,-6.003784
1427148726.124,-5.390869
1427148726.14,-5.047516
1427148726.155,-4.9056396
1427148726.171,-4.8266907
1427148726.187,-4.6812744
1427148726.202,-4.3233337
1427148726.218,-3.671814
1427148726.233,-2.678955
1427148726.249,-1.3641052
1427148726.265,0.22634888
1427148726.28,2.0055542
1427148726.296,3.8736267
1427148726.312,5.680908
1427148726.327,7.322235
1427148726.343,8.707672
1427148726.358,9.843811
1427148726.374,10.8906555
1427148726.39,12.10434
1427148726.405,13.767578
1427148726.421,16.070892
1427148726.437,19.046967
1427148726.452,22.527954
1427148726.468,26.126495
1427148726.483,29.327148
1427148726.499,31.50235
1427148726.515,32.132965
1427148726.53,30.869843
1427148726.546,27.719421
1427148726.562,23.094635
1427148726.577,17.708435
1427148726.593,12.36676
1427148726.608,7.7111206
1427148726.624,4.0200806
1427148726.64,1.220581
1427148726.655,-0.95248413
1427148726.671,-2.7733154
1427148726.687,-4.37558
1427148726.702,-5.6901855
1427148726.718,-6.6180115
1427148726.734,-7.1015015
1427148726.749,-7.2740784
1427148726.765,-7.3592224
1427148726.78,-7.6509094
1427148726.796,-8.299805
1427148726.812,-9.350098
1427148726.827,-10.648621
1427148726.843,-11.995636
1427148726.859,-13.184998
1427148726.874,-14.101166
1427148726.89,-14.668243
1427148726.905,-14.874939
1427148726.921,-14.69458
1427148726.937,-14.103912
1427148726.952,-13.092773
1427148726.968,-11.699829
1427148726.984,-10.014038
1427148726.999,-8.185303
1427148727.015,-6.3971252
1427148727.03,-4.8522644
1427148727.046,-3.7103882
1427148727.062,-3.053772
1427148727.077,-2.8085327
1427148727.093,-2.7853394
1427148727.109,-2.7077026
1427148727.124,-2.2926636
1427148727.14,-1.3623352
1427148727.155,0.12512207
1427148727.171,2.0502014
1427148727.187,4.190216
1427148727.202,6.332489
1427148727.218,8.3515625
1427148727.234,10.294067
1427148727.249,12.26181
1427148727.265,14.379974
1427148727.28,16.696564
1427148727.296,19.1846
1427148727.312,21.77005
1427148727.327,24.391937
1427148727.343,26.972443
1427148727.359,29.334229
1427148727.374,31.130188
1427148727.39,31.903748
1427148727.405,31.192627
1427148727.421,28.771912
1427148727.437,24.740479
1427148727.452,19.56894
1427148727.468,13.928833
1427148727.484,8.481049
1427148727.499,3.7053833
1427148727.515,-0.14553833
1427148727.53,-3.0514526
1427148727.546,-5.104828
1427148727.562,-6.474182
1427148727.577,-7.343048
1427148727.593,-7.9020996
1427148727.609,-8.361145
1427148727.624,-8.876251
1427148727.64,-9.5564575
1427148727.655,-10.401398
1427148727.671,-11.340332
1427148727.687,-12.260529
1427148727.702,-13.054291
1427148727.718,-13.659576
1427148727.734,-14.046478
1427148727.749,-14.266632
1427148727.765,-14.362946
1427148727.78,-14.379883
1427148727.796,-14.295319
1427148727.812,-14.0578
1427148727.827,-13.611328
1427148727.843,-12.874512
1427148727.859,-11.86908
1427148727.874,-10.654785
1427148727.89,-9.357666
1427148727.905,-8.089386
1427148727.921,-6.968109
1427148727.937,-6.06839
1427148727.952,-5.3852234
1427148727.968,-4.871582
1427148727.984,-4.377533
1427148727.999,-3.7545776
1427148728.015,-2.8404846
1427148728.03,-1.5657043
1427148728.046,0.06283569
1427148728.062,1.8898926
1427148728.077,3.7408447
1427148728.093,5.474884
1427148728.109,7.0664063
1427148728.124,8.632111
1427148728.14,10.412628
1427148728.155,12.6927185
1427148728.171,15.646912
1427148728.187,19.2836
1427148728.202,23.293549
1427148728.218,27.134247
1427148728.234,30.117065
1427148728.249,31.626678
1427148728.265,31.321991
1427148728.28,29.207245
1427148728.296,25.631256
1427148728.312,21.133423
1427148728.327,16.253937
1427148728.343,11.439209
1427148728.359,6.993042
1427148728.374,3.1090698
1427148728.39,-0.09793091
1427148728.405,-2.6085815
1427148728.421,-4.448883
1427148728.437,-5.698303
1427148728.452,-6.4487305
1427148728.468,-6.762146
1427148728.484,-6.6969604
1427148728.499,-6.385315
1427148728.515,-6.0729065
1427148728.53,-6.1130066
1427148728.546,-6.832611
1427148728.562,-8.366486
1427148728.577,-10.560669
1427148728.593,-13.038361
1427148728.609,-15.366882
1427148728.624,-17.258606
1427148728.64,-18.663773
1427148728.655,-19.713547
1427148728.671,-20.533524
1427148728.687,-21.139954
1427148728.702,-21.395493
1427148728.718,-21.145004
1427148728.734,-20.33142
1427148728.749,-19.086716
1427148728.765,-17.635178
1427148728.78,-16.191757
1427148728.796,-14.840424
1427148728.812,-13.492401
1427148728.827,-12.01416
1427148728.843,-10.33313
1427148728.859,-8.513138
1427148728.874,-6.716507
1427148728.89,-5.0697937
1427148728.905,-3.5729675
1427148728.921,-2.078598
1427148728.937,-0.3811493
1427148728.952,1.6467743
1427148728.968,3.9907227
1427148728.984,6.511917
1427148728.999,9.038864
1427148729.015,11.50766
1427148729.03,13.938065
1427148729.046,16.449966
1427148729.062,19.123505
1427148729.077,21.91034
1427148729.093,24.637283
1427148729.109,27.027328
1427148729.124,28.784088
1427148729.14,29.63414
1427148729.155,29.350052
1427148729.171,27.77629
1427148729.187,24.831055
1427148729.202,20.602188
1427148729.218,15.324463
1427148729.234,9.447784
1427148729.249,3.4660645
1427148729.265,-2.1006165
1427148729.28,-6.8936005
1427148729.296,-10.707474
1427148729.312,-13.510086
1427148729.327,-15.383942
1427148729.343,-16.538162
1427148729.359,-17.236084
1427148729.374,-17.785095
1427148729.39,-18.462128
1427148729.406,-19.430054
1427148729.421,-20.668716
1427148729.437,-21.979568
1427148729.452,-23.104233
1427148729.468,-23.846329
1427148729.484,-24.202393
1427148729.499,-24.39064
1427148729.515,-24.680252
1427148729.53,-25.31337
1427148729.546,-26.278137
1427148729.562,-27.3441
1427148729.577,-28.097504
1427148729.593,-28.062622
1427148729.609,-26.855515
1427148729.624,-24.275452
1427148729.64,-20.369598
1427148729.656,-15.432571
1427148729.671,-9.967865
1427148729.687,-4.552948
1427148729.702,0.2615509
1427148729.718,4.103119
1427148729.734,6.8738556
1427148729.749,8.677765
1427148729.765,9.796616
1427148729.781,10.521454
1427148729.796,11.097488
1427148729.812,11.663864
1427148729.827,12.282379
1427148729.843,12.949921
1427148729.859,13.599701
1427148729.874,14.1792755
1427148729.89,14.654953
1427148729.906,15.098312
1427148729.921,15.714523
1427148729.937,16.801163
1427148729.952,18.615295
1427148729.968,21.275345
1427148729.984,24.617645
1427148729.999,28.229385
1427148730.015,31.553375
1427148730.031,34.045776
1427148730.046,35.3069
1427148730.062,35.13777
1427148730.077,33.505615
1427148730.093,30.49208
1427148730.109,26.237656
1427148730.124,20.991043
1427148730.14,15.152344
1427148730.156,9.239822
1427148730.171,3.8195953
1427148730.187,-0.6250763
1427148730.202,-3.8743744
1427148730.218,-6.019272
1427148730.234,-7.3965454
1427148730.249,-8.419342
1427148730.265,-9.410858
1427148730.281,-10.491333
1427148730.296,-11.602753
1427148730.312,-12.60939
1427148730.327,-13.43959
1427148730.343,-14.124634
1427148730.359,-14.7847595
1427148730.374,-15.497345
1427148730.39,-16.262543
1427148730.406,-16.991257
1427148730.421,-17.540619
1427148730.437,-17.819016
1427148730.452,-17.831863
1427148730.468,-17.650803
1427148730.484,-17.392853
1427148730.499,-17.098816
1427148730.515,-16.692078
1427148730.531,-16.035477
1427148730.546,-14.991608
1427148730.562,-13.544037
1427148730.577,-11.843246
1427148730.593,-10.185516
1427148730.609,-8.873322
1427148730.624,-8.049301
1427148730.64,-7.649048
1427148730.656,-7.36969
1427148730.671,-6.878708
1427148730.687,-5.9738617
1427148730.702,-4.679123
1427148730.718,-3.2252045
1427148730.734,-1.8669128
1427148730.749,-0.730896
1427148730.765,0.23347473
1427148730.781,1.1785583
1427148730.796,2.2697601
1427148730.812,3.5854187
1427148730.827,5.1805725
1427148730.843,7.1253357
1427148730.859,9.506592
1427148730.874,12.362946
1427148730.89,15.51683
1427148730.906,18.51352
1427148730.921,20.7182
1427148730.937,21.55928
1427148730.952,20.726563
1427148730.968,18.360886
1427148730.984,14.947876
1427148730.999,11.073654
1427148731.015,7.2223206
1427148731.031,3.657257
1427148731.046,0.44335938
1427148731.062,-2.4647827
1427148731.077,-5.0606995
1427148731.093,-7.3060303
1427148731.109,-9.117447
1427148731.124,-10.443008
1427148731.14,-11.225632
1427148731.156,-11.501312
1427148731.171,-11.347488
1427148731.187,-10.898224
1427148731.202,-10.341583
1427148731.218,-9.89534
1427148731.234,-9.728287
1427148731.249,-9.882736
1427148731.265,-10.233643
1427148731.281,-10.570114
1427148731.296,-10.668732
1427148731.312,-10.418167
1427148731.327,-9.855087
1427148731.343,-9.112579
1427148731.359,-8.326538
1427148731.374,-7.5684204
1427148731.39,-6.8475494
1427148731.406,-6.1529846
1427148731.421,-5.4902496
1427148731.437,-4.877472
1427148731.452,-4.3503265
1427148731.468,-3.8480072
1427148731.484,-3.2881317
1427148731.499,-2.5661316
1427148731.515,-1.6247253
1427148731.531,-0.5014496
1427148731.546,0.7144623
1427148731.562,1.9251099
1427148731.577,3.1128235
1427148731.593,4.384491
1427148731.609,5.911331
1427148731.624,7.8135376
1427148731.64,10.183929
1427148731.656,12.922745
1427148731.671,15.793869
1427148731.687,18.41774
1427148731.702,20.36737
1427148731.718,21.261948
1427148731.734,20.860062
1427148731.749,19.181076
1427148731.765,16.443954
1427148731.781,13.040161
1427148731.796,9.380859
1427148731.812,5.84111
1427148731.827,2.6651459
1427148731.843,-0.019515991
1427148731.859,-2.1814728
1427148731.874,-3.841095
1427148731.89,-5.021744
1427148731.906,-5.759201
1427148731.921,-6.0506897
1427148731.937,-5.9224396
1427148731.952,-5.4673004
1427148731.968,-4.829529
1427148731.984,-4.2001343
1427148731.999,-3.7536163
1427148732.015,-3.5634766
1427148732.031,-3.5921936
1427148732.046,-3.7093048
1427148732.062,-3.7644806
1427148732.077,-3.6564941
1427148732.093,-3.3659363
1427148732.109,-2.9050903
1427148732.124,-2.3542633
1427148732.14,-1.7562256
1427148732.156,-1.1583099
1427148732.171,-0.5621338
1427148732.187,0.054748535
1427148732.202,0.7585449
1427148732.218,1.6074219
1427148732.234,2.5981598
1427148732.249,3.6762695
1427148732.265,4.7601166
1427148732.281,5.7712555
1427148732.296,6.7714844
1427148732.312,7.9119873
1427148732.328,9.385422
1427148732.343,11.302933
1427148732.359,13.602646
1427148732.374,16.06607
1427148732.39,18.396942
1427148732.406,20.310135
1427148732.421,21.57994
1427148732.437,22.076721
1427148732.453,21.718704
1427148732.468,20.475159
1427148732.484,18.389908
1427148732.499,15.621765
1427148732.515,12.393204
1427148732.531,9.012772
1427148732.546,5.731964
1427148732.562,2.7221985
1427148732.578,0.018173218
1427148732.593,-2.4097443
1427148732.609,-4.578415
1427148732.624,-6.4525146
1427148732.64,-7.9209137
1427148732.656,-8.8638
1427148732.671,-9.21965
1427148732.687,-9.072693
1427148732.703,-8.597626
1427148732.718,-8.030594
1427148732.734,-7.5856323
1427148732.749,-7.407608
1427148732.765,-7.533905
1427148732.781,-7.9497986
1427148732.796,-8.562881
1427148732.812,-9.217926
1427148732.828,-9.716782
1427148732.843,-9.884247
1427148732.859,-9.573181
1427148732.874,-8.756592
1427148732.89,-7.508896
1427148732.906,-6.0440826
1427148732.921,-4.5773773
1427148732.937,-3.293396
1427148732.953,-2.2414246
1427148732.968,-1.3461761
1427148732.984,-0.4257202
1427148732.999,0.6909485
1427148733.015,2.094345
1427148733.031,3.752655
1427148733.046,5.560974
1427148733.062,7.385681
1427148733.078,9.13887
1427148733.093,10.838959
1427148733.109,12.5785675
1427148733.124,14.483353
1427148733.14,16.62033
1427148733.156,19.00705
1427148733.171,21.530853
1427148733.187,23.97731
1427148733.203,25.99971
1427148733.218,27.164032
1427148733.234,27.045242
1427148733.249,25.390503
1427148733.265,22.226685
1427148733.281,17.892899
1427148733.296,12.942429
1427148733.312,7.9455414
1427148733.328,3.3663788
1427148733.343,-0.541275
1427148733.359,-3.7025604
1427148733.374,-6.1517487
1427148733.39,-7.939438
1427148733.406,-9.154495
1427148733.421,-9.89978
1427148733.437,-10.332474
1427148733.453,-10.64064
1427148733.468,-10.992294
1427148733.484,-11.507736
1427148733.499,-12.17865
1427148733.515,-12.921539
1427148733.531,-13.565094
1427148733.546,-13.955154
1427148733.562,-14.012848
1427148733.578,-13.748062
1427148733.593,-13.293579
1427148733.609,-12.817337
1427148733.624,-12.430054
1427148733.64,-12.137009
1427148733.656,-11.838821
1427148733.671,-11.427826
1427148733.687,-10.826538
1427148733.703,-10.049225
1427148733.718,-9.152664
1427148733.734,-8.192871
1427148733.749,-7.1727753
1427148733.765,-6.071533
1427148733.781,-4.8816986
1427148733.796,-3.6174164
1427148733.812,-2.3209229
1427148733.828,-1.0169983
1427148733.843,0.29533386
1427148733.859,1.6679382
1427148733.874,3.1184464
1427148733.89,4.6955185
1427148733.906,6.440941
1427148733.921,8.429726
1427148733.937,10.741524
1427148733.953,13.45768
1427148733.968,16.569382
1427148733.984,19.95021
1427148733.999,23.329163
1427148734.015,26.301384
1427148734.031,28.379692
1427148734.046,29.074509
1427148734.062,27.985184
1427148734.078,25.022873
1427148734.093,20.39006
1427148734.109,14.632507
1427148734.124,8.448761
1427148734.14,2.5397873
1427148734.156,-2.6354828
1427148734.171,-6.856346
1427148734.187,-10.102821
1427148734.203,-12.448799
1427148734.218,-13.974113
1427148734.234,-14.73613
1427148734.249,-14.863388
1427148734.265,-14.58168
1427148734.281,-14.215881
1427148734.296,-14.098877
1427148734.312,-14.46582
1427148734.328,-15.344063
1427148734.343,-16.571136
1427148734.359,-17.855705
1427148734.374,-18.921265
1427148734.39,-19.593239
1427148734.406,-19.901497
1427148734.421,-19.99041
1427148734.437,-20.040886
1427148734.453,-20.128853
1427148734.468,-20.176819
1427148734.484,-19.991615
1427148734.499,-19.420265
1427148734.515,-18.404404
1427148734.531,-17.057442
1427148734.546,-15.601509
1427148734.562,-14.262909
1427148734.578,-13.162666
1427148734.593,-12.312218
1427148734.609,-11.6341095
1427148734.624,-10.969246
1427148734.64,-10.150948
1427148734.656,-9.038475
1427148734.671,-7.5344543
1427148734.687,-5.661865
1427148734.703,-3.5182114
1427148734.718,-1.2723694
1427148734.734,0.970932
1427148734.749,3.206459
1427148734.765,5.5569
1427148734.781,8.08461
1427148734.796,10.808342
1427148734.812,13.572807
1427148734.828,16.184822
1427148734.843,18.540176
1427148734.859,20.753769
1427148734.874,23.055984
1427148734.89,25.639893
1427148734.906,28.430656
1427148734.921,30.98185
1427148734.937,32.59578
1427148734.953,32.605064
1427148734.968,30.649704
1427148734.984,26.889366
1427148735,21.902634
1427148735.015,16.51286
1427148735.031,11.425453
1427148735.046,7.0615425
1427148735.062,3.440052
1427148735.078,0.35557175
1427148735.093,-2.4439087
1427148735.109,-5.068325
1427148735.125,-7.4265823
1427148735.14,-9.248333
1427148735.156,-10.323612
1427148735.171,-10.608067
1427148735.187,-10.3018
1427148735.203,-9.784679
1427148735.218,-9.513641
1427148735.234,-9.808308
1427148735.25,-10.792034
1427148735.265,-12.342426
1427148735.281,-14.178238
1427148735.296,-15.92197
1427148735.312,-17.284416
1427148735.328,-18.121548
1427148735.343,-18.486217
1427148735.359,-18.55745
1427148735.375,-18.545513
1427148735.39,-18.566742
1427148735.406,-18.639961
1427148735.421,-18.66341
1427148735.437,-18.577175
1427148735.453,-18.404041
1427148735.468,-18.26337
1427148735.484,-18.263271
1427148735.5,-18.425995
1427148735.515,-18.614708
1427148735.531,-18.58236
1427148735.546,-18.103115
1427148735.562,-17.092136
1427148735.578,-15.656002
1427148735.593,-14.024109
1427148735.609,-12.446232
1427148735.625,-11.068382
1427148735.64,-9.861488
1427148735.656,-8.681618
1427148735.671,-7.3510704
1427148735.687,-5.7108917
1427148735.703,-3.7064629
1427148735.718,-1.4108963
1427148735.734,1.0301704
1427148735.75,3.4013138
1427148735.765,5.511833
1427148735.781,7.219158
1427148735.796,8.546841
1427148735.812,9.711475
1427148735.828,11.087841
1427148735.843,13.040791
1427148735.859,15.8148
1427148735.875,19.308277
1427148735.89,23.056576
1427148735.906,26.311981
1427148735.921,28.304146
1427148735.937,28.503101
1427148735.953,26.747566
1427148735.968,23.317661
1427148735.984,18.76175
1427148736,13.699253
1427148736.015,8.709251
1427148736.031,4.18589
1427148736.046,0.306427
1427148736.062,-2.9263763
1427148736.078,-5.658291
1427148736.093,-8.09346
1427148736.109,-10.360638
1427148736.125,-12.415337
1427148736.14,-14.046791
1427148736.156,-14.988979
1427148736.171,-15.060055
1427148736.187,-14.384285
1427148736.203,-13.355206
1427148736.218,-12.537552
1427148736.234,-12.395191
1427148736.25,-13.093742
1427148736.265,-14.394119
1427148736.281,-15.725086
1427148736.296,-16.342976
1427148736.312,-15.579876
1427148736.328,-13.030834
1427148736.343,-8.739967
1427148736.359,-3.2315483
1427148736.375,2.5368805
1427148736.39,7.386509
1427148736.406,10.143547
1427148736.421,10.041775
1427148736.437,6.9082565
1427148736.453,1.2202263
1427148736.468,-6.0069275
1427148736.484,-13.511444
1427148736.5,-20.149048
1427148736.515,-25.092323
1427148736.531,-27.978867
1427148736.546,-28.792961
1427148736.562,-27.798347
1427148736.578,-25.377754
1427148736.593,-22.006348
1427148736.609,-18.128014
1427148736.625,-14.167152
1427148736.64,-10.389809
1427148736.656,-6.914406
1427148736.671,-3.6826706
1427148736.687,-0.5695648
1427148736.703,2.5261383
1427148736.718,5.552536
1427148736.734,8.292381
1427148736.75,10.489304
1427148736.765,11.973152
1427148736.781,12.7688675
1427148736.796,13.152824
1427148736.812,13.53437
1427148736.828,14.345505
1427148736.843,15.8999405
1427148736.859,18.264183
1427148736.875,21.188583
1427148736.89,24.153023
1427148736.906,26.413048
1427148736.921,27.284645
1427148736.937,26.343445
1427148736.953,23.583466
1427148736.968,19.42791
1427148736.984,14.566643
1427148737,9.689178
1427148737.015,5.333618
1427148737.031,1.7440567
1427148737.046,-1.0628357
1427148737.062,-3.1853943
1427148737.078,-4.724266
1427148737.093,-5.7534027
1427148737.109,-6.333748
1427148737.125,-6.5441513
1427148737.14,-6.540245
1427148737.156,-6.5123825
1427148737.171,-6.6467743
1427148737.187,-7.1065445
1427148737.203,-7.936577
1427148737.218,-9.078415
1427148737.234,-10.346008
1427148737.25,-11.513832
1427148737.265,-12.340149
1427148737.281,-12.703491
1427148737.296,-12.606911
1427148737.312,-12.229729
1427148737.328,-11.817741
1427148737.343,-11.542679
1427148737.359,-11.420456
1427148737.375,-11.2838745
1427148737.39,-10.886566
1427148737.406,-10.0765915
1427148737.421,-8.848213
1427148737.437,-7.404953
1427148737.453,-6.0079727
1427148737.468,-4.8779907
1427148737.484,-4.0152817
1427148737.5,-3.3069916
1427148737.515,-2.5270844
1427148737.531,-1.5230255
1427148737.546,-0.22845459
1427148737.562,1.2801514
1427148737.578,2.8889008
1427148737.593,4.4429626
1427148737.609,5.8260193
1427148737.625,6.9682617
1427148737.64,7.886612
1427148737.656,8.6839905
1427148737.672,9.567703
1427148737.687,10.751373
1427148737.703,12.372665
1427148737.718,14.394058
1427148737.734,16.696228
1427148737.75,19.056534
1427148737.765,21.255722
1427148737.781,23.043594
1427148737.797,24.172562
1427148737.812,24.324081
1427148737.828,23.228973
1427148737.843,20.733612
1427148737.859,16.943283
1427148737.875,12.28093
1427148737.89,7.388138
1427148737.906,2.9674072
1427148737.922,-0.47660828
1427148737.937,-2.7897034
1427148737.953,-4.179352
1427148737.968,-5.075531
1427148737.984,-5.8879395
1427148738,-6.87529
1427148738.015,-7.999649
1427148738.031,-9.137695
1427148738.047,-10.115982
1427148738.062,-10.88649
1427148738.078,-11.533386
1427148738.093,-12.18367
1427148738.109,-12.949783
1427148738.125,-13.763321
1427148738.14,-14.440979
1427148738.156,-14.774429
1427148738.172,-14.631073
1427148738.187,-14.048752
1427148738.203,-13.187759
1427148738.218,-12.235931
1427148738.234,-11.309448
1427148738.25,-10.386795
1427148738.265,-9.336761
1427148738.281,-8.032211
1427148738.297,-6.473572
1427148738.312,-4.8153687
1427148738.328,-3.3613129
1427148738.343,-2.3742523
1427148738.359,-1.937561
1427148738.375,-1.863617
1427148738.39,-1.7785492
1427148738.406,-1.2840576
1427148738.422,-0.1892395
1427148738.437,1.4595642
1427148738.453,3.4147186
1427148738.468,5.4187927
1427148738.484,7.3401184
1427148738.5,9.186447
1427148738.515,11.121429
1427148738.531,13.232056
1427148738.547,15.566223
1427148738.562,18.05449
1427148738.578,20.622696
1427148738.593,23.175308
1427148738.609,25.573853
1427148738.625,27.557724
1427148738.64,28.72322
1427148738.656,28.653992
1427148738.672,27.094666
1427148738.687,24.098404
1427148738.703,20.082886
1427148738.718,15.663925
1427148738.734,11.457642
1427148738.75,7.820175
1427148738.765,4.816147
1427148738.781,2.3090515
1427148738.797,0.11265564
1427148738.812,-1.86763
1427148738.828,-3.5609283
1427148738.843,-4.8151703
1427148738.859,-5.5082855
1427148738.875,-5.634384
1427148738.89,-5.343567
1427148738.906,-4.886566
1427148738.922,-4.5218964
1427148738.937,-4.430435
1427148738.953,-4.6247406
1427148738.968,-4.9667664
1427148738.984,-5.282089
1427148739,-5.4414825
1427148739.015,-5.4306946
1427148739.031,-5.3477783
1427148739.047,-5.254608
1427148739.062,-5.1726227
1427148739.078,-4.989609
1427148739.093,-4.574188
1427148739.109,-3.8848114
1427148739.125,-3.0325165
1427148739.14,-2.184021
1427148739.156,-1.5244141
1427148739.172,-1.0714722
1427148739.187,-0.72221375
1427148739.203,-0.27703857
1427148739.218,0.35934448
1427148739.234,1.1975098
1427148739.25,2.1312256
1427148739.265,3.086853
1427148739.281,4.0641327
1427148739.297,5.144516
1427148739.312,6.367676
1427148739.328,7.735016
1427148739.343,9.075775
1427148739.359,10.25061
1427148739.375,11.194305
1427148739.39,12.013458
1427148739.406,12.927017
1427148739.422,14.117752
1427148739.437,15.612793
1427148739.453,17.311783
1427148739.468,18.959183
1427148739.484,20.274979
1427148739.5,20.968246
1427148739.515,20.832031
1427148739.531,19.641571
1427148739.547,17.306473
1427148739.562,13.941986
1427148739.578,9.898224
1427148739.593,5.721649
1427148739.609,1.9911499
1427148739.625,-0.87112427
1427148739.64,-2.660141
1427148739.656,-3.390274
1427148739.672,-3.2919617
1427148739.687,-2.6341553
1427148739.703,-1.6951599
1427148739.718,-0.73280334
1427148739.734,0.03845215
1427148739.75,0.43862915
1427148739.765,0.3688202
1427148739.781,-0.21742249
1427148739.797,-1.300766
1427148739.812,-2.8532867
1427148739.828,-4.808304
1427148739.843,-7.047058
1427148739.859,-9.397125
1427148739.875,-11.628845
1427148739.89,-13.540237
1427148739.906,-14.978867
1427148739.922,-15.886826
1427148739.937,-16.294739
1427148739.953,-16.217514
1427148739.968,-15.661102
1427148739.984,-14.629776
1427148740,-13.228043
1427148740.015,-11.568481
1427148740.031,-9.852921
1427148740.047,-8.225006
1427148740.062,-6.7335052
1427148740.078,-5.365448
1427148740.093,-4.0345
1427148740.109,-2.710495
1427148740.125,-1.3955688
1427148740.14,-0.12954712
1427148740.156,1.0977173
1427148740.172,2.3364868
1427148740.187,3.701538
1427148740.203,5.2857666
1427148740.218,7.0860443
1427148740.234,9.039902
1427148740.25,11.04834
1427148740.265,13.055817
1427148740.281,15.004944
1427148740.297,16.843414
1427148740.312,18.384354
1427148740.328,19.326797
1427148740.344,19.319244
1427148740.359,18.117996
1427148740.375,15.716507
1427148740.39,12.388229
1427148740.406,8.63443
1427148740.422,4.979965
1427148740.437,1.8443604
1427148740.453,-0.578125
1427148740.468,-2.3175812
1427148740.484,-3.5614014
1427148740.5,-4.5180206
1427148740.515,-5.3236694
1427148740.531,-6.051773
1427148740.547,-6.654007
1427148740.562,-7.09375
1427148740.578,-7.3668365
1427148740.594,-7.5349884
1427148740.609,-7.668396
1427148740.625,-7.870285
1427148740.64,-8.130035
1427148740.656,-8.409714
1427148740.672,-8.7155
1427148740.687,-9.077835
1427148740.703,-9.571106
1427148740.719,-10.244858
1427148740.734,-11.052872
1427148740.75,-11.820221
1427148740.765,-12.248154
1427148740.781,-12.100128
1427148740.797,-11.250885
1427148740.812,-9.785629
1427148740.828,-7.966217
1427148740.844,-6.1354218
1427148740.859,-4.5732727
1427148740.875,-3.3901672
1427148740.89,-2.560028
1427148740.906,-1.9277649
1427148740.922,-1.2818909
1427148740.937,-0.4552307
1427148740.953,0.6695099
1427148740.969,2.1198578
1427148740.984,3.8348083
1427148741,5.684067
1427148741.015,7.5105286
1427148741.031,9.197983
1427148741.047,10.72998
1427148741.062,12.19223
1427148741.078,13.745941
1427148741.094,15.56218
1427148741.109,17.71363
1427148741.125,20.080544
1427148741.14,22.313492
1427148741.156,23.942947
1427148741.172,24.459366
1427148741.187,23.493462
1427148741.203,20.96582
1427148741.219,17.12822
1427148741.234,12.531464
1427148741.25,7.839447
1427148741.265,3.6320648
1427148741.281,0.2124939
1427148741.297,-2.4291
1427148741.312,-4.5163956
1427148741.328,-6.2922897
1427148741.344,-7.888832
1427148741.359,-9.24733
1427148741.375,-10.243401
1427148741.39,-10.798912
1427148741.406,-11.000313
1427148741.422,-11.065987
1427148741.437,-11.280907
1427148741.453,-11.853821
1427148741.469,-12.865303
1427148741.484,-14.185188
1427148741.5,-15.508026
1427148741.515,-16.415024
1427148741.531,-16.559608
1427148741.547,-15.81282
1427148741.562,-14.37561
1427148741.578,-12.663712
1427148741.594,-11.205208
1427148741.609,-10.2862625
1427148741.625,-9.8949585
1427148741.64,-9.725021
1427148741.656,-9.450035
1427148741.672,-8.873123
1427148741.687,-8.027763
1427148741.703,-7.0332565
1427148741.719,-5.968605
1427148741.734,-4.808853
1427148741.75,-3.4878006
1427148741.765,-2.034706
1427148741.781,-0.5866394
1427148741.797,0.67977905
1427148741.812,1.6804962
1427148741.828,2.5652008
1427148741.844,3.6102066
1427148741.859,5.05851
1427148741.875,6.9362946
1427148741.89,9.153038
1427148741.906,11.525917
1427148741.922,13.938484
1427148741.937,16.42369
1427148741.953,19.069786
1427148741.969,21.907547
1427148741.984,24.84932
1427148742,27.698647
1427148742.015,30.20366
1427148742.031,32.13562
1427148742.047,33.310722
1427148742.062,33.524498
1427148742.078,32.707977
1427148742.094,30.802055
1427148742.109,27.90551
1427148742.125,24.182701
1427148742.14,19.848625
1427148742.156,15.050278
1427148742.172,9.909439
1427148742.187,4.5428696
1427148742.203,-0.85886383
1427148742.219,-5.974861
1427148742.234,-10.465004
1427148742.25,-14.070824
1427148742.265,-16.734436
1427148742.281,-18.65519
1427148742.297,-20.11501
1427148742.312,-21.401676
1427148742.328,-22.62122
1427148742.344,-23.712105
1427148742.359,-24.501286
1427148742.375,-24.841373
1427148742.39,-24.718586
1427148742.406,-24.221241
1427148742.422,-23.538792
1427148742.437,-22.859566
1427148742.453,-22.273983
1427148742.469,-21.805447
1427148742.484,-21.417137
1427148742.5,-21.010399
1427148742.515,-20.477512
1427148742.531,-19.744015
1427148742.547,-18.758057
1427148742.562,-17.589485
1427148742.578,-16.372406
1427148742.594,-15.290535
1427148742.609,-14.464558
1427148742.625,-13.892052
1427148742.64,-13.411045
1427148742.656,-12.801956
1427148742.672,-11.920174
1427148742.687,-10.753902
1427148742.703,-9.41238
1427148742.719,-8.043934
1427148742.734,-6.7147865
1427148742.75,-5.3977394
1427148742.765,-3.96949
1427148742.781,-2.3576355
1427148742.797,-0.57164
1427148742.812,1.280529
1427148742.828,3.1242027
1427148742.844,4.947193
1427148742.859,6.835041
1427148742.875,8.905849
1427148742.89,11.173183
1427148742.906,13.55946
1427148742.922,15.934845
1427148742.937,18.181843
1427148742.953,20.282318
1427148742.969,22.28276
1427148742.984,24.157204
1427148743,25.720497
1427148743.016,26.58416
1427148743.031,26.286434
1427148743.047,24.504265
1427148743.062,21.250782
1427148743.078,16.974323
1427148743.094,12.343548
1427148743.109,8.040604
1427148743.125,4.4641113
1427148743.14,1.6752548
1427148743.156,-0.56230927
1427148743.172,-2.488163
1427148743.187,-4.247959
1427148743.203,-5.8024445
1427148743.219,-7.037586
1427148743.234,-7.9127007
1427148743.25,-8.519947
1427148743.266,-9.066368
1427148743.281,-9.731701
1427148743.297,-10.620457
1427148743.312,-11.671978
1427148743.328,-12.764606
1427148743.344,-13.788261
1427148743.359,-14.666199
1427148743.375,-15.383423
1427148743.391,-15.938492
1427148743.406,-16.298672
1427148743.422,-16.375069
1427148743.437,-16.161232
1427148743.453,-15.710297
1427148743.469,-15.186218
1427148743.484,-14.747932
1427148743.5,-14.466473
1427148743.516,-14.317192
1427148743.531,-14.1485405
1427148743.547,-13.798584
1427148743.562,-13.147644
1427148743.578,-12.134514
1427148743.594,-10.782467
1427148743.609,-9.147854
1427148743.625,-7.334133
1427148743.641,-5.4463043
1427148743.656,-3.6577988
1427148743.672,-2.1374893
1427148743.687,-0.96027756
1427148743.703,-0.14599228
1427148743.719,0.44353867
1427148743.734,1.0222359
1427148743.75,1.7828827
1427148743.766,2.8986168
1427148743.781,4.400528
1427148743.797,6.270561
1427148743.812,8.43013
1427148743.828,10.808872
1427148743.844,13.334808
1427148743.859,15.902641
1427148743.875,18.393326
1427148743.891,20.594902
1427148743.906,22.242836
1427148743.922,23.055447
1427148743.937,22.76717
1427148743.953,21.306843
1427148743.969,18.793983
1427148743.984,15.519814
1427148744,11.857449
1427148744.016,8.148762
1427148744.031,4.6177216
1427148744.047,1.3696213
1427148744.062,-1.571415
1427148744.078,-4.203537
1427148744.094,-6.5266724
1427148744.109,-8.536209
1427148744.125,-10.238407
1427148744.141,-11.687927
1427148744.156,-12.971233
1427148744.172,-14.215813
1427148744.187,-15.558739
1427148744.203,-17.10559
1427148744.219,-18.901485
1427148744.234,-20.828415
1427148744.25,-22.672
1427148744.266,-24.106731
1427148744.281,-24.87125
1427148744.297,-24.865273
1427148744.312,-24.242935
1427148744.328,-23.356613
1427148744.344,-22.64603
1427148744.359,-22.484283
1427148744.375,-23.070686
1427148744.391,-24.329578
1427148744.406,-25.948494
1427148744.422,-27.34747
1427148744.437,-27.753075
1427148744.453,-26.399963
1427148744.469,-22.795853
1427148744.484,-16.93634
1427148744.5,-9.471535
1427148744.516,-1.4770813
1427148744.531,5.9023895
1427148744.547,11.843727
1427148744.562,16.07483
1427148744.578,18.909798
1427148744.594,20.9533
1427148744.609,22.829514
1427148744.625,24.961876
1427148744.641,27.526413
1427148744.656,30.406082
1427148744.672,33.357597
1427148744.687,36.01767
1427148744.703,37.96399
1427148744.719,38.82273
1427148744.734,38.30818
1427148744.75,36.326775
1427148744.766,33.013985
1427148744.781,28.735992
1427148744.797,24.002205
1427148744.812,19.365486
1427148744.828,15.262215
1427148744.844,11.875732
1427148744.859,9.140839
1427148744.875,6.7409973
1427148744.891,4.3346252
1427148744.906,1.6752319
1427148744.922,-1.2345123
1427148744.937,-4.169899
1427148744.953,-6.744652
1427148744.969,-8.63707
1427148744.984,-9.711487
1427148745,-10.076843
1427148745.016,-10.029373
1427148745.031,-9.947792
1427148745.047,-10.074005
1427148745.062,-10.467033
1427148745.078,-10.984535
1427148745.094,-11.401207
1427148745.109,-11.498314
1427148745.125,-11.191986
1427148745.141,-10.501183
1427148745.156,-9.550087
1427148745.172,-8.436058
1427148745.187,-7.2055206
1427148745.203,-5.907837
1427148745.219,-4.5650253
1427148745.234,-3.2215424
1427148745.25,-1.8986206
1427148745.266,-0.5626221
1427148745.281,0.8780594
1427148745.297,2.5019684
1427148745.312,4.250519
1427148745.328,6.026161
1427148745.344,7.620735
1427148745.359,8.918137
1427148745.375,9.925865
1427148745.391,10.7985
1427148745.406,11.801338
1427148745.422,13.181274
1427148745.437,15.107285
1427148745.453,17.636421
1427148745.469,20.657013
1427148745.484,23.861694
1427148745.5,26.725845
1427148745.516,28.602562
1427148745.531,28.88234
1427148745.547,27.240639
1427148745.562,23.804062
1427148745.578,19.155869
1427148745.594,14.100639
1427148745.609,9.403183
1427148745.625,5.490608
1427148745.641,2.5119781
1427148745.656,0.34542084
1427148745.672,-1.1680756
1427148745.687,-2.1759186
1427148745.703,-2.7853394
1427148745.719,-3.1619263
1427148745.734,-3.5258102
1427148745.75,-4.074806
1427148745.766,-4.9271393
1427148745.781,-6.0393295
1427148745.797,-7.2526703
1427148745.812,-8.422264
1427148745.828,-9.416595
1427148745.844,-10.253319
1427148745.859,-11.012756
1427148745.875,-11.851341
1427148745.891,-12.848869
1427148745.906,-13.998581
1427148745.922,-15.108139
1427148745.938,-15.941566
1427148745.953,-16.24401
1427148745.969,-15.91494
1427148745.984,-15.067528
1427148746,-13.989632
1427148746.016,-12.986076
1427148746.031,-12.20475
1427148746.047,-11.546509
1427148746.063,-10.780609
1427148746.078,-9.642647
1427148746.094,-8.056992
1427148746.109,-6.1785583
1427148746.125,-4.3007965
1427148746.141,-2.6937027
1427148746.156,-1.4607239
1427148746.172,-0.48376465
1427148746.188,0.48957825
1427148746.203,1.8045654
1427148746.219,3.6740112
1427148746.234,6.1331024
1427148746.25,9.032333
1427148746.266,12.043205
1427148746.281,14.759033
1427148746.297,16.778603
1427148746.313,17.810776
1427148746.328,17.656586
1427148746.344,16.286087
1427148746.359,13.788727
1427148746.375,10.411911
1427148746.391,6.577339
1427148746.406,2.806305
1427148746.422,-0.3649826
1427148746.438,-2.614235
1427148746.453,-3.9163742
1427148746.469,-4.592369
1427148746.484,-5.0941086
1427148746.5,-5.746208
1427148746.516,-6.610031
1427148746.531,-7.516968
1427148746.547,-8.188255
1427148746.563,-8.554848
1427148746.578,-8.733665
1427148746.594,-8.986923
1427148746.609,-9.498688
1427148746.625,-10.247017
1427148746.641,-11.013779
1427148746.656,-11.545563
1427148746.672,-11.71067
1427148746.688,-11.61264
1427148746.703,-11.446457
1427148746.719,-11.411957
1427148746.734,-11.517029
1427148746.75,-11.646408
1427148746.766,-11.605682
1427148746.781,-11.256386
1427148746.797,-10.588097
1427148746.813,-9.65863
1427148746.828,-8.546715
1427148746.844,-7.316101
1427148746.859,-5.9484253
1427148746.875,-4.446327
1427148746.891,-2.7993698
1427148746.906,-1.0675812
1427148746.922,0.69353485
1427148746.938,2.4434814
1427148746.953,4.160675
1427148746.969,5.8501663
1427148746.984,7.5254974
1427148747,9.194702
1427148747.016,10.938705
1427148747.031,12.853363
1427148747.047,15.078667
1427148747.063,17.684013
1427148747.078,20.618416
1427148747.094,23.605965
1427148747.109,26.236282
1427148747.125,28.017227
1427148747.141,28.57254
1427148747.156,27.728203
1427148747.172,25.582466
1427148747.188,22.399086
1427148747.203,18.54995
1427148747.219,14.392509
1427148747.234,10.230148
1427148747.25,6.3130493
1427148747.266,2.8177109
1427148747.281,-0.18743134
1427148747.297,-2.70681
1427148747.313,-4.841034
1427148747.328,-6.690834
1427148747.344,-8.342674
1427148747.359,-9.778587
1427148747.375,-10.960625
1427148747.391,-11.822823
1427148747.406,-12.378433
1427148747.422,-12.745682
1427148747.438,-13.12532
1427148747.453,-13.710503
1427148747.469,-14.611427
1427148747.484,-15.772003
1427148747.5,-16.9656
1427148747.516,-17.895538
1427148747.531,-18.285675
1427148747.547,-18.022385
1427148747.563,-17.197975
1427148747.578,-16.053978
1427148747.594,-14.906975
1427148747.609,-13.9958725
1427148747.625,-13.398346
1427148747.641,-13.003555
1427148747.656,-12.615532
1427148747.672,-12.044136
1427148747.688,-11.19751
1427148747.703,-10.030045
1427148747.719,-8.577255
1427148747.734,-6.8717804
1427148747.75,-4.989601
1427148747.766,-3.0431519
1427148747.781,-1.1970825
1427148747.797,0.36236572
1427148747.813,1.5154648
1427148747.828,2.2781525
1427148747.844,2.8212357
1427148747.859,3.4023132
1427148747.875,4.267067
1427148747.891,5.6040726
1427148747.906,7.446106
1427148747.922,9.725052
1427148747.938,12.334473
1427148747.953,15.154633
1427148747.969,18.050606
1427148747.984,20.882164
1427148748,23.370705
1427148748.016,25.161926
1427148748.031,25.913803
1427148748.047,25.356697
1427148748.063,23.419601
1427148748.078,20.29322
1427148748.094,16.35028
1427148748.109,12.013016
1427148748.125,7.663887
1427148748.141,3.582512
1427148748.156,-0.06491089
1427148748.172,-3.161972
1427148748.188,-5.618782
1427148748.203,-7.4059296
1427148748.219,-8.528549
1427148748.234,-9.12265
1427148748.25,-9.405655
1427148748.266,-9.548019
1427148748.281,-9.726067
1427148748.297,-10.024063
1427148748.313,-10.4917145
1427148748.328,-11.185265
1427148748.344,-12.131805
1427148748.359,-13.299072
1427148748.375,-14.558746
1427148748.391,-15.6894455
1427148748.406,-16.429306
1427148748.422,-16.586891
1427148748.438,-16.07653
1427148748.453,-14.969009
1427148748.469,-13.395248
1427148748.484,-11.535202
1427148748.5,-9.56012
1427148748.516,-7.568901
1427148748.531,-5.7092056
1427148748.547,-4.0423965
1427148748.563,-2.6474686
1427148748.578,-1.5286331
1427148748.594,-0.5934906
1427148748.61,0.28691864
1427148748.625,1.27211
1427148748.641,2.4930267
1427148748.656,3.9969406
1427148748.672,5.692589
1427148748.688,7.4023438
1427148748.703,8.788269
1427148748.719,9.598747
1427148748.735,9.688393
1427148748.75,9.188324
1427148748.766,8.449097
1427148748.781,7.9331512
1427148748.797,8.020416
1427148748.813,8.83567
1427148748.828,10.283333
1427148748.844,12.092346
1427148748.86,14.061012
1427148748.875,16.030098
1427148748.891,17.91372
1427148748.906,19.498001
1427148748.922,20.427284
1427148748.938,20.285233
1427148748.953,18.780434
1427148748.969,15.956062
1427148748.985,12.217087
1427148749,8.184845
1427148749.016,4.447525
1427148749.031,1.3417053
1427148749.047,-1.0732422
1427148749.063,-2.9260864
1427148749.078,-4.3544235
1427148749.094,-5.456444
1427148749.11,-6.2714767
1427148749.125,-6.90197
1427148749.141,-7.4616394
1427148749.156,-8.128021
1427148749.172,-8.969391
1427148749.188,-9.959663
1427148749.203,-10.923271
1427148749.219,-11.691162
1427148749.235,-12.183388
1427148749.25,-12.431969
1427148749.266,-12.545654
1427148749.281,-12.633385
1427148749.297,-12.747742
1427148749.313,-12.81308
1427148749.328,-12.725105
1427148749.344,-12.3999405
1427148749.36,-11.794342
1427148749.375,-10.977097
1427148749.391,-10.025398
1427148749.406,-9.027702
1427148749.422,-8.039726
1427148749.438,-7.1003876
1427148749.453,-6.172554
1427148749.469,-5.217102
1427148749.485,-4.190422
1427148749.5,-3.0501862
1427148749.516,-1.8272858
1427148749.531,-0.5937729
1427148749.547,0.5752182
1427148749.563,1.652298
1427148749.578,2.684883
1427148749.594,3.8250122
1427148749.61,5.26313
1427148749.625,7.096184
1427148749.641,9.277191
1427148749.656,11.6165695
1427148749.672,13.840813
1427148749.688,15.657074
1427148749.703,16.855835
1427148749.719,17.267174
1427148749.735,16.80288
1427148749.75,15.430176
1427148749.766,13.229172
1427148749.781,10.370773
1427148749.797,7.175659
1427148749.813,3.939705
1427148749.828,0.9291382
1427148749.844,-1.7539444
1427148749.86,-4.1050034
1427148749.875,-6.14933
1427148749.891,-7.8517
1427148749.906,-9.059334
1427148749.922,-9.64138
1427148749.938,-9.523285
1427148749.953,-8.838921
1427148749.969,-7.84993
1427148749.985,-6.925682
1427148750,-6.383896
1427148750.016,-6.3908005
1427148750.031,-6.9455338
1427148750.047,-7.907776
1427148750.063,-9.093933
1427148750.078,-10.299156
1427148750.094,-11.378456
1427148750.11,-12.171326
1427148750.125,-12.537285
1427148750.141,-12.334412
1427148750.156,-11.538261
1427148750.172,-10.213112
1427148750.188,-8.560577
1427148750.203,-6.817108
1427148750.219,-5.127434
1427148750.235,-3.5318527
1427148750.25,-1.9576035
1427148750.266,-0.3111725
1427148750.281,1.4263763
1427148750.297,3.178032
1427148750.313,4.755974
1427148750.328,6.017311
1427148750.344,6.8612366
1427148750.36,7.345642
1427148750.375,7.5928802
1427148750.391,7.814476
1427148750.406,8.24839
1427148750.422,9.127983
1427148750.438,10.632675
1427148750.453,12.771431
1427148750.469,15.345123
1427148750.485,17.88794
1427148750.5,19.782784
1427148750.516,20.452812
1427148750.531,19.545906
1427148750.547,17.105331
1427148750.563,13.522614
1427148750.578,9.467186
1427148750.594,5.5894623
1427148750.61,2.4201126
1427148750.625,0.17077637
1427148750.641,-1.2524033
1427148750.656,-2.1291046
1427148750.672,-2.7901993
1427148750.688,-3.524994
1427148750.703,-4.4578476
1427148750.719,-5.5804367
1427148750.735,-6.7806015
1427148750.75,-7.879074
1427148750.766,-8.707161
1427148750.781,-9.162003
1427148750.797,-9.205513
1427148750.813,-8.94191
1427148750.828,-8.556946
1427148750.844,-8.289803
1427148750.86,-8.296127
1427148750.875,-8.647591
1427148750.891,-9.251877
1427148750.906,-9.911316
1427148750.922,-10.3919525
1427148750.938,-10.485947
1427148750.953,-10.04483
1427148750.969,-9.005608
1427148750.985,-7.397995
1427148751,-5.3270645
1427148751.016,-3.02565
1427148751.031,-0.794754
1427148751.047,1.0412674
1427148751.063,2.2445145
1427148751.078,2.7426682
1427148751.094,2.6748962
1427148751.11,2.3394928
1427148751.125,2.0867386
1427148751.141,2.228531
1427148751.156,2.897705
1427148751.172,4.065346
1427148751.188,5.504486
1427148751.203,6.981369
1427148751.219,8.328575
1427148751.235,9.592995
1427148751.25,11.006294
1427148751.266,12.846115
1427148751.282,15.208107
1427148751.297,17.838737
1427148751.313,20.174515
1427148751.328,21.56334
1427148751.344,21.52037
1427148751.36,20.000656
1427148751.375,17.334549
1427148751.391,14.063034
1427148751.406,10.660538
1427148751.422,7.4104156
1427148751.438,4.423126
1427148751.453,1.8047943
1427148751.469,-0.27508545
1427148751.485,-1.6132507
1427148751.5,-2.132431
1427148751.516,-1.954979
1427148751.532,-1.4106369
1427148751.547,-0.8668289
1427148751.563,-0.5571823
1427148751.578,-0.5824661
1427148751.594,-0.9135208
1427148751.61,-1.4895477
1427148751.625,-2.3024368
1427148751.641,-3.3320923
1427148751.657,-4.5238953
1427148751.672,-5.736122
1427148751.688,-6.858032
1427148751.703,-7.756218
1427148751.719,-8.439804
1427148751.735,-8.944786
1427148751.75,-9.316017
1427148751.766,-9.585472
1427148751.782,-9.790878
1427148751.797,-9.943375
1427148751.813,-10.046356
1427148751.828,-9.994118
1427148751.844,-9.636559
1427148751.86,-8.833847
1427148751.875,-7.6049347
1427148751.891,-6.1420517
1427148751.907,-4.7932053
1427148751.922,-3.850624
1427148751.938,-3.3900375
1427148751.953,-3.222252
1427148751.969,-3.0483093
1427148751.985,-2.5999527
1427148752,-1.8035126
1427148752.016,-0.7482681
1427148752.032,0.44972992
1427148752.047,1.7180405
1427148752.063,3.1213913
1427148752.078,4.7603607
1427148752.094,6.7130356
1427148752.11,8.950851
1427148752.125,11.384193
1427148752.141,13.869423
1427148752.157,16.192093
1427148752.172,18.106987
1427148752.188,19.22297
1427148752.203,19.18898
1427148752.219,17.748116
1427148752.235,14.931831
1427148752.25,11.117897
1427148752.266,6.909691
1427148752.282,2.965042
1427148752.297,-0.2689438
1427148752.313,-2.6871796
1427148752.328,-4.4316635
1427148752.344,-5.767357
1427148752.36,-6.841667
1427148752.375,-7.6748123
1427148752.391,-8.149841
1427148752.407,-8.222946
1427148752.422,-8.003143
1427148752.438,-7.769211
1427148752.453,-7.7850037
1427148752.469,-8.220474
1427148752.485,-9.02404
1427148752.5,-10.004944
1427148752.516,-10.964142
1427148752.532,-11.805641
1427148752.547,-12.522179
1427148752.563,-13.147766
1427148752.578,-13.684334
1427148752.594,-14.117546
1427148752.61,-14.413361
1427148752.625,-14.552734
1427148752.641,-14.507828
1427148752.657,-14.174118
1427148752.672,-13.401337
1427148752.688,-12.071236
1427148752.703,-10.211182
1427148752.719,-8.077301
1427148752.735,-6.038803
1427148752.75,-4.383827
1427148752.766,-3.1738358
1427148752.782,-2.2036667
1427148752.797,-1.1135635
1427148752.813,0.3460846
1427148752.828,2.2094345
1427148752.844,4.2750473
1427148752.86,6.2638626
1427148752.875,7.959984
1427148752.891,9.297417
1427148752.907,10.358124
1427148752.922,11.270615
1427148752.938,12.177414
1427148752.953,13.155914
1427148752.969,14.275688
1427148752.985,15.611786
1427148753,17.239265
1427148753.016,19.213745
1427148753.032,21.458832
1427148753.047,23.7303
1427148753.063,25.594688
1427148753.078,26.527061
1427148753.094,26.063034
1427148753.11,23.981316
1427148753.125,20.476135
1427148753.141,16.097313
1427148753.157,11.607742
1427148753.172,7.694565
1427148753.188,4.757889
1427148753.203,2.807251
1427148753.219,1.5640945
1427148753.235,0.6591339
1427148753.25,-0.14936829
1427148753.266,-0.89289856
1427148753.282,-1.4877777
1427148753.297,-1.8313293
1427148753.313,-2.0179367
1427148753.328,-2.217453
1427148753.344,-2.7261887
1427148753.36,-3.7015533
1427148753.375,-5.1547318
1427148753.391,-6.9367523
1427148753.407,-8.798103
1427148753.422,-10.5889435
1427148753.438,-12.174461
1427148753.453,-13.5186615
1427148753.469,-14.529968
1427148753.485,-15.041367
1427148753.5,-14.883362
1427148753.516,-13.964767
1427148753.532,-12.418472
1427148753.547,-10.579346
1427148753.563,-8.903511
1427148753.578,-7.701378
1427148753.594,-7.000885
1427148753.61,-6.489395
1427148753.625,-5.7529755
1427148753.641,-4.4209824
1427148753.657,-2.4809952
1427148753.672,-0.23358154
1427148753.688,1.834755
1427148753.703,3.3388748
1427148753.719,4.232544
1427148753.735,4.723274
1427148753.75,5.2169495
1427148753.766,6.0327454
1427148753.782,7.281822
1427148753.797,8.861023
1427148753.813,10.580597
1427148753.828,12.333832
1427148753.844,14.093864
1427148753.86,15.892136
1427148753.875,17.639465
1427148753.891,19.133514
1427148753.907,20.071068
1427148753.922,20.13108
1427148753.938,19.092697
1427148753.954,16.930702
1427148753.969,13.78492
1427148753.985,9.924904
1427148754,5.7368164
1427148754.016,1.6053467
1427148754.032,-2.083374
1427148754.047,-4.984421
1427148754.063,-6.8278046
1427148754.078,-7.48526
1427148754.094,-7.054283
1427148754.11,-5.841591
1427148754.125,-4.3406754
1427148754.141,-3.0636292
1427148754.157,-2.401352
1427148754.172,-2.4718933
1427148754.188,-3.1373367
1427148754.204,-4.0849915
1427148754.219,-4.974449
1427148754.235,-5.6448746
1427148754.25,-6.1372833
1427148754.266,-6.5680466
1427148754.282,-7.082863
1427148754.297,-7.7105255
1427148754.313,-8.410973
1427148754.329,-9.038734
1427148754.344,-9.551842
1427148754.36,-9.880806
1427148754.375,-10.051628
1427148754.391,-10.044815
1427148754.407,-9.803589
1427148754.422,-9.222786
1427148754.438,-8.172005
1427148754.454,-6.587845
1427148754.469,-4.494606
1427148754.485,-2.072235
1427148754.5,0.4493332
1427148754.516,2.7699203
1427148754.532,4.735176
1427148754.547,6.312134
1427148754.563,7.635254
1427148754.579,8.939751
1427148754.594,10.391632
1427148754.61,12.067291
1427148754.625,13.888306
1427148754.641,15.780334
1427148754.657,17.69905
1427148754.672,19.674965
1427148754.688,21.7126
1427148754.704,23.67714
1427148754.719,25.230446
1427148754.735,25.898201
1427148754.75,25.249908
1427148754.766,23.13607
1427148754.782,19.797241
1427148754.797,15.812561
1427148754.813,11.835766
1427148754.829,8.3601
1427148754.844,5.536644
1427148754.86,3.1639328
1427148754.875,0.9306412
1427148754.891,-1.3775711
1427148754.907,-3.7743835
1427148754.922,-6.013916
1427148754.938,-7.836239
1427148754.954,-9.027096
1427148754.969,-9.643066
1427148754.985,-9.93055
1427148755,-10.22126
1427148755.016,-10.762764
1427148755.032,-11.641998
1427148755.047,-12.721008
1427148755.063,-13.756748
1427148755.079,-14.511211
1427148755.094,-14.847576
1427148755.11,-14.7968445
1427148755.125,-14.511765
1427148755.141,-14.129253
1427148755.157,-13.750832
1427148755.172,-13.322098
1427148755.188,-12.712715
1427148755.204,-11.793022
1427148755.219,-10.51186
1427148755.235,-8.93944
1427148755.25,-7.2211056
1427148755.266,-5.4934483
1427148755.282,-3.8556309
1427148755.297,-2.2887306
1427148755.313,-0.7753105
1427148755.329,0.6998577
1427148755.344,2.1273785
1427148755.36,3.4925003
1427148755.375,4.8383255
1427148755.391,6.3022738
1427148755.407,8.036375
1427148755.422,10.1079445
1427148755.438,12.446325
1427148755.454,14.88346
1427148755.469,17.201534
1427148755.485,19.297062
1427148755.5,21.14357
1427148755.516,22.710033
1427148755.532,23.812056
1427148755.547,24.079956
1427148755.563,23.074812
1427148755.579,20.5481
1427148755.594,16.642439
1427148755.61,11.915779
1427148755.625,7.0847387
1427148755.641,2.7788463
1427148755.657,-0.74601555
1427148755.672,-3.5923057
1427148755.688,-6.06449
1427148755.704,-8.390675
1427148755.719,-10.515163
1427148755.735,-12.161968
1427148755.75,-12.996114
1427148755.766,-12.8337965
1427148755.782,-11.873371
1427148755.797,-10.559593
1427148755.813,-9.472576
1427148755.829,-9.001497
1427148755.844,-9.259075
1427148755.86,-10.036407
1427148755.875,-10.998692
1427148755.891,-11.882433
1427148755.907,-12.642414
1427148755.922,-13.36899
1427148755.938,-14.195173
1427148755.954,-15.070013
1427148755.969,-15.715128
1427148755.985,-15.774019
1427148756,-15.032154
1427148756.016,-13.50811
1427148756.032,-11.567318
1427148756.047,-9.668015
1427148756.063,-8.194073
1427148756.079,-7.284836
1427148756.094,-6.803322
1427148756.11,-6.420376
1427148756.125,-5.805771
1427148756.141,-4.7239037
1427148756.157,-3.0883713
1427148756.172,-1.0109787
1427148756.188,1.2974625
1427148756.204,3.6031952
1427148756.219,5.713253
1427148756.235,7.5546913
1427148756.25,9.1828
1427148756.266,10.800438
1427148756.282,12.651577
1427148756.297,14.922981
1427148756.313,17.545021
1427148756.329,20.234768
1427148756.344,22.419712
1427148756.36,23.445644
1427148756.375,22.814434
1427148756.391,20.397594
1427148756.407,16.527431
1427148756.422,11.897957
1427148756.438,7.291378
1427148756.454,3.2765427
1427148756.469,0.07022858
1427148756.485,-2.4643784
1427148756.5,-4.594139
1427148756.516,-6.448059
1427148756.532,-7.958893
1427148756.547,-8.898804
1427148756.563,-9.105354
1427148756.579,-8.662529
1427148756.594,-7.9069977
1427148756.61,-7.3515396
1427148756.625,-7.4115524
1427148756.641,-8.2556
1427148756.657,-9.732895
1427148756.672,-11.474716
1427148756.688,-13.057297
1427148756.704,-14.160637
1427148756.719,-14.708221
1427148756.735,-14.842461
1427148756.75,-14.831032
1427148756.766,-14.881874
1427148756.782,-15.059357
1427148756.797,-15.184509
1427148756.813,-14.982483
1427148756.829,-14.194122
1427148756.844,-12.765114
1427148756.86,-10.888824
1427148756.876,-8.899513
1427148756.891,-7.0767517
1427148756.907,-5.501541
1427148756.922,-4.007286
1427148756.938,-2.3840714
1427148756.954,-0.49617767
1427148756.969,1.5503235
1427148756.985,3.482048
1427148757.001,5.0057373
1427148757.016,6.0640335
1427148757.032,6.9081345
1427148757.047,7.9718475
1427148757.063,9.64241
1427148757.079,12.054291
1427148757.094,14.965118
1427148757.11,17.829086
1427148757.126,20.043495
1427148757.141,21.140717
1427148757.157,20.890182
1427148757.172,19.35347
1427148757.188,16.767082
1427148757.204,13.481834
1427148757.219,9.839157
1427148757.235,6.1580276
1427148757.251,2.737587
1427148757.266,-0.15809631
1427148757.282,-2.3429031
1427148757.297,-3.744011
1427148757.313,-4.4033356
1427148757.329,-4.491699
1427148757.344,-4.2024918
1427148757.36,-3.7251968
1427148757.376,-3.1918335
1427148757.391,-2.7582092
1427148757.407,-2.5607681
1427148757.422,-2.772232
1427148757.438,-3.5127106
1427148757.454,-4.761032
1427148757.469,-6.320343
1427148757.485,-7.842781
1427148757.501,-9.014893
1427148757.516,-9.646164
1427148757.532,-9.772995
1427148757.547,-9.58403
1427148757.563,-9.29158
1427148757.579,-8.995567
1427148757.594,-8.608299
1427148757.61,-7.9898224
1427148757.626,-7.0246887
1427148757.641,-5.7110825
1427148757.657,-4.132721
1427148757.672,-2.4004974
1427148757.688,-0.54992676
1427148757.704,1.4932404
1427148757.719,3.7131653
1427148757.735,6.0446625
1427148757.751,8.289001
1427148757.766,10.245499
1427148757.782,11.843506
1427148757.797,13.301971
1427148757.813,14.940552
1427148757.829,17.096481
1427148757.844,19.844849
1427148757.86,22.842697
1427148757.876,25.462936
1427148757.891,26.946838
1427148757.907,26.736496
1427148757.922,24.651642
1427148757.938,20.903992
1427148757.954,15.961441
1427148757.969,10.363556
1427148757.985,4.632141
1427148758.001,-0.7810669
1427148758.016,-5.445404
1427148758.032,-8.976288
1427148758.047,-11.151199
1427148758.063,-12.017151
1427148758.079,-11.891647
1427148758.094,-11.305069
1427148758.11,-10.762695
1427148758.126,-10.577118
1427148758.141,-10.799683
1427148758.157,-11.321381
1427148758.172,-12.00061
1427148758.188,-12.801559
1427148758.204,-13.640213
1427148758.219,-14.420181
1427148758.235,-14.972
1427148758.251,-15.094269
1427148758.266,-14.674591
1427148758.282,-13.778183
1427148758.297,-12.613754
1427148758.313,-11.47345
1427148758.329,-10.545944
1427148758.344,-9.877869
1427148758.36,-9.320557
1427148758.376,-8.667831
1427148758.391,-7.6211243
1427148758.407,-6.0092163
1427148758.422,-3.8046875
1427148758.438,-1.2169647
1427148758.454,1.445694
1427148758.469,3.8046875
1427148758.485,5.6294556
1427148758.501,6.919876
1427148758.516,7.859665
1427148758.532,8.746597
1427148758.547,9.842911
1427148758.563,11.352753
1427148758.579,13.445938
1427148758.594,16.23088
1427148758.61,19.662598
1427148758.626,23.474274
1427148758.641,27.066391
1427148758.657,29.604752
1427148758.672,30.289886
1427148758.688,28.653992
1427148758.704,24.77385
1427148758.719,19.260132
1427148758.735,13.060806
1427148758.751,7.153244
1427148758.766,2.2332
1427148758.782,-1.3910217
1427148758.797,-3.7967072
1427148758.813,-5.290344
1427148758.829,-6.1782227
1427148758.844,-6.718643
1427148758.86,-7.0184937
1427148758.876,-7.174179
1427148758.891,-7.2915344
1427148758.907,-7.5711365
1427148758.922,-8.179535
1427148758.938,-9.191147
1427148758.954,-10.432556
1427148758.969,-11.57695
1427148758.985,-12.414764
1427148759.001,-12.906433
1427148759.016,-13.327103
1427148759.032,-14.012619
1427148759.047,-15.162537
1427148759.063,-16.625748
1427148759.079,-17.93982
1427148759.094,-18.601501
1427148759.11,-18.308731
1427148759.126,-17.153046
1427148759.141,-15.4110565
1427148759.157,-13.496155
1427148759.172,-11.609528
1427148759.188,-9.79071
1427148759.204,-7.926361
1427148759.219,-5.914337
1427148759.235,-3.708374
1427148759.251,-1.3771973
1427148759.266,1.0238647
1427148759.282,3.4453735
1427148759.297,5.8437195
1427148759.313,8.176575
1427148759.329,10.415466
1427148759.344,12.595978
1427148759.36,14.8246765
1427148759.376,17.31369
1427148759.391,20.279755
1427148759.407,23.809784
1427148759.422,27.721436
1427148759.438,31.410522
1427148759.454,34.122223
1427148759.469,35.065308
1427148759.485,33.83841
1427148759.501,30.568542
1427148759.516,25.898254
1427148759.532,20.644623
1427148759.548,15.492523
1427148759.563,10.742126
1427148759.579,6.3395386
1427148759.594,2.1678162
1427148759.61,-1.7496643
1427148759.626,-5.165161
1427148759.641,-7.7596436
1427148759.657,-9.41864
1427148759.673,-10.363586
1427148759.688,-11.095032
1427148759.704,-12.093048
1427148759.719,-13.574097
1427148759.735,-15.374268
1427148759.751,-17.143341
1427148759.766,-18.540833
1427148759.782,-19.526001
1427148759.798,-20.288513
1427148759.813,-21.109741
1427148759.829,-22.151642
1427148759.844,-23.348572
1427148759.86,-24.434753
1427148759.876,-25.053131
1427148759.891,-24.881256
1427148759.907,-23.739594
1427148759.923,-21.658905
1427148759.938,-18.930237
1427148759.954,-15.996887
1427148759.969,-13.382538
1427148759.985,-11.449402
1427148760.001,-10.251617
1427148760.016,-9.477356
1427148760.032,-8.61087
1427148760.048,-7.1159363
1427148760.063,-4.6888733
1427148760.079,-1.3037415
1427148760.094,2.7705078
1427148760.11,7.125122
1427148760.126,11.318176
1427148760.141,15.015686
1427148760.157,18.032959
1427148760.173,20.410522
1427148760.188,22.405151
1427148760.204,24.432281
1427148760.219,26.903229
1427148760.235,30.011505
1427148760.251,33.595367
1427148760.266,37.189087
1427148760.282,40.09314
1427148760.298,41.623688
1427148760.313,41.266663
1427148760.329,38.809784
1427148760.344,34.3667
1427148760.36,28.348907
1427148760.376,21.405182
1427148760.391,14.255585
1427148760.407,7.5221252
1427148760.423,1.6031189
1427148760.438,-3.445221
1427148760.454,-7.6861877
1427148760.469,-11.298157
1427148760.485,-14.333038
1427148760.501,-16.807312
1427148760.516,-18.661377
1427148760.532,-19.995392
1427148760.548,-21.010498
1427148760.563,-21.987854
1427148760.579,-23.150665
1427148760.594,-24.566193
1427148760.61,-26.102783
1427148760.626,-27.537933
1427148760.641,-28.593384
1427148760.657,-29.08545
1427148760.673,-28.98993
1427148760.688,-28.443573
1427148760.704,-27.673615
1427148760.719,-26.894135
1427148760.735,-26.206726
1427148760.751,-25.53067
1427148760.766,-24.679382
1427148760.782,-23.453766
1427148760.798,-21.818024
1427148760.813,-19.957123
1427148760.829,-18.19992
1427148760.844,-16.84906
1427148760.86,-15.960358
1427148760.876,-15.316711
1427148760.891,-14.414734
1427148760.907,-12.824005
1427148760.923,-10.36322
1427148760.938,-7.2435303
1427148760.954,-3.984192
1427148760.969,-1.1409912
1427148760.985,1.049408
1427148761.001,2.7764282
1427148761.016,4.6649475
1427148761.032,7.4250793
1427148761.048,11.484802
1427148761.063,16.804474
1427148761.079,22.83139
1427148761.094,28.753662
1427148761.11,33.80786
1427148761.126,37.43268
1427148761.141,39.329987
1427148761.157,39.30298
1427148761.173,37.250397
1427148761.188,33.12784
1427148761.204,27.152405
1427148761.219,19.86618
1427148761.235,12.096588
1427148761.251,4.712036
1427148761.266,-1.6462402
1427148761.282,-6.6967773
1427148761.298,-10.542358
1427148761.313,-13.428223
1427148761.329,-15.569519
1427148761.344,-17.016907
1427148761.36,-17.776978
1427148761.376,-17.940704
1427148761.391,-17.690918
1427148761.407,-17.338837
1427148761.423,-17.164276
1427148761.438,-17.314636
1427148761.454,-17.734802
1427148761.469,-18.326141
1427148761.485,-18.99231
1427148761.501,-19.720154
1427148761.516,-20.514221
1427148761.532,-21.309479
1427148761.548,-21.940552
1427148761.563,-22.116638
1427148761.579,-21.588715
1427148761.594,-20.233429
1427148761.61,-18.1044
1427148761.626,-15.457672
1427148761.641,-12.5896
1427148761.657,-9.822662
1427148761.673,-7.3518066
1427148761.688,-5.263214
1427148761.704,-3.5449219
1427148761.719,-2.1880493
1427148761.735,-1.1002808
1427148761.751,-0.14276123
1427148761.766,0.9639282
1427148761.782,2.5618896
1427148761.798,4.895172
1427148761.813,7.9207764
1427148761.829,11.309143
1427148761.844,14.548035
1427148761.86,17.228027
1427148761.876,19.340057
1427148761.891,21.24469
1427148761.907,23.437592
1427148761.923,26.161224
1427148761.938,29.095123
1427148761.954,31.450012
1427148761.969,32.24942
1427148761.985,30.816254
1427148762.001,27.008942
1427148762.016,21.304321
1427148762.032,14.415466
1427148762.048,7.1142883
1427148762.063,0.0030212402
1427148762.079,-6.5205994
1427148762.094,-12.202606
1427148762.11,-16.8956
1427148762.126,-20.519562
1427148762.141,-23.038696
1427148762.157,-24.479523
1427148762.173,-24.971344
1427148762.188,-24.786194
1427148762.204,-24.240936
1427148762.22,-23.770782
1427148762.235,-23.673126
1427148762.251,-24.092651
1427148762.266,-24.943634
1427148762.282,-26.015991
1427148762.298,-27.06134
1427148762.313,-27.977783
1427148762.329,-28.670593
1427148762.344,-29.087097
1427148762.36,-29.13852
1427148762.376,-28.639923
1427148762.391,-27.404114
1427148762.407,-25.359192
1427148762.423,-22.578857
1427148762.438,-19.289093
1427148762.454,-15.779938
1427148762.47,-12.334045
1427148762.485,-9.14212
1427148762.501,-6.328827
1427148762.516,-3.7920837
1427148762.532,-1.3367004
1427148762.548,1.3239746
1427148762.563,4.351227
1427148762.579,7.7325745
1427148762.595,11.183899
1427148762.61,14.333649
1427148762.626,16.898651
1427148762.641,18.799896
1427148762.657,20.221954
1427148762.673,21.45227
1427148762.688,22.747803
1427148762.704,24.387482
1427148762.72,26.481415
1427148762.735,28.956451
1427148762.751,31.434662
1427148762.766,33.28955
1427148762.782,33.65445
1427148762.798,31.79181
1427148762.813,27.384064
1427148762.829,20.703064
1427148762.845,12.53537
1427148762.86,3.9138184
1427148762.876,-4.2042236
1427148762.891,-11.134705
1427148762.907,-16.50592
1427148762.923,-20.196259
1427148762.938,-22.234497
1427148762.954,-22.781647
1427148762.97,-22.16626
1427148762.985,-20.855194
1427148763.001,-19.385773
1427148763.016,-18.241272
1427148763.032,-17.741302
1427148763.048,-17.93518
1427148763.063,-18.723877
1427148763.079,-19.76532
1427148763.095,-20.715607
1427148763.11,-21.343445
1427148763.126,-21.613434
1427148763.141,-21.71585
1427148763.157,-21.895416
1427148763.173,-22.258484
1427148763.188,-22.67566
1427148763.204,-22.755554
1427148763.22,-22.080872
1427148763.235,-20.461456
1427148763.251,-18.08078
1427148763.266,-15.331757
1427148763.282,-12.629211
1427148763.298,-10.169647
1427148763.313,-7.87854
1427148763.329,-5.531555
1427148763.345,-2.9413757
1427148763.36,-0.0859375
1427148763.376,2.8665466
1427148763.391,5.7070007
1427148763.407,8.330414
1427148763.423,10.778107
1427148763.438,13.185089
1427148763.454,15.759918
1427148763.47,18.60025
1427148763.485,21.72699
1427148763.501,25.092987
1427148763.516,28.590576
1427148763.532,32.031464
1427148763.548,35.11264
1427148763.563,37.36319
1427148763.579,38.24478
1427148763.595,37.291077
1427148763.61,34.30313
1427148763.626,29.483032
1427148763.641,23.374817
1427148763.657,16.713654
1427148763.673,10.190704
1427148763.688,4.3255615
1427148763.704,-0.62750244
1427148763.72,-4.5873413
1427148763.735,-7.595001
1427148763.751,-9.773407
1427148763.766,-11.343567
1427148763.782,-12.613678
1427148763.798,-13.862305
1427148763.813,-15.252258
1427148763.829,-16.726257
1427148763.845,-18.067017
1427148763.86,-19.03009
1427148763.876,-19.566254
1427148763.891,-19.858795
1427148763.907,-20.284882
1427148763.923,-21.189209
1427148763.938,-22.689392
1427148763.954,-24.571014
1427148763.97,-26.436035
1427148763.985,-27.849304
1427148764.001,-28.474335
1427148764.016,-28.121033
1427148764.032,-26.759705
1427148764.048,-24.46643
1427148764.063,-21.496948
1427148764.079,-18.179382
1427148764.095,-14.929932
1427148764.11,-12.088837
1427148764.126,-9.775513
1427148764.141,-7.8464966
1427148764.157,-5.946289
1427148764.173,-3.728485
1427148764.188,-0.99002075
1427148764.204,2.2427673
1427148764.22,5.7738037
1427148764.235,9.34082
1427148764.251,12.685516
1427148764.266,15.700104
1427148764.282,18.322327
1427148764.298,20.621857
1427148764.313,22.723907
1427148764.329,24.833832
1427148764.345,27.102814
1427148764.36,29.598969
1427148764.376,32.15695
1427148764.391,34.463623
1427148764.407,36.033417
1427148764.423,36.34497
1427148764.438,34.938385
1427148764.454,31.549347
1427148764.47,26.199799
1427148764.485,19.281342
1427148764.501,11.528473
1427148764.516,3.8848877
1427148764.532,-2.7832947
1427148764.548,-7.8671265
1427148764.563,-11.24704
1427148764.579,-13.160187
1427148764.595,-14.101288
1427148764.61,-14.509735
1427148764.626,-14.733429
1427148764.641,-14.939362
1427148764.657,-15.236877
1427148764.673,-15.719238
1427148764.688,-16.475372
1427148764.704,-17.534088
1427148764.72,-18.794678
1427148764.735,-20.02472
1427148764.751,-20.947388
1427148764.766,-21.268555
1427148764.782,-20.8768
1427148764.798,-19.864746
1427148764.813,-18.545654
1427148764.829,-17.275879
1427148764.845,-16.302338
1427148764.86,-15.601929
1427148764.876,-14.894043
1427148764.892,-13.795441
1427148764.907,-12.029327
1427148764.923,-9.613525
1427148764.938,-6.841034
1427148764.954,-4.090088
1427148764.97,-1.6488953
1427148764.985,0.44760132
1427148765.001,2.3310547
1427148765.016,4.207672
1427148765.032,6.11203
1427148765.048,7.9866333
1427148765.063,9.689117
1427148765.079,11.22644
1427148765.095,12.755493
1427148765.11,14.630341
1427148765.126,17.189697
1427148765.142,20.73056
1427148765.157,25.240997
1427148765.173,30.360687
1427148765.188,35.377625
1427148765.204,39.32965
1427148765.22,41.285187
1427148765.235,40.666016
1427148765.251,37.456696
1427148765.267,32.18756
1427148765.282,25.728607
1427148765.298,18.944824
1427148765.313,12.427582
1427148765.329,6.4530945
1427148765.345,1.0869751
1427148765.36,-3.6132813
1427148765.376,-7.474045
1427148765.392,-10.235153
1427148765.407,-11.718918
1427148765.423,-11.956223
1427148765.438,-11.257385
1427148765.454,-10.098877
1427148765.47,-8.96347
1427148765.485,-8.183365
1427148765.501,-7.8625183
1427148765.517,-7.8819275
1427148765.532,-8.050873
1427148765.548,-8.191391
1427148765.563,-8.214355
1427148765.579,-8.079117
1427148765.595,-7.826004
1427148765.61,-7.4514465
1427148765.626,-7.0180206
1427148765.642,-6.598572
1427148765.657,-6.275482
1427148765.673,-6.073242
1427148765.688,-5.853363
1427148765.704,-5.32518
1427148765.72,-4.1759186
1427148765.735,-2.2839966
1427148765.751,0.1567688
1427148765.767,2.7085266
1427148765.782,4.867691
1427148765.798,6.353195
1427148765.813,7.2079926
1427148765.829,7.696274
1427148765.845,8.119339
1427148765.86,8.673416
1427148765.876,9.456619
1427148765.892,10.634033
1427148765.907,12.507019
1427148765.923,15.419312
1427148765.938,19.467209
1427148765.954,24.258224
1427148765.97,28.849655
1427148765.985,32.03441
1427148766.001,32.81996
1427148766.017,30.827301
1427148766.032,26.398468
1427148766.048,20.409973
1427148766.063,13.876236
1427148766.079,7.6302643
1427148766.095,2.1596222
1427148766.11,-2.3395386
1427148766.126,-5.9048004
1427148766.142,-8.612289
1427148766.157,-10.607788
1427148766.173,-12.042435
1427148766.188,-13.0360565
1427148766.204,-13.669037
1427148766.22,-13.971909
1427148766.235,-13.935928
1427148766.251,-13.584351
1427148766.267,-13.002487
1427148766.282,-12.339111
1427148766.298,-11.788559
1427148766.313,-11.522064
1427148766.329,-11.653366
1427148766.345,-12.201645
1427148766.36,-13.071869
1427148766.376,-14.072937
1427148766.392,-14.950302
1427148766.407,-15.473541
1427148766.423,-15.464661
1427148766.438,-14.878296
1427148766.454,-13.7026825
1427148766.47,-11.988907
1427148766.485,-9.821365
1427148766.501,-7.3623962
1427148766.517,-4.7848053
1427148766.532,-2.2755585
1427148766.548,0.08444214
1427148766.563,2.3309326
1427148766.579,4.5433655
1427148766.595,6.7933044
1427148766.61,9.080948
1427148766.626,11.309631
1427148766.642,13.531921
1427148766.657,15.961105
1427148766.673,18.950134
1427148766.688,22.739883
1427148766.704,27.247208
1427148766.72,31.88147
1427148766.735,35.69896
1427148766.751,37.72177
1427148766.767,37.34297
1427148766.782,34.46605
1427148766.798,29.495987
1427148766.813,23.050156
1427148766.829,15.813797
1427148766.845,8.35289
1427148766.86,1.1499329
1427148766.876,-5.3902435
1427148766.892,-10.93306
1427148766.907,-15.27327
1427148766.923,-18.353348
1427148766.938,-20.268936
1427148766.954,-21.194855
1427148766.97,-21.325699
1427148766.985,-20.819687
1427148767.001,-19.84874
1427148767.017,-18.55571
1427148767.032,-17.155655
1427148767.048,-15.937225
1427148767.063,-15.213501
1427148767.079,-15.2677765
1427148767.095,-16.296097
1427148767.11,-18.25734
1427148767.126,-20.900253
1427148767.142,-23.750702
1427148767.157,-26.26419
1427148767.173,-27.981476
1427148767.188,-28.70462
1427148767.204,-28.554657
1427148767.22,-27.871765
1427148767.235,-27.036362
1427148767.251,-26.302612
1427148767.267,-25.662766
1427148767.282,-24.907242
1427148767.298,-23.750427
1427148767.313,-21.996338
1427148767.329,-19.611755
1427148767.345,-16.747375
1427148767.36,-13.618042
1427148767.376,-10.481796
1427148767.392,-7.4903183
1427148767.407,-4.767357
1427148767.423,-2.4095917
1427148767.438,-0.4949417
1427148767.454,0.9725418
1427148767.47,2.0770264
1427148767.485,3.0293427
1427148767.501,4.0298233
1427148767.517,5.057007
1427148767.532,5.7649918
1427148767.548,5.4475327
1427148767.563,3.3249664
1427148767.579,-1.0518875
1427148767.595,-7.4485855
1427148767.61,-14.790916
1427148767.626,-21.504654
1427148767.642,-25.968231
1427148767.657,-27.188766
1427148767.673,-24.969986
1427148767.688,-19.819458
1427148767.704,-12.341682
1427148767.72,-2.781517
1427148767.735,9.24308
1427148767.751,24.406631
1427148767.767,43.1024
1427148767.782,64.861244
1427148767.798,88.10469
1427148767.814,110.47241
1427148767.829,129.34344
1427148767.845,142.37482
1427148767.86,147.78925
1427148767.876,144.42908
1427148767.892,131.7973
1427148767.907,110.36789
1427148767.923,81.99291
1427148767.939,50.002426
1427148767.954,18.830742
1427148767.97,-7.163727
1427148767.985,-25.012032
1427148768.001,-34.08236
1427148768.017,-36.034218
1427148768.032,-33.90084
1427148768.048,-30.70377
1427148768.064,-28.33525
1427148768.079,-27.309898
1427148768.095,-27.155289
1427148768.11,-27.16243
1427148768.126,-26.932869
1427148768.142,-26.398819
1427148768.157,-25.529755
1427148768.173,-24.103104
1427148768.189,-21.731812
1427148768.204,-18.118103
1427148768.22,-13.491409
1427148768.235,-8.563583
1427148768.251,-4.2852707
1427148768.267,-1.3396378
1427148768.282,0.23364258
1427148768.298,1.0817108
1427148768.314,2.2472916
1427148768.329,4.717621
1427148768.345,8.980339
1427148768.36,14.78582
1427148768.376,21.246742
1427148768.392,27.050613
1427148768.407,30.833984
1427148768.423,31.602089
1427148768.439,28.985405
1427148768.454,23.395142
1427148768.47,15.866745
1427148768.485,7.8107986
1427148768.501,0.4990692
1427148768.517,-5.2369766
1427148768.532,-9.217712
1427148768.548,-11.832603
1427148768.564,-13.732933
1427148768.579,-15.466797
1427148768.595,-17.275528
1427148768.61,-19.07277
1427148768.626,-20.639374
1427148768.642,-21.84539
1427148768.657,-22.765938
1427148768.673,-23.66362
1427148768.689,-24.844177
1427148768.704,-26.427597
1427148768.72,-28.332428
1427148768.735,-30.306679
1427148768.751,-32.080414
1427148768.767,-33.440804
1427148768.782,-34.331375
1427148768.798,-34.738678
1427148768.814,-34.680702
1427148768.829,-34.13553
1427148768.845,-33.07292
1427148768.86,-31.51197
1427148768.876,-29.521393
1427148768.892,-27.18238
1427148768.907,-24.638176
1427148768.923,-21.992767
1427148768.939,-19.391014
1427148768.954,-16.946587
1427148768.97,-14.797653
1427148768.985,-12.978111
1427148769.001,-11.43222
1427148769.017,-10.027222
1427148769.032,-8.571922
1427148769.048,-6.9409637
1427148769.064,-5.1142426
1427148769.079,-3.1992416
1427148769.095,-1.3536835
1427148769.11,0.32726288
1427148769.126,1.8575897
1427148769.142,3.3949203
1427148769.157,5.158386
1427148769.173,7.355072
1427148769.189,10.101868
1427148769.204,13.388252
1427148769.22,17.118027
1427148769.235,21.152893
1427148769.251,25.290321
1427148769.267,29.327572
1427148769.282,32.932888
1427148769.298,35.68098
1427148769.314,37.071533
1427148769.329,36.679806
1427148769.345,34.298145
1427148769.36,30.050747
1427148769.376,24.37062
1427148769.392,17.883656
1427148769.407,11.220776
1427148769.423,4.905655
1427148769.439,-0.7028389
1427148769.454,-5.3657036
1427148769.47,-8.923111
1427148769.485,-11.286407
1427148769.501,-12.491943
1427148769.517,-12.765438
1427148769.532,-12.497349
1427148769.548,-12.122097
1427148769.564,-12.012615
1427148769.579,-12.318726
1427148769.595,-12.965904
1427148769.61,-13.741138
1427148769.626,-14.412056
1427148769.642,-14.853415
1427148769.657,-15.110628
1427148769.673,-15.316017
1427148769.689,-15.609474
1427148769.704,-16.008135
1427148769.72,-16.379827
1427148769.735,-16.522846
1427148769.751,-16.229727
1427148769.767,-15.43107
1427148769.782,-14.221481
1427148769.798,-12.822258
1427148769.814,-11.488346
1427148769.829,-10.315285
1427148769.845,-9.260209
1427148769.86,-8.142657
1427148769.876,-6.811467
1427148769.892,-5.206001
1427148769.907,-3.4157424
1427148769.923,-1.5998502
1427148769.939,0.14015365
1427148769.954,1.8024173
1427148769.97,3.4627194
1427148769.985,5.2399817
1427148770.001,7.2071786
1427148770.017,9.397385
1427148770.032,11.793576
1427148770.048,14.439762
1427148770.064,17.396347
1427148770.079,20.741554
1427148770.095,24.396904
1427148770.11,28.079845
1427148770.126,31.289772
1427148770.142,33.400345
1427148770.157,33.85842
1427148770.173,32.376995
1427148770.189,29.036943
1427148770.204,24.262924
1427148770.22,18.702309
1427148770.235,13.016251
1427148770.251,7.701002
1427148770.267,3.0047321
1427148770.282,-1.0531158
1427148770.298,-4.54554
1427148770.314,-7.5447044
1427148770.329,-9.991194
1427148770.345,-11.763512
1427148770.36,-12.710728
1427148770.376,-12.815681
1427148770.392,-12.213753
1427148770.407,-11.225567
1427148770.423,-10.244823
1427148770.439,-9.642597
1427148770.454,-9.6141815
1427148770.47,-10.13517
1427148770.486,-11.0046425
1427148770.501,-11.955982
1427148770.517,-12.746517
1427148770.532,-13.279392
1427148770.548,-13.55835
1427148770.564,-13.653805
1427148770.579,-13.558731
1427148770.595,-13.1940155
1427148770.611,-12.438873
1427148770.626,-11.197205
1427148770.642,-9.479164
1427148770.657,-7.440838
1427148770.673,-5.3055763
1427148770.689,-3.2920532
1427148770.704,-1.5245667
1427148770.72,0.035251617
1427148770.736,1.5269318
1427148770.751,3.1240768
1427148770.767,4.9390717
1427148770.782,6.9417877
1427148770.798,9.027557
1427148770.814,11.056984
1427148770.829,12.976669
1427148770.845,14.832611
1427148770.861,16.803818
1427148770.876,19.072403
1427148770.892,21.744843
1427148770.907,24.69323
1427148770.923,27.58477
1427148770.939,29.92997
1427148770.954,31.215485
1427148770.97,31.054482
1427148770.986,29.305855
1427148771.001,26.084236
1427148771.017,21.732658
1427148771.032,16.781944
1427148771.048,11.769531
1427148771.064,7.1619644
1427148771.079,3.3344955
1427148771.095,0.51161194
1427148771.111,-1.1739197
1427148771.126,-1.7250595
1427148771.142,-1.2616119
1427148771.157,-0.118515015
1427148771.173,1.241066
1427148771.189,2.3050537
1427148771.204,2.687851
1427148771.22,2.2774887
1427148771.236,1.2265015
1427148771.251,-0.15293121
1427148771.267,-1.5891647
1427148771.282,-2.968605
1427148771.298,-4.347946
1427148771.314,-5.811302
1427148771.329,-7.3279114
1427148771.345,-8.72731
1427148771.361,-9.757751
1427148771.376,-10.229523
1427148771.392,-10.09758
1427148771.407,-9.500534
1427148771.423,-8.596611
1427148771.439,-7.5517273
1427148771.454,-6.397156
1427148771.47,-5.1049957
1427148771.486,-3.6438065
1427148771.501,-2.0402145
1427148771.517,-0.3748703
1427148771.532,1.2226486
1427148771.548,2.6776047
1427148771.564,3.949936
1427148771.579,5.0921707
1427148771.595,6.2370453
1427148771.611,7.5839844
1427148771.626,9.353905
1427148771.642,11.746605
1427148771.657,14.807877
1427148771.673,18.38491
1427148771.689,22.113487
1427148771.704,25.495644
1427148771.72,28.018768
1427148771.736,29.30603
1427148771.751,29.166367
1427148771.767,27.605087
1427148771.782,24.738785
1427148771.798,20.759811
1427148771.814,15.858147
1427148771.829,10.297028
1427148771.845,4.387802
1427148771.861,-1.4877701
1427148771.876,-6.91626
1427148771.892,-11.5488205
1427148771.907,-15.1918335
1427148771.923,-17.826424
1427148771.939,-19.619194
1427148771.954,-20.811676
1427148771.97,-21.637848
1427148771.986,-22.24202
1427148772.001,-22.677902
1427148772.017,-22.94191
1427148772.032,-23.095299
1427148772.048,-23.245003
1427148772.064,-23.580032
1427148772.079,-24.216858
1427148772.095,-25.107414
1427148772.111,-25.98217
1427148772.126,-26.473984
1427148772.142,-26.226288
1427148772.157,-25.089935
1427148772.173,-23.160797
1427148772.189,-20.742287
1427148772.204,-18.197014
1427148772.22,-15.816818
1427148772.236,-13.684555
1427148772.251,-11.707283
1427148772.267,-9.668266
1427148772.282,-7.3566055
1427148772.298,-4.655411
1427148772.314,-1.6053696
1427148772.329,1.6383514
1427148772.345,4.8846817
1427148772.361,7.9919205
1427148772.376,10.914986
1427148772.392,13.759827
1427148772.407,16.664612
1427148772.423,19.812508
1427148772.439,23.315193
1427148772.454,27.255676
1427148772.47,31.587517
1427148772.486,36.12893
1427148772.501,40.462433
1427148772.517,43.981155
1427148772.532,45.943153
1427148772.548,45.7415
1427148772.564,43.07882
1427148772.579,38.11123
1427148772.595,31.418633
1427148772.611,23.809807
1427148772.626,16.11274
1427148772.642,9.064186
1427148772.657,3.1549454
1427148772.673,-1.4008255
1427148772.689,-4.6482086
1427148772.704,-6.8678513
1427148772.72,-8.511116
1427148772.736,-10.001404
1427148772.751,-11.608139
1427148772.767,-13.343597
1427148772.782,-15.023155
1427148772.798,-16.352081
1427148772.814,-17.187653
1427148772.829,-17.535461
1427148772.845,-17.613602
1427148772.861,-17.687706
1427148772.876,-17.950447
1427148772.892,-18.384872
1427148772.907,-18.804253
1427148772.923,-18.874855
1427148772.939,-18.26458
1427148772.954,-16.727516
1427148772.97,-14.130302
1427148772.986,-10.494347
1427148773.001,-5.9452972
1427148773.017,-0.68065643
1427148773.032,4.993538
1427148773.048,10.611519
1427148773.064,15.586174
1427148773.079,19.287888
1427148773.095,21.266129
1427148773.111,21.494461
1427148773.126,20.336494
1427148773.142,18.495476
1427148773.158,16.699959
1427148773.173,15.5058975
1427148773.189,15.157303
1427148773.204,15.725441
1427148773.22,17.176094
1427148773.236,19.455704
1427148773.251,22.415146
1427148773.267,25.699516
1427148773.283,28.708534
1427148773.298,30.70626
1427148773.314,31.03968
1427148773.329,29.387054
1427148773.345,25.83638
1427148773.361,20.856377
1427148773.376,15.106026
1427148773.392,9.305542
1427148773.408,4.0118484
1427148773.423,-0.45283508
1427148773.439,-4.029724
1427148773.454,-6.88237
1427148773.47,-9.247696
1427148773.486,-11.278564
1427148773.501,-13.002487
1427148773.517,-14.34153
1427148773.533,-15.261017
1427148773.548,-15.868507
1427148773.564,-16.403374
1427148773.579,-17.097115
1427148773.595,-18.032303
1427148773.611,-19.035439
1427148773.626,-19.797585
1427148773.642,-19.991714
1427148773.658,-19.488586
1427148773.673,-18.417183
1427148773.689,-17.046135
1427148773.704,-15.63884
1427148773.72,-14.312805
1427148773.736,-13.005585
1427148773.751,-11.543442
1427148773.767,-9.708977
1427148773.783,-7.388626
1427148773.798,-4.6018143
1427148773.814,-1.5439835
1427148773.829,1.496006
1427148773.845,4.197674
1427148773.861,6.398281
1427148773.876,8.108856
1427148773.892,9.572876
1427148773.908,11.157551
1427148773.923,13.200264
1427148773.939,15.903294
1427148773.954,19.261555
1427148773.97,23.083176
1427148773.986,26.9324
1427148774.001,30.225018
1427148774.017,32.30471
1427148774.033,32.57091
1427148774.048,30.70588
1427148774.064,26.814796
1427148774.079,21.467201
1427148774.095,15.490711
1427148774.111,9.739235
1427148774.126,4.7429733
1427148774.142,0.71624374
1427148774.158,-2.4622345
1427148774.173,-5.0012283
1427148774.189,-7.094349
1427148774.204,-8.787529
1427148774.22,-10.068399
1427148774.236,-10.957714
1427148774.251,-11.525373
1427148774.267,-11.918011
1427148774.283,-12.281916
1427148774.298,-12.70322
1427148774.314,-13.164919
1427148774.329,-13.562296
1427148774.345,-13.8051605
1427148774.361,-13.858185
1427148774.376,-13.816796
1427148774.392,-13.827317
1427148774.408,-14.035264
1427148774.423,-14.458337
1427148774.439,-14.988381
1427148774.454,-15.401266
1427148774.47,-15.493893
1427148774.486,-15.124458
1427148774.501,-14.29399
1427148774.517,-12.989501
1427148774.533,-11.226332
1427148774.548,-8.976875
1427148774.564,-6.324044
1427148774.579,-3.473927
1427148774.595,-0.78553367
1427148774.611,1.40814
1427148774.626,2.9785028
1427148774.642,4.1089106
1427148774.658,5.2487073
1427148774.673,6.921508
1427148774.689,9.46355
1427148774.704,12.940879
1427148774.72,17.101524
1427148774.736,21.538013
1427148774.751,25.771517
1427148774.767,29.346079
1427148774.783,31.841835
1427148774.798,32.916225
1427148774.814,32.295586
1427148774.829,29.878315
1427148774.845,25.792778
1427148774.861,20.41563
1427148774.876,14.321463
1427148774.892,8.205631
1427148774.908,2.6815376
1427148774.923,-1.8324261
1427148774.939,-5.2012672
1427148774.954,-7.5340576
1427148774.97,-9.079819
1427148774.986,-10.068302
1427148775.001,-10.692318
1427148775.017,-11.098682
1427148775.033,-11.486507
1427148775.048,-12.107578
1427148775.064,-13.182056
1427148775.079,-14.77734
1427148775.095,-16.765564
1427148775.111,-18.8792
1427148775.126,-20.890343
1427148775.142,-22.71545
1427148775.158,-24.410053
1427148775.173,-26.012981
1427148775.189,-27.382881
1427148775.204,-28.18637
1427148775.22,-28.018673
1427148775.236,-26.654602
1427148775.251,-24.232853
1427148775.267,-21.231285
1427148775.283,-18.233986
1427148775.298,-15.677589
1427148775.314,-13.687744
1427148775.329,-12.039261
1427148775.345,-10.358559
1427148775.361,-8.262203
1427148775.376,-5.539566
1427148775.392,-2.2088165
1427148775.408,1.4846497
1427148775.423,5.1641464
1427148775.439,8.445862
1427148775.454,11.1194
1427148775.47,13.17849
1427148775.486,14.843109
1427148775.501,16.43573
1427148775.517,18.279732
1427148775.533,20.561485
1427148775.548,23.295113
1427148775.564,26.263153
1427148775.579,29.059921
1427148775.595,31.113052
1427148775.611,31.819878
1427148775.626,30.655014
1427148775.642,27.35524
1427148775.658,22.044815
1427148775.673,15.229385
1427148775.689,7.676689
1427148775.704,0.18952942
1427148775.72,-6.588852
1427148775.736,-12.288361
1427148775.751,-16.808868
1427148775.767,-20.2276
1427148775.783,-22.667816
1427148775.798,-24.24939
1427148775.814,-25.10476
1427148775.83,-25.341202
1427148775.845,-25.150673
1427148775.861,-24.75644
1427148775.876,-24.401726
1427148775.892,-24.217659
1427148775.908,-24.198051
1427148775.923,-24.184158
1427148775.939,-23.95597
1427148775.954,-23.362518
1427148775.97,-22.404594
1427148775.986,-21.228157
1427148776.001,-20.034134
1427148776.017,-18.944977
1427148776.033,-17.921867
1427148776.048,-16.772743
1427148776.064,-15.266342
1427148776.08,-13.227867
1427148776.095,-10.662781
1427148776.111,-7.7230377
1427148776.126,-4.6754913
1427148776.142,-1.7716904
1427148776.158,0.774971
1427148776.173,2.8925858
1427148776.189,4.6268005
1427148776.205,6.1820984
1427148776.22,7.7937393
1427148776.236,9.675102
1427148776.251,11.874542
1427148776.267,14.271904
1427148776.283,16.575897
1427148776.298,18.46643
1427148776.314,19.731606
1427148776.33,20.373047
1427148776.345,20.6297
1427148776.361,20.92775
1427148776.376,21.754265
1427148776.392,23.53495
1427148776.408,26.445854
1427148776.423,30.227493
1427148776.439,34.153023
1427148776.455,37.148483
1427148776.47,38.043854
1427148776.486,36.040276
1427148776.501,31.023079
1427148776.517,23.675415
1427148776.533,15.277443
1427148776.548,7.3111954
1427148776.564,0.99057007
1427148776.58,-2.9455643
1427148776.595,-4.3383636
1427148776.611,-3.4382095
1427148776.626,-0.78808594
1427148776.642,2.9459915
1427148776.658,7.081131
1427148776.673,10.974945
1427148776.689,14.142784
1427148776.705,16.324135
1427148776.72,17.464684
1427148776.736,17.597397
1427148776.751,16.678383
1427148776.767,14.52858
1427148776.783,10.818123
1427148776.798,5.2399673
1427148776.814,-2.245491
1427148776.83,-11.260094
1427148776.845,-21.031334
1427148776.861,-30.54139
1427148776.876,-38.892044
1427148776.892,-45.511642
1427148776.908,-50.19111
1427148776.923,-53.029076
1427148776.939,-54.235413
1427148776.955,-54.006798
1427148776.97,-52.550987
1427148776.986,-50.12387
1427148777.001,-47.100296
1427148777.017,-43.915306
1427148777.033,-40.952545
1427148777.048,-38.380722
1427148777.064,-36.077324
1427148777.08,-33.75255
1427148777.095,-31.043732
1427148777.111,-27.718918
1427148777.126,-23.778046
1427148777.142,-19.380737
1427148777.158,-14.789833
1427148777.173,-10.250946
1427148777.189,-5.951103
1427148777.205,-1.9412842
1427148777.22,1.7990799
1427148777.236,5.4173813
1427148777.251,9.07769
1427148777.267,12.935722
1427148777.283,17.08992
1427148777.298,21.471352
1427148777.314,25.8115
1427148777.33,29.665474
1427148777.345,32.423653
1427148777.361,33.487915
1427148777.376,32.454803
1427148777.392,29.254166
1427148777.408,24.195404
1427148777.423,17.953377
1427148777.439,11.311638
1427148777.455,5.001587
1427148777.47,-0.47864532
1427148777.486,-4.9387207
1427148777.501,-8.430824
1427148777.517,-11.100777
1427148777.533,-13.124275
1427148777.548,-14.62014
1427148777.564,-15.700798
1427148777.58,-16.453796
1427148777.595,-16.997108
1427148777.611,-17.410126
1427148777.626,-17.767136
1427148777.642,-18.117828
1427148777.658,-18.498413
1427148777.673,-18.947083
1427148777.689,-19.462898
1427148777.705,-19.946747
1427148777.72,-20.252594
1427148777.736,-20.210342
1427148777.751,-19.713638
1427148777.767,-18.782784
1427148777.783,-17.570244
1427148777.798,-16.26905
1427148777.814,-15.0657425
1427148777.83,-14.069855
1427148777.845,-13.302727
1427148777.861,-12.739449
1427148777.876,-12.355095
1427148777.892,-12.047455
1427148777.908,-11.699417
1427148777.923,-11.083481
1427148777.939,-10.022957
1427148777.955,-8.453579
1427148777.97,-6.4658127
1427148777.986,-4.2948
1427148778.001,-2.2288094
1427148778.017,-0.4777832
1427148778.033,0.88397217
1427148778.048,1.9838028
1427148778.064,3.0159607
1427148778.08,4.267231
1427148778.095,5.938591
1427148778.111,8.132694
1427148778.126,10.771313
1427148778.142,13.651543
1427148778.158,16.395592
1427148778.173,18.526028
1427148778.189,19.552359
1427148778.205,19.075977
1427148778.22,16.911535
1427148778.236,13.198175
1427148778.251,8.399883
1427148778.267,3.2506676
1427148778.283,-1.4804897
1427148778.298,-5.1843195
1427148778.314,-7.6507254
1427148778.33,-9.023005
1427148778.345,-9.687616
1427148778.361,-10.002991
1427148778.376,-10.128236
1427148778.392,-10.003579
1427148778.408,-9.545655
1427148778.423,-8.771528
1427148778.439,-7.9383917
1427148778.455,-7.3633738
1427148778.47,-7.2696
1427148778.486,-7.5760574
1427148778.501,-7.97863
1427148778.517,-8.08251
1427148778.533,-7.716797
1427148778.548,-7.0038815
1427148778.564,-6.283951
1427148778.58,-5.880909
1427148778.595,-5.8578453
1427148778.611,-5.948307
1427148778.626,-5.700096
1427148778.642,-4.6954346
1427148778.658,-2.789875
1427148778.673,-0.16967773
1427148778.689,2.6840515
1427148778.705,5.289253
1427148778.72,7.289261
1427148778.736,8.6082115
1427148778.752,9.3953705
1427148778.767,9.912102
1427148778.783,10.33593
1427148778.798,10.728439
1427148778.814,11.052399
1427148778.83,11.312546
1427148778.845,11.668457
1427148778.861,12.429161
1427148778.877,13.919144
1427148778.892,16.303978
1427148778.908,19.438828
1427148778.923,22.877365
1427148778.939,26.007019
1427148778.955,28.256454
1427148778.97,29.205925
1427148778.986,28.674759
1427148779.002,26.65628
1427148779.017,23.282028
1427148779.033,18.789604
1427148779.048,13.570061
1427148779.064,8.096222
1427148779.08,2.8919754
1427148779.095,-1.6301041
1427148779.111,-5.2599716
1427148779.127,-8.031387
1427148779.142,-10.108406
1427148779.158,-11.6558
1427148779.173,-12.682571
1427148779.189,-13.091385
1427148779.205,-12.74456
1427148779.22,-11.676292
1427148779.236,-10.145294
1427148779.252,-8.626511
1427148779.267,-7.594116
1427148779.283,-7.3431244
1427148779.298,-7.8103943
1427148779.314,-8.670349
1427148779.33,-9.507004
1427148779.345,-10.020493
1427148779.361,-10.148651
1427148779.377,-10.039612
1427148779.392,-9.830826
1427148779.408,-9.5685425
1427148779.423,-9.087616
1427148779.439,-8.168259
1427148779.455,-6.6015625
1427148779.47,-4.395645
1427148779.486,-1.738205
1427148779.502,1.076767
1427148779.517,3.7635498
1427148779.533,6.109421
1427148779.548,8.0503845
1427148779.564,9.619385
1427148779.58,10.935944
1427148779.595,12.173126
1427148779.611,13.502808
1427148779.627,15.075516
1427148779.642,16.956253
1427148779.658,19.136993
1427148779.673,21.55458
1427148779.689,24.097977
1427148779.705,26.631058
1427148779.72,28.932968
1427148779.736,30.69989
1427148779.752,31.500748
1427148779.767,30.95195
1427148779.783,28.771576
1427148779.798,24.97699
1427148779.814,19.914886
1427148779.83,14.198395
1427148779.845,8.534058
1427148779.861,3.5546417
1427148779.877,-0.38293457
1427148779.892,-3.2096405
1427148779.908,-5.0676117
1427148779.923,-6.1533203
1427148779.939,-6.6387787
1427148779.955,-6.5711365
1427148779.97,-5.9601593
1427148779.986,-4.846451
1427148780.002,-3.391388
1427148780.017,-1.8632813
1427148780.033,-0.5932007
1427148780.048,0.14717102
1427148780.064,0.21624756
1427148780.08,-0.32511902
1427148780.095,-1.2793732
1427148780.111,-2.3321228
1427148780.127,-3.1199493
1427148780.142,-3.2533722
1427148780.158,-2.448532
1427148780.173,-0.6075897
1427148780.189,2.0885773
1427148780.205,5.206787
1427148780.22,8.20752
1427148780.236,10.685471
1427148780.252,12.524918
1427148780.267,13.920273
1427148780.283,15.206665
1427148780.298,16.676956
1427148780.314,18.390396
1427148780.33,20.249252
1427148780.345,22.032867
1427148780.361,23.488235
1427148780.377,24.26683
1427148780.392,23.927017
1427148780.408,21.94838
1427148780.423,17.968582
1427148780.439,12.055252
1427148780.455,4.878662
1427148780.47,-2.4149933
1427148780.486,-8.58403
1427148780.502,-12.8207245
1427148780.517,-14.96283
1427148780.533,-15.576202
1427148780.548,-15.58902
1427148780.564,-15.881454
1427148780.58,-16.914627
1427148780.595,-18.633423
1427148780.611,-20.573395
1427148780.627,-22.11261
1427148780.642,-22.739212
1427148780.658,-22.215652
1427148780.673,-20.6297
1427148780.689,-18.303894
1427148780.705,-15.579514
1427148780.72,-12.749298
1427148780.736,-10.016098
1427148780.752,-7.516266
1427148780.767,-5.4100647
1427148780.783,-3.9003143
1427148780.798,-3.139389
1427148780.814,-3.1578522
1427148780.83,-3.7781372
1427148780.845,-4.6848297
1427148780.861,-5.5084534
1427148780.877,-6.0183716
1427148780.892,-6.131363
1427148780.908,-5.9073334
1427148780.923,-5.4662933
1427148780.939,-4.862854
1427148780.955,-4.0817566
1427148780.97,-3.0726929
1427148780.986,-1.7589417
1427148781.002,-0.15827942
1427148781.017,1.6643219
1427148781.033,3.5780182
1427148781.048,5.4651184
1427148781.064,7.2015533
1427148781.08,8.77153
1427148781.095,10.198959
1427148781.111,11.553864
1427148781.127,12.8771515
1427148781.142,14.17511
1427148781.158,15.40213
1427148781.173,16.542206
1427148781.189,17.602676
1427148781.205,18.657791
1427148781.22,19.81282
1427148781.236,21.172104
1427148781.252,22.798767
1427148781.267,24.72226
1427148781.283,26.82521
1427148781.298,28.855316
1427148781.314,30.398895
1427148781.33,30.970352
1427148781.345,30.170181
1427148781.361,27.851517
1427148781.377,24.195206
1427148781.392,19.659073
1427148781.408,14.793121
1427148781.424,10.067459
1427148781.439,5.773514
1427148781.455,2.07547
1427148781.47,-0.91223145
1427148781.486,-3.0353851
1427148781.502,-4.1904755
1427148781.517,-4.394577
1427148781.533,-3.8697357
1427148781.549,-2.9799805
1427148781.564,-2.182907
1427148781.58,-1.8306274
1427148781.595,-2.1345673
1427148781.611,-3.0722198
1427148781.627,-4.448181
1427148781.642,-5.846985
1427148781.658,-6.8684387
1427148781.674,-7.210144
1427148781.689,-6.86203
1427148781.705,-6.094696
1427148781.72,-5.3593445
1427148781.736,-5.0326385
1427148781.752,-5.2029724
1427148781.767,-5.603119
1427148781.783,-5.7690277
1427148781.799,-5.2742004
1427148781.814,-3.9662933
1427148781.83,-1.9254303
1427148781.845,0.556839
1427148781.861,3.2209015
1427148781.877,5.8221436
1427148781.892,8.130432
1427148781.908,9.8224945
1427148781.924,10.530991
1427148781.939,9.93927
1427148781.955,8.059601
1427148781.97,5.307434
1427148781.986,2.4562225
1427148782.002,0.33395386
1427148782.017,-0.46733093
1427148782.033,0.1980133
1427148782.049,2.0024872
1427148782.064,4.3049164
1427148782.08,6.4295807
1427148782.095,7.7891083
1427148782.111,8.070526
1427148782.127,7.133316
1427148782.142,5.0667114
1427148782.158,2.0881958
1427148782.174,-1.4076691
1427148782.189,-4.9192505
1427148782.205,-7.8863525
1427148782.22,-9.8573
1427148782.236,-10.598297
1427148782.252,-10.154251
1427148782.267,-8.7838745
1427148782.283,-6.8764954
1427148782.299,-4.8447876
1427148782.314,-3.0591583
1427148782.33,-1.8035889
1427148782.345,-1.2680969
1427148782.361,-1.503067
1427148782.377,-2.3924713
1427148782.392,-3.6693573
1427148782.408,-4.9937286
1427148782.424,-6.0746613
1427148782.439,-6.7652435
1427148782.455,-7.0775757
1427148782.47,-7.149597
1427148782.486,-7.106415
1427148782.502,-6.9935303
1427148782.517,-6.7503357
1427148782.533,-6.248337
1427148782.549,-5.3554993
1427148782.564,-4.0163574
1427148782.58,-2.2460938
1427148782.595,-0.14451599
1427148782.611,2.113861
1427148782.627,4.29657
1427148782.642,6.2150116
1427148782.658,7.7459106
1427148782.674,8.937714
1427148782.689,9.983078
1427148782.705,11.142883
1427148782.72,12.627457
1427148782.736,14.462906
1427148782.752,16.460907
1427148782.767,18.269135
1427148782.783,19.437729
1427148782.799,19.565369
1427148782.814,18.366135
1427148782.83,15.802689
1427148782.845,12.039291
1427148782.861,7.496277
1427148782.877,2.7094269
1427148782.892,-1.7937012
1427148782.908,-5.600769
1427148782.924,-8.543655
1427148782.939,-10.63002
1427148782.955,-11.976425
1427148782.97,-12.715515
1427148782.986,-12.93512
1427148783.002,-12.722183
1427148783.017,-12.198776
1427148783.033,-11.548706
1427148783.049,-10.925339
1427148783.064,-10.380981
1427148783.08,-9.841049
1427148783.095,-9.129929
1427148783.111,-8.117493
1427148783.127,-6.8526917
1427148783.142,-5.544235
1427148783.158,-4.513748
1427148783.174,-4.0169373
1427148783.189,-4.0827637
1427148783.205,-4.460861
1427148783.22,-4.7318726
1427148783.236,-4.4866333
1427148783.252,-3.5187988
1427148783.267,-1.8868256
1427148783.283,0.1076355
1427148783.299,2.1463013
1427148783.314,4.012848
1427148783.33,5.7768097
1427148783.345,7.608673
1427148783.361,9.760223
1427148783.377,12.319588
1427148783.392,15.207489
1427148783.408,18.197922
1427148783.424,21.068108
1427148783.439,23.642746
1427148783.455,25.748062
1427148783.47,27.142792
1427148783.486,27.47538
1427148783.502,26.368004
1427148783.517,23.63691
1427148783.533,19.436493
1427148783.549,14.28933
1427148783.564,8.919182
1427148783.58,3.9699326
1427148783.595,-0.19659424
1427148783.611,-3.5235062
1427148783.627,-6.144638
1427148783.642,-8.183189
1427148783.658,-9.630455
1427148783.674,-10.433258
1427148783.689,-10.599113
1427148783.705,-10.245682
1427148783.72,-9.652443
1427148783.736,-9.14106
1427148783.752,-8.986839
1427148783.767,-9.327377
1427148783.783,-10.19928
1427148783.799,-11.520355
1427148783.814,-13.137894
1427148783.83,-14.806015
1427148783.845,-16.204155
1427148783.861,-17.012886
1427148783.877,-16.98288
1427148783.892,-16.03444
1427148783.908,-14.288582
1427148783.924,-12.009842
1427148783.939,-9.509552
1427148783.955,-7.0124435
1427148783.97,-4.6557007
1427148783.986,-2.4409866
1427148784.002,-0.32242584
1427148784.017,1.7487869
1427148784.033,3.7926102
1427148784.049,5.8074875
1427148784.064,7.8226433
1427148784.08,9.946873
1427148784.096,12.306194
1427148784.111,14.978378
1427148784.127,17.857044
1427148784.142,20.58577
1427148784.158,22.627975
1427148784.174,23.43472
1427148784.189,22.60659
1427148784.205,20.078594
1427148784.221,16.107544
1427148784.236,11.170799
1427148784.252,5.8096733
1427148784.267,0.5599098
1427148784.283,-4.170559
1427148784.299,-8.082703
1427148784.314,-11.019173
1427148784.33,-12.967224
1427148784.346,-14.02803
1427148784.361,-14.389431
1427148784.377,-14.282398
1427148784.392,-13.922325
1427148784.408,-13.516056
1427148784.424,-13.233522
1427148784.439,-13.210184
1427148784.455,-13.473377
1427148784.471,-13.961176
1427148784.486,-14.4621105
1427148784.502,-14.730217
1427148784.517,-14.597399
1427148784.533,-14.049511
1427148784.549,-13.281103
1427148784.564,-12.574593
1427148784.58,-12.157932
1427148784.596,-12.0765
1427148784.611,-12.166208
1427148784.627,-12.148848
1427148784.642,-11.7328
1427148784.658,-10.782362
1427148784.674,-9.352083
1427148784.689,-7.7101717
1427148784.705,-6.1711454
1427148784.721,-5.0276394
1427148784.736,-4.3814754
1427148784.752,-4.1379614
1427148784.767,-4.0147324
1427148784.783,-3.6689825
1427148784.799,-2.854805
1427148784.814,-1.5656152
1427148784.83,-0.036096573
1427148784.846,1.2534142
1427148784.861,1.773943
1427148784.877,1.1203818
1427148784.892,-0.8159685
1427148784.908,-3.8363318
1427148784.924,-7.453555
1427148784.939,-11.150976
1427148784.955,-14.48227
1427148784.971,-17.224846
1427148784.986,-19.335554
1427148785.002,-20.86105
1427148785.017,-21.831436
1427148785.033,-22.202467
1427148785.049,-21.943914
1427148785.064,-21.15411
1427148785.08,-20.057503
1427148785.096,-19.022306
1427148785.111,-18.347523
1427148785.127,-18.14531
1427148785.142,-18.282894
1427148785.158,-18.419813
1427148785.174,-18.157173
1427148785.189,-17.301468
1427148785.205,-15.859935
1427148785.221,-14.115114
1427148785.236,-12.364378
1427148785.252,-10.85251
1427148785.267,-9.576736
1427148785.283,-8.384333
1427148785.299,-7.0431633
1427148785.314,-5.4112835
1427148785.33,-3.4827747
1427148785.346,-1.3480492
1427148785.361,0.85149384
1427148785.377,3.033165
1427148785.392,5.157324
1427148785.408,7.1794243
1427148785.424,9.039854
1427148785.439,10.592606
1427148785.455,11.760859
1427148785.471,12.5649185
1427148785.486,13.248543
1427148785.502,14.146793
1427148785.517,15.551182
1427148785.533,17.538979
1427148785.549,19.893547
1427148785.564,22.110111
1427148785.58,23.60556
1427148785.596,23.932762
1427148785.611,22.887268
1427148785.627,20.580822
1427148785.642,17.340427
1427148785.658,13.579479
1427148785.674,9.670479
1427148785.689,5.9098434
1427148785.705,2.507904
1427148785.721,-0.33338165
1427148785.736,-2.4442444
1427148785.752,-3.71204
1427148785.767,-4.119892
1427148785.783,-3.819416
1427148785.799,-3.0911827
1427148785.814,-2.3105621
1427148785.83,-1.822506
1427148785.846,-1.8950386
1427148785.861,-2.6353264
1427148785.877,-4.005989
1427148785.892,-5.8053017
1427148785.908,-7.7519913
1427148785.924,-9.535812
1427148785.939,-10.913364
1427148785.955,-11.773056
1427148785.971,-12.184376
1427148785.986,-12.317135
1427148786.002,-12.326164
1427148786.017,-12.241146
1427148786.033,-11.910103
1427148786.049,-11.075077
1427148786.064,-9.50589
1427148786.08,-7.1205826
1427148786.096,-4.0678864
1427148786.111,-0.7177048
1427148786.127,2.42128
1427148786.142,4.8541565
1427148786.158,6.2237854
1427148786.174,6.4012527
1427148786.189,5.5259857
1427148786.205,3.9523163
1427148786.221,2.111061
1427148786.236,0.38741302
1427148786.252,-1.0095444
1427148786.267,-2.0243149
1427148786.283,-2.7253952
1427148786.299,-3.2253647
1427148786.314,-3.6470566
1427148786.33,-4.1217346
1427148786.346,-4.834709
1427148786.361,-5.959831
1427148786.377,-7.5889587
1427148786.392,-9.626236
1427148786.408,-11.779541
1427148786.424,-13.64016
1427148786.439,-14.880379
1427148786.455,-15.365341
1427148786.471,-15.202309
1427148786.486,-14.641563
1427148786.502,-13.9603195
1427148786.517,-13.358505
1427148786.533,-12.971977
1427148786.549,-12.833748
1427148786.564,-12.975739
1427148786.58,-13.360329
1427148786.596,-13.901695
1427148786.611,-14.39872
1427148786.627,-14.6336975
1427148786.642,-14.396492
1427148786.658,-13.629448
1427148786.674,-12.390945
1427148786.689,-10.811981
1427148786.705,-9.038528
1427148786.721,-7.145157
1427148786.736,-5.1652603
1427148786.752,-3.1842957
1427148786.768,-1.3002625
1427148786.783,0.3518219
1427148786.799,1.7075348
1427148786.814,2.8231506
1427148786.83,3.921051
1427148786.846,5.228668
1427148786.861,6.9243774
1427148786.877,8.963028
1427148786.892,11.172546
1427148786.908,13.352158
1427148786.924,15.399872
1427148786.939,17.363129
1427148786.955,19.32225
1427148786.971,21.261368
1427148786.986,22.925308
1427148787.002,23.896622
1427148787.018,23.748367
1427148787.033,22.22171
1427148787.049,19.387756
1427148787.064,15.59964
1427148787.08,11.382278
1427148787.096,7.2499695
1427148787.111,3.5927582
1427148787.127,0.62693787
1427148787.143,-1.548111
1427148787.158,-2.9325867
1427148787.174,-3.549942
1427148787.189,-3.49263
1427148787.205,-2.9140167
1427148787.221,-2.0625458
1427148787.236,-1.1547241
1427148787.252,-0.39143372
1427148787.268,0.16342163
1427148787.283,0.5523224
1427148787.299,0.9159088
1427148787.314,1.392334
1427148787.33,2.052185
1427148787.346,2.833435
1427148787.361,3.629593
1427148787.377,4.358368
1427148787.393,5.036621
1427148787.408,5.7687225
1427148787.424,6.6918488
1427148787.439,7.8095703
1427148787.455,8.970734
1427148787.471,9.952667
1427148787.486,10.598907
1427148787.502,10.952438
1427148787.518,11.256287
1427148787.533,11.834976
1427148787.549,12.923767
1427148787.564,14.51973
1427148787.58,16.449493
1427148787.596,18.449936
1427148787.611,20.24965
1427148787.627,21.621674
1427148787.643,22.374619
1427148787.658,22.281189
1427148787.674,21.149063
1427148787.689,18.894196
1427148787.705,15.683105
1427148787.721,11.878738
1427148787.736,7.949173
1427148787.752,4.3097687
1427148787.768,1.1593018
1427148787.783,-1.4569855
1427148787.799,-3.599884
1427148787.814,-5.2731934
1427148787.83,-6.3914185
1427148787.846,-6.867569
1427148787.861,-6.6818085
1427148787.877,-5.9496613
1427148787.893,-4.8950195
1427148787.908,-3.7894592
1427148787.924,-2.8414154
1427148787.939,-2.222992
1427148787.955,-2.0501556
1427148787.971,-2.399826
1427148787.986,-3.2877045
1427148788.002,-4.606842
1427148788.018,-6.0648346
1427148788.033,-7.280121
1427148788.049,-7.8633575
1427148788.064,-7.619507
1427148788.08,-6.6124268
1427148788.096,-5.0947266
1427148788.111,-3.3747253
1427148788.127,-1.7035522
1427148788.143,-0.18395996
1427148788.158,1.1832428
1427148788.174,2.4692078
1427148788.189,3.7694092
1427148788.205,5.196747
1427148788.221,6.8930206
1427148788.236,8.994858
1427148788.252,11.456741
1427148788.268,13.997574
1427148788.283,16.12062
1427148788.299,17.273636
1427148788.314,17.075043
1427148788.33,15.527924
1427148788.346,12.970612
1427148788.361,9.955215
1427148788.377,6.948822
1427148788.393,4.2280426
1427148788.408,1.7709503
1427148788.424,-0.55223083
1427148788.439,-2.8801575
1427148788.455,-5.193878
1427148788.471,-7.3237762
1427148788.486,-9.031113
1427148788.502,-10.133163
1427148788.518,-10.595276
1427148788.533,-10.546524
1427148788.549,-10.196091
1427148788.564,-9.754425
1427148788.58,-9.352417
1427148788.596,-9.066147
1427148788.611,-8.906158
1427148788.627,-8.917038
1427148788.643,-9.060333
1427148788.658,-9.280701
1427148788.674,-9.356583
1427148788.689,-9.005692
1427148788.705,-7.954468
1427148788.721,-6.092163
1427148788.736,-3.5399017
1427148788.752,-0.61920166
1427148788.768,2.25737
1427148788.783,4.746109
1427148788.799,6.6931305
1427148788.814,8.161942
1427148788.83,9.404449
1427148788.846,10.736069
1427148788.861,12.46698
1427148788.877,14.711761
1427148788.893,17.360626
1427148788.908,20.021088
1427148788.924,22.148651
1427148788.939,23.159851
1427148788.955,22.67009
1427148788.971,20.627151
1427148788.986,17.313416
1427148789.002,13.286209
1427148789.018,9.137466
1427148789.033,5.3558044
1427148789.049,2.227539
1427148789.064,-0.20188904
1427148789.08,-2.035019
1427148789.096,-3.4822845
1427148789.111,-4.706024
1427148789.127,-5.8260803
1427148789.143,-6.8069
1427148789.158,-7.5652313
1427148789.174,-7.966461
1427148789.189,-7.9664917
1427148789.205,-7.64357
1427148789.221,-7.195343
1427148789.236,-6.8572235
1427148789.252,-6.7757416
1427148789.268,-6.9656067
1427148789.283,-7.3307343
1427148789.299,-7.7209625
1427148789.314,-8.066986
1427148789.33,-8.375259
1427148789.346,-8.682831
1427148789.361,-8.951096
1427148789.377,-9.071304
1427148789.393,-8.832748
1427148789.408,-8.121506
1427148789.424,-6.942154
1427148789.44,-5.476822
1427148789.455,-3.9682465
1427148789.471,-2.6083374
1427148789.486,-1.4784546
1427148789.502,-0.51031494
1427148789.518,0.44735718
1427148789.533,1.5507355
1427148789.549,2.936493
1427148789.564,4.6909637
1427148789.58,6.8151855
1427148789.596,9.165405
1427148789.611,11.49469
1427148789.627,13.399094
1427148789.643,14.481277
1427148789.658,14.444138
1427148789.674,13.264587
1427148789.69,11.171005
1427148789.705,8.59967
1427148789.721,5.9776917
1427148789.736,3.5871582
1427148789.752,1.513977
1427148789.768,-0.27844238
1427148789.783,-1.8135834
1427148789.799,-3.0102997
1427148789.815,-3.6784668
1427148789.83,-3.6741638
1427148789.846,-3.0266113
1427148789.861,-2.0006866
1427148789.877,-1.080658
1427148789.893,-0.67012024
1427148789.908,-0.98921204
1427148789.924,-1.8556519
1427148789.94,-2.88031
1427148789.955,-3.6018066
1427148789.971,-3.8041992
1427148789.986,-3.5186005
1427148790.002,-3.0484314
1427148790.018,-2.7364197
1427148790.033,-2.7622375
1427148790.049,-3.1000214
1427148790.065,-3.5321198
1427148790.08,-3.75737
1427148790.096,-3.6052399
1427148790.111,-3.052002
1427148790.127,-2.2606964
1427148790.143,-1.4583435
1427148790.158,-0.83891296
1427148790.174,-0.44895935
1427148790.19,-0.200943
1427148790.205,0.14822388
1427148790.221,0.82795715
1427148790.236,2.009842
1427148790.252,3.7305908
1427148790.268,5.9224396
1427148790.283,8.444305
1427148790.299,11.117615
1427148790.315,13.709061
1427148790.33,15.896088
1427148790.346,17.322937
1427148790.361,17.683853
1427148790.377,16.812927
1427148790.393,14.80835
1427148790.408,12.003784
1427148790.424,8.824799
1427148790.44,5.6997375
1427148790.455,2.8744354
1427148790.471,0.4200287
1427148790.486,-1.7173004
1427148790.502,-3.6168976
1427148790.518,-5.273117
1427148790.533,-6.626709
1427148790.549,-7.569641
1427148790.565,-8.090195
1427148790.58,-8.2548065
1427148790.596,-8.289215
1427148790.611,-8.417984
1427148790.627,-8.844376
1427148790.643,-9.597641
1427148790.658,-10.578293
1427148790.674,-11.615967
1427148790.69,-12.5503235
1427148790.705,-13.283051
1427148790.721,-13.795502
1427148790.736,-14.0420685
1427148790.752,-13.9657135
1427148790.768,-13.424271
1427148790.783,-12.3680725
1427148790.799,-10.800751
1427148790.815,-8.871216
1427148790.83,-6.7529144
1427148790.846,-4.637619
1427148790.861,-2.6038666
1427148790.877,-0.7268524
1427148790.893,0.96058655
1427148790.908,2.4271393
1427148790.924,3.6875916
1427148790.94,4.7957306
1427148790.955,5.8902435
1427148790.971,7.116272
1427148790.986,8.562271
1427148791.002,10.224045
1427148791.018,11.995987
1427148791.033,13.765472
1427148791.049,15.404373
1427148791.065,16.77179
1427148791.08,17.642502
1427148791.096,17.728073
1427148791.111,16.766968
1427148791.127,14.681442
1427148791.143,11.661087
1427148791.158,8.097458
1427148791.174,4.475281
1427148791.19,1.1649323
1427148791.205,-1.6452942
1427148791.221,-3.917038
1427148791.236,-5.629593
1427148791.252,-6.7480316
1427148791.268,-7.237198
1427148791.283,-7.14946
1427148791.299,-6.72612
1427148791.315,-6.2792664
1427148791.33,-6.0930786
1427148791.346,-6.3134613
1427148791.361,-6.8589935
1427148791.377,-7.5602417
1427148791.393,-8.248993
