1427157311.7,0.0
1427157311.715,0.0
1427157311.731,0.0
1427157311.746,0.0
1427157311.762,0.0
1427157311.778,0.0
1427157311.793,0.0
1427157311.809,0.0
1427157311.825,0.0
1427157311.84,0.0022315353
1427157311.856,-0.0045169927
1427157311.871,-0.011265522
1427157311.887,-0.011383951
1427157311.903,0.0011864507
1427157311.918,0.025910312
1427157311.934,0.050634187
1427157311.95,0.051362894
1427157311.965,-0.0014929791
1427157311.981,-0.1302426
1427157311.996,-0.35562757
1427157312.012,-0.6591247
1427157312.028,-1.0095103
1427157312.043,-1.3709826
1427157312.059,-1.7197359
1427157312.075,-2.0551105
1427157312.09,-2.39945
1427157312.106,-2.7866635
1427157312.121,-3.2399073
1427157312.137,-3.796012
1427157312.153,-4.418684
1427157312.168,-5.0592937
1427157312.184,-5.6644096
1427157312.2,-6.2021537
1427157312.215,-6.6808796
1427157312.231,-7.149598
1427157312.246,-7.6782336
1427157312.262,-8.310739
1427157312.278,-9.143657
1427157312.293,-10.089731
1427157312.309,-11.041313
1427157312.325,-11.8842125
1427157312.34,-12.564316
1427157312.356,-13.13563
1427157312.371,-13.760044
1427157312.387,-14.65232
1427157312.403,-15.962056
1427157312.418,-17.914442
1427157312.434,-20.317299
1427157312.45,-22.903854
1427157312.465,-25.37947
1427157312.481,-27.578028
1427157312.496,-29.57246
1427157312.512,-31.675173
1427157312.528,-34.3178
1427157312.543,-37.813618
1427157312.559,-42.541233
1427157312.575,-48.1463
1427157312.59,-54.104755
1427157312.606,-59.83309
1427157312.621,-64.972374
1427157312.637,-69.58293
1427157312.653,-74.14353
1427157312.668,-79.344986
1427157312.684,-85.70726
1427157312.7,-93.76193
1427157312.715,-102.99779
1427157312.731,-112.61757
1427157312.746,-121.73034
1427157312.762,-129.76602
1427157312.778,-136.75102
1427157312.793,-143.30344
1427157312.809,-150.74623
1427157312.825,-157.77356
1427157312.84,-166.64323
1427157312.856,-177.94798
1427157312.871,-191.79102
1427157312.887,-206.96808
1427157312.903,-220.56592
1427157312.918,-228.24644
1427157312.934,-225.36154
1427157312.95,-208.53198
1427157312.965,-176.87024
1427157312.981,-132.76222
1427157312.996,-80.04997
1427157313.012,-23.069275
1427157313.028,34.94339
1427157313.043,92.43695
1427157313.059,149.15695
1427157313.075,205.22772
1427157313.09,260.36963
1427157313.106,313.74133
1427157313.121,363.87396
1427157313.137,409.83353
1427157313.153,450.90775
1427157313.168,486.50244
1427157313.184,515.73865
1427157313.2,537.2274
1427157313.215,549.22
1427157313.231,549.9613
1427157313.246,538.367
1427157313.262,514.2055
1427157313.278,478.674
1427157313.293,433.87952
1427157313.309,382.45126
1427157313.325,327.02106
1427157313.34,269.84186
1427157313.356,212.63379
1427157313.371,156.6594
1427157313.387,102.95233
1427157313.403,52.373596
1427157313.418,5.9046936
1427157313.434,-35.580414
1427157313.45,-71.42584
1427157313.465,-101.35184
1427157313.481,-125.50113
1427157313.496,-144.3797
1427157313.512,-158.69403
1427157313.528,-169.15071
1427157313.543,-176.3711
1427157313.559,-180.75139
1427157313.575,-182.57419
1427157313.59,-182.06863
1427157313.606,-179.5066
1427157313.621,-175.23325
1427157313.637,-169.65286
1427157313.653,-163.17691
1427157313.668,-156.14568
1427157313.684,-148.80681
1427157313.7,-141.29686
1427157313.715,-133.68983
1427157313.731,-126.01962
1427157313.746,-118.33268
1427157313.762,-110.68864
1427157313.778,-103.15572
1427157313.793,-95.80455
1427157313.809,-88.684166
1427157313.825,-81.82744
1427157313.84,-75.24594
1427157313.856,-68.9526
1427157313.872,-62.949085
1427157313.887,-57.247494
1427157313.903,-51.857185
1427157313.918,-46.78282
1427157313.934,-42.027756
1427157313.95,-37.585197
1427157313.965,-33.451725
1427157313.981,-29.613811
1427157313.996,-26.071096
1427157314.012,-22.809328
1427157314.028,-19.826063
1427157314.043,-17.11475
1427157314.059,-14.667344
1427157314.075,-12.478532
1427157314.09,-10.53556
1427157314.106,-8.830025
1427157314.122,-7.347161
1427157314.137,-6.0747495
1427157314.153,-4.990812
1427157314.168,-4.070345
1427157314.184,-3.285714
1427157314.2,-2.6136158
1427157314.215,-2.0322766
1427157314.231,-1.5288393
1427157314.247,-1.1055052
1427157314.262,-0.76336634
1427157314.278,-0.5037758
1427157314.293,-0.31576693
1427157314.309,-0.18434244
1427157314.325,-0.08489591
1427157314.34,0.00815928
1427157314.356,0.10429597
1427157314.372,0.21042943
1427157314.387,0.31275353
1427157314.403,0.39407003
1427157314.418,0.43747115
1427157314.434,0.4423676
1427157314.45,0.43143946
1427157314.465,0.43170917
1427157314.481,0.4752708
1427157314.497,0.5774344
1427157314.512,0.7271877
1427157314.528,0.8915814
1427157314.543,1.0190611
1427157314.559,1.0784932
1427157314.575,1.0598173
1427157314.59,1.016233
1427157314.606,1.0169203
1427157314.622,1.1409123
1427157314.637,1.4207275
1427157314.653,1.8343258
1427157314.668,2.2840114
1427157314.684,2.648623
1427157314.7,2.8316178
1427157314.715,2.825651
1427157314.731,2.7245905
1427157314.747,2.698391
1427157314.762,2.911877
1427157314.778,3.453016
1427157314.793,4.26997
1427157314.809,5.178668
1427157314.825,5.9416423
1427157314.84,6.3671227
1427157314.856,6.420306
1427157314.872,6.255327
1427157314.887,6.1531944
1427157314.903,6.406375
1427157314.918,7.1636686
1427157314.934,8.374354
1427157314.95,9.763664
1427157314.965,11.00708
1427157314.981,11.802927
1427157314.997,12.057805
1427157315.012,11.891475
1427157315.028,11.58261
1427157315.043,11.473801
1427157315.059,11.919842
1427157315.075,13.215372
1427157315.09,15.453009
1427157315.106,18.345932
1427157315.122,21.105051
1427157315.137,22.495832
1427157315.153,21.187193
1427157315.168,16.310654
1427157315.184,7.9200363
1427157315.2,-2.832487
1427157315.215,-13.982759
1427157315.231,-23.464796
1427157315.247,-29.800318
1427157315.262,-32.57814
1427157315.278,-32.37095
1427157315.293,-30.32575
1427157315.309,-27.586834
1427157315.325,-24.932358
1427157315.34,-22.654106
1427157315.356,-20.732218
1427157315.372,-19.080181
1427157315.387,-17.636759
1427157315.403,-16.359818
1427157315.418,-15.144125
1427157315.434,-13.775068
1427157315.45,-12.055908
1427157315.465,-9.859287
1427157315.481,-7.4166393
1427157315.497,-5.1692924
1427157315.512,-3.6412659
1427157315.528,-3.0869522
1427157315.543,-3.4166203
1427157315.559,-4.1127205
1427157315.575,-4.56654
1427157315.59,-4.305277
1427157315.606,-3.2436829
1427157315.622,-1.6117249
1427157315.637,0.1580391
1427157315.653,1.6787567
1427157315.668,2.779768
1427157315.684,3.4686966
1427157315.7,3.8892555
1427157315.715,4.203583
1427157315.731,4.5286407
1427157315.747,4.9464645
1427157315.762,5.5023804
1427157315.778,6.169716
1427157315.793,6.8573074
1427157315.809,7.459034
1427157315.825,7.8581047
1427157315.84,8.051773
1427157315.856,8.140736
1427157315.872,8.294979
1427157315.887,8.6361885
1427157315.903,9.1847725
1427157315.918,9.814381
1427157315.934,10.308586
1427157315.95,10.525951
1427157315.965,10.459267
1427157315.981,10.260189
1427157315.997,10.183338
1427157316.012,10.404861
1427157316.028,11.024147
1427157316.043,11.948059
1427157316.059,12.892208
1427157316.075,13.363857
1427157316.09,12.731735
1427157316.106,10.382446
1427157316.122,6.057457
1427157316.137,0.05576706
1427157316.153,-6.696434
1427157316.168,-12.937157
1427157316.184,-17.538204
1427157316.2,-19.987045
1427157316.215,-20.550198
1427157316.231,-20.087646
1427157316.247,-19.53273
1427157316.262,-19.481339
1427157316.278,-19.956985
1427157316.293,-20.596382
1427157316.309,-20.954582
1427157316.325,-20.86573
1427157316.34,-20.427162
1427157316.356,-19.971783
1427157316.372,-19.76099
1427157316.387,-19.876614
1427157316.403,-20.194725
1427157316.418,-20.492577
1427157316.434,-20.611526
1427157316.45,-20.540588
1427157316.465,-20.369198
1427157316.481,-20.239819
1427157316.497,-20.162827
1427157316.512,-20.022182
1427157316.528,-19.539942
1427157316.543,-18.436968
1427157316.559,-16.512606
1427157316.575,-13.818855
1427157316.59,-10.528305
1427157316.606,-7.0163155
1427157316.622,-3.4483051
1427157316.637,0.032066345
1427157316.653,3.393301
1427157316.668,6.638933
1427157316.684,9.732681
1427157316.7,12.597374
1427157316.715,15.077902
1427157316.731,17.048723
1427157316.747,18.462019
1427157316.762,19.36758
1427157316.778,19.88646
1427157316.794,20.146643
1427157316.809,20.226852
1427157316.825,20.136211
1427157316.84,19.833591
1427157316.856,19.243286
1427157316.872,18.35881
1427157316.887,17.231827
1427157316.903,16.069191
1427157316.919,15.047018
1427157316.934,14.370724
1427157316.95,14.153111
1427157316.965,14.412679
1427157316.981,14.960068
1427157316.997,15.407427
1427157317.012,15.2009735
1427157317.028,13.714851
1427157317.044,10.538356
1427157317.059,5.727768
1427157317.075,-0.08027482
1427157317.09,-5.83679
1427157317.106,-10.427262
1427157317.122,-13.085226
1427157317.137,-13.6931
1427157317.153,-12.745995
1427157317.169,-11.06414
1427157317.184,-9.429067
1427157317.2,-8.243199
1427157317.215,-7.5062284
1427157317.231,-7.0209665
1427157317.247,-6.546801
1427157317.262,-6.013813
1427157317.278,-5.4834538
1427157317.294,-5.07333
1427157317.309,-4.8972244
1427157317.325,-4.995541
1427157317.34,-5.2666135
1427157317.356,-5.6121807
1427157317.372,-5.9257593
1427157317.387,-6.135425
1427157317.403,-6.244701
1427157317.419,-6.3195114
1427157317.434,-6.4459634
1427157317.45,-6.69737
1427157317.465,-7.028591
1427157317.481,-7.262292
1427157317.497,-7.201638
1427157317.512,-6.717078
1427157317.528,-5.8082695
1427157317.544,-4.659981
1427157317.559,-3.499998
1427157317.575,-2.5116796
1427157317.59,-1.6501818
1427157317.606,-1.0702906
1427157317.622,-0.5589962
1427157317.637,0.1474762
1427157317.653,1.2800999
1427157317.669,2.935192
1427157317.684,5.1117477
1427157317.7,7.681097
1427157317.715,10.454197
1427157317.731,13.173909
1427157317.747,15.612843
1427157317.762,17.688684
1427157317.778,19.474075
1427157317.794,21.230896
1427157317.809,23.394917
1427157317.825,26.388876
1427157317.84,30.502182
1427157317.856,35.641556
1427157317.872,41.222218
1427157317.887,46.182156
1427157317.903,49.294727
1427157317.919,49.412502
1427157317.934,45.92881
1427157317.95,38.999825
1427157317.965,29.552353
1427157317.981,19.002346
1427157317.997,8.761586
1427157318.012,-0.18112946
1427157318.028,-7.4652452
1427157318.044,-13.241869
1427157318.059,-17.923859
1427157318.075,-21.873028
1427157318.09,-25.211727
1427157318.106,-27.880322
1427157318.122,-29.718468
1427157318.137,-30.665731
1427157318.153,-30.801422
1427157318.169,-30.369589
1427157318.184,-29.668007
1427157318.2,-29.00567
1427157318.215,-28.574635
1427157318.231,-28.40937
1427157318.247,-28.407173
1427157318.262,-28.399862
1427157318.278,-28.25753
1427157318.294,-27.966534
1427157318.309,-27.596462
1427157318.325,-27.264458
1427157318.34,-26.998764
1427157318.356,-26.747168
1427157318.372,-26.35194
1427157318.387,-25.666515
1427157318.403,-24.57963
1427157318.419,-23.03887
1427157318.434,-20.990963
1427157318.45,-18.419128
1427157318.465,-15.308125
1427157318.481,-11.736685
1427157318.497,-7.87158
1427157318.512,-3.959217
1427157318.528,-0.17520332
1427157318.544,3.4367466
1427157318.559,6.9681816
1427157318.575,10.514753
1427157318.59,14.068142
1427157318.606,17.383455
1427157318.622,20.073198
1427157318.637,21.786242
1427157318.653,22.463718
1427157318.669,22.420374
1427157318.684,22.325266
1427157318.7,22.943356
1427157318.715,24.93122
1427157318.731,28.610428
1427157318.747,33.87063
1427157318.762,40.13334
1427157318.778,46.41919
1427157318.794,51.45802
1427157318.809,53.997276
1427157318.825,53.124977
1427157318.84,48.64344
1427157318.856,41.154106
1427157318.872,31.979275
1427157318.887,22.639606
1427157318.903,14.40955
1427157318.919,7.8777447
1427157318.934,2.9762554
1427157318.95,-0.86468124
1427157318.965,-4.311695
1427157318.981,-7.833763
1427157318.997,-11.601898
1427157319.012,-15.571472
1427157319.028,-19.612286
1427157319.044,-23.635433
1427157319.059,-27.579136
1427157319.075,-31.442799
1427157319.09,-35.204166
1427157319.106,-38.710346
1427157319.122,-41.767128
1427157319.137,-44.12808
1427157319.153,-45.57874
1427157319.169,-46.0785
1427157319.184,-45.721844
1427157319.2,-44.741398
1427157319.215,-43.360886
1427157319.231,-41.675587
1427157319.247,-39.59953
1427157319.262,-36.92383
1427157319.278,-33.449387
1427157319.294,-29.149395
1427157319.309,-24.226906
1427157319.325,-19.089268
1427157319.34,-14.182953
1427157319.356,-9.836079
1427157319.372,-6.137539
1427157319.387,-2.9199524
1427157319.403,0.1457138
1427157319.419,3.3577347
1427157319.434,6.906502
1427157319.45,10.752773
1427157319.466,14.6893425
1427157319.481,18.433403
1427157319.497,21.771275
1427157319.512,24.629738
1427157319.528,27.123772
1427157319.544,29.50827
1427157319.559,32.150394
1427157319.575,35.428238
1427157319.591,39.660954
1427157319.606,44.999626
1427157319.622,51.22599
1427157319.637,57.63173
1427157319.653,63.053307
1427157319.669,66.08955
1427157319.684,65.61099
1427157319.7,61.11729
1427157319.716,53.07108
1427157319.731,42.73654
1427157319.747,31.775116
1427157319.762,21.647617
1427157319.778,13.23539
1427157319.794,6.671009
1427157319.809,1.5500412
1427157319.825,-2.7147598
1427157319.841,-6.575077
1427157319.856,-10.189491
1427157319.872,-13.441978
1427157319.887,-16.117302
1427157319.903,-18.06157
1427157319.919,-19.2905
1427157319.934,-20.001049
1427157319.95,-20.497822
1427157319.966,-21.037739
1427157319.981,-21.751156
1427157319.997,-22.54715
1427157320.012,-23.226334
1427157320.028,-23.577671
1427157320.044,-23.54203
1427157320.059,-23.21156
1427157320.075,-22.798038
1427157320.091,-22.41668
1427157320.106,-22.00127
1427157320.122,-21.285221
1427157320.137,-19.943882
1427157320.153,-17.743877
1427157320.169,-14.703571
1427157320.184,-11.058704
1427157320.2,-7.1715736
1427157320.216,-3.355873
1427157320.231,0.20700455
1427157320.247,3.5038452
1427157320.262,6.618244
1427157320.278,9.691277
1427157320.294,12.920872
1427157320.309,16.536575
1427157320.325,20.815285
1427157320.341,25.965752
1427157320.356,31.918953
1427157320.372,38.21071
1427157320.387,43.925636
1427157320.403,47.869225
1427157320.419,48.9494
1427157320.434,46.54201
1427157320.45,40.761677
1427157320.466,32.469303
1427157320.481,22.940731
1427157320.497,13.484386
1427157320.512,5.057667
1427157320.528,-1.9151192
1427157320.544,-7.541363
1427157320.559,-12.187672
1427157320.575,-16.293785
1427157320.591,-20.113548
1427157320.606,-23.676033
1427157320.622,-26.788673
1427157320.637,-29.18433
1427157320.653,-30.67704
1427157320.669,-31.299984
1427157320.684,-31.266396
1427157320.7,-30.917389
1427157320.716,-30.559956
1427157320.731,-30.300041
1427157320.747,-30.04216
1427157320.762,-29.569263
1427157320.778,-28.679714
1427157320.794,-27.321136
1427157320.809,-25.584293
1427157320.825,-23.613056
1427157320.841,-21.508076
1427157320.856,-19.287582
1427157320.872,-16.893276
1427157320.887,-14.27615
1427157320.903,-11.381432
1427157320.919,-8.178104
1427157320.934,-4.6366844
1427157320.95,-0.7451668
1427157320.966,3.4648628
1427157320.981,7.8802414
1427157320.997,12.337828
1427157321.012,16.675959
1427157321.028,20.797003
1427157321.044,24.725271
1427157321.059,28.5789
1427157321.075,32.516354
1427157321.091,36.755283
1427157321.106,41.48822
1427157321.122,46.761185
1427157321.137,52.32927
1427157321.153,57.558105
1427157321.169,61.38005
1427157321.184,62.595295
1427157321.2,60.25959
1427157321.216,54.09436
1427157321.231,44.66057
1427157321.247,33.223045
1427157321.262,21.320784
1427157321.278,10.288017
1427157321.294,0.88591766
1427157321.309,-6.734104
1427157321.325,-12.875826
1427157321.341,-18.000732
1427157321.356,-22.485626
1427157321.372,-26.450089
1427157321.387,-29.84983
1427157321.403,-32.546906
1427157321.419,-34.44226
1427157321.434,-35.587486
1427157321.45,-36.179714
1427157321.466,-36.48504
1427157321.481,-36.74793
1427157321.497,-37.08844
1427157321.512,-37.474747
1427157321.528,-37.78576
1427157321.544,-37.92546
1427157321.559,-37.85794
1427157321.575,-37.65164
1427157321.591,-37.39983
1427157321.606,-37.08796
1427157321.622,-36.585403
1427157321.637,-35.679882
1427157321.653,-34.19942
1427157321.669,-32.112015
1427157321.684,-29.535877
1427157321.7,-26.685999
1427157321.716,-23.74382
1427157321.731,-20.793724
1427157321.747,-17.813477
1427157321.762,-14.754845
1427157321.778,-11.588789
1427157321.794,-8.3831005
1427157321.809,-5.1997166
1427157321.825,-2.0786667
1427157321.841,1.0096645
1427157321.856,4.1321735
1427157321.872,7.374666
1427157321.887,10.733904
1427157321.903,14.158905
1427157321.919,17.55792
1427157321.934,20.850594
1427157321.95,24.015833
1427157321.966,27.090769
1427157321.981,30.169098
1427157321.997,33.444435
1427157322.012,37.165863
1427157322.028,41.605705
1427157322.044,46.83973
1427157322.059,52.648937
1427157322.075,58.291786
1427157322.091,62.60676
1427157322.106,64.28381
1427157322.122,62.314255
1427157322.138,56.428596
1427157322.153,47.232548
1427157322.169,36.017174
1427157322.184,24.3083
1427157322.2,13.375517
1427157322.216,3.926178
1427157322.231,-3.91782
1427157322.247,-10.407291
1427157322.262,-15.902796
1427157322.278,-20.682169
1427157322.294,-24.922384
1427157322.309,-28.737103
1427157322.325,-32.236702
1427157322.341,-35.51686
1427157322.356,-38.64258
1427157322.372,-41.56459
1427157322.388,-44.13485
1427157322.403,-46.166496
1427157322.419,-47.470245
1427157322.434,-47.92806
1427157322.45,-47.468624
1427157322.466,-46.122852
1427157322.481,-43.98713
1427157322.497,-41.228302
1427157322.513,-38.032265
1427157322.528,-34.525444
1427157322.544,-30.79593
1427157322.559,-26.825048
1427157322.575,-22.615646
1427157322.591,-18.200848
1427157322.606,-13.726395
1427157322.622,-9.400024
1427157322.638,-5.461094
1427157322.653,-2.0545006
1427157322.669,0.7534294
1427157322.684,3.0479965
1427157322.7,4.932335
1427157322.716,6.5037384
1427157322.731,7.83902
1427157322.747,9.024971
1427157322.763,10.169655
1427157322.778,11.426376
1427157322.794,12.940834
1427157322.809,14.797188
1427157322.825,16.981003
1427157322.841,19.399178
1427157322.856,21.91655
1427157322.872,24.462318
1427157322.888,27.046982
1427157322.903,29.806087
1427157322.919,32.97778
1427157322.934,36.862453
1427157322.95,41.714287
1427157322.966,47.6141
1427157322.981,54.289627
1427157322.997,60.997814
1427157323.013,66.5131
1427157323.028,69.43154
1427157323.044,68.56383
1427157323.059,63.453888
1427157323.075,54.609947
1427157323.091,43.444294
1427157323.106,31.746052
1427157323.122,21.131863
1427157323.138,12.516846
1427157323.153,5.9944534
1427157323.169,1.0221558
1427157323.184,-3.1520462
1427157323.2,-7.1104927
1427157323.216,-11.061268
1427157323.231,-14.858158
1427157323.247,-18.19431
1427157323.263,-20.83554
1427157323.278,-22.721737
1427157323.294,-24.041843
1427157323.309,-25.083103
1427157323.325,-26.104301
1427157323.341,-27.188778
1427157323.356,-28.174969
1427157323.372,-28.749367
1427157323.388,-28.645397
1427157323.403,-27.75022
1427157323.419,-26.192678
1427157323.434,-24.217426
1427157323.45,-22.071632
1427157323.466,-19.857609
1427157323.481,-17.553751
1427157323.497,-15.05303
1427157323.513,-12.307201
1427157323.528,-9.3316765
1427157323.544,-6.2119236
1427157323.559,-3.0384789
1427157323.575,0.11017895
1427157323.591,3.2049437
1427157323.606,6.2243986
1427157323.622,9.1945
1427157323.638,12.185184
1427157323.653,15.382095
1427157323.669,19.0252
1427157323.684,23.388523
1427157323.7,28.61847
1427157323.716,34.687805
1427157323.731,41.30133
1427157323.747,47.86046
1427157323.763,53.510345
1427157323.778,57.25147
1427157323.794,58.182285
1427157323.809,55.780167
1427157323.825,50.10383
1427157323.841,41.83735
1427157323.856,32.064636
1427157323.872,21.92714
1427157323.888,12.29179
1427157323.903,3.579647
1427157323.919,-4.2217426
1427157323.934,-11.331215
1427157323.95,-17.924503
1427157323.966,-24.018248
1427157323.981,-29.461218
1427157323.997,-34.052696
1427157324.013,-37.66857
1427157324.028,-40.387024
1427157324.044,-42.422806
1427157324.059,-44.058548
1427157324.075,-45.507732
1427157324.091,-46.822323
1427157324.106,-47.900383
1427157324.122,-48.566635
1427157324.138,-48.721237
1427157324.153,-48.365307
1427157324.169,-47.613895
1427157324.184,-46.543438
1427157324.2,-45.138306
1427157324.216,-43.228313
1427157324.231,-40.58765
1427157324.247,-37.12614
1427157324.263,-32.93993
1427157324.278,-28.345036
1427157324.294,-23.647686
1427157324.309,-19.038052
1427157324.325,-14.451069
1427157324.341,-9.651802
1427157324.356,-4.4094353
1427157324.372,1.3071594
1427157324.388,7.264366
1427157324.403,13.024105
1427157324.419,18.142681
1427157324.434,22.344284
1427157324.45,25.649757
1427157324.466,28.383583
1427157324.481,31.091293
1427157324.497,34.41733
1427157324.513,38.905426
1427157324.528,44.79695
1427157324.544,51.73582
1427157324.559,58.76322
1427157324.575,64.37654
1427157324.591,66.986694
1427157324.606,65.47345
1427157324.622,59.624252
1427157324.638,50.29984
1427157324.653,39.11798
1427157324.669,27.845589
1427157324.684,17.780014
1427157324.7,9.39426
1427157324.716,2.3937569
1427157324.731,-3.8976707
1427157324.747,-10.075981
1427157324.763,-16.34124
1427157324.778,-22.433697
1427157324.794,-27.911686
1427157324.81,-32.362663
1427157324.825,-35.656567
1427157324.841,-37.915424
1427157324.856,-39.44787
1427157324.872,-40.538437
1427157324.888,-41.371998
1427157324.903,-42.0342
1427157324.919,-42.56554
1427157324.934,-43.051945
1427157324.95,-43.612835
1427157324.966,-44.326134
1427157324.981,-45.118885
1427157324.997,-45.760098
1427157325.013,-45.928665
1427157325.028,-45.259113
1427157325.044,-43.55003
1427157325.06,-40.822624
1427157325.075,-37.341496
1427157325.091,-33.53153
1427157325.106,-29.832775
1427157325.122,-26.540844
1427157325.138,-23.724148
1427157325.153,-21.218353
1427157325.169,-18.770786
1427157325.185,-16.170399
1427157325.2,-13.384274
1427157325.216,-10.510708
1427157325.231,-7.6853867
1427157325.247,-4.9329796
1427157325.263,-2.113224
1427157325.278,1.0671959
1427157325.294,4.815628
1427157325.31,9.169132
1427157325.325,13.890125
1427157325.341,18.592972
1427157325.356,22.89793
1427157325.372,26.632488
1427157325.388,29.87527
1427157325.403,32.92789
1427157325.419,36.269203
1427157325.435,40.40756
1427157325.45,45.750378
1427157325.466,52.363586
1427157325.481,59.83922
1427157325.497,67.20627
1427157325.513,73.0311
1427157325.528,75.82907
1427157325.544,74.530235
1427157325.56,68.92436
1427157325.575,59.725586
1427157325.591,48.353134
1427157325.606,36.413044
1427157325.622,25.174397
1427157325.638,15.265163
1427157325.653,6.727333
1427157325.669,-0.6948929
1427157325.685,-7.247654
1427157325.7,-12.987526
1427157325.716,-17.783688
1427157325.731,-21.51853
1427157325.747,-24.238651
1427157325.763,-26.205967
1427157325.778,-27.774906
1427157325.794,-29.27295
1427157325.81,-30.841087
1427157325.825,-32.438004
1427157325.841,-33.87424
1427157325.856,-34.958595
1427157325.872,-35.59827
1427157325.888,-35.834827
1427157325.903,-35.810745
1427157325.919,-35.717644
1427157325.935,-35.69003
1427157325.95,-35.722702
1427157325.966,-35.62571
1427157325.981,-35.09048
1427157325.997,-33.762077
1427157326.013,-31.41129
1427157326.028,-28.068531
1427157326.044,-24.030418
1427157326.06,-19.79283
1427157326.075,-15.849768
1427157326.091,-12.53791
1427157326.106,-9.85701
1427157326.122,-7.5488777
1427157326.138,-5.1977673
1427157326.153,-2.4565887
1427157326.169,0.8320122
1427157326.185,4.5735016
1427157326.2,8.489172
1427157326.216,12.24048
1427157326.231,15.569174
1427157326.247,18.45597
1427157326.263,21.097166
1427157326.278,23.89187
1427157326.294,27.302893
1427157326.31,31.747883
1427157326.325,37.415207
1427157326.341,44.1836
1427157326.356,51.533524
1427157326.372,58.522926
1427157326.388,63.93259
1427157326.403,66.557274
1427157326.419,65.549484
1427157326.435,60.741203
1427157326.45,52.6974
1427157326.466,42.55085
1427157326.481,31.596487
1427157326.497,20.916449
1427157326.513,11.12628
1427157326.528,2.3812332
1427157326.544,-5.4446774
1427157326.56,-12.504299
1427157326.575,-18.805334
1427157326.591,-24.213009
1427157326.606,-28.54132
1427157326.622,-31.708834
1427157326.638,-33.794888
1427157326.653,-35.04854
1427157326.669,-35.81468
1427157326.685,-36.409348
1427157326.7,-37.014355
1427157326.716,-37.63963
1427157326.731,-38.194305
1427157326.747,-38.542255
1427157326.763,-38.623016
1427157326.778,-38.484306
1427157326.794,-38.22763
1427157326.81,-37.9305
1427157326.825,-37.570724
1427157326.841,-37.051445
1427157326.856,-36.21101
1427157326.872,-34.906487
1427157326.888,-33.081978
1427157326.903,-30.780539
1427157326.919,-28.119469
1427157326.935,-25.25674
1427157326.95,-22.327751
1427157326.966,-19.37598
1427157326.981,-16.405903
1427157326.997,-13.397589
1427157327.013,-10.361321
1427157327.028,-7.3264236
1427157327.044,-4.318921
1427157327.06,-1.3244781
1427157327.075,1.7535505
1427157327.091,5.019198
1427157327.106,8.551892
1427157327.122,12.315989
1427157327.138,16.165964
1427157327.153,19.921486
1427157327.169,23.479137
1427157327.185,26.868515
1427157327.2,30.268179
1427157327.216,33.989937
1427157327.231,38.343765
1427157327.247,43.586414
1427157327.263,49.75635
1427157327.278,56.55271
1427157327.294,63.23886
1427157327.31,68.63343
1427157327.325,71.42889
1427157327.341,70.55297
1427157327.356,65.61094
1427157327.372,57.06751
1427157327.388,46.16203
1427157327.403,34.449623
1427157327.419,23.3196
1427157327.435,13.597546
1427157327.45,5.416053
1427157327.466,-1.5396185
1427157327.481,-7.6984196
1427157327.497,-13.301823
1427157327.513,-18.342655
1427157327.528,-22.62666
1427157327.544,-25.9909
1427157327.56,-28.434994
1427157327.575,-30.154224
1427157327.591,-31.40445
1427157327.606,-32.430466
1427157327.622,-33.3715
1427157327.638,-34.25841
1427157327.653,-35.078835
1427157327.669,-35.836357
1427157327.685,-36.551277
1427157327.7,-37.24593
1427157327.716,-37.852085
1427157327.732,-38.2333
1427157327.747,-38.169144
1427157327.763,-37.50202
1427157327.778,-36.16095
1427157327.794,-34.22379
1427157327.81,-31.80669
1427157327.825,-29.041351
1427157327.841,-25.997082
1427157327.857,-22.718483
1427157327.872,-19.276533
1427157327.888,-15.792139
1427157327.903,-12.408604
1427157327.919,-9.254179
1427157327.935,-6.353155
1427157327.95,-3.6089191
1427157327.966,-0.80955505
1427157327.982,2.2918148
1427157327.997,5.8785343
1427157328.013,9.944092
1427157328.028,14.305941
1427157328.044,18.640368
1427157328.06,22.63287
1427157328.075,26.084148
1427157328.091,29.05371
1427157328.107,31.805157
1427157328.122,34.734875
1427157328.138,38.208965
1427157328.153,42.463852
1427157328.169,47.520565
1427157328.185,53.1248
1427157328.2,58.70939
1427157328.216,63.38419
1427157328.232,66.053986
1427157328.247,65.69563
1427157328.263,61.700974
1427157328.278,54.227783
1427157328.294,44.187008
1427157328.31,33.005753
1427157328.325,22.133919
1427157328.341,12.609478
1427157328.357,4.796852
1427157328.372,-1.483326
1427157328.388,-6.672142
1427157328.403,-11.135517
1427157328.419,-15.0120735
1427157328.435,-18.24039
1427157328.45,-20.730576
1427157328.466,-22.524364
1427157328.482,-23.81194
1427157328.497,-24.855927
1427157328.513,-25.885365
1427157328.528,-26.93478
1427157328.544,-27.908024
1427157328.56,-28.627342
1427157328.575,-29.030586
1427157328.591,-29.220459
1427157328.607,-29.464767
1427157328.622,-30.031979
1427157328.638,-31.047241
1427157328.653,-32.365086
1427157328.669,-33.584225
1427157328.685,-34.201405
1427157328.7,-33.796085
1427157328.716,-32.183
1427157328.732,-29.48423
1427157328.747,-26.074028
1427157328.763,-22.453503
1427157328.778,-19.058582
1427157328.794,-16.096268
1427157328.81,-13.488926
1427157328.825,-10.888321
1427157328.841,-7.8544235
1427157328.857,-4.060646
1427157328.872,0.532547
1427157328.888,5.638054
1427157328.903,10.766041
1427157328.919,15.446014
1427157328.935,19.428108
1427157328.95,22.783077
1427157328.966,25.850044
1427157328.982,29.095371
1427157328.997,32.966595
1427157329.013,37.731155
1427157329.028,43.407948
1427157329.044,49.63004
1427157329.06,55.641068
1427157329.075,60.35215
1427157329.091,62.612175
1427157329.107,61.532017
1427157329.122,56.84909
1427157329.138,49.058704
1427157329.153,39.26866
1427157329.169,28.816273
1427157329.185,18.816189
1427157329.2,9.870453
1427157329.216,2.0636177
1427157329.232,-4.8251266
1427157329.247,-11.071045
1427157329.263,-16.764614
1427157329.278,-21.778385
1427157329.294,-25.881931
1427157329.31,-28.894684
1427157329.325,-30.81697
1427157329.341,-31.850395
1427157329.357,-32.327324
1427157329.372,-32.57867
1427157329.388,-32.829
1427157329.403,-33.084686
1427157329.419,-33.247616
1427157329.435,-33.191257
1427157329.45,-32.901207
1427157329.466,-32.489716
1427157329.482,-32.12041
1427157329.497,-31.913685
1427157329.513,-31.782616
1427157329.528,-31.469318
1427157329.544,-30.654106
1427157329.56,-29.115269
1427157329.575,-26.881657
1427157329.591,-24.15688
1427157329.607,-21.24047
1427157329.622,-18.375599
1427157329.638,-15.679649
1427157329.653,-13.1241
1427157329.669,-10.643654
1427157329.685,-8.1432495
1427157329.7,-5.5670853
1427157329.716,-2.8415718
1427157329.732,0.117759705
1427157329.747,3.348442
1427157329.763,6.834526
1427157329.778,10.426468
1427157329.794,13.928665
1427157329.81,17.167168
1427157329.825,20.119442
1427157329.841,22.953335
1427157329.857,25.950485
1427157329.872,29.466839
1427157329.888,33.78193
1427157329.903,39.04827
1427157329.919,45.214577
1427157329.935,51.933544
1427157329.95,58.454376
1427157329.966,63.673847
1427157329.982,66.351166
1427157329.997,65.55495
1427157330.013,60.976692
1427157330.028,53.206783
1427157330.044,43.50843
1427157330.06,33.345894
1427157330.075,23.910671
1427157330.091,15.728672
1427157330.107,8.732563
1427157330.122,2.514061
1427157330.138,-3.3106575
1427157330.153,-8.866268
1427157330.169,-14.04261
1427157330.185,-18.626244
1427157330.2,-22.46149
1427157330.216,-25.514248
1427157330.232,-27.89009
1427157330.247,-29.714771
1427157330.263,-31.118431
1427157330.278,-32.179943
1427157330.294,-32.97192
1427157330.31,-33.518204
1427157330.325,-33.827873
1427157330.341,-33.880783
1427157330.357,-33.67776
1427157330.372,-33.262165
1427157330.388,-32.694637
1427157330.404,-32.04321
1427157330.419,-31.318047
1427157330.435,-30.427082
1427157330.45,-29.212898
1427157330.466,-27.527767
1427157330.482,-25.339977
1427157330.497,-22.714771
1427157330.513,-19.863468
1427157330.529,-17.008438
1427157330.544,-14.293888
1427157330.56,-11.777111
1427157330.575,-9.400455
1427157330.591,-7.030987
1427157330.607,-4.5119896
1427157330.622,-1.7043533
1427157330.638,1.4679031
1427157330.654,5.0207253
1427157330.669,8.877098
1427157330.685,12.905682
1427157330.7,16.948574
1427157330.716,20.891747
1427157330.732,24.68591
1427157330.747,28.350334
1427157330.763,31.97908
1427157330.779,35.770744
1427157330.794,39.947372
1427157330.81,44.74763
1427157330.825,50.17931
1427157330.841,55.893055
1427157330.857,61.054016
1427157330.872,64.4998
1427157330.888,65.091354
1427157330.904,62.148453
1427157330.919,55.71673
1427157330.935,46.633217
1427157330.95,36.196316
1427157330.966,25.715528
1427157330.982,16.12122
1427157330.997,7.8233414
1427157331.013,0.79473114
1427157331.029,-5.2257233
1427157331.044,-10.523916
1427157331.06,-15.25103
1427157331.075,-19.501347
1427157331.091,-23.238487
1427157331.107,-26.435299
1427157331.122,-29.019487
1427157331.138,-30.987204
1427157331.154,-32.381485
1427157331.169,-33.33618
1427157331.185,-34.01421
1427157331.2,-34.558685
1427157331.216,-35.04519
1427157331.232,-35.463875
1427157331.247,-35.760788
1427157331.263,-35.883545
1427157331.279,-35.757996
1427157331.294,-35.306587
1427157331.31,-34.419693
1427157331.325,-32.997368
1427157331.341,-30.977873
1427157331.357,-28.426315
1427157331.372,-25.513218
1427157331.388,-22.468777
1427157331.404,-19.42242
1427157331.419,-16.378996
1427157331.435,-13.188683
1427157331.45,-9.66053
1427157331.466,-5.7012253
1427157331.482,-1.3763452
1427157331.497,3.0514157
1427157331.513,7.258253
1427157331.529,11.014594
1427157331.544,14.223374
1427157331.56,17.069025
1427157331.575,19.894297
1427157331.591,23.174751
1427157331.607,27.342169
1427157331.622,32.642895
1427157331.638,38.91472
1427157331.654,45.47952
1427157331.669,51.192276
1427157331.685,54.708714
1427157331.7,54.90811
1427157331.716,51.345806
1427157331.732,44.431747
1427157331.747,35.306835
1427157331.763,25.431454
1427157331.779,15.998756
1427157331.794,7.628231
1427157331.81,0.3507371
1427157331.825,-6.1902065
1427157331.841,-12.272761
1427157331.857,-17.895664
1427157331.872,-22.76452
1427157331.888,-26.543594
1427157331.904,-29.07531
1427157331.919,-30.558762
1427157331.935,-31.400215
1427157331.95,-32.05063
1427157331.966,-32.767902
1427157331.982,-33.565037
1427157331.997,-34.234207
1427157332.013,-34.573406
1427157332.029,-34.472443
1427157332.044,-34.006546
1427157332.06,-33.352013
1427157332.075,-32.722366
1427157332.091,-32.172485
1427157332.107,-31.601625
1427157332.122,-30.744822
1427157332.138,-29.292072
1427157332.154,-27.00618
1427157332.169,-23.88723
1427157332.185,-20.148697
1427157332.2,-16.227585
1427157332.216,-12.568547
1427157332.232,-9.488718
1427157332.247,-7.01849
1427157332.263,-4.907186
1427157332.279,-2.7080944
1427157332.294,-0.023337126
1427157332.31,3.3774152
1427157332.325,7.4301066
1427157332.341,11.85331
1427157332.357,16.260265
1427157332.372,20.369474
1427157332.388,24.06607
1427157332.404,27.505877
1427157332.419,31.006035
1427157332.435,34.967678
1427157332.45,39.762825
1427157332.466,45.605656
1427157332.482,52.43237
1427157332.497,59.810833
1427157332.513,66.89083
1427157332.529,72.459564
1427157332.544,75.226
1427157332.56,74.20354
1427157332.575,69.06793
1427157332.591,60.340073
1427157332.607,49.238655
1427157332.622,37.304314
1427157332.638,25.850967
1427157332.654,15.646821
1427157332.669,6.812813
1427157332.685,-0.9643326
1427157332.7,-8.10839
1427157332.716,-14.851797
1427157332.732,-21.111269
1427157332.747,-26.589642
1427157332.763,-30.978043
1427157332.779,-34.12049
1427157332.794,-36.1641
1427157332.81,-37.44285
1427157332.825,-38.359703
1427157332.841,-39.184593
1427157332.857,-40.015305
1427157332.872,-40.719406
1427157332.888,-41.14412
1427157332.904,-41.171703
1427157332.919,-40.84413
1427157332.935,-40.302658
1427157332.95,-39.71058
1427157332.966,-39.117058
1427157332.982,-38.421917
1427157332.997,-37.380966
1427157333.013,-35.759552
1427157333.029,-33.435852
1427157333.044,-30.490934
1427157333.06,-27.164398
1427157333.076,-23.778784
1427157333.091,-20.557554
1427157333.107,-17.641342
1427157333.122,-14.931843
1427157333.138,-12.226797
1427157333.154,-9.228878
1427157333.169,-5.697792
1427157333.185,-1.5298576
1427157333.2,3.2000484
1427157333.216,8.237747
1427157333.232,13.233967
1427157333.247,17.88543
1427157333.263,22.007915
1427157333.279,25.641733
1427157333.294,28.991936
1427157333.31,32.413406
1427157333.326,36.287674
1427157333.341,40.94716
1427157333.357,46.588722
1427157333.372,53.19303
1427157333.388,60.35444
1427157333.404,67.25638
1427157333.419,72.66982
1427157333.435,75.28725
1427157333.451,74.10529
1427157333.466,68.8439
1427157333.482,60.11954
1427157333.497,49.254078
1427157333.513,37.78401
1427157333.529,26.962643
1427157333.544,17.428188
1427157333.56,9.2121315
1427157333.576,2.029419
1427157333.591,-4.418232
1427157333.607,-10.2458725
1427157333.622,-15.388355
1427157333.638,-19.765045
1427157333.654,-23.390343
1427157333.669,-26.414902
1427157333.685,-29.036472
1427157333.701,-31.448162
1427157333.716,-33.709667
1427157333.732,-35.794205
1427157333.747,-37.60065
1427157333.763,-39.039356
1427157333.779,-40.077915
1427157333.794,-40.805473
1427157333.81,-41.360485
1427157333.826,-41.8723
1427157333.841,-42.310196
1427157333.857,-42.418808
1427157333.872,-41.792
1427157333.888,-40.086716
1427157333.904,-37.18464
1427157333.919,-33.345585
1427157333.935,-29.106777
1427157333.951,-25.041931
1427157333.966,-21.496593
1427157333.982,-18.456543
1427157333.997,-15.607914
1427157334.013,-12.550236
1427157334.029,-8.985626
1427157334.044,-4.8963394
1427157334.06,-0.4725952
1427157334.076,3.973816
1427157334.091,8.201477
1427157334.107,12.134796
1427157334.122,15.893311
1427157334.138,19.746384
1427157334.154,24.026398
1427157334.169,29.049316
1427157334.185,35.082138
1427157334.201,42.170357
1427157334.216,49.967247
1427157334.232,57.641052
1427157334.247,63.899048
1427157334.263,67.30686
1427157334.279,66.73396
1427157334.294,61.82939
1427157334.31,53.214165
1427157334.326,42.280914
1427157334.341,30.679329
1427157334.357,19.72966
1427157334.372,10.079735
1427157334.388,1.6452179
1427157334.404,-6.0129395
1427157334.419,-13.2761
1427157334.435,-20.171257
1427157334.451,-26.375748
1427157334.466,-31.401604
1427157334.482,-34.889175
1427157334.497,-36.78521
1427157334.513,-37.361923
1427157334.529,-37.123024
1427157334.544,-36.620544
1427157334.56,-36.286842
1427157334.576,-36.342003
1427157334.591,-36.778503
1427157334.607,-37.434723
1427157334.622,-38.089905
1427157334.638,-38.60614
1427157334.654,-38.92202
1427157334.669,-39.09816
1427157334.685,-39.163734
1427157334.701,-39.051575
1427157334.716,-38.547318
1427157334.732,-37.386017
1427157334.747,-35.321907
1427157334.763,-32.29772
1427157334.779,-28.501518
1427157334.794,-24.305206
1427157334.81,-20.16745
1427157334.826,-16.449677
1427157334.841,-13.272697
1427157334.857,-10.494461
1427157334.872,-7.7547913
1427157334.888,-4.61232
1427157334.904,-0.75873566
1427157334.919,3.8875122
1427157334.935,9.0935135
1427157334.951,14.427452
1427157334.966,19.450172
1427157334.982,23.863686
1427157334.997,27.710487
1427157335.013,31.27771
1427157335.029,35.03337
1427157335.044,39.42842
1427157335.06,44.81617
1427157335.076,51.348007
1427157335.091,58.864304
1427157335.107,66.76659
1427157335.122,73.95649
1427157335.138,78.96591
1427157335.154,80.39349
1427157335.169,77.34991
1427157335.185,69.91452
1427157335.201,59.11892
1427157335.216,46.628647
1427157335.232,34.09828
1427157335.247,22.709755
1427157335.263,12.9019165
1427157335.279,4.541237
1427157335.294,-2.7962341
1427157335.31,-9.472549
1427157335.326,-15.673096
1427157335.341,-21.379303
1427157335.357,-26.489502
1427157335.372,-30.91349
1427157335.388,-34.631897
1427157335.404,-37.742867
1427157335.419,-40.38897
1427157335.435,-42.73295
1427157335.451,-44.86348
1427157335.466,-46.714798
1427157335.482,-48.17453
1427157335.497,-49.085182
1427157335.513,-49.42427
1427157335.529,-49.27839
1427157335.544,-48.80282
1427157335.56,-48.0599
1427157335.576,-46.99021
1427157335.591,-45.359688
1427157335.607,-42.94429
1427157335.622,-39.628975
1427157335.638,-35.492836
1427157335.654,-30.771042
1427157335.669,-25.80729
1427157335.685,-20.972176
1427157335.701,-16.581787
1427157335.716,-12.856529
1427157335.732,-9.874977
1427157335.748,-7.5093307
1427157335.763,-5.459137
1427157335.779,-3.292656
1427157335.794,-0.61343384
1427157335.81,2.8417435
1427157335.826,7.0681305
1427157335.841,11.830444
1427157335.857,16.701836
1427157335.872,21.288834
1427157335.888,25.32872
1427157335.904,28.83918
1427157335.919,32.07595
1427157335.935,35.463005
1427157335.951,39.452995
1427157335.966,44.45372
1427157335.982,50.65541
1427157335.998,57.876335
1427157336.013,65.4419
1427157336.029,72.158
1427157336.044,76.48477
1427157336.06,77.021576
1427157336.076,72.9833
1427157336.091,64.58013
1427157336.107,52.98005
1427157336.123,39.928314
1427157336.138,27.099167
1427157336.154,15.567238
1427157336.169,5.649643
1427157336.185,-2.921898
1427157336.201,-10.554665
1427157336.216,-17.43811
1427157336.232,-23.494827
1427157336.248,-28.469719
1427157336.263,-32.220436
1427157336.279,-34.7993
1427157336.294,-36.461548
1427157336.31,-37.512993
1427157336.326,-38.206955
1427157336.341,-38.671852
1427157336.357,-38.994118
1427157336.373,-39.20636
1427157336.388,-39.400223
1427157336.404,-39.652184
1427157336.419,-40.0474
1427157336.435,-40.5793
1427157336.451,-41.167366
1427157336.466,-41.598763
1427157336.482,-41.546906
1427157336.498,-40.63807
1427157336.513,-38.578316
1427157336.529,-35.27115
1427157336.544,-30.913162
1427157336.56,-25.957413
1427157336.576,-20.963669
1427157336.591,-16.349068
1427157336.607,-12.27124
1427157336.623,-8.589516
1427157336.638,-4.983261
1427157336.654,-1.1397934
1427157336.669,3.052475
1427157336.685,7.479309
1427157336.701,11.846336
1427157336.716,15.838486
1427157336.732,19.269981
1427157336.748,22.207176
1427157336.763,24.978073
1427157336.779,28.13079
1427157336.794,32.27677
1427157336.81,37.876266
1427157336.826,45.026627
1427157336.841,53.25553
1427157336.857,61.432274
1427157336.873,68.016174
1427157336.888,71.38874
1427157336.904,70.41833
1427157336.919,64.822624
1427157336.935,55.37583
1427157336.951,43.598
1427157336.966,31.272041
1427157336.982,19.807076
1427157336.998,9.87899
1427157337.013,1.4171295
1427157337.029,-6.058708
1427157337.044,-13.004463
1427157337.06,-19.576935
1427157337.076,-25.567177
1427157337.091,-30.627632
1427157337.107,-34.485977
1427157337.123,-37.14012
1427157337.138,-38.817574
1427157337.154,-39.85196
1427157337.169,-40.57415
1427157337.185,-41.208298
1427157337.201,-41.864906
1427157337.216,-42.589706
1427157337.232,-43.3693
1427157337.248,-44.15959
1427157337.263,-44.928185
1427157337.279,-45.618584
1427157337.294,-46.155296
1427157337.31,-46.424507
1427157337.326,-46.200836
1427157337.341,-45.19847
1427157337.357,-43.19558
1427157337.373,-40.141586
1427157337.388,-36.219543
1427157337.404,-31.80558
1427157337.419,-27.3266
1427157337.435,-23.104172
1427157337.451,-19.258102
1427157337.466,-15.696686
1427157337.482,-12.200256
1427157337.498,-8.519104
1427157337.513,-4.432457
1427157337.529,0.20746613
1427157337.544,5.415695
1427157337.56,11.029961
1427157337.576,16.761269
1427157337.591,22.189987
1427157337.607,26.953094
1427157337.623,30.859291
1427157337.638,34.02198
1427157337.654,36.82814
1427157337.669,39.845192
1427157337.685,43.636734
1427157337.701,48.64325
1427157337.716,55.040886
1427157337.732,62.567955
1427157337.748,70.465385
1427157337.763,77.47449
1427157337.779,82.07139
1427157337.794,82.87962
1427157337.81,79.15579
1427157337.826,71.07489
1427157337.841,59.744423
1427157337.857,46.827583
1427157337.873,33.96423
1427157337.888,22.28582
1427157337.904,12.186371
1427157337.919,3.452076
1427157337.935,-4.3887444
1427157337.951,-11.738258
1427157337.966,-18.6964
1427157337.982,-25.106201
1427157337.998,-30.649998
1427157338.013,-35.089542
1427157338.029,-38.353172
1427157338.044,-40.592384
1427157338.06,-42.091408
1427157338.076,-43.14747
1427157338.091,-43.934658
1427157338.107,-44.47629
1427157338.123,-44.704277
1427157338.138,-44.545544
1427157338.154,-44.06133
1427157338.169,-43.380314
1427157338.185,-42.7008
1427157338.201,-42.07652
1427157338.216,-41.38345
1427157338.232,-40.393806
1427157338.248,-38.829266
1427157338.263,-36.560814
1427157338.279,-33.610962
1427157338.294,-30.181782
1427157338.31,-26.492111
1427157338.326,-22.742176
1427157338.341,-19.03323
1427157338.357,-15.448242
1427157338.373,-12.051842
1427157338.388,-8.910652
1427157338.404,-6.0118294
1427157338.419,-3.2137604
1427157338.435,-0.2741394
1427157338.451,3.0545769
1427157338.466,6.889164
1427157338.482,11.103226
1427157338.498,15.381916
1427157338.513,19.375088
1427157338.529,22.909466
1427157338.544,26.085281
1427157338.56,29.277443
1427157338.576,32.917545
1427157338.591,37.406673
1427157338.607,42.951935
1427157338.623,49.586597
1427157338.638,57.11373
1427157338.654,65.00434
1427157338.67,72.288574
1427157338.685,77.59407
1427157338.701,79.447044
1427157338.716,76.8154
1427157338.732,69.57054
1427157338.748,58.67897
1427157338.763,45.87345
1427157338.779,33.0562
1427157338.795,21.56445
1427157338.81,11.890701
1427157338.826,3.726982
1427157338.841,-3.5122757
1427157338.857,-10.292965
1427157338.873,-16.676273
1427157338.888,-22.41483
1427157338.904,-27.179264
1427157338.92,-30.836987
1427157338.935,-33.50538
1427157338.951,-35.490067
1427157338.966,-37.08712
1427157338.982,-38.481106
1427157338.998,-39.681366
1427157339.013,-40.57949
1427157339.029,-41.082726
1427157339.045,-41.1917
1427157339.06,-41.04608
1427157339.076,-40.874508
1427157339.091,-40.82759
1427157339.107,-40.876694
1427157339.123,-40.73787
1427157339.138,-39.99395
1427157339.154,-38.219486
1427157339.17,-35.239735
1427157339.185,-31.170742
1427157339.201,-26.449451
1427157339.216,-21.64817
1427157339.232,-17.271465
1427157339.248,-13.563454
1427157339.263,-10.43758
1427157339.279,-7.507574
1427157339.295,-4.294628
1427157339.31,-0.43208313
1427157339.326,4.128624
1427157339.341,9.121967
1427157339.357,14.068462
1427157339.373,18.521042
1427157339.388,22.294296
1427157339.404,25.549421
1427157339.42,28.710777
1427157339.435,32.28736
1427157339.451,36.685555
1427157339.466,42.09086
1427157339.482,48.386406
1427157339.498,55.15921
1427157339.513,61.590675
1427157339.529,66.552734
1427157339.545,68.779884
1427157339.56,67.288574
1427157339.576,61.770638
1427157339.591,52.814922
1427157339.607,41.773346
1427157339.623,30.27313
1427157339.638,19.64343
1427157339.654,10.523428
1427157339.67,2.7931309
1427157339.685,-4.0407944
1427157339.701,-10.462172
1427157339.716,-16.608267
1427157339.732,-22.249765
1427157339.748,-26.975998
1427157339.763,-30.453266
1427157339.779,-32.650288
1427157339.795,-33.831367
1427157339.81,-34.485764
1427157339.826,-35.13647
1427157339.841,-36.112904
1427157339.857,-37.441376
1427157339.873,-38.905212
1427157339.888,-40.14402
1427157339.904,-40.891876
1427157339.92,-41.081993
1427157339.935,-40.848854
1427157339.951,-40.385406
1427157339.966,-39.803375
1427157339.982,-39.039883
1427157339.998,-37.88397
1427157340.013,-36.07676
1427157340.029,-33.426483
1427157340.045,-29.925417
1427157340.06,-25.721659
1427157340.076,-21.137058
1427157340.091,-16.576097
1427157340.107,-12.420877
1427157340.123,-8.937347
1427157340.138,-6.1470137
1427157340.154,-3.7904024
1427157340.17,-1.4291496
1427157340.185,1.3729248
1427157340.201,4.8330564
1427157340.216,8.867455
1427157340.232,13.150663
1427157340.248,17.305859
1427157340.263,21.104832
1427157340.279,24.578941
1427157340.295,27.973366
1427157340.31,31.654938
1427157340.326,35.961334
1427157340.341,41.157444
1427157340.357,47.37655
1427157340.373,54.55127
1427157340.388,62.300648
1427157340.404,69.76777
1427157340.42,75.67956
1427157340.435,78.59696
1427157340.451,77.351
1427157340.466,71.554596
1427157340.482,61.813133
1427157340.498,49.557808
1427157340.513,36.54857
1427157340.529,24.257004
1427157340.545,13.464501
1427157340.56,4.2185926
1427157340.576,-3.888287
1427157340.591,-11.279133
1427157340.607,-18.0919
1427157340.623,-24.144053
1427157340.638,-29.136454
1427157340.654,-32.871925
1427157340.67,-35.4646
1427157340.685,-37.317635
1427157340.701,-38.9434
1427157340.716,-40.74569
1427157340.732,-42.81799
1427157340.748,-44.948116
1427157340.763,-46.732933
1427157340.779,-47.78368
1427157340.795,-47.968945
1427157340.81,-47.38238
1427157340.826,-46.33481
1427157340.841,-45.11284
1427157340.857,-43.850025
1427157340.873,-42.476715
1427157340.888,-40.7532
1427157340.904,-38.426487
1427157340.92,-35.3709
1427157340.935,-31.614012
1427157340.951,-27.325674
1427157340.966,-22.765146
1427157340.982,-18.199575
1427157340.998,-13.837484
1427157341.013,-9.809588
1427157341.029,-6.133613
1427157341.045,-2.7006302
1427157341.06,0.6943369
1427157341.076,4.2870817
1427157341.091,8.253157
1427157341.107,12.582078
1427157341.123,17.09819
1427157341.138,21.508408
1427157341.154,25.52995
1427157341.17,29.06725
1427157341.185,32.241096
1427157341.201,35.35376
1427157341.216,38.76055
1427157341.232,42.795616
1427157341.248,47.672966
1427157341.263,53.43922
1427157341.279,59.880653
1427157341.295,66.32594
1427157341.31,71.64386
1427157341.326,74.39654
1427157341.342,73.261826
1427157341.357,67.60482
1427157341.373,57.82792
1427157341.388,45.307938
1427157341.404,31.986464
1427157341.42,19.616598
1427157341.435,9.246126
1427157341.451,1.0788422
1427157341.467,-5.314371
1427157341.482,-10.548403
1427157341.498,-15.083855
1427157341.513,-19.088474
1427157341.529,-22.570885
1427157341.545,-25.508337
1427157341.56,-27.947077
1427157341.576,-30.01071
1427157341.592,-31.798956
1427157341.607,-33.363663
1427157341.623,-34.69511
1427157341.638,-35.76229
1427157341.654,-36.51921
1427157341.67,-36.99627
1427157341.685,-37.264755
1427157341.701,-37.449112
1427157341.717,-37.6696
1427157341.732,-37.943886
1427157341.748,-38.128998
1427157341.763,-37.969364
1427157341.779,-37.110695
1427157341.795,-35.32904
1427157341.81,-32.590164
1427157341.826,-29.074528
1427157341.842,-25.153826
1427157341.857,-21.208748
1427157341.873,-17.520842
1427157341.888,-14.164467
1427157341.904,-10.982531
1427157341.92,-7.6657944
1427157341.935,-3.8865757
1427157341.951,0.5009918
1427157341.967,5.4053288
1427157341.982,10.508884
1427157341.998,15.448847
1427157342.013,19.979362
1427157342.029,24.111496
1427157342.045,28.073145
1427157342.06,32.233948
1427157342.076,36.941353
1427157342.092,42.444386
1427157342.107,48.81784
1427157342.123,55.8461
1427157342.138,62.88671
1427157342.154,68.864075
1427157342.17,72.381584
1427157342.185,72.17614
1427157342.201,67.623474
1427157342.217,59.080597
1427157342.232,47.842995
1427157342.248,35.733852
1427157342.263,24.32212
1427157342.279,14.499592
1427157342.295,6.282425
1427157342.31,-0.8511658
1427157342.326,-7.512726
1427157342.342,-13.96744
1427157342.357,-20.051006
1427157342.373,-25.360336
1427157342.388,-29.529398
1427157342.404,-32.458656
1427157342.42,-34.37075
1427157342.435,-35.65417
1427157342.451,-36.715996
1427157342.467,-37.80531
1427157342.482,-38.995438
1427157342.498,-40.16422
1427157342.513,-41.140472
1427157342.529,-41.745396
1427157342.545,-41.893463
1427157342.56,-41.58417
1427157342.576,-40.88295
1427157342.592,-39.862514
1427157342.607,-38.575935
1427157342.623,-37.03125
1427157342.638,-35.199986
1427157342.654,-33.09119
1427157342.67,-30.692837
1427157342.685,-28.044176
1427157342.701,-25.228788
1427157342.717,-22.329475
1427157342.732,-19.471693
1427157342.748,-16.682892
1427157342.763,-13.973221
1427157342.779,-11.235807
1427157342.795,-8.352343
1427157342.81,-5.2121544
1427157342.826,-1.7203579
1427157342.842,2.157692
1427157342.857,6.4287987
1427157342.873,11.054224
1427157342.888,15.922247
1427157342.904,20.809824
1427157342.92,25.45238
1427157342.935,29.601967
1427157342.951,33.195442
1427157342.967,36.42472
1427157342.982,39.739346
1427157342.998,43.719757
1427157343.013,48.83603
1427157343.029,55.200413
1427157343.045,62.39994
1427157343.06,69.390076
1427157343.076,74.75003
1427157343.092,77.00751
1427157343.107,75.12169
1427157343.123,68.84128
1427157343.138,58.877857
1427157343.154,46.666092
1427157343.17,33.93731
1427157343.185,22.1632
1427157343.201,12.15052
1427157343.217,3.971302
1427157343.232,-2.8560524
1427157343.248,-8.91589
1427157343.263,-14.643936
1427157343.279,-20.118519
1427157343.295,-25.110188
1427157343.31,-29.28767
1427157343.326,-32.38759
1427157343.342,-34.349373
1427157343.357,-35.374542
1427157343.373,-35.822372
1427157343.388,-36.097588
1427157343.404,-36.487778
1427157343.42,-37.10437
1427157343.435,-37.87419
1427157343.451,-38.655857
1427157343.467,-39.294495
1427157343.482,-39.69388
1427157343.498,-39.792168
1427157343.513,-39.54316
1427157343.529,-38.85682
1427157343.545,-37.65514
1427157343.56,-35.88594
1427157343.576,-33.612415
1427157343.592,-30.999634
1427157343.607,-28.241648
1427157343.623,-25.492702
1427157343.638,-22.81242
1427157343.654,-20.15806
1427157343.67,-17.459427
1427157343.685,-14.684383
1427157343.701,-11.797272
1427157343.717,-8.7221985
1427157343.732,-5.372986
1427157343.748,-1.6119041
1427157343.763,2.6195946
1427157343.779,7.25222
1427157343.795,12.045605
1427157343.81,16.708485
1427157343.826,20.98148
1427157343.842,24.790443
1427157343.857,28.243599
1427157343.873,31.584564
1427157343.888,35.126175
1427157343.904,39.163216
1427157343.92,43.942574
1427157343.935,49.655285
1427157343.951,56.304337
1427157343.967,63.535786
1427157343.982,70.463974
1427157343.998,75.73862
1427157344.014,77.82123
1427157344.029,75.560135
1427157344.045,68.63908
1427157344.06,57.843887
1427157344.076,44.839134
1427157344.092,31.573895
1427157344.107,19.587051
1427157344.123,9.603172
1427157344.139,1.456089
1427157344.154,-5.5000305
1427157344.17,-11.869637
1427157344.185,-17.847435
1427157344.201,-23.224705
1427157344.217,-27.592064
1427157344.232,-30.721043
1427157344.248,-32.73693
1427157344.264,-34.066147
1427157344.279,-35.175663
1427157344.295,-36.366802
1427157344.31,-37.626183
1427157344.326,-38.674725
1427157344.342,-39.234806
1427157344.357,-39.20791
1427157344.373,-38.80281
1427157344.389,-38.42518
1427157344.404,-38.426773
1427157344.42,-38.894363
1427157344.435,-39.532734
1427157344.451,-39.7715
1427157344.467,-39.04317
1427157344.482,-37.02796
1427157344.498,-33.785576
1427157344.514,-29.76029
1427157344.529,-25.512156
1427157344.545,-21.505352
1427157344.56,-17.88754
1427157344.576,-14.527765
1427157344.592,-11.040197
1427157344.607,-7.0733356
1427157344.623,-2.426878
1427157344.639,2.8368397
1427157344.654,8.454662
1427157344.67,14.013792
1427157344.685,19.155523
1427157344.701,23.679104
1427157344.717,27.647554
1427157344.732,31.353073
1427157344.748,35.25995
1427157344.764,39.850735
1427157344.779,45.50011
1427157344.795,52.236366
1427157344.81,59.58969
1427157344.826,66.55173
1427157344.842,71.666435
1427157344.857,73.45821
1427157344.873,70.88963
1427157344.889,63.819107
1427157344.904,53.093407
1427157344.92,40.275223
1427157344.935,27.11481
1427157344.951,14.965476
1427157344.967,4.461441
1427157344.982,-4.4301815
1427157344.998,-12.054365
1427157345.014,-18.718555
1427157345.029,-24.439276
1427157345.045,-29.057499
1427157345.06,-32.391323
1427157345.076,-34.503685
1427157345.092,-35.70293
1427157345.107,-36.456932
1427157345.123,-37.185787
1427157345.139,-38.113182
1427157345.154,-39.19231
1427157345.17,-40.218506
1427157345.185,-40.94126
1427157345.201,-41.250477
1427157345.217,-41.16586
1427157345.232,-40.8537
1427157345.248,-40.475014
1427157345.264,-40.08259
1427157345.279,-39.57561
1427157345.295,-38.736736
1427157345.31,-37.346725
1427157345.326,-35.292576
1427157345.342,-32.604412
1427157345.357,-29.43732
1427157345.373,-25.977953
1427157345.389,-22.375648
1427157345.404,-18.740612
1427157345.42,-15.1665125
1427157345.435,-11.723329
1427157345.451,-8.428708
1427157345.467,-5.207176
1427157345.482,-1.8696976
1427157345.498,1.84161
1427157345.514,6.042429
1427157345.529,10.658266
1427157345.545,15.3959465
1427157345.56,19.894176
1427157345.576,23.866858
1427157345.592,27.30481
1427157345.607,30.442265
1427157345.623,33.640526
1427157345.639,37.248394
1427157345.654,41.554607
1427157345.67,46.72689
1427157345.685,52.833614
1427157345.701,59.66745
1427157345.717,66.61359
1427157345.732,72.51975
1427157345.748,75.88685
1427157345.764,75.36032
1427157345.779,70.25969
1427157345.795,60.944626
1427157345.81,48.774612
1427157345.826,35.568504
1427157345.842,22.976383
1427157345.857,11.960596
1427157345.873,2.690897
1427157345.889,-5.192812
1427157345.904,-12.139225
1427157345.92,-18.392965
1427157345.935,-23.92956
1427157345.951,-28.556562
1427157345.967,-32.11674
1427157345.982,-34.653786
1427157345.998,-36.354614
1427157346.014,-37.5051
1427157346.029,-38.350872
1427157346.045,-39.076878
1427157346.06,-39.76162
1427157346.076,-40.373413
1427157346.092,-40.834682
1427157346.107,-41.064877
1427157346.123,-41.011135
1427157346.139,-40.68579
1427157346.154,-40.12806
1427157346.17,-39.39916
1427157346.185,-38.46613
1427157346.201,-37.27572
1427157346.217,-35.734604
1427157346.232,-33.78076
1427157346.248,-31.38104
1427157346.264,-28.58788
1427157346.279,-25.461634
1427157346.295,-22.118881
1427157346.31,-18.653906
1427157346.326,-15.182098
1427157346.342,-11.780119
1427157346.357,-8.486568
1427157346.373,-5.244276
1427157346.389,-1.9155159
1427157346.404,1.7004166
1427157346.42,5.778017
1427157346.435,10.329729
1427157346.451,15.131365
1427157346.467,19.806795
1427157346.482,23.956907
1427157346.498,27.369913
1427157346.514,30.157755
1427157346.529,32.754387
1427157346.545,35.734226
1427157346.56,39.652836
1427157346.576,44.885612
1427157346.592,51.51243
1427157346.607,59.179512
1427157346.623,67.077446
1427157346.639,73.90556
1427157346.654,78.085175
1427157346.67,78.19225
1427157346.686,73.494385
1427157346.701,64.32311
1427157346.717,52.03457
1427157346.732,38.56775
1427157346.748,25.755823
1427157346.764,14.757532
1427157346.779,5.864353
1427157346.795,-1.3036957
1427157346.81,-7.34606
1427157346.826,-12.7069645
1427157346.842,-17.489672
1427157346.857,-21.593153
1427157346.873,-24.875963
1427157346.889,-27.36594
1427157346.904,-29.250662
1427157346.92,-30.857899
1427157346.936,-32.446663
1427157346.951,-34.15135
1427157346.967,-35.904617
1427157346.982,-37.489876
1427157346.998,-38.683395
1427157347.014,-39.369713
1427157347.029,-39.618572
1427157347.045,-39.611763
1427157347.061,-39.484413
1427157347.076,-39.177128
1427157347.092,-38.407463
1427157347.107,-36.83914
1427157347.123,-34.29696
1427157347.139,-30.937986
1427157347.154,-27.241756
1427157347.17,-23.783754
1427157347.186,-20.925547
1427157347.201,-18.639336
1427157347.217,-16.486217
1427157347.232,-13.86886
1427157347.248,-10.352383
1427157347.264,-5.843665
1427157347.279,-0.65298843
1427157347.295,4.6930013
1427157347.311,9.718221
1427157347.326,14.182607
1427157347.342,18.173552
1427157347.357,22.022644
1427157347.373,26.183884
1427157347.389,31.083195
1427157347.404,37.067318
1427157347.42,44.243958
1427157347.436,52.38974
1427157347.451,60.816235
1427157347.467,68.30276
1427157347.482,73.269455
1427157347.498,74.237885
1427157347.514,70.37238
1427157347.529,61.861164
1427157347.545,49.966667
1427157347.561,36.577644
1427157347.576,23.559517
1427157347.592,12.169512
1427157347.607,2.8024726
1427157347.623,-4.846784
1427157347.639,-11.359852
1427157347.654,-17.200514
1427157347.67,-22.528728
1427157347.686,-27.21505
1427157347.701,-31.0746
1427157347.717,-34.042294
1427157347.732,-36.261845
1427157347.748,-38.027607
1427157347.764,-39.663677
1427157347.779,-41.327553
1427157347.795,-42.956932
1427157347.811,-44.318913
1427157347.826,-45.098076
1427157347.842,-45.099922
1427157347.857,-44.368034
1427157347.873,-43.166336
1427157347.889,-41.847286
1427157347.904,-40.637775
1427157347.92,-39.538445
1427157347.936,-38.300358
1427157347.951,-36.572144
1427157347.967,-34.067097
1427157347.982,-30.728231
1427157347.998,-26.715912
1427157348.014,-22.370384
1427157348.029,-18.071018
1427157348.045,-14.104728
1427157348.061,-10.556704
1427157348.076,-7.2875404
1427157348.092,-3.9722133
1427157348.107,-0.26146603
1427157348.123,4.060668
1427157348.139,8.955711
1427157348.154,14.133266
1427157348.17,19.184124
1427157348.186,23.72089
1427157348.201,27.613178
1427157348.217,31.017899
1427157348.232,34.32708
1427157348.248,38.06929
1427157348.264,42.721043
1427157348.279,48.59404
1427157348.295,55.67357
1427157348.311,63.474277
1427157348.326,71.01029
1427157348.342,76.8907
1427157348.357,79.622444
1427157348.373,78.0967
1427157348.389,71.98517
1427157348.404,61.93454
1427157348.42,49.359356
1427157348.436,35.991966
1427157348.451,23.32403
1427157348.467,12.171681
1427157348.482,2.6700735
1427157348.498,-5.501526
1427157348.514,-12.754707
1427157348.529,-19.287437
1427157348.545,-25.048384
1427157348.561,-29.845455
1427157348.576,-33.561687
1427157348.592,-36.261425
1427157348.607,-38.18572
1427157348.623,-39.64049
1427157348.639,-40.848537
1427157348.654,-41.871487
1427157348.67,-42.67136
1427157348.686,-43.188747
1427157348.701,-43.41748
1427157348.717,-43.439796
1427157348.732,-43.3436
1427157348.748,-43.160614
1427157348.764,-42.829384
1427157348.779,-42.181213
1427157348.795,-41.038914
1427157348.811,-39.273582
1427157348.826,-36.861988
1427157348.842,-33.883766
1427157348.857,-30.47924
1427157348.873,-26.806751
1427157348.889,-23.050388
1427157348.904,-19.361088
1427157348.92,-15.910893
1427157348.936,-12.855001
1427157348.951,-10.259852
1427157348.967,-8.0425205
1427157348.982,-5.9862633
1427157348.998,-3.7605782
1427157349.014,-1.0729876
1427157349.029,2.2515688
1427157349.045,6.173272
1427157349.061,10.474578
1427157349.076,14.827939
1427157349.092,18.972609
1427157349.107,22.79143
1427157349.123,26.369452
1427157349.139,29.943815
1427157349.154,33.86991
1427157349.17,38.516884
1427157349.186,44.166042
1427157349.201,50.905342
1427157349.217,58.43924
1427157349.232,65.90256
1427157349.248,71.93694
1427157349.264,74.91727
1427157349.279,73.53182
1427157349.295,67.25382
1427157349.311,56.69813
1427157349.326,43.416023
1427157349.342,29.407503
1427157349.357,16.402912
1427157349.373,5.4051733
1427157349.389,-3.4357824
1427157349.404,-10.52541
1427157349.42,-16.412483
1427157349.436,-21.414276
1427157349.451,-25.607185
1427157349.467,-28.876047
1427157349.482,-31.161764
1427157349.498,-32.56831
1427157349.514,-33.363655
1427157349.529,-33.8479
1427157349.545,-34.279373
1427157349.561,-34.739414
1427157349.576,-35.19167
1427157349.592,-35.496437
1427157349.608,-35.567932
1427157349.623,-35.37902
1427157349.639,-35.04504
1427157349.654,-34.66903
1427157349.67,-34.31321
1427157349.686,-33.850815
1427157349.701,-33.004845
1427157349.717,-31.38572
1427157349.733,-28.741898
1427157349.748,-25.033913
1427157349.764,-20.546524
1427157349.779,-15.766875
1427157349.795,-11.192809
1427157349.811,-7.1040173
1427157349.826,-3.4679565
1427157349.842,0.053905487
1427157349.858,3.9025602
1427157349.873,8.37302
1427157349.889,13.445121
1427157349.904,18.744371
1427157349.92,23.680172
1427157349.936,27.74825
1427157349.951,30.741161
1427157349.967,32.88642
1427157349.983,34.763
1427157349.998,37.116074
1427157350.014,40.62222
1427157350.029,45.700787
1427157350.045,52.29793
1427157350.061,59.837753
1427157350.076,67.165
1427157350.092,72.75726
1427157350.108,75.0471
1427157350.123,72.90287
1427157350.139,66.07426
1427157350.154,55.36051
1427157350.17,42.330128
1427157350.186,28.826677
1427157350.201,16.296494
1427157350.217,5.437126
1427157350.233,-3.8041859
1427157350.248,-11.889666
1427157350.264,-19.239254
1427157350.279,-25.984436
1427157350.295,-31.935091
1427157350.311,-36.807503
1427157350.326,-40.458958
1427157350.342,-42.986168
1427157350.358,-44.707493
1427157350.373,-46.001328
1427157350.389,-47.18679
1427157350.404,-48.386116
1427157350.42,-49.55526
1427157350.436,-50.506817
1427157350.451,-51.02529
1427157350.467,-50.95996
1427157350.483,-50.324944
1427157350.498,-49.294643
1427157350.514,-48.09813
1427157350.529,-46.86918
1427157350.545,-45.534008
1427157350.561,-43.790146
1427157350.576,-41.252594
1427157350.592,-37.661114
1427157350.608,-33.01975
1427157350.623,-27.702433
1427157350.639,-22.2562
1427157350.654,-17.1968
1427157350.67,-12.809664
1427157350.686,-9.027809
1427157350.701,-5.473463
1427157350.717,-1.6723976
1427157350.733,2.7632484
1427157350.748,7.9169617
1427157350.764,13.559111
1427157350.779,19.193373
1427157350.795,24.307085
1427157350.811,28.557343
1427157350.826,31.901886
1427157350.842,34.63771
1427157350.858,37.255024
1427157350.873,40.328754
1427157350.889,44.33349
1427157350.904,49.548218
1427157350.92,55.89718
1427157350.936,62.802616
1427157350.951,69.158394
1427157350.967,73.50157
1427157350.983,74.35962
1427157350.998,70.82291
1427157351.014,62.905922
1427157351.029,51.63118
1427157351.045,38.69547
1427157351.061,25.866812
1427157351.076,14.44492
1427157351.092,4.9180565
1427157351.108,-2.9091702
1427157351.123,-9.592672
1427157351.139,-15.680948
1427157351.154,-21.431564
1427157351.17,-26.82422
1427157351.186,-31.640446
1427157351.201,-35.648525
1427157351.217,-38.690033
1427157351.233,-40.80712
1427157351.248,-42.17566
1427157351.264,-43.061665
1427157351.279,-43.700058
1427157351.295,-44.214317
1427157351.311,-44.618732
1427157351.326,-44.861076
1427157351.342,-44.896748
1427157351.358,-44.67876
1427157351.373,-44.205963
1427157351.389,-43.40242
1427157351.404,-42.154118
1427157351.42,-40.314873
1427157351.436,-37.828552
1427157351.451,-34.804104
1427157351.467,-31.453989
1427157351.483,-28.026632
1427157351.498,-24.659126
1427157351.514,-21.316473
1427157351.529,-17.856924
1427157351.545,-14.153941
1427157351.561,-10.213323
1427157351.576,-6.204015
1427157351.592,-2.350029
1427157351.608,1.1814842
1427157351.623,4.342409
1427157351.639,7.214756
1427157351.654,9.972986
1427157351.67,12.779722
1427157351.686,15.739334
1427157351.701,18.85036
1427157351.717,22.06789
1427157351.733,25.306877
1427157351.748,28.511694
1427157351.764,31.694927
1427157351.779,34.94398
1427157351.795,38.441036
1427157351.811,42.47095
1427157351.826,47.36656
1427157351.842,53.28729
1427157351.858,60.057762
1427157351.873,66.95026
1427157351.889,72.67362
1427157351.904,75.68403
1427157351.92,74.64908
1427157351.936,68.96681
1427157351.951,59.08138
1427157351.967,46.381783
1427157351.983,32.734608
1427157351.998,19.83935
1427157352.014,8.741101
1427157352.029,-0.29194868
1427157352.045,-7.5547895
1427157352.061,-13.525334
1427157352.076,-18.576687
1427157352.092,-22.842434
1427157352.108,-26.294863
1427157352.123,-28.897509
1427157352.139,-30.724812
1427157352.154,-31.984636
1427157352.17,-32.977043
1427157352.186,-34.008232
1427157352.201,-35.280766
1427157352.217,-36.83334
1427157352.233,-38.530968
1427157352.248,-40.156868
1427157352.264,-41.489914
1427157352.28,-42.39873
1427157352.295,-42.881374
1427157352.311,-43.00247
1427157352.326,-42.771793
1427157352.342,-42.089005
1427157352.358,-40.81917
1427157352.373,-38.817657
1427157352.389,-36.073025
1427157352.405,-32.712147
1427157352.42,-28.948128
1427157352.436,-25.00885
1427157352.451,-21.117474
1427157352.467,-17.409925
1427157352.483,-13.987033
1427157352.498,-10.862717
1427157352.514,-7.9510155
1427157352.53,-5.0570507
1427157352.545,-1.9509315
1427157352.561,1.5370302
1427157352.576,5.4169674
1427157352.592,9.516261
1427157352.608,13.580546
1427157352.623,17.364578
1427157352.639,20.737713
1427157352.655,23.748888
1427157352.67,26.584064
1427157352.686,29.515333
1427157352.701,32.840027
1427157352.717,36.861526
1427157352.733,41.81685
1427157352.748,47.77919
1427157352.764,54.497917
1427157352.78,61.23185
1427157352.795,66.77052
1427157352.811,69.686356
1427157352.826,68.743866
1427157352.842,63.422318
1427157352.858,54.14351
1427157352.873,42.227364
1427157352.889,29.443485
1427157352.905,17.397108
1427157352.92,7.034071
1427157352.936,-1.4559002
1427157352.951,-8.4820595
1427157352.967,-14.556429
1427157352.983,-19.94943
1427157352.998,-24.562565
1427157353.014,-28.090652
1427157353.03,-30.303984
1427157353.045,-31.266098
1427157353.061,-31.334543
1427157353.076,-31.059649
1427157353.092,-30.914474
1427157353.108,-31.114521
1427157353.123,-31.604967
1427157353.139,-32.138206
1427157353.155,-32.42518
1427157353.17,-32.322803
1427157353.186,-31.880453
1427157353.201,-31.30532
1427157353.217,-30.79659
1427157353.233,-30.436014
1427157353.248,-30.066603
1427157353.264,-29.357832
1427157353.28,-27.922634
1427157353.295,-25.557632
1427157353.311,-22.314327
1427157353.326,-18.566614
1427157353.342,-14.809595
1427157353.358,-11.479866
1427157353.373,-8.716854
1427157353.389,-6.322962
1427157353.405,-3.8549328
1427157353.42,-0.81482315
1427157353.436,3.0977516
1427157353.451,7.849489
1427157353.467,13.063253
1427157353.483,18.152699
1427157353.498,22.616217
1427157353.514,26.166348
1427157353.53,28.907166
1427157353.545,31.256336
1427157353.561,33.83924
1427157353.576,37.263332
1427157353.592,41.97771
1427157353.608,48.083622
1427157353.623,55.17768
1427157353.639,62.289127
1427157353.655,67.96716
1427157353.67,70.62892
1427157353.686,69.06802
1427157353.701,62.9021
1427157353.717,52.85352
1427157353.733,40.50514
1427157353.748,27.765537
1427157353.764,16.165588
1427157353.78,6.5029774
1427157353.795,-1.2778301
1427157353.811,-7.6864567
1427157353.826,-13.322075
1427157353.842,-18.493122
1427157353.858,-23.19293
1427157353.873,-27.225182
1427157353.889,-30.395897
1427157353.905,-32.651844
1427157353.92,-34.136505
1427157353.936,-35.1258
1427157353.951,-35.92304
1427157353.967,-36.763798
1427157353.983,-37.77952
1427157353.998,-38.89859
1427157354.014,-39.964996
1427157354.03,-40.764275
1427157354.045,-41.19729
1427157354.061,-41.24038
1427157354.076,-41.009056
1427157354.092,-40.567772
1427157354.108,-39.895527
1427157354.123,-38.818855
1427157354.139,-37.13376
1427157354.155,-34.69451
1427157354.17,-31.508972
1427157354.186,-27.76167
1427157354.201,-23.730515
1427157354.217,-19.712505
1427157354.233,-15.910814
1427157354.248,-12.404558
1427157354.264,-9.143784
1427157354.28,-5.9595337
1427157354.295,-2.632061
1427157354.311,1.0516663
1427157354.326,5.191921
1427157354.342,9.739548
1427157354.358,14.467606
1427157354.373,19.0551
1427157354.389,23.163544
1427157354.405,26.628525
1427157354.42,29.567162
1427157354.436,32.293064
1427157354.451,35.278866
1427157354.467,39.019802
1427157354.483,43.858047
1427157354.498,49.899143
1427157354.514,56.899616
1427157354.53,64.178925
1427157354.545,70.58464
1427157354.561,74.67322
1427157354.576,75.035904
1427157354.592,70.80003
1427157354.608,61.966087
1427157354.623,49.594486
1427157354.639,35.444332
1427157354.655,21.440273
1427157354.67,9.059078
1427157354.686,-1.046463
1427157354.701,-8.977901
1427157354.717,-15.3033905
1427157354.733,-20.598473
1427157354.748,-25.165539
1427157354.764,-28.981464
1427157354.78,-31.850723
1427157354.795,-33.61559
1427157354.811,-34.312183
1427157354.826,-34.208282
1427157354.842,-33.70242
1427157354.858,-33.219418
1427157354.873,-33.027725
1427157354.889,-33.22234
1427157354.905,-33.756474
1427157354.92,-34.48598
1427157354.936,-35.28452
1427157354.952,-36.091805
1427157354.967,-36.885
1427157354.983,-37.600212
1427157354.998,-38.0769
1427157355.014,-38.031853
1427157355.03,-37.135876
1427157355.045,-35.19707
1427157355.061,-32.209984
1427157355.077,-28.439537
1427157355.092,-24.274197
1427157355.108,-20.132332
1427157355.123,-16.293602
1427157355.139,-12.890411
1427157355.155,-9.857624
1427157355.17,-7.022072
1427157355.186,-4.11549
1427157355.202,-0.86832047
1427157355.217,2.9542465
1427157355.233,7.411747
1427157355.248,12.359653
1427157355.264,17.403172
1427157355.28,22.082012
1427157355.295,26.026733
1427157355.311,29.15672
1427157355.327,31.721619
1427157355.342,34.26354
1427157355.358,37.3793
1427157355.373,41.543774
1427157355.389,46.963615
1427157355.405,53.428867
1427157355.42,60.30067
1427157355.436,66.510056
1427157355.452,70.732574
1427157355.467,71.702225
1427157355.483,68.58615
1427157355.498,61.359455
1427157355.514,50.87034
1427157355.53,38.639687
1427157355.545,26.316689
1427157355.561,15.195702
1427157355.577,5.8757095
1427157355.592,-1.681736
1427157355.608,-7.8963814
1427157355.623,-13.192398
1427157355.639,-17.768139
1427157355.655,-21.58244
1427157355.67,-24.505672
1427157355.686,-26.52539
1427157355.702,-27.856121
1427157355.717,-28.877487
1427157355.733,-30.014977
1427157355.748,-31.504158
1427157355.764,-33.301174
1427157355.78,-35.11308
1427157355.795,-36.566612
1427157355.811,-37.41887
1427157355.827,-37.671326
1427157355.842,-37.534374
1427157355.858,-37.222843
1427157355.873,-36.771187
1427157355.889,-35.917812
1427157355.905,-34.263397
1427157355.92,-31.46796
1427157355.936,-27.533089
1427157355.952,-22.857838
1427157355.967,-18.068375
1427157355.983,-13.774769
1427157355.998,-10.248634
1427157356.014,-7.3630104
1427157356.03,-4.6447067
1427157356.045,-1.58358
1427157356.061,2.1410065
1427157356.077,6.49094
1427157356.092,11.097866
1427157356.108,15.456404
1427157356.123,19.132504
1427157356.139,21.988726
1427157356.155,24.258507
1427157356.17,26.473978
1427157356.186,29.28519
1427157356.202,33.24157
1427157356.217,38.618675
1427157356.233,45.255238
1427157356.248,52.493702
1427157356.264,59.213287
1427157356.28,64.021484
1427157356.295,65.58136
1427157356.311,62.986275
1427157356.327,56.17782
1427157356.342,45.98981
1427157356.358,33.991066
1427157356.373,21.927132
1427157356.389,11.167854
1427157356.405,2.316269
1427157356.42,-4.8073254
1427157356.436,-10.823156
1427157356.452,-16.370977
1427157356.467,-21.730568
1427157356.483,-26.7707
1427157356.498,-31.079447
1427157356.514,-34.27824
1427157356.53,-36.192833
1427157356.545,-37.01232
1427157356.561,-37.16487
1427157356.577,-37.157333
1427157356.592,-37.384262
1427157356.608,-37.999405
1427157356.623,-38.888924
1427157356.639,-39.796936
1427157356.655,-40.45155
1427157356.67,-40.72916
1427157356.686,-40.678146
1427157356.702,-40.45893
1427157356.717,-40.164783
1427157356.733,-39.683926
1427157356.748,-38.679256
1427157356.764,-36.76264
1427157356.78,-33.673065
1427157356.795,-29.484491
1427157356.811,-24.592968
1427157356.827,-19.619415
1427157356.842,-15.09451
1427157356.858,-11.300674
1427157356.873,-8.1386795
1427157356.889,-5.1919727
1427157356.905,-1.9469299
1427157356.92,1.9821434
1427157356.936,6.6864815
1427157356.952,11.929783
1427157356.967,17.267721
1427157356.983,22.218582
1427157356.998,26.480457
1427157357.014,30.005352
1427157357.03,32.982494
1427157357.045,35.762882
1427157357.061,38.804188
1427157357.077,42.57108
1427157357.092,47.469475
1427157357.108,53.687943
1427157357.123,60.978905
1427157357.139,68.44504
1427157357.155,74.615364
1427157357.17,77.758675
1427157357.186,76.498055
1427157357.202,70.327286
1427157357.217,59.91879
1427157357.233,46.878624
1427157357.248,33.14689
1427157357.264,20.313602
1427157357.28,9.233766
1427157357.295,-0.03528309
1427157357.311,-7.86872
1427157357.327,-14.680291
1427157357.342,-20.618362
1427157357.358,-25.628973
1427157357.373,-29.591187
1427157357.389,-32.501297
1427157357.405,-34.564476
1427157357.42,-36.139698
1427157357.436,-37.548607
1427157357.452,-39.017067
1427157357.467,-40.573807
1427157357.483,-42.119564
1427157357.498,-43.48957
1427157357.514,-44.552467
1427157357.53,-45.247887
1427157357.545,-45.63842
1427157357.561,-45.802074
1427157357.577,-45.772243
1427157357.592,-45.50891
1427157357.608,-44.85191
1427157357.624,-43.597145
1427157357.639,-41.598534
1427157357.655,-38.82579
1427157357.67,-35.39972
1427157357.686,-31.531898
1427157357.702,-27.466766
1427157357.717,-23.380327
1427157357.733,-19.421513
1427157357.748,-15.660716
1427157357.764,-12.156728
1427157357.78,-8.91048
1427157357.795,-5.8549347
1427157357.811,-2.8186302
1427157357.827,0.40560913
1427157357.842,4.0245705
1427157357.858,8.149027
1427157357.874,12.6849
1427157357.889,17.399729
1427157357.905,21.988981
1427157357.92,26.185364
1427157357.936,29.882967
1427157357.952,33.20063
1427157357.967,36.433014
1427157357.983,39.97854
1427157357.999,44.259735
1427157358.014,49.599075
1427157358.03,56.1191
1427157358.045,63.476353
1427157358.061,70.78673
1427157358.077,76.6235
1427157358.092,79.363365
1427157358.108,77.71261
1427157358.124,71.256546
1427157358.139,60.64743
1427157358.155,47.47216
1427157358.17,33.664215
1427157358.186,20.855417
1427157358.202,9.927542
1427157358.217,0.9948673
1427157358.233,-6.3442936
1427157358.249,-12.554771
1427157358.264,-17.902187
1427157358.28,-22.365715
1427157358.295,-25.842772
1427157358.311,-28.255524
1427157358.327,-29.771553
1427157358.342,-30.712105
1427157358.358,-31.478275
1427157358.374,-32.356792
1427157358.389,-33.42381
1427157358.405,-34.530136
1427157358.42,-35.409218
1427157358.436,-35.838654
1427157358.452,-35.812065
1427157358.467,-35.51646
1427157358.483,-35.22503
1427157358.499,-35.087715
1427157358.514,-34.975235
1427157358.53,-34.491215
1427157358.545,-33.15791
1427157358.561,-30.685675
1427157358.577,-27.134869
1427157358.592,-22.89807
1427157358.608,-18.56959
1427157358.624,-14.639658
1427157358.639,-11.311603
1427157358.655,-8.450382
1427157358.67,-5.6499014
1427157358.686,-2.47085
1427157358.702,1.3659954
1427157358.717,5.789952
1427157358.733,10.418313
1427157358.749,14.730119
1427157358.764,18.270096
1427157358.78,20.932487
1427157358.795,23.011406
1427157358.811,25.148323
1427157358.827,28.053295
1427157358.842,32.330486
1427157358.858,38.19761
1427157358.874,45.417328
1427157358.889,53.237602
1427157358.905,60.451508
1427157358.92,65.59273
1427157358.936,67.27125
1427157358.952,64.54073
1427157358.967,57.3023
1427157358.983,46.425617
1427157358.999,33.50652
1427157359.014,20.392782
1427157359.03,8.559466
1427157359.045,-1.2407303
1427157359.061,-9.052195
1427157359.077,-15.453722
1427157359.092,-21.036427
1427157359.108,-26.161888
1427157359.124,-30.776207
1427157359.139,-34.612198
1427157359.155,-37.41429
1427157359.17,-39.164494
1427157359.186,-40.13675
1427157359.202,-40.74668
1427157359.217,-41.35971
1427157359.233,-42.13377
1427157359.249,-42.922215
1427157359.264,-43.434696
1427157359.28,-43.387264
1427157359.295,-42.65487
1427157359.311,-41.351448
1427157359.327,-39.736805
1427157359.342,-38.08513
1427157359.358,-36.528564
1427157359.374,-34.994987
1427157359.389,-33.282494
1427157359.405,-31.149506
1427157359.42,-28.485416
1427157359.436,-25.28162
1427157359.452,-21.692375
1427157359.467,-17.889584
1427157359.483,-14.071303
1427157359.499,-10.399567
1427157359.514,-6.9838943
1427157359.53,-3.8256679
1427157359.545,-0.8202696
1427157359.561,2.264814
1427157359.577,5.7212205
1427157359.592,9.745613
1427157359.608,14.342863
1427157359.624,19.254015
1427157359.639,24.077099
1427157359.655,28.440332
1427157359.67,32.19795
1427157359.686,35.507675
1427157359.702,38.752743
1427157359.717,42.417374
1427157359.733,46.896873
1427157359.749,52.460556
1427157359.764,59.117958
1427157359.78,66.51509
1427157359.795,73.7852
1427157359.811,79.55214
1427157359.827,82.184975
1427157359.842,80.31792
1427157359.858,73.41287
1427157359.874,62.059444
1427157359.889,47.84989
1427157359.905,32.827106
1427157359.92,18.73925
1427157359.936,6.605893
1427157359.952,-3.480606
1427157359.967,-11.934091
1427157359.983,-19.280334
1427157359.999,-25.774487
1427157360.014,-31.365993
1427157360.03,-35.859306
1427157360.045,-39.152473
1427157360.061,-41.36203
1427157360.077,-42.794624
1427157360.092,-43.774452
1427157360.108,-44.514282
1427157360.124,-45.09945
1427157360.139,-45.490208
1427157360.155,-45.61577
1427157360.17,-45.483093
1427157360.186,-45.12459
1427157360.202,-44.613884
1427157360.217,-43.97116
1427157360.233,-43.18424
1427157360.249,-42.176754
1427157360.264,-40.875404
1427157360.28,-39.182537
1427157360.296,-37.015858
1427157360.311,-34.293495
1427157360.327,-31.0141
1427157360.342,-27.25402
1427157360.358,-23.182552
1427157360.374,-19.053238
1427157360.389,-15.09567
1427157360.405,-11.464651
1427157360.42,-8.243511
1427157360.436,-5.3664293
1427157360.452,-2.7370377
1427157360.467,-0.1662426
1427157360.483,2.5311813
1427157360.499,5.5635757
1427157360.514,9.047077
1427157360.53,12.985469
1427157360.546,17.202791
1427157360.561,21.450512
1427157360.577,25.448399
1427157360.592,29.074755
1427157360.608,32.43803
1427157360.624,35.875927
1427157360.639,39.893616
1427157360.655,44.963657
1427157360.671,51.36313
1427157360.686,58.91189
1427157360.702,66.816864
1427157360.717,73.741135
1427157360.733,78.018166
1427157360.749,78.20845
1427157360.764,73.569725
1427157360.78,64.38965
1427157360.796,51.945236
1427157360.811,38.093246
1427157360.827,24.632498
1427157360.842,12.821928
1427157360.858,3.1541367
1427157360.874,-4.565262
1427157360.889,-10.846141
1427157360.905,-16.164444
1427157360.921,-20.748238
1427157360.936,-24.56536
1427157360.952,-27.505182
1427157360.967,-29.563942
1427157360.983,-30.950388
1427157360.999,-32.02276
1427157361.014,-33.17911
1427157361.03,-34.61857
1427157361.046,-36.29741
1427157361.061,-37.96135
1427157361.077,-39.326378
1427157361.092,-40.225147
1427157361.108,-40.694237
1427157361.124,-40.885433
1427157361.139,-40.946945
1427157361.155,-40.85486
1427157361.171,-40.392967
1427157361.186,-39.230633
1427157361.202,-37.094147
1427157361.217,-33.864143
1427157361.233,-29.731613
1427157361.249,-25.085564
1427157361.264,-20.44368
1427157361.28,-16.206276
1427157361.296,-12.533312
1427157361.311,-9.198839
1427157361.327,-5.746586
1427157361.342,-1.6719437
1427157361.358,3.2647343
1427157361.374,8.904427
1427157361.389,14.734335
1427157361.405,20.1141
1427157361.421,24.593332
1427157361.436,28.130974
1427157361.452,31.099237
1427157361.467,34.117584
1427157361.483,37.850437
1427157361.499,42.80747
1427157361.514,49.119347
1427157361.53,56.44822
1427157361.546,63.909126
1427157361.561,70.16188
1427157361.577,73.63675
1427157361.592,73.037254
1427157361.608,67.72987
1427157361.624,58.1121
1427157361.639,45.45474
1427157361.655,31.55789
1427157361.671,18.159817
1427157361.686,6.4125023
1427157361.702,-3.3228302
1427157361.717,-11.309402
1427157361.733,-18.06927
1427157361.749,-24.013918
1427157361.764,-29.26143
1427157361.78,-33.657772
1427157361.796,-37.02797
1427157361.811,-39.303596
1427157361.827,-40.67994
1427157361.842,-41.48562
1427157361.858,-42.09424
1427157361.874,-42.76945
1427157361.889,-43.60414
1427157361.905,-44.55361
1427157361.921,-45.50166
1427157361.936,-46.320896
1427157361.952,-46.89651
1427157361.967,-47.090412
1427157361.983,-46.784737
1427157361.999,-45.864296
1427157362.014,-44.304665
1427157362.03,-42.141678
1427157362.046,-39.484734
1427157362.061,-36.429337
1427157362.077,-33.04603
1427157362.092,-29.346897
1427157362.108,-25.354078
1427157362.124,-21.143284
1427157362.139,-16.87042
1427157362.155,-12.752125
1427157362.171,-8.971939
1427157362.186,-5.6152954
1427157362.202,-2.5957031
1427157362.217,0.35103035
1427157362.233,3.5489845
1427157362.249,7.2599316
1427157362.264,11.536383
1427157362.28,16.181107
1427157362.296,20.823248
1427157362.311,25.071878
1427157362.327,28.707367
1427157362.342,31.821878
1427157362.358,34.742596
1427157362.374,37.963905
1427157362.389,41.944237
1427157362.405,47.019325
1427157362.421,53.284393
1427157362.436,60.571274
1427157362.452,68.281
1427157362.467,75.342155
1427157362.483,80.30508
1427157362.499,81.63924
1427157362.514,78.25435
1427157362.53,69.996254
1427157362.546,57.793507
1427157362.561,43.433933
1427157362.577,28.934736
1427157362.592,15.900108
1427157362.608,5.076597
1427157362.624,-3.6231556
1427157362.639,-10.813568
1427157362.655,-17.094538
1427157362.671,-22.773182
1427157362.686,-27.776436
1427157362.702,-31.895565
1427157362.717,-34.972237
1427157362.733,-37.1278
1427157362.749,-38.676994
1427157362.764,-40.02747
1427157362.78,-41.46057
1427157362.796,-43.047825
1427157362.811,-44.67034
1427157362.827,-46.092194
1427157362.842,-47.12137
1427157362.858,-47.64737
1427157362.874,-47.691227
1427157362.889,-47.32039
1427157362.905,-46.551834
1427157362.921,-45.3619
1427157362.936,-43.677242
1427157362.952,-41.456924
1427157362.967,-38.707962
1427157362.983,-35.529045
1427157362.999,-32.02481
1427157363.014,-28.293991
1427157363.03,-24.370852
1427157363.046,-20.29383
1427157363.061,-16.09235
1427157363.077,-11.874203
1427157363.092,-7.7596626
1427157363.108,-3.8672848
1427157363.124,-0.23565006
1427157363.139,3.1703444
1427157363.155,6.4833193
1427157363.171,9.838058
1427157363.186,13.327883
1427157363.202,16.962719
1427157363.218,20.679617
1427157363.233,24.323055
1427157363.249,27.7735
1427157363.264,30.96213
1427157363.28,33.9459
1427157363.296,36.93044
1427157363.311,40.272697
1427157363.327,44.418232
1427157363.343,49.75733
1427157363.358,56.398438
1427157363.374,63.98931
1427157363.389,71.50399
1427157363.405,77.45499
1427157363.421,80.15588
1427157363.436,78.31856
1427157363.452,71.48538
1427157363.468,60.31868
1427157363.483,46.38121
1427157363.499,31.685486
1427157363.514,17.99323
1427157363.53,6.3802137
1427157363.546,-2.9136422
1427157363.561,-10.257956
1427157363.577,-16.21887
1427157363.593,-21.202526
1427157363.608,-25.317043
1427157363.624,-28.475044
1427157363.639,-30.63673
1427157363.655,-31.945948
1427157363.671,-32.78348
1427157363.686,-33.58487
1427157363.702,-34.670967
1427157363.718,-36.056713
1427157363.733,-37.54079
1427157363.749,-38.781136
1427157363.764,-39.519806
1427157363.78,-39.701958
1427157363.796,-39.46532
1427157363.811,-39.04452
1427157363.827,-38.595024
1427157363.843,-38.105625
1427157363.858,-37.3451
1427157363.874,-35.99792
1427157363.889,-33.792976
1427157363.905,-30.656086
1427157363.921,-26.742722
1427157363.936,-22.40938
1427157363.952,-18.067114
1427157363.968,-14.069117
1427157363.983,-10.573551
1427157363.999,-7.4928894
1427157364.014,-4.5815067
1427157364.03,-1.5037712
1427157364.046,2.0045276
1427157364.061,6.0294204
1427157364.077,10.435624
1427157364.093,14.946036
1427157364.108,19.248537
1427157364.124,23.148952
1427157364.139,26.643045
1427157364.155,29.912914
1427157364.171,33.294098
1427157364.186,37.19534
1427157364.202,41.970413
1427157364.218,47.86512
1427157364.233,54.760918
1427157364.249,62.04203
1427157364.264,68.522934
1427157364.28,72.66392
1427157364.296,72.99434
1427157364.311,68.67773
1427157364.327,59.88622
1427157364.343,47.791122
1427157364.358,34.199894
1427157364.374,20.861372
1427157364.389,8.961112
1427157364.405,-1.1021194
1427157364.421,-9.518169
1427157364.436,-16.725271
1427157364.452,-23.004757
1427157364.468,-28.369778
1427157364.483,-32.635105
1427157364.499,-35.631138
1427157364.514,-37.3691
1427157364.53,-38.126152
1427157364.546,-38.338478
1427157364.561,-38.48434
1427157364.577,-38.92477
1427157364.593,-39.75976
1427157364.608,-40.855354
1427157364.624,-41.915848
1427157364.639,-42.64482
1427157364.655,-42.85939
1427157364.671,-42.591385
1427157364.686,-41.94877
1427157364.702,-41.048225
1427157364.718,-39.89441
1427157364.733,-38.423378
1427157364.749,-36.53379
1427157364.764,-34.19874
1427157364.78,-31.451519
1427157364.796,-28.387302
1427157364.811,-25.058777
1427157364.827,-21.502716
1427157364.843,-17.742445
1427157364.858,-13.852749
1427157364.874,-9.962068
1427157364.889,-6.2035594
1427157364.905,-2.6270373
1427157364.921,0.85402656
1427157364.936,4.4294124
1427157364.952,8.279401
1427157364.968,12.484138
1427157364.983,16.935965
1427157364.999,21.405458
1427157365.014,25.606949
1427157365.03,29.34812
1427157365.046,32.57938
1427157365.061,35.47966
1427157365.077,38.354927
1427157365.093,41.63819
1427157365.108,45.746883
1427157365.124,51.009094
1427157365.139,57.464447
1427157365.155,64.733215
1427157365.171,71.85284
1427157365.186,77.37821
1427157365.202,79.67209
1427157365.218,77.48131
1427157365.233,70.38081
1427157365.249,59.068245
1427157365.264,45.131386
1427157365.28,30.568901
1427157365.296,17.053604
1427157365.311,5.565161
1427157365.327,-3.8060346
1427157365.343,-11.469331
1427157365.358,-17.970598
1427157365.374,-23.651001
1427157365.389,-28.60066
1427157365.405,-32.744488
1427157365.421,-36.026165
1427157365.436,-38.498814
1427157365.452,-40.303093
1427157365.468,-41.615078
1427157365.483,-42.58937
1427157365.499,-43.334915
1427157365.514,-43.919235
1427157365.53,-44.402065
1427157365.546,-44.808384
1427157365.561,-45.138836
1427157365.577,-45.35345
1427157365.593,-45.377834
1427157365.608,-45.123634
1427157365.624,-44.4637
1427157365.639,-43.32096
1427157365.655,-41.60435
1427157365.671,-39.343903
1427157365.686,-36.63475
1427157365.702,-33.674816
1427157365.718,-30.64212
1427157365.733,-27.679642
1427157365.749,-24.7665
1427157365.764,-21.780844
1427157365.78,-18.555855
1427157365.796,-14.978648
1427157365.811,-11.055569
1427157365.827,-6.971427
1427157365.843,-2.971448
1427157365.858,0.720449
1427157365.874,4.057334
1427157365.89,7.1608543
1427157365.905,10.3105545
1427157365.921,13.755938
1427157365.936,17.646347
1427157365.952,21.887878
1427157365.968,26.279545
1427157365.983,30.579498
1427157365.999,34.64153
1427157366.015,38.506294
1427157366.03,42.410126
1427157366.046,46.70411
1427157366.061,51.821552
1427157366.077,58.084885
1427157366.093,65.515396
1427157366.108,73.58197
1427157366.124,81.07417
1427157366.14,86.28466
1427157366.155,87.48724
1427157366.171,83.53731
1427157366.186,74.426125
1427157366.202,61.29776
1427157366.218,46.118244
1427157366.233,30.93988
1427157366.249,17.287283
1427157366.265,5.7636127
1427157366.28,-3.7642565
1427157366.296,-11.816957
1427157366.311,-18.8572
1427157366.327,-25.0899
1427157366.343,-30.429792
1427157366.358,-34.709824
1427157366.374,-37.854053
1427157366.39,-39.974255
1427157366.405,-41.329952
1427157366.421,-42.28305
1427157366.436,-43.13261
1427157366.452,-44.070156
1427157366.468,-45.080112
1427157366.483,-45.997562
1427157366.499,-46.617
1427157366.515,-46.838276
1427157366.53,-46.669132
1427157366.546,-46.236565
1427157366.561,-45.620045
1427157366.577,-44.79393
1427157366.593,-43.56311
1427157366.608,-41.670376
1427157366.624,-38.939648
1427157366.64,-35.419136
1427157366.655,-31.404352
1427157366.671,-27.323027
1427157366.686,-23.55083
1427157366.702,-20.285114
1427157366.718,-17.466946
1427157366.733,-14.854267
1427157366.749,-12.177679
1427157366.765,-9.303626
1427157366.78,-6.29082
1427157366.796,-3.324215
1427157366.811,-0.50461006
1427157366.827,2.1902142
1427157366.843,5.0188465
1427157366.858,8.33588
1427157366.874,12.374773
1427157366.89,17.069342
1427157366.905,22.048702
1427157366.921,26.777302
1427157366.936,30.812923
1427157366.952,33.99602
1427157366.968,36.55342
1427157366.983,38.946632
1427157366.999,41.791733
1427157367.015,45.64123
1427157367.03,50.8636
1427157367.046,57.449013
1427157367.061,64.84792
1427157367.077,71.85468
1427157367.093,76.8009
1427157367.108,77.98007
1427157367.124,74.258064
1427157367.14,65.58479
1427157367.155,53.07532
1427157367.171,38.644737
1427157367.186,24.367489
1427157367.202,11.750172
1427157367.218,1.4835682
1427157367.233,-6.551794
1427157367.249,-12.86717
1427157367.265,-17.95925
1427157367.28,-22.045547
1427157367.296,-25.12815
1427157367.311,-27.08761
1427157367.327,-27.942366
1427157367.343,-27.945017
1427157367.358,-27.525282
1427157367.374,-27.177332
1427157367.39,-27.263075
1427157367.405,-27.890781
1427157367.421,-28.936537
1427157367.436,-30.09185
1427157367.452,-31.101265
1427157367.468,-31.847038
1427157367.483,-32.423477
1427157367.499,-33.00054
1427157367.515,-33.69593
1427157367.53,-34.366226
1427157367.546,-34.667664
1427157367.561,-34.127808
1427157367.577,-32.397804
1427157367.593,-29.41127
1427157367.608,-25.43114
1427157367.624,-20.954708
1427157367.64,-16.460468
1427157367.655,-12.190926
1427157367.671,-8.060922
1427157367.686,-3.7559366
1427157367.702,1.012866
1427157367.718,6.2586756
1427157367.733,11.623742
1427157367.749,16.482187
1427157367.765,20.191877
1427157367.78,22.43591
1427157367.796,23.329258
1427157367.811,23.417229
1427157367.827,23.439137
1427157367.843,24.138378
1427157367.858,26.1189
1427157367.874,29.782387
1427157367.89,35.32981
1427157367.905,42.60931
1427157367.921,50.9193
1427157367.936,58.93096
1427157367.952,64.85435
1427157367.968,66.94257
1427157367.983,64.083664
1427157367.999,56.32639
1427157368.015,44.84027
1427157368.03,31.547586
1427157368.046,18.388977
1427157368.061,6.7306585
1427157368.077,-2.9228892
1427157368.093,-10.767359
1427157368.108,-17.2883
1427157368.124,-22.899311
1427157368.14,-27.700836
1427157368.155,-31.621735
1427157368.171,-34.578568
1427157368.186,-36.605335
1427157368.202,-37.92756
1427157368.218,-38.85327
1427157368.233,-39.66613
1427157368.249,-40.511692
1427157368.265,-41.38504
1427157368.28,-42.155914
1427157368.296,-42.65936
1427157368.311,-42.755627
1427157368.327,-42.37481
1427157368.343,-41.54236
1427157368.358,-40.342922
1427157368.374,-38.921383
1427157368.39,-37.36865
1427157368.405,-35.711372
1427157368.421,-33.82211
1427157368.436,-31.498148
1427157368.452,-28.547071
1427157368.468,-24.89423
1427157368.483,-20.711922
1427157368.499,-16.342987
1427157368.515,-12.205222
1427157368.53,-8.564632
1427157368.546,-5.4420023
1427157368.562,-2.6066074
1427157368.577,0.3120556
1427157368.593,3.6028442
1427157368.608,7.371274
1427157368.624,11.454758
1427157368.64,15.554096
1427157368.655,19.377874
1427157368.671,22.77605
1427157368.686,25.854568
1427157368.702,28.885284
1427157368.718,32.24694
1427157368.733,36.311836
1427157368.749,41.391144
1427157368.765,47.698555
1427157368.78,55.233704
1427157368.796,63.62706
1427157368.812,71.98369
1427157368.827,78.933426
1427157368.843,82.90071
1427157368.858,82.562294
1427157368.874,77.38465
1427157368.89,67.84858
1427157368.905,55.353863
1427157368.921,41.68722
1427157368.937,28.424507
1427157368.952,16.49057
1427157368.968,6.0678406
1427157368.983,-3.157957
1427157368.999,-11.590776
1427157369.015,-19.44761
1427157369.03,-26.6129
1427157369.046,-32.78953
1427157369.062,-37.659748
1427157369.077,-41.08579
1427157369.093,-43.19992
1427157369.108,-44.32881
1427157369.124,-44.876816
1427157369.14,-45.226925
1427157369.155,-45.585995
1427157369.171,-45.984173
1427157369.187,-46.31627
1427157369.202,-46.42945
1427157369.218,-46.22199
1427157369.233,-45.69713
1427157369.249,-44.93348
1427157369.265,-43.990646
1427157369.28,-42.817024
1427157369.296,-41.268417
1427157369.312,-39.148895
1427157369.327,-36.338078
1427157369.343,-32.839806
1427157369.358,-28.808092
1427157369.374,-24.473974
1427157369.39,-20.100336
1427157369.405,-15.891735
1427157369.421,-11.96892
1427157369.437,-8.360407
1427157369.452,-5.000807
1427157369.468,-1.722992
1427157369.483,1.6292744
1427157369.499,5.239464
1427157369.515,9.174818
1427157369.53,13.421097
1427157369.546,17.85531
1427157369.562,22.315258
1427157369.577,26.634384
1427157369.593,30.697918
1427157369.608,34.50125
1427157369.624,38.15149
1427157369.64,41.890205
1427157369.655,46.098778
1427157369.671,51.22744
1427157369.687,57.60001
1427157369.702,65.206314
1427157369.718,73.40396
1427157369.733,80.92604
1427157369.749,86.0879
1427157369.765,87.248474
1427157369.78,83.43259
1427157369.796,74.67729
1427157369.812,62.086967
1427157369.827,47.449642
1427157369.843,32.6586
1427157369.858,19.098698
1427157369.874,7.4159584
1427157369.89,-2.4890099
1427157369.905,-11.035339
1427157369.921,-18.657326
1427157369.937,-25.523884
1427157369.952,-31.574257
1427157369.968,-36.61866
1427157369.983,-40.548935
1427157369.999,-43.413654
1427157370.015,-45.439064
1427157370.03,-46.911102
1427157370.046,-48.098766
1427157370.062,-49.12001
1427157370.077,-50.007088
1427157370.093,-50.686806
1427157370.108,-51.098255
1427157370.124,-51.198044
1427157370.14,-50.998085
1427157370.155,-50.522472
1427157370.171,-49.778053
1427157370.187,-48.717712
1427157370.202,-47.26026
1427157370.218,-45.303864
1427157370.233,-42.769695
1427157370.249,-39.647003
1427157370.265,-36.01434
1427157370.28,-32.016777
1427157370.296,-27.827599
1427157370.312,-23.647526
1427157370.327,-19.62331
1427157370.343,-15.844212
1427157370.358,-12.294651
1427157370.374,-8.822285
1427157370.39,-5.207939
1427157370.405,-1.219429
1427157370.421,3.270172
1427157370.437,8.206429
1427157370.452,13.363522
1427157370.468,18.450733
1427157370.483,23.238895
1427157370.499,27.68312
1427157370.515,31.88208
1427157370.53,36.051197
1427157370.546,40.44056
1427157370.562,45.29866
1427157370.577,50.904667
1427157370.593,57.473866
1427157370.608,65.01016
1427157370.624,73.023834
1427157370.64,80.371414
1427157370.655,85.39626
1427157370.671,86.3805
1427157370.687,82.209404
1427157370.702,72.85154
1427157370.718,59.483063
1427157370.733,44.05735
1427157370.749,28.66079
1427157370.765,14.803459
1427157370.78,3.156231
1427157370.796,-6.379669
1427157370.812,-14.275616
1427157370.827,-20.965313
1427157370.843,-26.60884
1427157370.858,-31.12133
1427157370.874,-34.38105
1427157370.89,-36.432823
1427157370.905,-37.583298
1427157370.921,-38.333282
1427157370.937,-39.165787
1427157370.952,-40.375305
1427157370.968,-41.931396
1427157370.983,-43.554268
1427157370.999,-44.847336
1427157371.015,-45.57157
1427157371.03,-45.72995
1427157371.046,-45.56562
1427157371.062,-45.39261
1427157371.077,-45.372444
1427157371.093,-45.38877
1427157371.108,-45.05059
1427157371.124,-43.861557
1427157371.14,-41.475525
1427157371.155,-37.84088
1427157371.171,-33.25872
1427157371.187,-28.242981
1427157371.202,-23.362076
1427157371.218,-18.973076
1427157371.234,-15.094131
1427157371.249,-11.402924
1427157371.265,-7.3964767
1427157371.28,-2.6260529
1427157371.296,3.019333
1427157371.312,9.263939
1427157371.327,15.502861
1427157371.343,21.103554
1427157371.358,25.671654
1427157371.374,29.24958
1427157371.39,32.284225
1427157371.405,35.467094
1427157371.421,39.509422
1427157371.437,44.966476
1427157371.452,52.062607
1427157371.468,60.6298
1427157371.484,69.92007
1427157371.499,78.62627
1427157371.515,84.99636
1427157371.53,87.29626
1427157371.546,84.30162
1427157371.562,75.8621
1427157371.577,63.00509
1427157371.593,47.639343
1427157371.609,31.932022
1427157371.624,17.592255
1427157371.64,5.4896393
1427157371.655,-4.3818665
1427157371.671,-12.549072
1427157371.687,-19.584053
1427157371.702,-25.794289
1427157371.718,-31.17987
1427157371.734,-35.58625
1427157371.749,-38.960762
1427157371.765,-41.42708
1427157371.78,-43.294144
1427157371.796,-44.923386
1427157371.812,-46.546364
1427157371.827,-48.214638
1427157371.843,-49.797356
1427157371.859,-51.129295
1427157371.874,-52.050606
1427157371.89,-52.530006
1427157371.905,-52.595596
1427157371.921,-52.29457
1427157371.937,-51.61888
1427157371.952,-50.5119
1427157371.968,-48.890617
1427157371.984,-46.745026
1427157371.999,-44.131874
1427157372.015,-41.170654
1427157372.03,-37.95378
1427157372.046,-34.52533
1427157372.062,-30.864807
1427157372.077,-26.9516
1427157372.093,-22.798737
1427157372.109,-18.518242
1427157372.124,-14.268311
1427157372.14,-10.1870575
1427157372.155,-6.288452
1427157372.171,-2.4582062
1427157372.187,1.5302582
1427157372.202,5.875145
1427157372.218,10.675812
1427157372.234,15.827965
1427157372.249,21.05645
1427157372.265,26.053848
1427157372.28,30.64972
1427157372.296,34.89099
1427157372.312,39.045822
1427157372.327,43.536446
1427157372.343,48.811455
1427157372.359,55.231766
1427157372.374,62.955635
1427157372.39,71.76499
1427157372.405,80.90669
1427157372.421,89.00793
1427157372.437,94.29481
1427157372.452,95.09517
1427157372.468,90.44525
1427157372.484,80.5145
1427157372.499,66.68027
1427157372.515,51.012375
1427157372.53,35.54622
1427157372.546,21.597626
1427157372.562,9.588974
1427157372.577,-0.75712585
1427157372.593,-9.939735
1427157372.609,-18.220627
1427157372.624,-25.543602
1427157372.64,-31.678642
1427157372.655,-36.45774
1427157372.671,-39.94098
1427157372.687,-42.37529
1427157372.702,-44.109596
1427157372.718,-45.416885
1427157372.734,-46.463493
1427157372.749,-47.315308
1427157372.765,-48.005478
1427157372.78,-48.55591
1427157372.796,-48.995163
1427157372.812,-49.336044
1427157372.827,-49.581932
1427157372.843,-49.697952
1427157372.859,-49.57228
1427157372.874,-49.042015
1427157372.89,-47.904655
1427157372.905,-45.963783
1427157372.921,-43.16255
1427157372.937,-39.62014
1427157372.952,-35.591385
1427157372.968,-31.368187
1427157372.984,-27.198982
1427157372.999,-23.20298
1427157373.015,-19.381744
1427157373.03,-15.649559
1427157373.046,-11.953705
1427157373.062,-8.253983
1427157373.077,-4.5006104
1427157373.093,-0.6014633
1427157373.109,3.54599
1427157373.124,8.034637
1427157373.14,12.813232
1427157373.155,17.67839
1427157373.171,22.312202
1427157373.187,26.4702
1427157373.202,30.126068
1427157373.218,33.544025
1427157373.234,37.21183
1427157373.249,41.67154
1427157373.265,47.368015
1427157373.28,54.464973
1427157373.296,62.719894
1427157373.312,71.44759
1427157373.327,79.47017
1427157373.343,85.26225
1427157373.359,87.26139
1427157373.374,84.34623
1427157373.39,76.25822
1427157373.405,63.834545
1427157373.421,48.769844
1427157373.437,33.109028
1427157373.452,18.589478
1427157373.468,6.1627426
1427157373.484,-4.035618
1427157373.499,-12.387142
1427157373.515,-19.398418
1427157373.53,-25.354977
1427157373.546,-30.250301
1427157373.562,-33.976746
1427157373.577,-36.501427
1427157373.593,-38.00963
1427157373.609,-38.852802
1427157373.624,-39.441544
1427157373.64,-40.05624
1427157373.655,-40.763046
1427157373.671,-41.47413
1427157373.687,-42.00101
1427157373.702,-42.213585
1427157373.718,-42.10381
1427157373.734,-41.804066
1427157373.749,-41.473946
1427157373.765,-41.176388
1427157373.78,-40.752735
1427157373.796,-39.85312
1427157373.812,-38.064762
1427157373.827,-35.12137
1427157373.843,-31.074516
1427157373.859,-26.283104
1427157373.874,-21.312534
1427157373.89,-16.646446
1427157373.905,-12.50153
1427157373.921,-8.7322235
1427157373.937,-4.9340973
1427157373.952,-0.7049866
1427157373.968,4.175087
1427157373.984,9.572926
1427157373.999,15.093979
1427157374.015,20.249825
1427157374.03,24.704544
1427157374.046,28.441784
1427157374.062,31.778553
1427157374.077,35.28665
1427157374.093,39.592724
1427157374.109,45.155354
1427157374.124,52.094753
1427157374.14,60.01716
1427157374.156,67.95752
1427157374.171,74.44473
1427157374.187,77.84847
1427157374.202,76.83739
1427157374.218,70.90257
1427157374.234,60.561043
1427157374.249,47.270153
1427157374.265,32.90479
1427157374.281,19.15733
1427157374.296,7.041561
1427157374.312,-3.20261
1427157374.327,-11.884045
1427157374.343,-19.473442
1427157374.359,-26.256092
1427157374.374,-32.20406
1427157374.39,-37.0853
1427157374.406,-40.67889
1427157374.421,-42.956444
1427157374.437,-44.158794
1427157374.452,-44.736607
1427157374.468,-45.16143
1427157374.484,-45.773407
1427157374.499,-46.616905
1427157374.515,-47.48633
1427157374.531,-48.04453
1427157374.546,-47.997562
1427157374.562,-47.299107
1427157374.577,-46.117664
1427157374.593,-44.72092
1427157374.609,-43.29848
1427157374.624,-41.838516
1427157374.64,-40.125015
1427157374.656,-37.89435
1427157374.671,-34.99619
1427157374.687,-31.440155
1427157374.702,-27.421852
1427157374.718,-23.183693
1427157374.734,-18.953289
1427157374.749,-14.89019
1427157374.765,-11.058327
1427157374.781,-7.4077263
1427157374.796,-3.7603912
1427157374.812,0.123542786
1427157374.827,4.454273
1427157374.843,9.298885
1427157374.859,14.513428
1427157374.874,19.784565
1427157374.89,24.730568
1427157374.906,29.112877
1427157374.921,32.918407
1427157374.937,36.376137
1427157374.952,39.855633
1427157374.968,43.814426
1427157374.984,48.65852
1427157374.999,54.720253
1427157375.015,62.103695
1427157375.031,70.47699
1427157375.046,78.8898
1427157375.062,85.7908
1427157375.077,89.31669
1427157375.093,87.94374
1427157375.109,81.0623
1427157375.124,69.3166
1427157375.14,54.416405
1427157375.156,38.521435
1427157375.171,23.465725
1427157375.187,10.280048
1427157375.202,-0.91869354
1427157375.218,-10.566528
1427157375.234,-19.167194
1427157375.249,-26.916264
1427157375.265,-33.673492
1427157375.281,-39.123795
1427157375.296,-43.062218
1427157375.312,-45.546406
1427157375.327,-46.896286
1427157375.343,-47.531742
1427157375.359,-47.826878
1427157375.374,-47.999897
1427157375.39,-48.101494
1427157375.406,-48.060863
1427157375.421,-47.767654
1427157375.437,-47.144127
1427157375.452,-46.196754
1427157375.468,-44.96271
1427157375.484,-43.514572
1427157375.499,-41.92141
1427157375.515,-40.234787
1427157375.531,-38.46096
1427157375.546,-36.58207
1427157375.562,-34.515892
1427157375.577,-32.15159
1427157375.593,-29.389511
1427157375.609,-26.21196
1427157375.624,-22.707296
1427157375.64,-19.08706
1427157375.656,-15.578112
1427157375.671,-12.291527
1427157375.687,-9.140778
1427157375.702,-5.8572235
1427157375.718,-2.096161
1427157375.734,2.3636322
1427157375.749,7.512335
1427157375.765,13.071014
1427157375.781,18.606499
1427157375.796,23.736822
1427157375.812,28.28357
1427157375.827,32.31522
1427157375.843,36.113922
1427157375.859,40.051178
1427157375.874,44.472923
1427157375.89,49.666756
1427157375.906,55.856686
1427157375.921,63.069016
1427157375.937,71.000694
1427157375.952,78.77647
1427157375.968,84.97001
1427157375.984,87.86546
1427157375.999,86.031136
1427157376.015,78.87706
1427157376.031,67.02913
1427157376.046,52.167683
1427157376.062,36.460457
1427157376.077,21.865707
1427157376.093,9.520821
1427157376.109,-0.33210564
1427157376.124,-8.119678
1427157376.14,-14.472402
1427157376.156,-19.890951
1427157376.171,-24.578491
1427157376.187,-28.547613
1427157376.202,-31.774563
1427157376.218,-34.316437
1427157376.234,-36.327896
1427157376.249,-37.96714
1427157376.265,-39.389175
1427157376.281,-40.605152
1427157376.296,-41.597572
1427157376.312,-42.28968
1427157376.327,-42.635536
1427157376.343,-42.66057
1427157376.359,-42.404083
1427157376.374,-41.93227
1427157376.39,-41.22212
1427157376.406,-40.138657
1427157376.421,-38.456562
1427157376.437,-35.97283
1427157376.452,-32.62888
1427157376.468,-28.569271
1427157376.484,-24.115372
1427157376.499,-19.638107
1427157376.515,-15.378657
1427157376.531,-11.331531
1427157376.546,-7.3328304
1427157376.562,-3.1234074
1427157376.577,1.4323215
1427157376.593,6.295662
1427157376.609,11.258899
1427157376.624,16.038288
1427157376.64,20.48124
1427157376.656,24.584309
1427157376.671,28.560867
1427157376.687,32.76017
1427157376.702,37.625607
1427157376.718,43.486862
1427157376.734,50.366894
1427157376.749,57.775345
1427157376.765,64.59575
1427157376.781,69.302536
1427157376.796,70.33698
1427157376.812,66.71851
1427157376.828,58.493076
1427157376.843,46.735878
1427157376.859,33.24958
1427157376.874,19.890284
1427157376.89,8.003304
1427157376.906,-1.8877373
1427157376.921,-9.968435
1427157376.937,-16.716557
1427157376.953,-22.562498
1427157376.968,-27.617622
1427157376.984,-31.760738
1427157376.999,-34.83742
1427157377.015,-36.872147
1427157377.031,-38.089615
1427157377.046,-38.838936
1427157377.062,-39.392044
1427157377.078,-39.890785
1427157377.093,-40.282898
1427157377.109,-40.442417
1427157377.124,-40.307674
1427157377.14,-39.891804
1427157377.156,-39.29315
1427157377.171,-38.569782
1427157377.187,-37.693058
1427157377.203,-36.501602
1427157377.218,-34.788525
1427157377.234,-32.39148
1427157377.249,-29.283272
1427157377.265,-25.62454
1427157377.281,-21.656706
1427157377.296,-17.655846
1427157377.312,-13.757868
1427157377.328,-9.916613
1427157377.343,-5.9180603
1427157377.359,-1.4993773
1427157377.374,3.5061388
1427157377.39,9.032196
1427157377.406,14.758904
1427157377.421,20.251656
1427157377.437,25.1491
1427157377.453,29.363356
1427157377.468,33.15018
1427157377.484,37.037132
1427157377.499,41.66209
1427157377.515,47.511616
1427157377.531,54.721848
1427157377.546,62.824295
1427157377.562,70.76472
1427157377.578,76.993805
1427157377.593,79.89922
1427157377.609,78.24765
1427157377.624,71.71935
1427157377.64,61.077843
1427157377.656,47.927166
1427157377.671,34.186848
1427157377.687,21.437933
1427157377.703,10.514681
1427157377.718,1.4093599
1427157377.734,-6.3521395
1427157377.749,-13.302858
1427157377.765,-19.714592
1427157377.781,-25.536892
1427157377.796,-30.571537
1427157377.812,-34.69105
1427157377.828,-38.01556
1427157377.843,-40.81498
1427157377.859,-43.350185
1427157377.874,-45.74769
1427157377.89,-47.962906
1427157377.906,-49.8076
1427157377.921,-51.10711
1427157377.937,-51.772976
1427157377.953,-51.867603
1427157377.968,-51.522648
1427157377.984,-50.918182
1427157377.999,-50.144554
1427157378.015,-49.199104
1427157378.031,-47.963085
1427157378.046,-46.2508
1427157378.062,-43.85803
1427157378.078,-40.68456
1427157378.093,-36.718716
1427157378.109,-32.13156
1427157378.124,-27.221745
1427157378.14,-22.332699
1427157378.156,-17.713326
1427157378.171,-13.486569
1427157378.187,-9.557468
1427157378.203,-5.709289
1427157378.218,-1.647108
1427157378.234,2.8458512
1427157378.249,7.8742375
1427157378.265,13.34782
1427157378.281,19.02129
1427157378.296,24.529503
1427157378.312,29.547253
1427157378.328,33.830437
1427157378.343,37.363415
1427157378.359,40.34458
1427157378.374,43.186897
1427157378.39,46.420086
1427157378.406,50.566826
1427157378.421,56.011173
1427157378.437,62.83586
1427157378.453,70.55243
1427157378.468,78.074005
1427157378.484,83.78074
1427157378.499,85.980255
1427157378.515,83.425224
1427157378.531,75.86311
1427157378.546,64.15918
1427157378.562,50.061855
1427157378.578,35.51198
1427157378.593,22.042927
1427157378.609,10.327001
1427157378.624,0.30749607
1427157378.64,-8.465839
1427157378.656,-16.330053
1427157378.671,-23.32695
1427157378.687,-29.222101
1427157378.703,-33.78087
1427157378.718,-36.962654
1427157378.734,-39.01854
1427157378.749,-40.38138
1427157378.765,-41.497154
1427157378.781,-42.63375
1427157378.796,-43.875263
1427157378.812,-45.083576
1427157378.828,-46.065964
1427157378.843,-46.625084
1427157378.859,-46.65683
1427157378.874,-46.176655
1427157378.89,-45.310368
1427157378.906,-44.212837
1427157378.921,-43.010574
1427157378.937,-41.67668
1427157378.953,-40.055252
1427157378.968,-37.876797
1427157378.984,-34.94393
1427157378.999,-31.260643
1427157379.015,-27.064974
1427157379.031,-22.767609
1427157379.046,-18.819931
1427157379.062,-15.46666
1427157379.078,-12.704977
1427157379.093,-10.254086
1427157379.109,-7.7004604
1427157379.124,-4.664999
1427157379.14,-0.9539051
1427157379.156,3.3963623
1427157379.171,8.113989
1427157379.187,12.820297
1427157379.203,17.159164
1427157379.218,20.958454
1427157379.234,24.261879
1427157379.249,27.385574
1427157379.265,30.755249
1427157379.281,34.85474
1427157379.296,40.03441
1427157379.312,46.482727
1427157379.328,54.054462
1427157379.343,62.164917
1427157379.359,69.70908
1427157379.374,75.21579
1427157379.39,77.16698
1427157379.406,74.53731
1427157379.421,67.19554
1427157379.437,56.09371
1427157379.453,42.91534
1427157379.468,29.55611
1427157379.484,17.440807
1427157379.5,7.230892
1427157379.515,-1.1958942
1427157379.531,-8.329948
1427157379.546,-14.624226
1427157379.562,-20.208214
1427157379.578,-24.930038
1427157379.593,-28.545681
1427157379.609,-30.998207
1427157379.624,-32.500374
1427157379.64,-33.470154
1427157379.656,-34.326912
1427157379.671,-35.32339
1427157379.687,-36.456158
1427157379.703,-37.529476
1427157379.718,-38.3323
1427157379.734,-38.764378
1427157379.75,-38.887463
1427157379.765,-38.831566
1427157379.781,-38.58367
1427157379.796,-37.97276
1427157379.812,-36.69549
1427157379.828,-34.495884
1427157379.843,-31.32227
1427157379.859,-27.448772
1427157379.875,-23.338348
1427157379.89,-19.439377
1427157379.906,-16.006721
1427157379.921,-13.011421
1427157379.937,-10.188004
1427157379.953,-7.181629
1427157379.968,-3.7037354
1427157379.984,0.34581375
1427157380,4.854599
1427157380.015,9.553875
1427157380.031,14.137123
1427157380.046,18.348377
1427157380.062,22.140541
1427157380.078,25.677372
1427157380.093,29.367908
1427157380.109,33.761375
1427157380.125,39.36307
1427157380.14,46.3301
1427157380.156,54.23906
1427157380.171,61.99393
1427157380.187,67.99779
1427157380.203,70.60054
1427157380.218,68.710724
1427157380.234,62.229553
1427157380.25,52.113976
1427157380.265,40.03214
1427157380.281,27.741302
1427157380.296,16.520351
1427157380.312,6.8744545
1427157380.328,-1.3560486
1427157380.343,-8.55962
1427157380.359,-15.034187
1427157380.375,-20.757137
1427157380.39,-25.487732
1427157380.406,-28.967056
1427157380.421,-31.15263
1427157380.437,-32.277397
1427157380.453,-32.777073
1427157380.468,-33.11079
1427157380.484,-33.601563
1427157380.5,-34.327766
1427157380.515,-35.148033
1427157380.531,-35.811363
1427157380.546,-36.127842
1427157380.562,-36.10188
1427157380.578,-35.927414
1427157380.593,-35.854244
1427157380.609,-35.99543
1427157380.625,-36.155003
1427157380.64,-35.881702
1427157380.656,-34.64742
1427157380.671,-32.11659
1427157380.687,-28.34811
1427157380.703,-23.799255
1427157380.718,-19.154327
1427157380.734,-14.99984
1427157380.75,-11.572258
1427157380.765,-8.674774
1427157380.781,-5.8193855
1427157380.796,-2.463066
1427157380.812,1.7251816
1427157380.828,6.7044563
1427157380.843,12.087326
1427157380.859,17.327545
1427157380.875,21.978657
1427157380.89,25.84623
1427157380.906,29.093216
1427157380.921,32.1137
1427157380.937,35.41428
1427157380.953,39.461205
1427157380.968,44.622215
1427157380.984,51.030277
1427157381,58.499554
1427157381.015,66.31314
1427157381.031,73.22562
1427157381.046,77.66056
1427157381.062,78.15296
1427157381.078,73.921295
1427157381.093,65.24733
1427157381.109,53.44066
1427157381.125,40.36037
1427157381.14,27.737633
1427157381.156,16.645885
1427157381.171,7.2991524
1427157381.187,-0.6647606
1427157381.203,-7.7737083
1427157381.218,-14.3309555
1427157381.234,-20.358395
1427157381.25,-25.620667
1427157381.265,-29.953861
1427157381.281,-33.319504
1427157381.296,-35.8954
1427157381.312,-37.977524
1427157381.328,-39.833866
1427157381.343,-41.616283
1427157381.359,-43.309536
1427157381.375,-44.795685
1427157381.39,-45.919426
1427157381.406,-46.561634
1427157381.421,-46.739235
1427157381.437,-46.56943
1427157381.453,-46.24638
1427157381.468,-45.897575
1427157381.484,-45.56488
1427157381.5,-45.086937
1427157381.515,-44.20457
1427157381.531,-42.634552
1427157381.546,-40.16673
1427157381.562,-36.75951
1427157381.578,-32.57443
1427157381.593,-27.901093
1427157381.609,-23.096413
1427157381.625,-18.434647
1427157381.64,-14.027386
1427157381.656,-9.786903
1427157381.671,-5.505352
1427157381.687,-0.95534134
1427157381.703,3.958065
1427157381.718,9.142517
1427157381.734,14.292854
1427157381.75,19.06802
1427157381.765,23.208187
1427157381.781,26.707859
1427157381.796,29.806408
1427157381.812,32.93957
1427157381.828,36.58933
1427157381.843,41.101288
1427157381.859,46.701134
1427157381.875,53.38676
1427157381.89,60.847248
1427157381.906,68.37845
1427157381.921,74.864204
1427157381.937,78.9011
1427157381.953,79.17043
1427157381.968,74.92797
1427157381.984,66.337135
1427157382,54.500168
1427157382.015,41.103134
1427157382.031,27.848175
1427157382.046,15.904018
1427157382.062,5.736248
1427157382.078,-2.8024445
1427157382.093,-10.071251
1427157382.109,-16.351288
1427157382.125,-21.692627
1427157382.14,-26.011093
1427157382.156,-29.247269
1427157382.172,-31.502934
1427157382.187,-33.01248
1427157382.203,-34.07933
1427157382.218,-34.92748
1427157382.234,-35.686787
1427157382.25,-36.3758
1427157382.265,-36.953632
1427157382.281,-37.377567
1427157382.296,-37.62628
1427157382.312,-37.701378
1427157382.328,-37.5921
1427157382.343,-37.258266
1427157382.359,-36.612053
1427157382.375,-35.50714
1427157382.39,-33.806774
1427157382.406,-31.420544
1427157382.422,-28.383247
1427157382.437,-24.828304
1427157382.453,-20.969276
1427157382.468,-16.986763
1427157382.484,-12.9392395
1427157382.5,-8.768253
1427157382.515,-4.3785744
1427157382.531,0.2825203
1427157382.547,5.086506
1427157382.562,9.777153
1427157382.578,14.08844
1427157382.593,17.87128
1427157382.609,21.18328
1427157382.625,24.321114
1427157382.64,27.706593
1427157382.656,31.801815
1427157382.672,36.987087
1427157382.687,43.3699
1427157382.703,50.605118
1427157382.718,57.806797
1427157382.734,63.588024
1427157382.75,66.38489
1427157382.765,64.97492
1427157382.781,58.996696
1427157382.797,49.14954
1427157382.812,37.032825
1427157382.828,24.530613
1427157382.843,13.187107
1427157382.859,3.7497368
1427157382.875,-3.8072052
1427157382.89,-10.011105
1427157382.906,-15.394768
1427157382.922,-20.18378
1427157382.937,-24.28341
1427157382.953,-27.435032
1427157382.968,-29.498798
1427157382.984,-30.560669
1427157383,-30.91534
1427157383.015,-30.949535
1427157383.031,-30.935177
1427157383.047,-30.968372
1427157383.062,-30.990654
1427157383.078,-30.92847
1427157383.093,-30.7868
1427157383.109,-30.697414
1427157383.125,-30.831852
1427157383.14,-31.287487
1427157383.156,-31.925308
1427157383.172,-32.395077
1427157383.187,-32.208706
1427157383.203,-30.979954
1427157383.218,-28.605076
1427157383.234,-25.344505
1427157383.25,-21.69252
1427157383.265,-18.16232
1427157383.281,-15.004402
1427157383.297,-12.167477
1427157383.312,-9.253078
1427157383.328,-5.816223
1427157383.343,-1.5530434
1427157383.359,3.4962616
1427157383.375,8.947762
1427157383.39,14.245678
1427157383.406,18.890629
1427157383.422,22.651558
1427157383.437,25.667347
1427157383.453,28.386402
1427157383.468,31.418411
1427157383.484,35.341133
1427157383.5,40.52679
1427157383.515,46.995815
1427157383.531,54.2714
1427157383.547,61.337353
1427157383.562,66.76802
1427157383.578,69.0284
1427157383.593,67.022705
1427157383.609,60.498104
1427157383.625,50.241737
1427157383.64,37.83441
1427157383.656,25.102592
1427157383.672,13.457779
1427157383.687,3.5622444
1427157383.703,-4.6773148
1427157383.718,-11.760365
1427157383.734,-18.144531
1427157383.75,-23.974575
1427157383.765,-29.083847
1427157383.781,-33.17784
1427157383.797,-36.102406
1427157383.812,-37.898136
1427157383.828,-38.829502
1427157383.843,-39.23074
1427157383.859,-39.403877
1427157383.875,-39.523464
1427157383.89,-39.646935
1427157383.906,-39.712574
1427157383.922,-39.66615
1427157383.937,-39.4767
1427157383.953,-39.208286
1427157383.968,-38.953594
1427157383.984,-38.803135
1427157384,-38.713085
1427157384.015,-38.50137
1427157384.031,-37.88195
1427157384.047,-36.596737
1427157384.062,-34.482906
1427157384.078,-31.592758
1427157384.093,-28.09045
1427157384.109,-24.226906
1427157384.125,-20.233044
1427157384.14,-16.294373
1427157384.156,-12.486458
1427157384.172,-8.836334
1427157384.187,-5.259224
1427157384.203,-1.6173401
1427157384.218,2.2688446
1427157384.234,6.5075455
1427157384.25,11.116554
1427157384.265,15.909302
1427157384.281,20.609558
1427157384.297,24.90538
1427157384.312,28.597473
1427157384.328,31.682404
1427157384.343,34.3975
1427157384.359,37.15384
1427157384.375,40.43042
1427157384.39,44.644768
1427157384.406,50.02426
1427157384.422,56.441223
1427157384.437,63.300545
1427157384.453,69.49258
1427157384.468,73.60461
1427157384.484,74.24693
1427157384.5,70.55694
1427157384.515,62.54313
1427157384.531,51.22145
1427157384.547,38.242218
1427157384.562,25.404747
1427157384.578,14.044502
1427157384.593,4.731331
1427157384.609,-2.6914063
1427157384.625,-8.739525
1427157384.64,-13.926224
1427157384.656,-18.44915
1427157384.672,-22.2154
1427157384.687,-25.015778
1427157384.703,-26.792404
1427157384.718,-27.726913
1427157384.734,-28.217491
1427157384.75,-28.666313
1427157384.765,-29.33075
1427157384.781,-30.22593
1427157384.797,-31.1865
1427157384.812,-31.990868
1427157384.828,-32.52923
1427157384.843,-32.853714
1427157384.859,-33.10206
1427157384.875,-33.356926
1427157384.89,-33.53833
1427157384.906,-33.359398
1427157384.922,-32.46044
1427157384.937,-30.582
1427157384.953,-27.73487
1427157384.968,-24.225578
1427157384.984,-20.579346
1427157385,-17.240944
1427157385.015,-14.453026
1427157385.031,-12.022881
1427157385.047,-9.490936
1427157385.062,-6.2812653
1427157385.078,-2.0659332
1427157385.094,3.1003265
1427157385.109,8.739014
1427157385.125,14.174644
1427157385.14,18.829498
1427157385.156,22.499557
1427157385.172,25.37947
1427157385.187,28.004204
1427157385.203,31.037582
1427157385.219,35.065887
1427157385.234,40.396126
1427157385.25,46.92392
1427157385.265,54.02852
1427157385.281,60.56848
1427157385.297,65.05331
1427157385.312,66.06233
1427157385.328,62.69053
1427157385.344,54.954338
1427157385.359,43.81942
1427157385.375,30.950935
1427157385.39,18.108269
1427157385.406,6.6234818
1427157385.422,-2.8828735
1427157385.437,-10.4279175
1427157385.453,-16.380554
1427157385.469,-21.119698
1427157385.484,-24.86789
1427157385.5,-27.69815
1427157385.515,-29.65921
1427157385.531,-30.898102
1427157385.547,-31.668198
1427157385.562,-32.23568
1427157385.578,-32.795166
1427157385.594,-33.37654
1427157385.609,-33.865128
1427157385.625,-34.111923
1427157385.64,-34.054558
1427157385.656,-33.743523
1427157385.672,-33.373943
1427157385.687,-33.11264
1427157385.703,-33.05156
1427157385.719,-33.046127
1427157385.734,-32.780228
1427157385.75,-31.877304
1427157385.765,-30.050316
1427157385.781,-27.210747
1427157385.797,-23.514545
1427157385.812,-19.27626
1427157385.828,-14.856003
1427157385.844,-10.491295
1427157385.859,-6.267353
1427157385.875,-2.115387
1427157385.89,2.121235
1427157385.906,6.548645
1427157385.922,11.151329
1427157385.937,15.779636
1427157385.953,20.212421
1427157385.969,24.28595
1427157385.984,27.965405
1427157386,31.406898
1427157386.015,34.925766
1427157386.031,38.96374
1427157386.047,43.932114
1427157386.062,49.99652
1427157386.078,56.859238
1427157386.094,63.590424
1427157386.109,68.73071
1427157386.125,70.68611
1427157386.14,68.2889
1427157386.156,61.34254
1427157386.172,50.73934
1427157386.187,38.18334
1427157386.203,25.532299
1427157386.219,14.13802
1427157386.234,4.51408
1427157386.25,-3.6011086
1427157386.265,-10.756409
1427157386.281,-17.359634
1427157386.297,-23.439838
1427157386.312,-28.72356
1427157386.328,-32.897778
1427157386.344,-35.847275
1427157386.359,-37.735405
1427157386.375,-38.938274
1427157386.39,-39.827766
1427157386.406,-40.642704
1427157386.422,-41.395916
1427157386.437,-41.9278
