1427147329.176,0.0
1427147329.191,0.0
1427147329.207,0.0
1427147329.222,0.0
1427147329.238,0.0
1427147329.254,0.0
1427147329.269,0.0
1427147329.285,0.0
1427147329.301,0.0
1427147329.316,0.0022315353
1427147329.332,-0.0045169927
1427147329.347,-0.011265522
1427147329.363,-0.011383951
1427147329.379,0.0011864507
1427147329.394,0.025910312
1427147329.41,0.050634187
1427147329.426,0.051362894
1427147329.441,-0.0014929791
1427147329.457,-0.1302426
1427147329.472,-0.35562757
1427147329.488,-0.6591247
1427147329.504,-1.0095103
1427147329.519,-1.3709826
1427147329.535,-1.7197359
1427147329.551,-2.0551105
1427147329.566,-2.39945
1427147329.582,-2.7866635
1427147329.597,-3.2399073
1427147329.613,-3.796012
1427147329.629,-4.418684
1427147329.644,-5.0592937
1427147329.66,-5.6644096
1427147329.676,-6.2021537
1427147329.691,-6.6808796
1427147329.707,-7.149598
1427147329.722,-7.6782336
1427147329.738,-8.310739
1427147329.754,-9.143657
1427147329.769,-10.089731
1427147329.785,-11.041313
1427147329.801,-11.8842125
1427147329.816,-12.564316
1427147329.832,-13.13563
1427147329.847,-13.760044
1427147329.863,-14.65232
1427147329.879,-15.962056
1427147329.894,-17.914442
1427147329.91,-20.317299
1427147329.926,-22.903854
1427147329.941,-25.37947
1427147329.957,-27.578028
1427147329.972,-29.57246
1427147329.988,-31.675173
1427147330.004,-34.3178
1427147330.019,-37.813618
1427147330.035,-42.541233
1427147330.051,-48.1463
1427147330.066,-54.104755
1427147330.082,-59.83309
1427147330.097,-64.972374
1427147330.113,-69.58293
1427147330.129,-74.14353
1427147330.144,-79.344986
1427147330.16,-85.70726
1427147330.176,-93.76193
1427147330.191,-102.99779
1427147330.207,-112.61757
1427147330.222,-121.73034
1427147330.238,-129.76602
1427147330.254,-136.75102
1427147330.269,-143.30344
1427147330.285,-150.74623
1427147330.301,-157.77356
1427147330.316,-166.64323
1427147330.332,-177.94798
1427147330.347,-191.79102
1427147330.363,-206.96808
1427147330.379,-220.56592
1427147330.394,-228.24644
1427147330.41,-225.36154
1427147330.426,-208.53198
1427147330.441,-176.87024
1427147330.457,-132.76222
1427147330.472,-80.04997
1427147330.488,-23.069275
1427147330.504,34.94339
1427147330.519,92.43695
1427147330.535,149.15695
1427147330.551,205.22772
1427147330.566,260.36963
1427147330.582,313.74133
1427147330.598,363.87396
1427147330.613,409.83353
1427147330.629,450.90775
1427147330.644,486.50244
1427147330.66,515.73865
1427147330.676,537.2274
1427147330.691,549.22
1427147330.707,549.9613
1427147330.723,538.367
1427147330.738,514.2055
1427147330.754,478.674
1427147330.769,433.87952
1427147330.785,382.45126
1427147330.801,327.02106
1427147330.816,269.84186
1427147330.832,212.63379
1427147330.848,156.6594
1427147330.863,102.95233
1427147330.879,52.373596
1427147330.894,5.9046936
1427147330.91,-35.580414
1427147330.926,-71.42584
1427147330.941,-101.35184
1427147330.957,-125.50113
1427147330.973,-144.3797
1427147330.988,-158.69403
1427147331.004,-169.15071
1427147331.019,-176.3711
1427147331.035,-180.75139
1427147331.051,-182.57419
1427147331.066,-182.06863
1427147331.082,-179.5066
1427147331.098,-175.23325
1427147331.113,-169.65286
1427147331.129,-163.17691
1427147331.144,-156.14568
1427147331.16,-148.80681
1427147331.176,-141.29686
1427147331.191,-133.68983
1427147331.207,-126.01962
1427147331.223,-118.33268
1427147331.238,-110.68864
1427147331.254,-103.15572
1427147331.269,-95.80455
1427147331.285,-88.684166
1427147331.301,-81.82744
1427147331.316,-75.24594
1427147331.332,-68.9526
1427147331.348,-62.949085
1427147331.363,-57.247494
1427147331.379,-51.857185
1427147331.394,-46.78282
1427147331.41,-42.02776
1427147331.426,-37.58521
1427147331.441,-33.451748
1427147331.457,-29.613855
1427147331.473,-26.070963
1427147331.488,-22.808779
1427147331.504,-19.824995
1427147331.519,-17.113392
1427147331.535,-14.666497
1427147331.551,-12.47932
1427147331.566,-10.538469
1427147331.582,-8.833674
1427147331.598,-7.3478527
1427147331.613,-6.067689
1427147331.629,-4.9734235
1427147331.644,-4.046258
1427147331.66,-3.2673752
1427147331.676,-2.6211367
1427147331.691,-2.088365
1427147331.707,-1.6507506
1427147331.723,-1.2976913
1427147331.738,-1.0147024
1427147331.754,-0.79105926
1427147331.769,-0.6133206
1427147331.785,-0.47516227
1427147331.801,-0.3684653
1427147331.816,-0.28461677
1427147331.832,-0.22397345
1427147331.848,-0.17647654
1427147331.863,-0.14055526
1427147331.879,-0.11251485
1427147331.894,-0.0926249
1427147331.91,-0.07977182
1427147331.926,-0.06783539
1427147331.941,-0.05929327
1427147331.957,-0.052183747
1427147331.973,-0.046860814
1427147331.988,-0.044131815
1427147332.004,-0.040358156
1427147332.019,-0.039164305
1427147332.035,-0.034330726
1427147332.051,-0.03515649
1427147332.066,-0.03181714
1427147332.082,-0.030750751
1427147332.098,-0.02810505
1427147332.113,-0.029290557
1427147332.129,-0.027453512
1427147332.144,-0.026081413
1427147332.16,-0.023851603
1427147332.176,-0.022989094
1427147332.191,-0.022172749
1427147332.207,-0.022157341
1427147332.223,-0.020828396
1427147332.238,-0.020277172
1427147332.254,-0.01940465
1427147332.269,-0.018795371
1427147332.285,-0.019169807
1427147332.301,-0.017195046
1427147332.316,-0.016264498
1427147332.332,-0.01676847
1427147332.348,-0.016037837
1427147332.363,-0.016352206
1427147332.379,-0.01223287
1427147332.394,-0.014499903
1427147332.41,-0.013972983
1427147332.426,-0.015395403
1427147332.441,-0.011879936
1427147332.457,-0.014417678
1427147332.473,-0.013078198
1427147332.488,-0.011627302
1427147332.504,-0.009215146
1427147332.519,-0.007876098
1427147332.535,-0.008400947
1427147332.551,-0.012109175
1427147332.566,-0.023410037
1427147332.582,-0.033029705
1427147332.598,-0.031593606
1427147332.613,-0.018283665
1427147332.629,0.024317697
1427147332.644,0.0820761
1427147332.66,0.14895153
1427147332.676,0.20576073
1427147332.691,0.2458108
1427147332.707,0.25664988
1427147332.723,0.2636966
1427147332.738,0.26803985
1427147332.754,0.28972283
1427147332.769,0.33886424
1427147332.785,0.40884325
1427147332.801,0.48378664
1427147332.816,0.53898
1427147332.832,0.5743505
1427147332.848,0.56894267
1427147332.863,0.5589498
1427147332.879,0.55949867
1427147332.894,0.6091547
1427147332.91,0.7253287
1427147332.926,0.88684386
1427147332.941,1.0544294
1427147332.957,1.1890934
1427147332.973,1.2439709
1427147332.988,1.2243332
1427147333.004,1.1760386
1427147333.019,1.1813154
1427147333.035,1.3042166
1427147333.051,1.589945
1427147333.066,2.0059457
1427147333.082,2.4504776
1427147333.098,2.8039842
1427147333.113,2.980967
1427147333.129,2.9708176
1427147333.144,2.8770232
1427147333.16,2.8721666
1427147333.176,3.1167579
1427147333.191,3.7006288
1427147333.207,4.5505147
1427147333.223,5.4706054
1427147333.238,6.233995
1427147333.254,6.649288
1427147333.27,6.7124534
1427147333.285,6.608086
1427147333.301,6.6346517
1427147333.316,7.064402
1427147333.332,8.023245
1427147333.348,9.396977
1427147333.363,10.858345
1427147333.379,12.054143
1427147333.395,12.758765
1427147333.41,12.962995
1427147333.426,12.891488
1427147333.441,12.884744
1427147333.457,13.205468
1427147333.473,14.045699
1427147333.488,15.462982
1427147333.504,17.480186
1427147333.52,19.975157
1427147333.535,22.489151
1427147333.551,24.158258
1427147333.566,23.83759
1427147333.582,20.576551
1427147333.598,14.143917
1427147333.613,5.3283653
1427147333.629,-4.3048954
1427147333.645,-13.015493
1427147333.66,-19.580887
1427147333.676,-23.791138
1427147333.691,-26.240833
1427147333.707,-27.826366
1427147333.723,-29.133488
1427147333.738,-30.230438
1427147333.754,-30.7904
1427147333.77,-30.567427
1427147333.785,-29.699709
1427147333.801,-28.717833
1427147333.816,-28.246946
1427147333.832,-28.646503
1427147333.848,-29.779541
1427147333.863,-31.09335
1427147333.879,-31.894665
1427147333.895,-31.627438
1427147333.91,-30.207485
1427147333.926,-28.051403
1427147333.941,-25.83111
1427147333.957,-24.213345
1427147333.973,-23.403
1427147333.988,-23.127777
1427147334.004,-22.68534
1427147334.02,-21.475271
1427147334.035,-19.007309
1427147334.051,-15.354815
1427147334.066,-10.940121
1427147334.082,-6.2465267
1427147334.098,-1.6196232
1427147334.113,2.8185978
1427147334.129,7.0068283
1427147334.145,10.807161
1427147334.16,14.013769
1427147334.176,16.418518
1427147334.191,17.982515
1427147334.207,18.825813
1427147334.223,19.198803
1427147334.238,19.20587
1427147334.254,18.840797
1427147334.27,17.966112
1427147334.285,16.56063
1427147334.301,14.812017
1427147334.316,13.085189
1427147334.332,11.721643
1427147334.348,10.864894
1427147334.363,10.408935
1427147334.379,10.086177
1427147334.395,9.703099
1427147334.41,9.26673
1427147334.426,8.958714
1427147334.441,8.965773
1427147334.457,9.291857
1427147334.473,9.689225
1427147334.488,9.750407
1427147334.504,9.2189245
1427147334.52,8.072738
1427147334.535,6.6321964
1427147334.551,5.3763647
1427147334.566,4.7622375
1427147334.582,4.973232
1427147334.598,5.935003
1427147334.613,7.256851
1427147334.629,8.484453
1427147334.645,9.171619
1427147334.66,8.976555
1427147334.676,7.738192
1427147334.691,5.5136967
1427147334.707,2.5179992
1427147334.723,-0.80058813
1427147334.738,-3.9228287
1427147334.754,-6.325064
1427147334.77,-7.6404896
1427147334.785,-7.7391877
1427147334.801,-6.7520585
1427147334.816,-5.0118823
1427147334.832,-2.9819455
1427147334.848,-1.162096
1427147334.863,0.05286932
1427147334.879,0.5320053
1427147334.895,0.430377
1427147334.91,0.17851019
1427147334.926,0.23221684
1427147334.941,0.80804443
1427147334.957,1.7215624
1427147334.973,2.5011778
1427147334.988,2.6004343
1427147335.004,1.7302861
1427147335.02,0.140831
1427147335.035,-1.6982527
1427147335.051,-3.1922703
1427147335.066,-3.921157
1427147335.082,-3.8360195
1427147335.098,-3.2229586
1427147335.113,-2.4513884
1427147335.129,-1.7500887
1427147335.145,-1.1030664
1427147335.16,-0.32013798
1427147335.176,0.71291256
1427147335.191,2.0309553
1427147335.207,3.513978
1427147335.223,5.0319157
1427147335.238,6.4964314
1427147335.254,7.9351263
1427147335.27,9.425379
1427147335.285,11.090269
1427147335.301,13.055848
1427147335.316,15.440723
1427147335.332,18.373102
1427147335.348,21.882225
1427147335.363,25.813107
1427147335.379,29.713129
1427147335.395,32.92666
1427147335.41,34.685368
1427147335.426,34.312016
1427147335.441,31.437262
1427147335.457,26.014593
1427147335.473,18.436499
1427147335.488,9.382332
1427147335.504,-0.24409866
1427147335.52,-9.46706
1427147335.535,-17.346088
1427147335.551,-23.149195
1427147335.566,-26.456606
1427147335.582,-27.21759
1427147335.598,-25.767712
1427147335.613,-22.709269
1427147335.629,-18.808836
1427147335.645,-14.868988
1427147335.66,-11.605415
1427147335.676,-9.594727
1427147335.691,-9.137604
1427147335.707,-10.214886
1427147335.723,-12.412514
1427147335.738,-15.039272
1427147335.754,-17.27367
1427147335.77,-18.465546
1427147335.785,-18.2976
1427147335.801,-16.862926
1427147335.816,-14.543907
1427147335.832,-11.803894
1427147335.848,-8.984306
1427147335.863,-6.1838264
1427147335.879,-3.3602257
1427147335.895,-0.42132568
1427147335.91,2.6569557
1427147335.926,5.7589035
1427147335.942,8.738522
1427147335.957,11.494122
1427147335.973,14.106323
1427147335.988,16.778656
1427147336.004,19.796425
1427147336.02,23.403347
1427147336.035,27.700794
1427147336.051,32.585274
1427147336.066,37.736828
1427147336.082,42.636036
1427147336.098,46.606102
1427147336.113,48.91371
1427147336.129,48.926033
1427147336.145,46.303223
1427147336.16,41.154495
1427147336.176,34.069542
1427147336.192,25.993515
1427147336.207,17.947449
1427147336.223,10.736145
1427147336.238,4.772957
1427147336.254,0.04775238
1427147336.27,-3.7877655
1427147336.285,-7.15464
1427147336.301,-10.405746
1427147336.317,-13.702408
1427147336.332,-16.986282
1427147336.348,-20.06218
1427147336.363,-22.724197
1427147336.379,-24.850815
1427147336.395,-26.508713
1427147336.41,-27.873909
1427147336.426,-29.134033
1427147336.442,-30.389626
1427147336.457,-31.575478
1427147336.473,-32.494858
1427147336.488,-32.987778
1427147336.504,-33.01152
1427147336.52,-32.6577
1427147336.535,-32.11283
1427147336.551,-31.489769
1427147336.567,-30.780853
1427147336.582,-29.889183
1427147336.598,-28.67337
1427147336.613,-27.082169
1427147336.629,-25.170319
1427147336.645,-23.035652
1427147336.66,-20.759422
1427147336.676,-18.365898
1427147336.692,-15.85009
1427147336.707,-13.223656
1427147336.723,-10.564415
1427147336.738,-7.9393997
1427147336.754,-5.3479385
1427147336.77,-2.6852798
1427147336.785,0.25099945
1427147336.801,3.6955261
1427147336.817,7.796562
1427147336.832,12.5544815
1427147336.848,17.84114
1427147336.863,23.391457
1427147336.879,28.838875
1427147336.895,33.691154
1427147336.91,37.33007
1427147336.926,39.09269
1427147336.942,38.44352
1427147336.957,35.147858
1427147336.973,29.487236
1427147336.988,22.265526
1427147337.004,14.576805
1427147337.02,7.489105
1427147337.035,1.7075195
1427147337.051,-2.587738
1427147337.067,-5.6115723
1427147337.082,-7.7568436
1427147337.098,-9.284744
1427147337.113,-10.2894745
1427147337.129,-10.747536
1427147337.145,-10.750114
1427147337.16,-10.567879
1427147337.176,-10.6109085
1427147337.192,-11.213806
1427147337.207,-12.468834
1427147337.223,-14.185257
1427147337.238,-16.02298
1427147337.254,-17.64775
1427147337.27,-18.877228
1427147337.285,-19.680786
1427147337.301,-20.086662
1427147337.317,-20.057243
1427147337.332,-19.530823
1427147337.348,-18.443817
1427147337.363,-16.82743
1427147337.379,-14.794106
1427147337.395,-12.511742
1427147337.41,-10.072632
1427147337.426,-7.4980774
1427147337.442,-4.698761
1427147337.457,-1.5852814
1427147337.473,1.8884888
1427147337.488,5.686371
1427147337.504,9.706497
1427147337.52,13.852402
1427147337.535,18.067474
1427147337.551,22.323273
1427147337.567,26.612427
1427147337.582,30.852417
1427147337.598,34.92247
1427147337.613,38.662247
1427147337.629,42.02562
1427147337.645,45.017212
1427147337.66,47.62361
1427147337.676,49.649185
1427147337.692,50.592957
1427147337.707,49.75038
1427147337.723,46.528656
1427147337.738,40.747925
1427147337.754,32.840714
1427147337.77,23.73404
1427147337.785,14.53035
1427147337.801,6.0939636
1427147337.817,-1.1352234
1427147337.832,-7.172119
1427147337.848,-12.237961
1427147337.863,-16.589996
1427147337.879,-20.34793
1427147337.895,-23.557663
1427147337.91,-26.24791
1427147337.926,-28.571411
1427147337.942,-30.896515
1427147337.957,-33.81154
1427147337.973,-38.061874
1427147337.988,-44.248627
1427147338.004,-52.50154
1427147338.02,-62.265854
1427147338.035,-72.373276
1427147338.051,-81.36911
1427147338.067,-87.94304
1427147338.082,-91.241776
1427147338.098,-90.96559
1427147338.113,-87.31654
1427147338.129,-80.834625
1427147338.145,-72.39496
1427147338.16,-63.124817
1427147338.176,-54.270294
1427147338.192,-46.861572
1427147338.207,-41.364624
1427147338.223,-37.41838
1427147338.238,-33.95508
1427147338.254,-29.627945
1427147338.27,-23.450974
1427147338.285,-15.257767
1427147338.301,-5.7630005
1427147338.317,3.7602081
1427147338.332,11.999374
1427147338.348,18.143372
1427147338.363,22.074112
1427147338.379,24.352013
1427147338.395,25.911049
1427147338.41,27.69703
1427147338.426,30.31968
1427147338.442,33.909187
1427147338.457,38.127197
1427147338.473,42.3395
1427147338.488,45.79267
1427147338.504,47.84144
1427147338.52,48.042137
1427147338.535,46.222145
1427147338.551,42.49903
1427147338.567,37.273514
1427147338.582,31.136719
1427147338.598,24.821976
1427147338.614,19.04084
1427147338.629,14.436668
1427147338.645,11.407951
1427147338.66,10.089058
1427147338.676,10.230705
1427147338.692,11.293716
1427147338.707,12.5412445
1427147338.723,13.277481
1427147338.738,13.038795
1427147338.754,11.687523
1427147338.77,9.426727
1427147338.785,6.66111
1427147338.801,3.8481293
1427147338.817,1.3373795
1427147338.832,-0.7303848
1427147338.848,-2.4151459
1427147338.864,-3.9140778
1427147338.879,-5.412636
1427147338.895,-6.978592
1427147338.91,-8.469986
1427147338.926,-9.599113
1427147338.942,-10.009529
1427147338.957,-9.518726
1427147338.973,-8.235378
1427147338.989,-6.6374245
1427147339.004,-5.397026
1427147339.02,-5.1366997
1427147339.035,-6.152401
1427147339.051,-8.235775
1427147339.067,-10.744923
1427147339.082,-12.836079
1427147339.098,-13.788738
1427147339.114,-13.274364
1427147339.129,-11.450592
1427147339.145,-8.815792
1427147339.16,-5.9454346
1427147339.176,-3.237568
1427147339.192,-0.7694588
1427147339.207,1.6318512
1427147339.223,4.2419777
1427147339.239,7.251789
1427147339.254,10.719891
1427147339.27,14.591759
1427147339.285,18.795795
1427147339.301,23.21429
1427147339.317,27.62635
1427147339.332,31.579792
1427147339.348,34.362476
1427147339.364,35.15233
1427147339.379,33.315056
1427147339.395,28.709759
1427147339.41,21.867168
1427147339.426,13.821972
1427147339.442,5.8045807
1427147339.457,-1.217289
1427147339.473,-6.7466583
1427147339.489,-10.765484
1427147339.504,-13.507656
1427147339.52,-15.21171
1427147339.535,-16.015125
1427147339.551,-15.997255
1427147339.567,-15.328907
1427147339.582,-14.34185
1427147339.598,-13.46467
1427147339.614,-13.057707
1427147339.629,-13.266653
1427147339.645,-13.97002
1427147339.66,-14.88582
1427147339.676,-15.772003
1427147339.692,-16.505476
1427147339.707,-17.155617
1427147339.723,-17.841455
1427147339.739,-18.610336
1427147339.754,-19.311031
1427147339.77,-19.674862
1427147339.785,-19.368786
1427147339.801,-18.197311
1427147339.817,-16.179815
1427147339.832,-13.613888
1427147339.848,-11.00624
1427147339.864,-8.942264
1427147339.879,-7.908689
1427147339.895,-8.1322365
1427147339.91,-9.5083685
1427147339.926,-11.69943
1427147339.942,-14.202467
1427147339.957,-16.563362
1427147339.973,-18.393702
1427147339.989,-19.429615
1427147340.004,-19.525534
1427147340.02,-18.638508
1427147340.035,-16.810951
1427147340.051,-14.201197
1427147340.067,-11.013475
1427147340.082,-7.453907
1427147340.098,-3.6934986
1427147340.114,0.13681793
1427147340.129,3.91992
1427147340.145,7.5294228
1427147340.16,10.902252
1427147340.176,14.094517
1427147340.192,17.323536
1427147340.207,20.918251
1427147340.223,25.089348
1427147340.239,29.709595
1427147340.254,34.2169
1427147340.27,37.725174
1427147340.285,39.34757
1427147340.301,38.56476
1427147340.317,35.493618
1427147340.332,30.826218
1427147340.348,25.58099
1427147340.364,20.66729
1427147340.379,16.579731
1427147340.395,13.306866
1427147340.41,10.48735
1427147340.426,7.682167
1427147340.442,4.712288
1427147340.457,1.7273712
1427147340.473,-0.8884659
1427147340.489,-2.7519913
1427147340.504,-3.7264557
1427147340.52,-4.019272
1427147340.535,-4.0448
1427147340.551,-4.2672653
1427147340.567,-4.9587097
1427147340.582,-6.124321
1427147340.598,-7.5700836
1427147340.614,-9.055962
1427147340.629,-10.464798
1427147340.645,-11.861099
1427147340.66,-13.396629
1427147340.676,-15.150848
1427147340.692,-16.960693
1427147340.707,-18.41111
1427147340.723,-18.990341
1427147340.739,-18.330734
1427147340.754,-16.417877
1427147340.77,-13.670502
1427147340.785,-10.716537
1427147340.801,-8.137054
1427147340.817,-6.18293
1427147340.832,-4.7026367
1427147340.848,-3.25428
1427147340.864,-1.4076691
1427147340.879,1.0403748
1427147340.895,3.9603271
1427147340.91,7.0367126
1427147340.926,9.94355
1427147340.942,12.522148
1427147340.957,14.822571
1427147340.973,17.0112
1427147340.989,19.225632
1427147341.004,21.52604
1427147341.02,23.910446
1427147341.035,26.388718
1427147341.051,28.992699
1427147341.067,31.733337
1427147341.082,34.45745
1427147341.098,36.79667
1427147341.114,38.191772
1427147341.129,38.084145
1427147341.145,36.125237
1427147341.16,32.354218
1427147341.176,27.205414
1427147341.192,21.38379
1427147341.207,15.635452
1427147341.223,10.539612
1427147341.239,6.397339
1427147341.254,3.2132874
1427147341.27,0.77030945
1427147341.285,-1.1955414
1427147341.301,-2.8322144
1427147341.317,-4.120743
1427147341.332,-4.918152
1427147341.348,-5.118088
1427147341.364,-4.8179016
1427147341.379,-4.3756866
1427147341.395,-4.2750244
1427147341.41,-4.8761597
1427147341.426,-6.2345886
1427147341.442,-8.05661
1427147341.457,-9.854507
1427147341.473,-11.205627
1427147341.489,-11.971588
1427147341.504,-12.307587
1427147341.52,-12.558731
1427147341.536,-13.026062
1427147341.551,-13.836884
1427147341.567,-14.86911
1427147341.582,-15.898636
1427147341.598,-16.661804
1427147341.614,-16.954834
1427147341.629,-16.68509
1427147341.645,-15.855698
1427147341.661,-14.5026245
1427147341.676,-12.659363
1427147341.692,-10.324524
1427147341.707,-7.5069733
1427147341.723,-4.2625885
1427147341.739,-0.76976013
1427147341.754,2.7154388
1427147341.77,5.9200745
1427147341.786,8.67955
1427147341.801,11.044159
1427147341.817,13.290054
1427147341.832,15.776001
1427147341.848,18.778336
1427147341.864,22.307098
1427147341.879,25.972351
1427147341.895,29.086792
1427147341.911,30.862656
1427147341.926,30.649918
1427147341.942,28.193817
1427147341.957,23.732224
1427147341.973,17.951828
1427147341.989,11.745407
1427147342.004,5.9868927
1427147342.02,1.2199554
1427147342.036,-2.3981476
1427147342.051,-5.110153
1427147342.067,-7.256851
1427147342.082,-9.126022
1427147342.098,-10.770325
1427147342.114,-12.026215
1427147342.129,-12.6577
1427147342.145,-12.5849
1427147342.161,-11.983658
1427147342.176,-11.275482
1427147342.192,-10.958969
1427147342.207,-11.359604
1427147342.223,-12.501373
1427147342.239,-14.110382
1427147342.254,-15.741608
1427147342.27,-17.056152
1427147342.286,-17.904678
1427147342.301,-18.340836
1427147342.317,-18.467941
1427147342.332,-18.331863
1427147342.348,-17.81099
1427147342.364,-16.732239
1427147342.379,-15.0155945
1427147342.395,-12.774506
1427147342.411,-10.332672
1427147342.426,-8.050888
1427147342.442,-6.1373596
1427147342.457,-4.5491333
1427147342.473,-2.993164
1427147342.489,-1.1706238
1427147342.504,1.0961761
1427147342.52,3.7172089
1427147342.536,6.485916
1427147342.551,9.154175
1427147342.567,11.641571
1427147342.582,14.034012
1427147342.598,16.554153
1427147342.614,19.362732
1427147342.629,22.545425
1427147342.645,26.051407
1427147342.661,29.753738
1427147342.676,33.47049
1427147342.692,36.958694
1427147342.707,39.82962
1427147342.723,41.586563
1427147342.739,41.681625
1427147342.754,39.755447
1427147342.77,35.812103
1427147342.786,30.310379
1427147342.801,24.016098
1427147342.817,17.775528
1427147342.832,12.236206
1427147342.848,7.6944427
1427147342.864,4.1228027
1427147342.879,1.3017731
1427147342.895,-0.97436523
1427147342.911,-2.8139496
1427147342.926,-4.2518005
1427147342.942,-5.326721
1427147342.957,-6.173126
1427147342.973,-6.9836273
1427147342.989,-7.9519196
1427147343.004,-9.153763
1427147343.02,-10.566101
1427147343.036,-12.046799
1427147343.051,-13.4600525
1427147343.067,-14.762375
1427147343.082,-16.013275
1427147343.098,-17.322464
1427147343.114,-18.784302
1427147343.129,-20.363846
1427147343.145,-21.893478
1427147343.161,-23.081299
1427147343.176,-23.649017
1427147343.192,-23.441986
1427147343.207,-22.566177
1427147343.223,-21.328247
1427147343.239,-20.239502
1427147343.254,-19.829544
1427147343.27,-20.504532
1427147343.286,-22.328384
1427147343.301,-24.972855
1427147343.317,-27.74936
1427147343.332,-29.781235
1427147343.348,-30.380417
1427147343.364,-29.257874
1427147343.379,-26.64711
1427147343.395,-23.181015
1427147343.411,-19.52887
1427147343.426,-16.096527
1427147343.442,-12.803375
1427147343.457,-9.232986
1427147343.473,-4.88739
1427147343.489,0.4342041
1427147343.504,6.5160217
1427147343.52,12.786316
1427147343.536,18.523117
1427147343.551,23.127365
1427147343.567,26.17572
1427147343.582,27.488205
1427147343.598,27.03984
1427147343.614,24.980759
1427147343.629,21.616623
1427147343.645,17.386108
1427147343.661,12.79866
1427147343.676,8.279587
1427147343.692,4.0956726
1427147343.707,0.27105713
1427147343.723,-3.2087555
1427147343.739,-6.345581
1427147343.754,-8.954422
1427147343.77,-10.769455
1427147343.786,-11.53157
1427147343.801,-11.219788
1427147343.817,-10.092651
1427147343.832,-8.598618
1427147343.848,-7.252365
1427147343.864,-6.3841095
1427147343.879,-6.0726624
1427147343.895,-6.1138306
1427147343.911,-6.2012177
1427147343.926,-6.0811615
1427147343.942,-5.660431
1427147343.957,-5.0218506
1427147343.973,-4.2906494
1427147343.989,-3.5614166
1427147344.004,-2.7651215
1427147344.02,-1.7513275
1427147344.036,-0.3391266
1427147344.051,1.5482025
1427147344.067,3.908905
1427147344.082,6.6202393
1427147344.098,9.537384
1427147344.114,12.493546
1427147344.129,15.316467
1427147344.145,17.8237
1427147344.161,19.883438
1427147344.176,21.494186
1427147344.192,22.827652
1427147344.208,24.20134
1427147344.223,25.961197
1427147344.239,28.273636
1427147344.254,31.084595
1427147344.27,34.08313
1427147344.286,36.900208
1427147344.301,39.167877
1427147344.317,40.62552
1427147344.333,41.059494
1427147344.348,40.260147
1427147344.364,38.03302
1427147344.379,34.29837
1427147344.395,29.222626
1427147344.411,23.306885
1427147344.426,17.303253
1427147344.442,11.991379
1427147344.458,7.912689
1427147344.473,5.1705017
1427147344.489,3.44133
1427147344.504,2.176239
1427147344.52,0.86517334
1427147344.536,-0.72454834
1427147344.551,-2.4978638
1427147344.567,-4.1184998
1427147344.583,-5.264328
1427147344.598,-5.7361603
1427147344.614,-5.593857
1427147344.629,-5.0540466
1427147344.645,-4.483185
1427147344.661,-4.262329
1427147344.676,-4.7819977
1427147344.692,-6.380478
1427147344.708,-9.253967
1427147344.723,-13.298706
1427147344.739,-18.050507
1427147344.754,-22.727585
1427147344.77,-26.431046
1427147344.786,-28.430511
1427147344.801,-28.423523
1427147344.817,-26.612534
1427147344.833,-23.565262
1427147344.848,-19.972351
1427147344.864,-16.365875
1427147344.879,-13.008392
1427147344.895,-9.919128
1427147344.911,-6.9829254
1427147344.926,-4.0644684
1427147344.942,-0.9873352
1427147344.958,2.491455
1427147344.973,6.6604004
1427147344.989,11.693405
1427147345.004,17.451889
1427147345.02,23.34114
1427147345.036,28.416412
1427147345.051,31.69281
1427147345.067,32.577316
1427147345.083,31.087997
1427147345.098,27.854446
1427147345.114,23.782288
1427147345.129,19.71846
1427147345.145,16.12822
1427147345.161,13.109955
1427147345.176,10.480789
1427147345.192,8.030457
1427147345.208,5.614807
1427147345.223,3.2435608
1427147345.239,0.986145
1427147345.254,-1.0639191
1427147345.27,-2.831665
1427147345.286,-4.3183136
1427147345.301,-5.5812836
1427147345.317,-6.723999
1427147345.333,-7.7923126
1427147345.348,-8.767555
1427147345.364,-9.584648
1427147345.379,-10.172447
1427147345.395,-10.582008
1427147345.411,-10.930313
1427147345.426,-11.403038
1427147345.442,-12.060654
1427147345.458,-12.8209915
1427147345.473,-13.40995
1427147345.489,-13.510681
1427147345.504,-12.909111
1427147345.52,-11.562202
1427147345.536,-9.620239
1427147345.551,-7.3544846
1427147345.567,-5.0189896
1427147345.583,-2.7604675
1427147345.598,-0.56931305
1427147345.614,1.6801834
1427147345.629,4.1616974
1427147345.645,7.0071487
1427147345.661,10.26545
1427147345.676,13.8418045
1427147345.692,17.563622
1427147345.708,21.17543
1427147345.723,24.430649
1427147345.739,27.014832
1427147345.754,28.60962
1427147345.77,28.891502
1427147345.786,27.604294
1427147345.801,24.650436
1427147345.817,20.209793
1427147345.833,14.72084
1427147345.848,8.842842
1427147345.864,3.2449265
1427147345.879,-1.5488281
1427147345.895,-5.3199005
1427147345.911,-8.134773
1427147345.926,-10.274582
1427147345.942,-12.005272
1427147345.958,-13.465538
1427147345.973,-14.553745
1427147345.989,-15.048592
1427147346.004,-14.803635
1427147346.02,-13.946598
1427147346.036,-12.909161
1427147346.051,-12.314217
1427147346.067,-12.662239
1427147346.083,-14.085735
1427147346.098,-16.269146
1427147346.114,-18.592579
1427147346.129,-20.432373
1427147346.145,-21.450321
1427147346.161,-21.622189
1427147346.176,-21.149998
1427147346.192,-20.237106
1427147346.208,-18.963192
1427147346.223,-17.26427
1427147346.239,-15.086121
1427147346.254,-12.48373
1427147346.27,-9.660305
1427147346.286,-6.8662567
1427147346.301,-4.257683
1427147346.317,-1.7967434
1427147346.333,0.65678024
1427147346.348,3.2780228
1427147346.364,6.11215
1427147346.379,9.108789
1427147346.395,12.147657
1427147346.411,15.177481
1427147346.426,18.216604
1427147346.442,21.297195
1427147346.458,24.300314
1427147346.473,26.884289
1427147346.489,28.535482
1427147346.504,28.72845
1427147346.52,27.154263
1427147346.536,23.855312
1427147346.551,19.209616
1427147346.567,13.800517
1427147346.583,8.172795
1427147346.598,2.7573104
1427147346.614,-2.2180865
1427147346.629,-6.5798073
1427147346.645,-10.201838
1427147346.661,-12.95684
1427147346.676,-14.768189
1427147346.692,-15.699011
1427147346.708,-15.96608
1427147346.723,-15.911751
1427147346.739,-15.872774
1427147346.754,-16.104858
1427147346.77,-16.714024
1427147346.786,-17.661098
1427147346.801,-18.849646
1427147346.817,-20.146679
1427147346.833,-21.423088
1427147346.848,-22.513393
1427147346.864,-23.235895
1427147346.88,-23.384144
1427147346.895,-22.859255
1427147346.911,-21.687344
1427147346.926,-20.103582
1427147346.942,-18.450634
1427147346.958,-17.016441
1427147346.973,-15.873714
1427147346.989,-14.777792
1427147347.004,-13.29339
1427147347.02,-11.019413
1427147347.036,-7.885353
1427147347.051,-4.210102
1427147347.067,-0.5915737
1427147347.083,2.3918095
1427147347.098,4.546816
1427147347.114,6.1156883
1427147347.13,7.6878376
1427147347.145,9.808506
1427147347.161,12.7417145
1427147347.176,16.340382
1427147347.192,20.192905
1427147347.208,23.804783
1427147347.223,26.795002
1427147347.239,28.90533
1427147347.255,29.91267
1427147347.27,29.623299
1427147347.286,27.85717
1427147347.301,24.571533
1427147347.317,19.978558
1427147347.333,14.462753
1427147347.348,8.543228
1427147347.364,2.6821709
1427147347.38,-2.7185097
1427147347.395,-7.3543816
1427147347.411,-10.990543
1427147347.426,-13.519287
1427147347.442,-15.035942
1427147347.458,-15.812408
1427147347.473,-16.24332
1427147347.489,-16.676952
1427147347.505,-17.286892
1427147347.52,-18.064
1427147347.536,-18.926056
1427147347.551,-19.826431
1427147347.567,-20.79369
1427147347.583,-21.867218
1427147347.598,-22.969189
1427147347.614,-23.90826
1427147347.63,-24.443874
1427147347.645,-24.44725
1427147347.661,-23.962364
1427147347.676,-23.18338
1427147347.692,-22.290134
1427147347.708,-21.324997
1427147347.723,-20.19447
1427147347.739,-18.78209
1427147347.755,-17.098488
1427147347.77,-15.293182
1427147347.786,-13.552052
1427147347.801,-11.940083
1427147347.817,-10.286423
1427147347.833,-8.298542
1427147347.848,-5.732376
1427147347.864,-2.6291122
1427147347.88,0.6847305
1427147347.895,3.7366676
1427147347.911,6.18462
1427147347.926,8.003422
1427147347.942,9.502506
1427147347.958,11.153732
1427147347.973,13.333618
1427147347.989,16.162647
1427147348.005,19.479431
1427147348.02,22.94394
1427147348.036,26.176395
1427147348.051,28.84911
1427147348.067,30.706146
1427147348.083,31.457401
1427147348.098,30.844357
1427147348.114,28.61311
1427147348.13,24.698341
1427147348.145,19.31158
1427147348.161,12.974899
1427147348.176,6.3858757
1427147348.192,0.26084137
1427147348.208,-4.825897
1427147348.223,-8.580223
1427147348.239,-10.99403
1427147348.255,-12.298927
1427147348.27,-12.860596
1427147348.286,-13.084984
1427147348.301,-13.31686
1427147348.317,-13.77523
1427147348.333,-14.555412
1427147348.348,-15.615158
1427147348.364,-16.81406
1427147348.38,-17.959522
1427147348.395,-18.855267
1427147348.411,-19.33574
1427147348.426,-19.335636
1427147348.442,-18.87408
1427147348.458,-18.084312
1427147348.473,-17.154793
1427147348.489,-16.283398
1427147348.505,-15.558632
1427147348.52,-14.920582
1427147348.536,-14.145905
1427147348.551,-12.970779
1427147348.567,-11.248062
1427147348.583,-9.082161
1427147348.598,-6.7645416
1427147348.614,-4.6757774
1427147348.63,-3.0425758
1427147348.645,-1.8411217
1427147348.661,-0.7909012
1427147348.676,0.48406982
1427147348.692,2.2637596
1427147348.708,4.5972633
1427147348.723,7.293209
1427147348.739,10.023441
1427147348.755,12.477976
1427147348.77,14.455162
1427147348.786,15.947702
1427147348.801,17.147959
1427147348.817,18.38418
1427147348.833,20.025066
1427147348.848,22.324768
1427147348.864,25.279709
1427147348.88,28.56435
1427147348.895,31.563921
1427147348.911,33.577896
1427147348.926,34.02899
1427147348.942,32.681896
1427147348.958,29.62585
1427147348.973,25.214142
1427147348.989,19.894184
1427147349.005,14.105503
1427147349.02,8.256559
1427147349.036,2.7569046
1427147349.051,-1.9924393
1427147349.067,-5.6546116
1427147349.083,-8.090935
1427147349.098,-9.46036
1427147349.114,-10.196871
1427147349.13,-10.796722
1427147349.145,-11.680325
1427147349.161,-12.983585
1427147349.176,-14.579439
1427147349.192,-16.199448
1427147349.208,-17.596432
1427147349.223,-18.663776
1427147349.239,-19.464565
1427147349.255,-20.107937
1427147349.27,-20.688787
1427147349.286,-21.206007
1427147349.301,-21.626804
1427147349.317,-21.84924
1427147349.333,-21.799765
1427147349.348,-21.39019
1427147349.364,-20.581356
1427147349.38,-19.387804
1427147349.395,-17.915417
1427147349.411,-16.362293
1427147349.426,-14.925566
1427147349.442,-13.658939
1427147349.458,-12.417368
1427147349.473,-10.8967495
1427147349.489,-8.805731
1427147349.505,-6.0432873
1427147349.52,-2.824007
1427147349.536,0.430727
1427147349.552,3.2301693
1427147349.567,5.268285
1427147349.583,6.506469
1427147349.598,7.165681
1427147349.614,7.590047
1427147349.63,8.130766
1427147349.645,9.05699
1427147349.661,10.571076
1427147349.676,12.802119
1427147349.692,15.800032
1427147349.708,19.438652
1427147349.723,23.359783
1427147349.739,26.94137
1427147349.755,29.444366
1427147349.77,30.209589
1427147349.786,28.86218
1427147349.802,25.421078
1427147349.817,20.395927
1427147349.833,14.55238
1427147349.848,8.720642
1427147349.864,3.5331638
1427147349.88,-0.7398732
1427147349.895,-4.1850257
1427147349.911,-7.062237
1427147349.927,-9.662159
1427147349.942,-12.126101
1427147349.958,-14.39245
1427147349.973,-16.270067
1427147349.989,-17.583115
1427147350.005,-18.230179
1427147350.02,-18.2957
1427147350.036,-18.024807
1427147350.052,-17.710201
1427147350.067,-17.581356
1427147350.083,-17.752834
1427147350.098,-18.18153
1427147350.114,-18.76014
1427147350.13,-19.4021
1427147350.145,-20.075985
1427147350.161,-20.773228
1427147350.177,-21.428228
1427147350.192,-21.824364
1427147350.208,-21.622301
1427147350.223,-20.482908
1427147350.239,-18.281824
1427147350.255,-15.246441
1427147350.27,-11.903315
1427147350.286,-8.84963
1427147350.302,-6.5010815
1427147350.317,-4.894041
1427147350.333,-3.7648716
1427147350.348,-2.704218
1427147350.364,-1.446312
1427147350.38,0.024499893
1427147350.395,1.4966564
1427147350.411,2.730095
1427147350.427,3.6385841
1427147350.442,4.341812
1427147350.458,5.1106606
1427147350.473,6.2079086
1427147350.489,7.7737083
1427147350.505,9.8386345
1427147350.52,12.339493
1427147350.536,15.228878
1427147350.552,18.416336
1427147350.567,21.718224
1427147350.583,24.780159
1427147350.598,27.11697
1427147350.614,28.236942
1427147350.63,27.85278
1427147350.645,26.000221
1427147350.661,23.062126
1427147350.677,19.555424
1427147350.692,15.941727
1427147350.708,12.442101
1427147350.723,9.071491
1427147350.739,5.725872
1427147350.755,2.382782
1427147350.77,-0.8273926
1427147350.786,-3.606575
1427147350.802,-5.6622543
1427147350.817,-6.842888
1427147350.833,-7.2674255
1427147350.848,-7.2998962
1427147350.864,-7.411194
1427147350.88,-7.995903
1427147350.895,-9.189407
1427147350.911,-10.82711
1427147350.927,-12.545418
1427147350.942,-13.956406
1427147350.958,-14.880745
1427147350.973,-15.372864
1427147350.989,-15.649078
1427147351.005,-15.879112
1427147351.02,-16.04969
1427147351.036,-15.90094
1427147351.052,-15.123497
1427147351.067,-13.580994
1427147351.083,-11.463776
1427147351.098,-9.246956
1427147351.114,-7.4316177
1427147351.13,-6.2656403
1427147351.145,-5.5908203
1427147351.161,-4.942604
1427147351.177,-3.8008423
1427147351.192,-1.9066696
1427147351.208,0.6262741
1427147351.223,3.3846207
1427147351.239,5.87265
1427147351.255,7.7791443
1427147351.27,9.037346
1427147351.286,9.832062
1427147351.302,10.480202
1427147351.317,11.328285
1427147351.333,12.66507
1427147351.348,14.6899185
1427147351.364,17.405281
1427147351.38,20.548386
1427147351.395,23.52246
1427147351.411,25.565887
1427147351.427,25.958557
1427147351.442,24.334007
1427147351.458,20.848427
1427147351.473,16.100983
1427147351.489,10.89875
1427147351.505,5.947502
1427147351.52,1.6843185
1427147351.536,-1.7468033
1427147351.552,-4.3393173
1427147351.567,-6.130638
1427147351.583,-7.183563
1427147351.598,-7.6139984
1427147351.614,-7.687744
1427147351.63,-7.7377777
1427147351.645,-8.064865
1427147351.661,-8.789124
1427147351.677,-9.877823
1427147351.692,-11.113449
1427147351.708,-12.292725
1427147351.723,-13.241089
1427147351.739,-13.886734
1427147351.755,-14.185928
1427147351.77,-14.157257
1427147351.786,-13.846542
1427147351.802,-13.359604
1427147351.817,-12.815994
1427147351.833,-12.326187
1427147351.848,-11.8875885
1427147351.864,-11.399765
1427147351.88,-10.658997
1427147351.895,-9.484573
1427147351.911,-7.7954865
1427147351.927,-5.6675415
1427147351.942,-3.359787
1427147351.958,-1.2390747
1427147351.973,0.39808655
1427147351.989,1.3991241
1427147352.005,1.9036255
1427147352.02,2.2443542
1427147352.036,2.7979736
1427147352.052,3.7886505
1427147352.067,5.156845
1427147352.083,6.6080475
1427147352.098,7.8370667
1427147352.114,8.723206
1427147352.13,9.452621
1427147352.145,10.372589
1427147352.161,11.819931
1427147352.177,13.860382
1427147352.192,16.283188
1427147352.208,18.681564
1427147352.223,20.653244
1427147352.239,21.92717
1427147352.255,22.385925
1427147352.27,21.984787
1427147352.286,20.684067
1427147352.302,18.476425
1427147352.317,15.429825
1427147352.333,11.7872925
1427147352.348,7.970566
1427147352.364,4.4689484
1427147352.38,1.6960907
1427147352.395,-0.16407776
1427147352.411,-1.2118225
1427147352.427,-1.7608795
1427147352.442,-2.17482
1427147352.458,-2.7263794
1427147352.474,-3.517044
1427147352.489,-4.4995728
1427147352.505,-5.551544
1427147352.52,-6.58786
1427147352.536,-7.6245728
1427147352.552,-8.69902
1427147352.567,-9.788818
1427147352.583,-10.778748
1427147352.599,-11.487076
1427147352.614,-11.767746
1427147352.63,-11.622528
1427147352.645,-11.239075
1427147352.661,-10.869736
1427147352.677,-10.711304
1427147352.692,-10.7374115
1427147352.708,-10.706085
1427147352.724,-10.247406
1427147352.739,-9.105408
1427147352.755,-7.2136536
1427147352.77,-4.794174
1427147352.786,-2.2226868
1427147352.802,0.12402344
1427147352.817,2.035324
1427147352.833,3.5514526
1427147352.849,4.9005127
1427147352.864,6.3425293
1427147352.88,7.9892883
1427147352.895,9.71463
1427147352.911,11.1809845
1427147352.927,12.030106
1427147352.942,12.118393
1427147352.958,11.618927
1427147352.974,10.993057
1427147352.989,10.761185
1427147353.005,11.303284
1427147353.02,12.678772
1427147353.036,14.68454
1427147353.052,16.949524
1427147353.067,19.090652
1427147353.083,20.767303
1427147353.099,21.702438
1427147353.114,21.658646
1427147353.13,20.487076
1427147353.145,18.170593
1427147353.161,14.901642
1427147353.177,11.050278
1427147353.192,7.0973053
1427147353.208,3.4805298
1427147353.224,0.5396881
1427147353.239,-1.5886383
1427147353.255,-2.927536
1427147353.27,-3.6692657
1427147353.286,-4.0645294
1427147353.302,-4.390259
1427147353.317,-4.795227
1427147353.333,-5.2873535
1427147353.349,-5.7426147
1427147353.364,-5.9985504
1427147353.38,-6.0102386
1427147353.395,-5.8829956
1427147353.411,-5.838211
1427147353.427,-6.0891266
1427147353.442,-6.724106
1427147353.458,-7.660721
1427147353.474,-8.728256
1427147353.489,-9.776566
1427147353.505,-10.714066
1427147353.52,-11.509842
1427147353.536,-12.096222
1427147353.552,-12.375107
1427147353.567,-12.195129
1427147353.583,-11.473343
1427147353.599,-10.229401
1427147353.614,-8.629272
1427147353.63,-6.873474
1427147353.645,-5.129608
1427147353.661,-3.4722595
1427147353.677,-1.9213257
1427147353.692,-0.4766388
1427147353.708,0.8415375
1427147353.724,2.0080414
1427147353.739,3.0499573
1427147353.755,4.077591
1427147353.77,5.2486267
1427147353.786,6.6518555
1427147353.802,8.247986
1427147353.817,9.898987
1427147353.833,11.4591675
1427147353.849,12.926575
1427147353.864,14.458557
1427147353.88,16.265503
1427147353.895,18.415253
1427147353.911,20.677948
1427147353.927,22.498688
1427147353.942,23.215607
1427147353.958,22.311584
1427147353.974,19.699097
1427147353.989,15.763397
1427147354.005,11.224457
1427147354.02,6.8290405
1427147354.036,3.0942078
1427147354.052,0.15631104
1427147354.067,-2.1451416
1427147354.083,-4.033661
1427147354.099,-5.621704
1427147354.114,-6.82547
1427147354.13,-7.4504395
1427147354.145,-7.380768
1427147354.161,-6.6938477
1427147354.177,-5.728882
1427147354.192,-4.9258423
1427147354.208,-4.6579895
1427147354.224,-5.060425
1427147354.239,-5.998871
1427147354.255,-7.178009
1427147354.27,-8.310974
1427147354.286,-9.234711
1427147354.302,-9.94751
1427147354.317,-10.508484
1427147354.333,-10.958954
1427147354.349,-11.198334
1427147354.364,-11.051788
1427147354.38,-10.356567
1427147354.395,-9.117462
1427147354.411,-7.5329895
1427147354.427,-5.9591675
1427147354.442,-4.7010803
1427147354.458,-3.856079
1427147354.474,-3.244934
1427147354.489,-2.5078735
1427147354.505,-1.308136
1427147354.52,0.49441528
1427147354.536,2.7632446
1427147354.552,5.185486
1427147354.567,7.4476624
1427147354.583,9.365906
1427147354.599,10.943817
1427147354.614,12.272186
1427147354.63,13.45697
1427147354.645,14.561493
1427147354.661,15.6380005
1427147354.677,16.776306
1427147354.692,18.08368
1427147354.708,19.60791
1427147354.724,21.206146
1427147354.739,22.541016
1427147354.755,23.117554
1427147354.77,22.504547
1427147354.786,20.55838
1427147354.802,17.492218
1427147354.817,13.809601
1427147354.833,10.081329
1427147354.849,6.7487793
1427147354.864,3.9806213
1427147354.88,1.7430725
1427147354.895,-0.1338501
1427147354.911,-1.7555542
1427147354.927,-3.1672363
1427147354.942,-4.3523254
1427147354.958,-5.2979126
1427147354.974,-6.04068
1427147354.989,-6.6654053
1427147355.005,-7.2825317
1427147355.02,-7.9420166
1427147355.036,-8.673157
1427147355.052,-9.440887
1427147355.067,-10.208679
1427147355.083,-10.944061
1427147355.099,-11.654297
1427147355.114,-12.405121
1427147355.13,-13.227631
1427147355.146,-14.10202
1427147355.161,-14.79776
1427147355.177,-14.964203
1427147355.192,-14.218567
1427147355.208,-12.358734
1427147355.224,-9.549591
1427147355.239,-6.3179016
1427147355.255,-3.3549805
1427147355.271,-1.2215271
1427147355.286,-0.072753906
1427147355.302,0.40270996
1427147355.317,0.8402405
1427147355.333,1.8274536
1427147355.349,3.6159973
1427147355.364,5.995178
1427147355.38,8.448944
1427147355.396,10.455078
1427147355.411,11.768799
1427147355.427,12.517883
1427147355.442,13.114075
1427147355.458,13.9965515
1427147355.474,15.444122
1427147355.489,17.440231
1427147355.505,19.785553
1427147355.521,22.149948
1427147355.536,24.203094
1427147355.552,25.636444
1427147355.567,26.134308
1427147355.583,25.427155
1427147355.599,23.357956
1427147355.614,19.979752
1427147355.63,15.646774
1427147355.646,10.913467
1427147355.661,6.409729
1427147355.677,2.621292
1427147355.692,-0.2627411
1427147355.708,-2.311264
1427147355.724,-3.745514
1427147355.739,-4.805664
1427147355.755,-5.6502533
1427147355.771,-6.3251495
1427147355.786,-6.8361053
1427147355.802,-7.2121277
1427147355.817,-7.531891
1427147355.833,-7.9177856
1427147355.849,-8.449905
1427147355.864,-9.167938
1427147355.88,-10.051376
1427147355.896,-11.049988
1427147355.911,-12.1035
1427147355.927,-13.15477
1427147355.942,-14.140137
1427147355.958,-14.951935
1427147355.974,-15.451035
1427147355.989,-15.5160675
1427147356.005,-15.064987
1427147356.021,-14.110489
1427147356.036,-12.747253
1427147356.052,-11.136322
1427147356.067,-9.458099
1427147356.083,-7.871353
1427147356.099,-6.431122
1427147356.114,-5.112564
1427147356.13,-3.7911377
1427147356.146,-2.3315582
1427147356.161,-0.6432953
1427147356.177,1.2289124
1427147356.192,3.1125946
1427147356.208,4.7939453
1427147356.224,6.1410522
1427147356.239,7.197632
1427147356.255,8.189453
1427147356.271,9.442734
1427147356.286,11.240921
1427147356.302,13.673874
1427147356.317,16.630539
1427147356.333,19.820953
1427147356.349,22.916672
1427147356.364,25.576218
1427147356.38,27.515396
1427147356.396,28.42392
1427147356.411,28.035812
1427147356.427,26.178513
1427147356.442,22.89412
1427147356.458,18.507614
1427147356.474,13.598877
1427147356.489,8.819687
1427147356.505,4.7122345
1427147356.521,1.5427704
1427147356.536,-0.7008362
1427147356.552,-2.233078
1427147356.567,-3.3110046
1427147356.583,-4.1257935
1427147356.599,-4.761139
1427147356.614,-5.271988
1427147356.63,-5.7149353
1427147356.646,-6.249756
1427147356.661,-7.0161133
1427147356.677,-8.109726
1427147356.692,-9.521683
1427147356.708,-11.140411
1427147356.724,-12.785843
1427147356.739,-14.296082
1427147356.755,-15.526764
1427147356.771,-16.39682
1427147356.786,-16.846863
1427147356.802,-16.863266
1427147356.817,-16.42398
1427147356.833,-15.555267
1427147356.849,-14.297134
1427147356.864,-12.744598
1427147356.88,-11.028412
1427147356.896,-9.288666
1427147356.911,-7.6244354
1427147356.927,-6.084778
1427147356.942,-4.6128693
1427147356.958,-3.0931396
1427147356.974,-1.3806458
1427147356.989,0.57250977
1427147357.005,2.7152252
1427147357.021,4.8809357
1427147357.036,6.886322
1427147357.052,8.617371
1427147357.067,10.098541
1427147357.083,11.44902
1427147357.099,12.850388
1427147357.114,14.476791
1427147357.13,16.453598
1427147357.146,18.818848
1427147357.161,21.458725
1427147357.177,24.027802
1427147357.192,25.982468
1427147357.208,26.692047
1427147357.224,25.659592
1427147357.239,22.795395
1427147357.255,18.468246
1427147357.271,13.400879
1427147357.286,8.356094
1427147357.302,3.9255981
1427147357.317,0.33403015
1427147357.333,-2.4145355
1427147357.349,-4.422905
1427147357.364,-5.7402573
1427147357.38,-6.417328
1427147357.396,-6.578781
1427147357.411,-6.466568
1427147357.427,-6.428322
1427147357.442,-6.7237854
1427147357.458,-7.4319534
1427147357.474,-8.424156
1427147357.489,-9.524902
1427147357.505,-10.61142
1427147357.521,-11.724937
1427147357.536,-12.9596405
1427147357.552,-14.371613
1427147357.567,-15.850601
1427147357.583,-17.160652
1427147357.599,-18.041931
1427147357.614,-18.30835
1427147357.63,-17.901031
1427147357.646,-16.870438
1427147357.661,-15.320694
1427147357.677,-13.364983
1427147357.692,-11.151253
1427147357.708,-8.849014
1427147357.724,-6.613373
1427147357.739,-4.5574036
1427147357.755,-2.6904678
1427147357.771,-0.951004
1427147357.786,0.75897217
1427147357.802,2.4642258
1427147357.818,4.109833
1427147357.833,5.565529
1427147357.849,6.741806
1427147357.864,7.710312
1427147357.88,8.728584
1427147357.896,10.160439
1427147357.911,12.307976
1427147357.927,15.1727295
1427147357.943,18.356232
1427147357.958,21.145493
1427147357.974,22.769905
1427147357.989,22.71122
1427147358.005,20.946053
1427147358.021,17.918362
1427147358.036,14.354774
1427147358.052,10.874657
1427147358.068,7.8241653
1427147358.083,5.175232
1427147358.099,2.7351723
1427147358.114,0.32808304
1427147358.13,-1.9999504
1427147358.146,-4.042652
1427147358.161,-5.5275574
1427147358.177,-6.3154488
1427147358.193,-6.486847
1427147358.208,-6.329632
1427147358.224,-6.2056885
1427147358.239,-6.421501
1427147358.255,-7.0835037
1427147358.271,-8.103859
1427147358.286,-9.228249
1427147358.302,-10.190678
1427147358.318,-10.794746
1427147358.333,-11.052692
1427147358.349,-11.070814
1427147358.364,-11.022213
1427147358.38,-10.968426
1427147358.396,-10.865709
1427147358.411,-10.526886
1427147358.427,-9.766035
1427147358.443,-8.4614525
1427147358.458,-6.6562023
1427147358.474,-4.5224924
1427147358.489,-2.316121
1427147358.505,-0.21850681
1427147358.521,1.6662626
1427147358.536,3.3967
1427147358.552,5.0923905
1427147358.568,6.924732
1427147358.583,9.007607
1427147358.599,11.392509
1427147358.614,14.030011
1427147358.63,16.84526
1427147358.646,19.677511
1427147358.661,22.313686
1427147358.677,24.442055
1427147358.693,25.6349
1427147358.708,25.458256
1427147358.724,23.654125
1427147358.739,20.273872
1427147358.755,15.779972
1427147358.771,10.905478
1427147358.786,6.390253
1427147358.802,2.69269
1427147358.818,-0.062252045
1427147358.833,-2.1001472
1427147358.849,-3.7101212
1427147358.864,-5.1052094
1427147358.88,-6.2836456
1427147358.896,-7.1112633
1427147358.911,-7.4623528
1427147358.927,-7.3707504
1427147358.943,-7.045784
1427147358.958,-6.85894
1427147358.974,-7.1744804
1427147358.989,-8.214977
1427147359.005,-9.937164
1427147359.021,-12.081116
1427147359.036,-14.217705
1427147359.052,-15.955856
1427147359.068,-17.075306
1427147359.083,-17.594322
1427147359.099,-17.65982
1427147359.114,-17.412178
1427147359.13,-16.800987
1427147359.146,-15.631935
1427147359.161,-13.662239
1427147359.177,-10.802834
1427147359.193,-7.2678833
1427147359.208,-3.5138016
1427147359.224,-0.044815063
1427147359.239,2.7947311
1427147359.255,4.941147
1427147359.271,6.623291
1427147359.286,8.201714
1427147359.302,9.98819
1427147359.318,12.155563
1427147359.333,14.717445
1427147359.349,17.57695
1427147359.364,20.569687
1427147359.38,23.527061
1427147359.396,26.227219
1427147359.411,28.38784
1427147359.427,29.625298
1427147359.443,29.547752
1427147359.458,27.855316
1427147359.474,24.524109
1427147359.489,19.85431
1427147359.505,14.455116
1427147359.521,9.03862
1427147359.536,4.1709213
1427147359.552,0.12289429
1427147359.568,-3.146408
1427147359.583,-5.8236237
1427147359.599,-8.052963
1427147359.614,-9.850281
1427147359.63,-11.138229
1427147359.646,-11.908722
1427147359.661,-12.270905
1427147359.677,-12.494141
1427147359.693,-12.88829
1427147359.708,-13.653702
1427147359.724,-14.854782
1427147359.739,-16.44284
1427147359.755,-18.34784
1427147359.771,-20.477417
1427147359.786,-22.6716
1427147359.802,-24.690567
1427147359.818,-26.192764
1427147359.833,-26.882172
1427147359.849,-26.604782
1427147359.864,-25.45842
1427147359.88,-23.746597
1427147359.896,-21.822433
1427147359.911,-19.916092
1427147359.927,-18.071014
1427147359.943,-16.15207
1427147359.958,-13.965622
1427147359.974,-11.377701
1427147359.989,-8.406708
1427147360.005,-5.2144775
1427147360.021,-2.0796356
1427147360.036,0.7469635
1427147360.052,3.0981293
1427147360.068,4.961563
1427147360.083,6.4935913
1427147360.099,7.9634857
1427147360.114,9.686096
1427147360.13,11.948242
1427147360.146,14.9088745
1427147360.161,18.528564
1427147360.177,22.530304
1427147360.193,26.423462
1427147360.208,29.579361
1427147360.224,31.38089
1427147360.239,31.377838
1427147360.255,29.409592
1427147360.271,25.625381
1427147360.286,20.45401
1427147360.302,14.461899
1427147360.318,8.285294
1427147360.333,2.4880219
1427147360.349,-2.4841003
1427147360.364,-6.370346
1427147360.38,-9.137482
1427147360.396,-10.967361
1427147360.411,-12.19072
1427147360.427,-13.154572
1427147360.443,-14.168015
1427147360.458,-15.404053
1427147360.474,-16.893341
1427147360.49,-18.618652
1427147360.505,-20.463058
1427147360.521,-22.312439
1427147360.536,-24.020172
1427147360.552,-25.491745
1427147360.568,-26.693039
1427147360.583,-27.72287
1427147360.599,-28.707703
1427147360.614,-29.740875
1427147360.63,-30.748138
1427147360.646,-31.47525
1427147360.661,-31.580719
1427147360.677,-30.815674
1427147360.693,-29.176666
1427147360.708,-26.928772
1427147360.724,-24.483093
1427147360.74,-22.209503
1427147360.755,-20.243073
1427147360.771,-18.513245
1427147360.786,-16.758331
1427147360.802,-14.759979
1427147360.818,-12.395813
1427147360.833,-9.702606
1427147360.849,-6.810364
1427147360.865,-3.8659668
1427147360.88,-0.9682312
1427147360.896,1.7861023
1427147360.911,4.3500366
1427147360.927,6.70282
1427147360.943,8.925812
1427147360.958,11.200378
1427147360.974,13.800507
1427147360.99,16.976837
1427147361.005,20.85788
1427147361.021,25.347809
1427147361.036,30.07425
1427147361.052,34.436096
1427147361.068,37.725616
1427147361.083,39.268677
1427147361.099,38.62088
1427147361.115,35.724792
1427147361.13,30.920319
1427147361.146,24.882355
1427147361.161,18.436127
1427147361.177,12.303741
1427147361.193,6.98822
1427147361.208,2.662201
1427147361.224,-0.7147827
1427147361.24,-3.322235
1427147361.255,-5.341919
1427147361.271,-6.945923
1427147361.286,-8.259247
1427147361.302,-9.423676
1427147361.318,-10.54895
1427147361.333,-11.741058
1427147361.349,-13.063568
1427147361.365,-14.562317
1427147361.38,-16.25592
1427147361.396,-18.151947
1427147361.411,-20.217926
1427147361.427,-22.371918
1427147361.443,-24.488098
1427147361.458,-26.385193
1427147361.474,-27.871521
1427147361.49,-28.771912
1427147361.505,-28.947388
1427147361.521,-28.294281
1427147361.536,-26.790558
1427147361.552,-24.48233
1427147361.568,-21.519196
1427147361.583,-18.171875
1427147361.599,-14.782471
1427147361.615,-11.719543
1427147361.63,-9.253723
1427147361.646,-7.527832
1427147361.661,-6.4771423
1427147361.677,-5.9088745
1427147361.693,-5.586029
1427147361.708,-5.382324
1427147361.724,-5.282654
1427147361.74,-5.3861084
1427147361.755,-5.7555847
1427147361.771,-6.3215637
1427147361.786,-6.8165283
1427147361.802,-6.8287964
1427147361.818,-5.9461975
1427147361.833,-3.9328918
1427147361.849,-0.84698486
1427147361.865,2.9403076
1427147361.88,6.819641
1427147361.896,10.093384
1427147361.911,12.240295
1427147361.927,13.038788
1427147361.943,12.683502
1427147361.958,11.697876
1427147361.974,10.779633
1427147361.99,10.490021
1427147362.005,11.073425
1427147362.021,12.274353
1427147362.036,13.492401
1427147362.052,13.97818
1427147362.068,13.171326
1427147362.083,10.904419
1427147362.099,7.530426
1427147362.115,3.7187805
1427147362.13,0.22842407
1427147362.146,-2.4071045
1427147362.161,-4.084198
1427147362.177,-5.082184
1427147362.193,-5.85791
1427147362.208,-6.7798767
1427147362.224,-7.8927917
1427147362.24,-8.950439
1427147362.255,-9.648621
1427147362.271,-9.874207
1427147362.286,-9.830505
1427147362.302,-9.947449
1427147362.318,-10.619598
1427147362.333,-11.999512
1427147362.349,-13.943726
1427147362.365,-16.155762
1427147362.38,-18.358063
1427147362.396,-20.46814
1427147362.411,-22.487396
1427147362.427,-24.35794
1427147362.443,-25.86557
1427147362.458,-26.659973
1427147362.474,-26.444641
1427147362.49,-25.221954
1427147362.505,-23.286163
1427147362.521,-21.093079
1427147362.536,-19.005844
1427147362.552,-17.130386
1427147362.568,-15.292816
1427147362.583,-13.265808
1427147362.599,-10.888138
1427147362.615,-8.232498
1427147362.63,-5.5563965
1427147362.646,-3.1851044
1427147362.661,-1.3061066
1427147362.677,0.08885193
1427147362.693,1.2364197
1427147362.708,2.4263
1427147362.724,3.8736877
1427147362.74,5.6064606
1427147362.755,7.4705963
1427147362.771,9.226654
1427147362.786,10.719116
1427147362.802,11.92131
1427147362.818,12.952332
1427147362.833,13.995316
1427147362.849,15.256744
1427147362.865,16.863205
1427147362.88,18.94551
1427147362.896,21.574768
1427147362.911,24.723267
1427147362.927,28.121277
1427147362.943,31.251404
1427147362.958,33.368896
1427147362.974,33.78157
1427147362.99,32.082764
1427147363.005,28.355576
1427147363.021,23.132874
1427147363.036,17.197906
1427147363.052,11.29361
1427147363.068,5.9250946
1427147363.083,1.3194275
1427147363.099,-2.4947815
1427147363.115,-5.555023
1427147363.13,-7.84317
1427147363.146,-9.354385
1427147363.161,-10.110764
1427147363.177,-10.269287
1427147363.193,-10.118469
1427147363.208,-10.04039
1427147363.224,-10.348465
1427147363.24,-11.233475
1427147363.255,-12.644974
1427147363.271,-14.383743
1427147363.286,-16.161758
1427147363.302,-17.760498
1427147363.318,-19.087708
1427147363.333,-20.1501
1427147363.349,-20.962692
1427147363.365,-21.491333
1427147363.38,-21.63707
1427147363.396,-21.326187
1427147363.412,-20.565887
1427147363.427,-19.499786
1427147363.443,-18.28897
1427147363.458,-17.058945
1427147363.474,-15.816132
1427147363.49,-14.510544
1427147363.505,-13.078857
1427147363.521,-11.55069
1427147363.537,-9.970474
1427147363.552,-8.313736
1427147363.568,-6.376236
1427147363.583,-3.8014984
1427147363.599,-0.18128967
1427147363.615,4.665619
1427147363.63,10.531036
1427147363.646,16.772385
1427147363.662,22.457016
1427147363.677,26.666153
1427147363.693,28.887192
1427147363.708,29.24073
1427147363.724,28.53231
1427147363.74,27.93457
1427147363.755,28.546783
1427147363.771,30.808746
1427147363.787,34.329422
1427147363.802,37.956673
1427147363.818,40.31327
1427147363.833,40.39885
1427147363.849,37.951485
1427147363.865,33.46499
1427147363.88,27.842964
1427147363.896,21.938454
1427147363.912,16.328018
1427147363.927,11.288666
1427147363.943,6.9380264
1427147363.958,3.3766022
1427147363.974,0.67251587
1427147363.99,-1.2498932
1427147364.005,-2.6531906
1427147364.021,-3.9444427
1427147364.037,-5.4493713
1427147364.052,-7.2745895
1427147364.068,-9.236992
1427147364.083,-11.05275
1427147364.099,-12.455078
1427147364.115,-13.417389
1427147364.13,-14.058907
1427147364.146,-14.573441
1427147364.162,-15.110268
1427147364.177,-15.741753
1427147364.193,-16.496788
1427147364.208,-17.408478
1427147364.224,-18.508423
1427147364.24,-19.71582
1427147364.255,-20.769806
1427147364.271,-21.281197
1427147364.287,-20.853493
1427147364.302,-19.329529
1427147364.318,-16.9012
1427147364.333,-14.097847
1427147364.349,-11.520882
1427147364.365,-9.624283
1427147364.38,-8.482491
1427147364.396,-7.8476944
1427147364.412,-7.302826
1427147364.427,-6.5272064
1427147364.443,-5.375519
1427147364.458,-3.9178925
1427147364.474,-2.2335129
1427147364.49,-0.39707947
1427147364.505,1.598938
1427147364.521,3.7303314
1427147364.537,5.9260178
1427147364.552,8.080109
1427147364.568,10.165291
1427147364.583,12.310204
1427147364.599,14.791801
1427147364.615,17.9104
1427147364.63,21.850998
1427147364.646,26.504135
1427147364.662,31.475014
1427147364.677,36.117096
1427147364.693,39.724876
1427147364.708,41.700993
1427147364.724,41.70722
1427147364.74,39.715897
1427147364.755,36.04574
1427147364.771,31.210327
1427147364.787,25.83411
1427147364.802,20.433262
1427147364.818,15.380192
1427147364.833,10.821735
1427147364.849,6.8059998
1427147364.865,3.2979584
1427147364.88,0.30979538
1427147364.896,-2.1103745
1427147364.912,-3.9117966
1427147364.927,-5.135212
1427147364.943,-5.9502296
1427147364.958,-6.6976967
1427147364.974,-7.745144
1427147364.99,-9.4208145
1427147365.005,-11.790955
1427147365.021,-14.631798
1427147365.037,-17.450897
1427147365.052,-19.719723
1427147365.068,-21.077236
1427147365.083,-21.514648
1427147365.099,-21.342625
1427147365.115,-21.031654
1427147365.13,-20.960342
1427147365.146,-21.261494
1427147365.162,-21.72377
1427147365.177,-21.983383
1427147365.193,-21.67617
1427147365.208,-20.643421
1427147365.224,-18.957909
1427147365.24,-16.891136
1427147365.255,-14.7379875
1427147365.271,-12.704842
1427147365.287,-10.853413
1427147365.302,-9.134293
1427147365.318,-7.4715424
1427147365.333,-5.813614
1427147365.349,-4.1355095
1427147365.365,-2.4332886
1427147365.38,-0.6784706
1427147365.396,1.1646919
1427147365.412,3.1112251
1427147365.427,5.0917206
1427147365.443,7.0054626
1427147365.458,8.721951
1427147365.474,10.233021
1427147365.49,11.68605
1427147365.505,13.37175
1427147365.521,15.617565
1427147365.537,18.640003
1427147365.552,22.344414
1427147365.568,26.312529
1427147365.583,29.864391
1427147365.599,32.21939
1427147365.615,32.75302
1427147365.63,31.20122
1427147365.646,27.69511
1427147365.662,22.753399
1427147365.677,17.06015
1427147365.693,11.283318
1427147365.708,5.9183064
1427147365.724,1.2266026
1427147365.74,-2.7477226
1427147365.755,-6.0534973
1427147365.771,-8.779919
1427147365.787,-10.971392
1427147365.802,-12.597366
1427147365.818,-13.541376
1427147365.833,-13.743252
1427147365.849,-13.183271
1427147365.865,-12.091238
1427147365.88,-10.865616
1427147365.896,-10.008371
1427147365.912,-9.924068
1427147365.927,-10.74594
1427147365.943,-12.280349
1427147365.958,-14.052857
1427147365.974,-15.52281
1427147365.99,-16.276014
1427147366.005,-16.190643
1427147366.021,-15.468362
1427147366.037,-14.467291
1427147366.052,-13.5857315
1427147366.068,-13.0392
1427147366.084,-12.773645
1427147366.099,-12.523274
1427147366.115,-11.956667
1427147366.13,-10.853823
1427147366.146,-9.232307
1427147366.162,-7.3024235
1427147366.177,-5.341874
1427147366.193,-3.5203795
1427147366.209,-1.8464229
1427147366.224,-0.18423986
1427147366.24,1.5642667
1427147366.255,3.403009
1427147366.271,5.220603
1427147366.287,6.876834
1427147366.302,8.31546
1427147366.318,9.615015
1427147366.334,10.924892
1427147366.349,12.425024
1427147366.365,14.238672
1427147366.38,16.413082
1427147366.396,18.972809
1427147366.412,21.90987
1427147366.427,25.160759
1427147366.443,28.50189
1427147366.459,31.533463
1427147366.474,33.667576
1427147366.49,34.308067
1427147366.505,33.059723
1427147366.521,29.88681
1427147366.537,25.19321
1427147366.552,19.681892
1427147366.568,14.140707
1427147366.584,9.181356
1427147366.599,5.1162806
1427147366.615,1.9328194
1427147366.63,-0.52386
1427147366.646,-2.4401026
1427147366.662,-3.8826065
1427147366.677,-4.839266
1427147366.693,-5.269394
1427147366.709,-5.231513
1427147366.724,-4.886693
1427147366.74,-4.4875965
1427147366.755,-4.2819624
1427147366.771,-4.4645624
1427147366.787,-5.11397
1427147366.802,-6.1978207
1427147366.818,-7.618967
1427147366.834,-9.240137
1427147366.849,-10.919552
1427147366.865,-12.5193615
1427147366.88,-13.877417
1427147366.896,-14.836962
1427147366.912,-15.240297
1427147366.927,-15.029797
1427147366.943,-14.259245
1427147366.959,-13.113766
1427147366.974,-11.822813
1427147366.99,-10.588787
1427147367.005,-9.500614
1427147367.021,-8.517321
1427147367.037,-7.524046
1427147367.052,-6.416733
1427147367.068,-5.1612644
1427147367.084,-3.8102837
1427147367.099,-2.4251614
1427147367.115,-1.0593433
1427147367.13,0.30617905
1427147367.146,1.6806507
1427147367.162,3.0730515
1427147367.177,4.445648
1427147367.193,5.8564224
1427147367.209,7.490568
1427147367.224,9.697666
1427147367.24,12.857708
1427147367.255,17.178375
1427147367.271,22.457575
1427147367.287,28.030642
1427147367.302,32.878372
1427147367.318,35.961494
1427147367.334,36.578857
1427147367.349,34.588047
1427147367.365,30.433544
1427147367.38,24.941912
1427147367.396,18.994755
1427147367.412,13.318695
1427147367.427,8.316452
1427147367.443,4.1424503
1427147367.459,0.73773
1427147367.474,-2.0041447
1427147367.49,-4.200817
1427147367.505,-5.932493
1427147367.521,-7.241457
1427147367.537,-8.165047
1427147367.552,-8.753367
1427147367.568,-9.126563
1427147367.584,-9.497792
1427147367.599,-10.1331835
1427147367.615,-11.260884
1427147367.63,-12.936145
1427147367.646,-14.979685
1427147367.662,-17.028542
1427147367.677,-18.746677
1427147367.693,-19.954102
1427147367.709,-20.774626
1427147367.724,-21.467846
1427147367.74,-22.246681
1427147367.755,-23.021748
1427147367.771,-23.408691
1427147367.787,-22.884842
1427147367.802,-21.129553
1427147367.818,-18.187317
1427147367.834,-14.534974
1427147367.849,-10.838906
1427147367.865,-7.6571226
1427147367.88,-5.248146
1427147367.896,-3.5467482
1427147367.912,-2.267356
1427147367.927,-1.153553
1427147367.943,-0.0461874
1427147367.959,1.0231333
1427147367.974,1.9416676
1427147367.99,2.6205196
1427147368.005,3.0946627
1427147368.021,3.5304317
1427147368.037,4.212554
1427147368.052,5.421687
1427147368.068,7.3619976
1427147368.084,10.12639
1427147368.099,13.7795315
1427147368.115,18.290264
1427147368.13,23.538984
1427147368.146,29.188911
1427147368.162,34.53858
1427147368.177,38.58924
1427147368.193,40.317997
1427147368.209,39.040714
1427147368.224,34.837196
1427147368.24,28.528204
1427147368.255,21.415398
1427147368.271,14.714778
1427147368.287,9.148337
1427147368.302,4.729393
1427147368.318,1.0302324
1427147368.334,-2.4590225
1427147368.349,-5.9551277
1427147368.365,-9.232317
1427147368.38,-11.720554
1427147368.396,-12.750771
1427147368.412,-11.772178
1427147368.427,-8.595653
1427147368.443,-3.4646153
1427147368.459,2.9153633
1427147368.474,9.513306
1427147368.49,15.172602
1427147368.505,18.899292
1427147368.521,20.133156
1427147368.537,18.857044
1427147368.552,15.55948
1427147368.568,11.002666
1427147368.584,5.9661264
1427147368.599,1.104362
1427147368.615,-3.2411819
1427147368.63,-7.0020647
1427147368.646,-10.365429
1427147368.662,-13.680656
1427147368.677,-17.397194
1427147368.693,-22.016506
1427147368.709,-28.008617
1427147368.724,-35.749096
1427147368.74,-45.397606
1427147368.756,-56.874485
1427147368.771,-69.7973
1427147368.787,-83.5385
1427147368.802,-97.34505
1427147368.818,-110.46636
1427147368.834,-122.230835
1427147368.849,-132.01855
1427147368.865,-139.24908
1427147368.881,-143.27151
1427147368.896,-143.37628
1427147368.912,-138.8473
1427147368.927,-129.1512
1427147368.943,-114.045715
1427147368.959,-93.70981
1427147368.974,-68.787476
1427147368.99,-40.393806
1427147369.006,-10.06126
1427147369.021,20.437756
1427147369.037,49.26466
1427147369.052,74.7581
1427147369.068,95.69183
1427147369.084,111.40548
1427147369.099,121.83188
1427147369.115,127.41722
1427147369.131,129.0064
1427147369.146,127.62706
1427147369.162,124.36592
1427147369.177,120.20374
1427147369.193,115.90201
1427147369.209,111.89529
1427147369.224,108.33026
1427147369.24,105.044266
1427147369.256,101.71903
1427147369.271,97.91992
1427147369.287,93.2432
1427147369.302,87.38949
1427147369.318,80.20738
1427147369.334,71.71799
1427147369.349,62.154892
1427147369.365,51.871758
1427147369.381,41.24272
1427147369.396,30.490318
1427147369.412,19.625587
1427147369.427,8.456627
1427147369.443,-3.186737
1427147369.459,-15.201126
1427147369.474,-26.991013
1427147369.49,-37.53074
1427147369.506,-45.648514
1427147369.521,-50.489548
1427147369.537,-51.85379
1427147369.552,-50.297836
1427147369.568,-46.93287
1427147369.584,-42.95466
1427147369.599,-39.267784
1427147369.615,-36.28945
1427147369.631,-34.028923
1427147369.646,-32.280876
1427147369.662,-30.838722
1427147369.677,-29.509964
1427147369.693,-28.071655
1427147369.709,-26.2874
1427147369.724,-23.867813
1427147369.74,-20.677414
1427147369.756,-16.777504
1427147369.771,-12.4891205
1427147369.787,-8.185547
1427147369.802,-4.1516495
1427147369.818,-0.41671753
1427147369.834,3.2421494
1427147369.849,7.1618805
1427147369.865,11.593597
1427147369.881,16.56189
1427147369.896,21.780243
1427147369.912,26.712029
1427147369.927,30.655815
1427147369.943,32.93656
1427147369.959,33.018734
1427147369.974,30.753979
1427147369.99,26.371368
1427147370.006,20.539902
1427147370.021,14.161339
1427147370.037,8.149925
1427147370.052,3.132431
1427147370.068,-0.6449318
1427147370.084,-3.2899094
1427147370.099,-5.097988
1427147370.115,-6.343998
1427147370.131,-7.234619
1427147370.146,-7.925091
1427147370.162,-8.5787735
1427147370.177,-9.419731
1427147370.193,-10.609585
1427147370.209,-12.174908
1427147370.224,-13.921612
1427147370.24,-15.545071
1427147370.256,-16.738728
1427147370.271,-17.404022
1427147370.287,-17.658154
1427147370.302,-17.782818
1427147370.318,-18.094418
1427147370.334,-18.768341
1427147370.349,-19.813072
1427147370.365,-21.070324
1427147370.381,-22.277462
1427147370.396,-23.168732
1427147370.412,-23.558277
1427147370.427,-23.41798
1427147370.443,-22.858376
1427147370.459,-22.144417
1427147370.474,-21.453335
1427147370.49,-20.82634
1427147370.506,-20.052456
1427147370.521,-18.760551
1427147370.537,-16.54831
1427147370.552,-13.218357
1427147370.568,-8.86628
1427147370.584,-3.8919983
1427147370.599,1.1313438
1427147370.615,5.6324196
1427147370.631,9.189789
1427147370.646,11.651585
1427147370.662,13.188206
1427147370.677,14.20652
1427147370.693,15.215939
1427147370.709,16.650845
1427147370.724,18.721245
1427147370.74,21.327057
1427147370.756,24.145866
1427147370.771,26.651905
1427147370.787,28.33025
1427147370.802,28.725407
1427147370.818,27.578838
1427147370.834,24.856808
1427147370.849,20.859043
1427147370.865,16.128914
1427147370.881,11.398197
1427147370.896,7.3530807
1427147370.912,4.4682655
1427147370.927,2.8567352
1427147370.943,2.3048897
1427147370.959,2.4028053
1427147370.974,2.7423859
1427147370.99,3.084175
1427147371.006,3.3492317
1427147371.021,3.5840454
1427147371.037,3.8764725
1427147371.052,4.227669
1427147371.068,4.558853
1427147371.084,4.7032013
1427147371.099,4.474449
1427147371.115,3.659855
1427147371.131,2.1852722
1427147371.146,0.080963135
1427147371.162,-2.4797592
1427147371.177,-5.21138
1427147371.193,-7.8329277
1427147371.209,-10.097618
1427147371.224,-11.833767
1427147371.24,-12.934864
1427147371.256,-13.3397255
1427147371.271,-13.0250435
1427147371.287,-12.017368
1427147371.302,-10.421902
1427147371.318,-8.381187
1427147371.334,-6.0498695
1427147371.349,-3.4944305
1427147371.365,-0.75292206
1427147371.381,2.19133
1427147371.396,5.2808533
1427147371.412,8.39217
1427147371.428,11.350925
1427147371.443,14.01688
1427147371.459,16.330593
1427147371.474,18.395283
1427147371.49,20.412624
1427147371.506,22.61338
1427147371.521,25.156578
1427147371.537,28.034035
1427147371.552,31.026394
1427147371.568,33.693245
1427147371.584,35.446003
1427147371.599,35.69749
1427147371.615,34.04306
1427147371.631,30.423306
1427147371.646,25.177238
1427147371.662,18.989857
1427147371.678,12.6535
1427147371.693,6.8209515
1427147371.709,1.8706913
1427147371.724,-2.1340332
1427147371.74,-5.329052
1427147371.756,-7.9338226
1427147371.771,-10.095667
1427147371.787,-11.878136
1427147371.803,-13.278294
1427147371.818,-14.251633
1427147371.834,-14.807087
1427147371.849,-14.983687
1427147371.865,-14.933012
1427147371.881,-14.83432
1427147371.896,-14.896951
1427147371.912,-15.281542
1427147371.928,-16.035095
1427147371.943,-17.042198
1427147371.959,-18.060146
1427147371.974,-18.794777
1427147371.99,-19.035057
1427147372.006,-18.750183
1427147372.021,-18.109186
1427147372.037,-17.306978
1427147372.053,-16.491373
1427147372.068,-15.630285
1427147372.084,-14.569246
1427147372.099,-13.16464
1427147372.115,-11.430619
1427147372.131,-9.549046
1427147372.146,-7.767777
1427147372.162,-6.1790466
1427147372.178,-4.668955
1427147372.193,-2.9853716
1427147372.209,-0.9290581
1427147372.224,1.4843798
1427147372.24,4.000474
1427147372.256,6.2938547
1427147372.271,8.213479
1427147372.287,9.950327
1427147372.303,11.937222
1427147372.318,14.62331
1427147372.334,18.11528
1427147372.349,22.029861
1427147372.365,25.546564
1427147372.381,27.689276
1427147372.396,27.714352
1427147372.412,25.389566
1427147372.428,21.097471
1427147372.443,15.638008
1427147372.459,9.96492
1427147372.474,4.835451
1427147372.49,0.639843
1427147372.506,-2.6256218
1427147372.521,-5.2185974
1427147372.537,-7.3877754
1427147372.553,-9.273304
1427147372.568,-10.860245
1427147372.584,-12.076965
1427147372.599,-12.876678
1427147372.615,-13.347229
1427147372.631,-13.652466
1427147372.646,-13.995766
1427147372.662,-14.468838
1427147372.678,-15.031315
1427147372.693,-15.505508
1427147372.709,-15.642891
1427147372.724,-15.212734
1427147372.74,-14.165173
1427147372.756,-12.656582
1427147372.771,-11.062519
1427147372.787,-9.832146
1427147372.803,-9.278938
1427147372.818,-9.414612
1427147372.834,-9.948532
1427147372.849,-10.40361
1427147372.865,-10.313328
1427147372.881,-9.408836
1427147372.896,-7.70636
1427147372.912,-5.399006
1427147372.928,-2.7402916
1427147372.943,0.094249725
1427147372.959,2.9844933
1427147372.974,5.8401604
1427147372.99,8.496586
1427147373.006,10.762051
1427147373.021,12.493011
1427147373.037,13.7701645
1427147373.053,14.938057
1427147373.068,16.535637
1427147373.084,19.038742
1427147373.099,22.600754
1427147373.115,26.825043
1427147373.131,30.82148
1427147373.146,33.461296
1427147373.162,33.803795
1427147373.178,31.458687
1427147373.193,26.720932
1427147373.209,20.447105
1427147373.224,13.688957
1427147373.24,7.3052216
1427147373.256,1.7212906
1427147373.271,-3.0563736
1427147373.287,-7.190201
1427147373.303,-10.795456
1427147373.318,-13.76693
1427147373.334,-15.885704
1427147373.349,-16.99707
1427147373.365,-17.196259
1427147373.381,-16.832863
1427147373.396,-16.403725
1427147373.412,-16.354462
1427147373.428,-16.930641
1427147373.443,-18.135803
1427147373.459,-19.83136
1427147373.474,-21.784592
1427147373.49,-23.811775
1427147373.506,-25.75676
1427147373.521,-27.541382
1427147373.537,-29.104256
1427147373.553,-30.453484
1427147373.568,-31.571785
1427147373.584,-32.430992
1427147373.599,-32.919952
1427147373.615,-32.911926
1427147373.631,-32.284332
1427147373.646,-30.999184
1427147373.662,-29.108475
1427147373.678,-26.771973
1427147373.693,-24.236252
1427147373.709,-21.787117
1427147373.724,-19.69973
1427147373.74,-18.24031
1427147373.756,-17.557335
1427147373.771,-17.695023
1427147373.787,-18.519028
1427147373.803,-19.78479
1427147373.818,-21.100868
1427147373.834,-22.035736
1427147373.849,-22.140495
1427147373.865,-21.084396
1427147373.881,-18.709381
1427147373.896,-15.094666
1427147373.912,-10.495438
1427147373.928,-5.3023834
1427147373.943,0.09681702
1427147373.959,5.3146744
1427147373.974,9.949974
1427147373.99,13.565842
1427147374.006,15.775543
1427147374.021,16.35353
1427147374.037,15.527504
1427147374.053,13.883274
1427147374.068,12.249153
1427147374.084,11.25877
1427147374.099,11.127087
1427147374.115,11.49548
1427147374.131,11.722286
1427147374.146,11.24194
1427147374.162,9.768135
1427147374.178,7.2983475
1427147374.193,3.9948235
1427147374.209,0.047203064
1427147374.224,-4.3182945
1427147374.24,-8.759491
1427147374.256,-12.81842
1427147374.271,-16.057148
1427147374.287,-18.180725
1427147374.303,-19.249908
1427147374.318,-19.508749
1427147374.334,-19.190434
1427147374.35,-18.274195
1427147374.365,-16.523956
1427147374.381,-13.664318
1427147374.396,-9.669573
1427147374.412,-4.818922
1427147374.428,0.30570793
1427147374.443,5.1414375
1427147374.459,9.368019
1427147374.475,12.980172
1427147374.49,16.197863
1427147374.506,19.278559
1427147374.521,22.323135
1427147374.537,25.27489
1427147374.553,27.955704
1427147374.568,30.22374
1427147374.584,31.97138
1427147374.6,33.26319
1427147374.615,34.17677
1427147374.631,34.7636
1427147374.646,34.94843
1427147374.662,34.596394
1427147374.678,33.572014
1427147374.693,31.979994
1427147374.709,30.194363
1427147374.725,28.825724
1427147374.74,28.48071
1427147374.756,29.53181
1427147374.771,31.964352
1427147374.787,35.534046
1427147374.803,39.89872
1427147374.818,44.759354
1427147374.834,49.81802
1427147374.85,54.63996
1427147374.865,58.55497
1427147374.881,60.756016
1427147374.896,60.54795
1427147374.912,57.764343
1427147374.928,52.869633
1427147374.943,46.85068
1427147374.959,40.7285
1427147374.975,35.14029
1427147374.99,30.091583
1427147375.006,25.096226
1427147375.021,19.54212
1427147375.037,13.117367
1427147375.053,6.0035305
1427147375.068,-1.2573967
1427147375.084,-8.050465
1427147375.1,-14.030895
1427147375.115,-19.240791
1427147375.131,-24.03144
1427147375.146,-28.801762
1427147375.162,-33.68037
1427147375.178,-38.48793
1427147375.193,-42.758232
1427147375.209,-46.01337
1427147375.225,-48.00174
1427147375.24,-48.840046
1427147375.256,-48.959167
1427147375.271,-48.958332
1427147375.287,-49.343777
1427147375.303,-50.325565
1427147375.318,-51.718006
1427147375.334,-53.014538
1427147375.35,-53.582584
1427147375.365,-52.933044
1427147375.381,-50.8795
1427147375.396,-47.592667
1427147375.412,-43.500404
1427147375.428,-39.04592
1427147375.443,-34.49665
1427147375.459,-29.883232
1427147375.475,-25.060936
1427147375.49,-19.860313
1427147375.506,-14.257332
1427147375.521,-8.432289
1427147375.537,-2.7075653
1427147375.553,2.562523
1427147375.568,7.170723
1427147375.584,11.143265
1427147375.6,14.726761
1427147375.615,18.328522
1427147375.631,22.337929
1427147375.646,26.994934
1427147375.662,32.26084
1427147375.678,37.767967
1427147375.693,42.87789
1427147375.709,46.768074
1427147375.725,48.6184
1427147375.74,47.735268
1427147375.756,43.769394
1427147375.771,36.85991
1427147375.787,27.698395
1427147375.803,17.448982
1427147375.818,7.497795
1427147375.834,-0.9102402
1427147375.85,-7.0065613
1427147375.865,-10.672852
1427147375.881,-12.34063
1427147375.896,-12.720398
1427147375.912,-12.486214
1427147375.928,-12.058083
1427147375.943,-11.588554
1427147375.959,-11.094231
1427147375.975,-10.593407
1427147375.99,-10.201515
1427147376.006,-10.039116
1427147376.021,-10.165199
1427147376.037,-10.479256
1427147376.053,-10.759308
1427147376.068,-10.783356
1427147376.084,-10.440819
1427147376.1,-9.781944
1427147376.115,-8.945068
1427147376.131,-8.047104
1427147376.146,-7.1379776
1427147376.162,-6.185852
1427147376.178,-5.1769104
1427147376.193,-4.2248
1427147376.209,-3.5769196
1427147376.225,-3.516365
1427147376.24,-4.2105103
1427147376.256,-5.5253754
1427147376.271,-7.0434647
1427147376.287,-8.157967
1427147376.303,-8.343079
1427147376.318,-7.3300705
1427147376.334,-5.2592316
1427147376.35,-2.4946976
1427147376.365,0.50351715
1427147376.381,3.43013
1427147376.396,6.2573166
1427147376.412,9.192909
1427147376.428,12.543198
1427147376.443,16.519371
1427147376.459,21.126045
1427147376.475,26.102013
1427147376.49,30.89489
1427147376.506,34.791725
1427147376.521,37.012154
1427147376.537,36.916702
1427147376.553,34.176437
1427147376.568,28.944427
1427147376.584,21.839012
1427147376.6,13.781776
1427147376.615,5.7672653
1427147376.631,-1.425621
1427147376.646,-7.3672714
1427147376.662,-11.94165
1427147376.678,-15.221947
1427147376.693,-17.3368
1427147376.709,-18.402946
1427147376.725,-18.528206
1427147376.74,-17.915512
1427147376.756,-16.888115
1427147376.771,-15.837372
1427147376.787,-15.126221
1427147376.803,-14.970131
1427147376.818,-15.357086
1427147376.834,-16.108994
1427147376.85,-16.89267
1427147376.865,-17.408264
1427147376.881,-17.466873
1427147376.896,-17.055084
1427147376.912,-16.321434
1427147376.928,-15.498634
1427147376.943,-14.812347
1427147376.959,-14.387444
1427147376.975,-14.219238
1427147376.99,-14.204361
1427147377.006,-14.182579
1427147377.022,-14.011276
1427147377.037,-13.5673065
1427147377.053,-12.772263
1427147377.068,-11.600441
1427147377.084,-10.061836
1427147377.1,-8.225136
1427147377.115,-6.184334
1427147377.131,-4.0272827
1427147377.147,-1.7781982
1427147377.162,0.65649414
1427147377.178,3.4650574
1427147377.193,6.898033
1427147377.209,11.124069
1427147377.225,16.126373
1427147377.24,21.552856
1427147377.256,26.709152
1427147377.272,30.667114
1427147377.287,32.497124
1427147377.303,31.57006
1427147377.318,27.797653
1427147377.334,21.651176
1427147377.35,14.093323
1427147377.365,6.2300186
1427147377.381,-0.95705414
1427147377.397,-6.8437347
1427147377.412,-11.191177
1427147377.428,-14.099167
1427147377.443,-15.8341675
1427147377.459,-16.74807
1427147377.475,-17.177269
1427147377.49,-17.406586
1427147377.506,-17.647957
1427147377.522,-17.960571
1427147377.537,-18.275665
1427147377.553,-18.446754
1427147377.568,-18.331459
1427147377.584,-17.906158
1427147377.6,-17.307129
1427147377.615,-16.792473
1427147377.631,-16.590965
1427147377.647,-16.819
1427147377.662,-17.379799
1427147377.678,-18.027222
1427147377.693,-18.457458
1427147377.709,-18.4449
1427147377.725,-17.876923
1427147377.74,-16.75512
1427147377.756,-15.102013
1427147377.772,-12.942467
1427147377.787,-10.289314
1427147377.803,-7.1636734
1427147377.818,-3.641777
1427147377.834,0.1355362
1427147377.85,3.9945831
1427147377.865,7.733467
1427147377.881,11.212097
1427147377.897,14.284592
1427147377.912,16.924065
1427147377.928,19.118309
1427147377.943,20.996422
1427147377.959,22.767082
1427147377.975,24.78524
1427147377.99,27.498474
1427147378.006,31.311684
1427147378.022,36.38079
1427147378.037,42.41337
1427147378.053,48.541176
1427147378.068,53.437668
1427147378.084,55.689743
1427147378.1,54.27439
1427147378.115,48.9739
1427147378.131,40.542572
1427147378.147,30.41603
1427147378.162,20.23462
1427147378.178,11.284348
1427147378.193,4.201332
1427147378.209,-1.0763397
1427147378.225,-4.9623947
1427147378.24,-7.9660187
1427147378.256,-10.386505
1427147378.272,-12.309547
1427147378.287,-13.720909
1427147378.303,-14.659973
1427147378.318,-15.280457
1427147378.334,-15.846306
1427147378.35,-16.64196
1427147378.365,-17.87278
1427147378.381,-19.603027
1427147378.397,-21.781792
1427147378.412,-24.16063
1427147378.428,-26.415062
1427147378.443,-28.16063
1427147378.459,-29.086777
1427147378.475,-29.060501
1427147378.49,-28.21862
1427147378.506,-26.801926
1427147378.522,-25.045715
1427147378.537,-23.004272
1427147378.553,-20.57196
1427147378.568,-17.654594
1427147378.584,-14.360298
1427147378.6,-10.99202
1427147378.615,-7.8481827
1427147378.631,-4.953911
1427147378.647,-2.0349045
1427147378.662,1.1215591
1427147378.678,4.214218
1427147378.693,6.1834717
1427147378.709,5.5221176
1427147378.725,1.0675812
1427147378.74,-7.2598343
1427147378.756,-18.153976
1427147378.772,-29.333878
1427147378.787,-38.492767
1427147378.803,-44.1476
1427147378.818,-45.884094
1427147378.834,-44.008347
1427147378.85,-38.93583
1427147378.865,-30.901611
1427147378.881,-20.194878
1427147378.897,-7.744583
1427147378.912,4.6901855
1427147378.928,14.764244
1427147378.943,20.511002
1427147378.959,21.22593
1427147378.975,17.865707
1427147378.99,12.584106
1427147379.006,7.8350983
1427147379.022,5.361046
1427147379.037,5.665024
1427147379.053,8.17083
1427147379.068,11.741142
1427147379.084,15.231514
1427147379.1,17.905075
1427147379.115,19.421715
1427147379.131,19.756157
1427147379.147,19.068832
1427147379.162,17.61581
1427147379.178,15.703419
1427147379.193,13.619812
1427147379.209,11.561447
1427147379.225,9.599285
1427147379.24,7.674263
1427147379.256,5.647991
1427147379.272,3.3431091
1427147379.287,0.64886475
1427147379.303,-2.521862
1427147379.318,-6.085621
1427147379.334,-9.8036995
1427147379.35,-13.302277
1427147379.365,-16.170002
1427147379.381,-18.08419
1427147379.397,-18.935093
1427147379.412,-18.82938
1427147379.428,-18.015636
1427147379.443,-16.748093
1427147379.459,-15.216972
1427147379.475,-13.529312
1427147379.49,-11.727459
1427147379.506,-9.856953
1427147379.522,-7.983286
1427147379.537,-6.15934
1427147379.553,-4.4415836
1427147379.568,-2.7695503
1427147379.584,-1.003685
1427147379.6,1.1397266
1427147379.615,3.9824638
1427147379.631,7.8099422
1427147379.647,12.661419
1427147379.662,18.208439
1427147379.678,23.697134
1427147379.694,28.11708
1427147379.709,30.47384
1427147379.725,30.114456
1427147379.74,26.946577
1427147379.756,21.450962
1427147379.772,14.513739
1427147379.787,7.175555
1427147379.803,0.34058094
1427147379.819,-5.2991767
1427147379.834,-9.311576
1427147379.85,-11.4494295
1427147379.865,-11.673567
1427147379.881,-10.183693
1427147379.897,-7.4957876
1427147379.912,-4.3628573
1427147379.928,-1.6485925
1427147379.944,-0.03706789
1427147379.959,0.16861391
1427147379.975,-0.90349865
1427147379.99,-2.7980185
1427147380.006,-4.947016
1427147380.022,-6.899457
1427147380.037,-8.369846
1427147380.053,-9.268829
1427147380.069,-9.624914
1427147380.084,-9.566511
1427147380.1,-9.278254
1427147380.115,-8.98967
1427147380.131,-8.894121
1427147380.147,-9.083437
1427147380.162,-9.506245
1427147380.178,-9.970728
1427147380.194,-10.219324
1427147380.209,-10.035324
1427147380.225,-9.213169
1427147380.24,-7.6295013
1427147380.256,-5.2405014
1427147380.272,-2.1614037
1427147380.287,1.341896
1427147380.303,4.8587112
1427147380.319,8.004814
1427147380.334,10.585056
1427147380.35,12.714123
1427147380.365,14.752163
1427147380.381,17.200203
1427147380.397,20.431557
1427147380.412,24.685242
1427147380.428,29.895061
1427147380.444,35.690086
1427147380.459,41.37948
1427147380.475,45.978584
1427147380.49,48.365444
1427147380.506,47.62739
1427147380.522,43.360916
1427147380.537,35.92931
1427147380.553,26.395199
1427147380.569,16.209621
1427147380.584,6.758583
1427147380.6,-0.96499634
1427147380.615,-6.597912
1427147380.631,-10.243011
1427147380.647,-12.339283
1427147380.662,-13.368019
1427147380.678,-13.7296295
1427147380.694,-13.651939
1427147380.709,-13.234505
1427147380.725,-12.539238
1427147380.74,-11.654964
1427147380.756,-10.781429
1427147380.772,-10.183903
1427147380.787,-10.092636
1427147380.803,-10.588577
1427147380.819,-11.596809
1427147380.834,-12.923096
1427147380.85,-14.345261
1427147380.865,-15.743118
1427147380.881,-17.041885
1427147380.897,-18.216087
1427147380.912,-19.180542
1427147380.928,-19.779236
1427147380.944,-19.79319
1427147380.959,-19.03521
1427147380.975,-17.382576
1427147380.99,-14.869019
1427147381.006,-11.706825
1427147381.022,-8.241226
1427147381.037,-4.8644943
1427147381.053,-1.8300934
1427147381.069,0.83693695
1427147381.084,3.3385544
1427147381.1,5.9692307
1427147381.115,8.874474
1427147381.131,11.945572
1427147381.147,14.838539
1427147381.162,17.202202
1427147381.178,18.916603
1427147381.194,20.235825
1427147381.209,21.700363
1427147381.225,23.882011
1427147381.24,27.09188
1427147381.256,31.194664
1427147381.272,35.55867
1427147381.287,39.24266
1427147381.303,41.217285
1427147381.319,40.702057
1427147381.334,37.343307
1427147381.35,31.405777
1427147381.365,23.669006
1427147381.381,15.252869
1427147381.397,7.279976
1427147381.412,0.60095215
1427147381.428,-4.394249
1427147381.444,-7.7684555
1427147381.459,-9.85778
1427147381.475,-11.069733
1427147381.49,-11.724434
1427147381.506,-12.011276
1427147381.522,-12.035309
1427147381.537,-11.915596
1427147381.553,-11.836502
1427147381.569,-12.011284
1427147381.584,-12.632584
1427147381.6,-13.783745
1427147381.615,-15.433052
1427147381.631,-17.42556
1427147381.647,-19.562622
1427147381.662,-21.642586
1427147381.678,-23.479568
1427147381.694,-24.880531
1427147381.709,-25.689278
1427147381.725,-25.752922
1427147381.74,-25.002693
1427147381.756,-23.46096
1427147381.772,-21.265602
1427147381.787,-18.605515
1427147381.803,-15.6811905
1427147381.819,-12.635696
1427147381.834,-9.513405
1427147381.85,-6.314804
1427147381.865,-3.0306854
1427147381.881,0.2617874
1427147381.897,3.3619843
1427147381.912,6.0455017
1427147381.928,8.138527
1427147381.944,9.643425
1427147381.959,10.794922
1427147381.975,12.000862
1427147381.99,13.661285
1427147382.006,16.058434
1427147382.022,19.230934
1427147382.037,23.00978
1427147382.053,27.049286
1427147382.069,30.909042
1427147382.084,34.05385
1427147382.1,35.87713
1427147382.115,35.74539
1427147382.131,33.21495
1427147382.147,28.249321
1427147382.162,21.376366
1427147382.178,13.59594
1427147382.194,6.120796
1427147382.209,-0.042510986
1427147382.225,-4.3819046
1427147382.24,-6.938423
1427147382.256,-8.097717
1427147382.272,-8.332703
1427147382.287,-7.948509
1427147382.303,-7.090172
1427147382.319,-5.792877
1427147382.334,-4.2304688
1427147382.35,-2.7398453
1427147382.366,-1.7871017
1427147382.381,-1.7635956
1427147382.397,-2.8432465
1427147382.412,-4.9119034
1427147382.428,-7.590538
1427147382.444,-10.43055
1427147382.459,-12.99276
1427147382.475,-14.972794
1427147382.49,-16.254082
1427147382.506,-16.851692
1427147382.522,-16.913216
1427147382.537,-16.59642
1427147382.553,-16.06324
1427147382.569,-15.373741
1427147382.584,-14.563347
1427147382.6,-13.608772
1427147382.616,-12.512253
1427147382.631,-11.220955
1427147382.647,-9.662727
1427147382.662,-7.68721
1427147382.678,-5.189415
1427147382.694,-2.1510162
1427147382.709,1.2536621
1427147382.725,4.689789
1427147382.741,7.7841263
1427147382.756,10.297798
1427147382.772,12.237343
1427147382.787,13.872612
1427147382.803,15.613052
1427147382.819,17.890816
1427147382.834,20.99044
1427147382.85,25.01342
1427147382.866,29.747643
1427147382.881,34.660645
1427147382.897,38.88031
1427147382.912,41.38124
1427147382.928,41.259735
1427147382.944,38.07167
1427147382.959,32.11451
1427147382.975,24.35691
1427147382.991,16.12114
1427147383.006,8.655617
1427147383.022,2.7194672
1427147383.037,-1.5125732
1427147383.053,-4.3255157
1427147383.069,-6.12545
1427147383.084,-7.194641
1427147383.1,-7.5987167
1427147383.116,-7.2936172
1427147383.131,-6.3214874
1427147383.147,-4.9629517
1427147383.162,-3.6878052
1427147383.178,-2.991272
1427147383.194,-3.1517181
1427147383.209,-4.1203156
1427147383.225,-5.543129
1427147383.241,-6.99205
1427147383.256,-8.148178
1427147383.272,-8.907921
1427147383.287,-9.330978
1427147383.303,-9.5323715
1427147383.319,-9.488548
1427147383.334,-9.055405
1427147383.35,-7.9823227
1427147383.366,-6.0766068
1427147383.381,-3.291748
1427147383.397,0.22577667
1427147383.412,4.217903
1427147383.428,8.385124
1427147383.444,12.502655
1427147383.459,16.460579
1427147383.475,20.273048
1427147383.491,23.99627
1427147383.506,27.657661
1427147383.522,31.178413
1427147383.537,34.328163
1427147383.553,36.790604
1427147383.569,38.235283
1427147383.584,38.447224
1427147383.6,37.35997
1427147383.616,35.091812
1427147383.631,31.937164
1427147383.647,28.21764
1427147383.662,24.205135
1427147383.678,19.975803
1427147383.694,15.38834
1427147383.709,10.13921
1427147383.725,3.9678726
1427147383.741,-3.1575813
1427147383.756,-10.913132
1427147383.772,-18.69526
1427147383.787,-25.790245
1427147383.803,-31.63821
1427147383.819,-35.986904
1427147383.834,-38.955418
1427147383.85,-40.83779
1427147383.866,-41.93442
1427147383.881,-42.390774
1427147383.897,-42.14274
1427147383.912,-41.02951
1427147383.928,-38.952034
1427147383.944,-36.010532
1427147383.959,-32.563274
1427147383.975,-29.125881
1427147383.991,-26.183084
1427147384.006,-24.006124
1427147384.022,-22.539507
1427147384.037,-21.491192
1427147384.053,-20.54674
1427147384.069,-19.54891
1427147384.084,-18.565418
1427147384.1,-17.719934
1427147384.116,-17.006054
1427147384.131,-16.150936
1427147384.147,-14.692751
1427147384.162,-12.236866
1427147384.178,-8.718807
1427147384.194,-4.4564295
1427147384.209,-0.016550064
1427147384.225,4.0831757
1427147384.241,7.596409
1427147384.256,10.553643
1427147384.272,13.098161
1427147384.287,15.256005
1427147384.303,16.893927
1427147384.319,17.838371
1427147384.334,18.103495
1427147384.35,18.0838
1427147384.366,18.481853
1427147384.381,20.058708
1427147384.397,23.280777
1427147384.412,28.13808
1427147384.428,34.070614
1427147384.444,40.164825
1427147384.459,45.373177
1427147384.475,48.767128
1427147384.491,49.677242
1427147384.506,47.775257
1427147384.522,43.15463
1427147384.537,36.37984
1427147384.553,28.379086
1427147384.569,20.264626
1427147384.584,13.042938
1427147384.6,7.3314543
1427147384.616,3.206791
1427147384.631,0.33933258
1427147384.647,-1.786459
1427147384.662,-3.5372543
1427147384.678,-5.0386276
1427147384.694,-6.165264
1427147384.709,-6.7819023
1427147384.725,-6.898033
1427147384.741,-6.7889004
1427147384.756,-6.885998
1427147384.772,-7.6466274
1427147384.787,-9.366842
1427147384.803,-12.098648
1427147384.819,-15.63102
1427147384.834,-19.570148
1427147384.85,-23.444096
1427147384.866,-26.776718
1427147384.881,-29.196651
1427147384.897,-30.504028
1427147384.912,-30.651901
1427147384.928,-29.786049
1427147384.944,-28.113556
1427147384.959,-25.85133
1427147384.975,-23.147072
1427147384.991,-20.094448
1427147385.006,-16.725597
1427147385.022,-13.100685
1427147385.038,-9.304157
1427147385.053,-5.4479294
1427147385.069,-1.6435089
1427147385.084,1.9947052
1427147385.1,5.411133
1427147385.116,8.518173
1427147385.131,11.252205
1427147385.147,13.5542145
1427147385.162,15.460556
1427147385.178,17.103745
1427147385.194,18.702522
1427147385.209,20.445
1427147385.225,22.366966
1427147385.241,24.237091
1427147385.256,25.586258
1427147385.272,25.791817
1427147385.288,24.28566
1427147385.303,20.737656
1427147385.319,15.181656
1427147385.334,8.053032
1427147385.35,0.10330963
1427147385.366,-7.7275314
1427147385.381,-14.52623
1427147385.397,-19.633293
1427147385.413,-22.733368
1427147385.428,-23.969719
1427147385.444,-23.79596
1427147385.459,-22.82772
1427147385.475,-21.57399
1427147385.491,-20.339409
1427147385.506,-19.207993
1427147385.522,-18.202065
1427147385.538,-17.382362
1427147385.553,-16.923271
1427147385.569,-16.98349
1427147385.584,-17.596672
1427147385.6,-18.570877
1427147385.616,-19.57566
1427147385.631,-20.285568
1427147385.647,-20.508682
1427147385.663,-20.227524
1427147385.678,-19.508415
1427147385.694,-18.389313
1427147385.709,-16.840149
1427147385.725,-14.818199
1427147385.741,-12.390312
1427147385.756,-9.725037
1427147385.772,-7.079254
1427147385.788,-4.6711273
1427147385.803,-2.6087418
1427147385.819,-0.8770523
1427147385.834,0.5749359
1427147385.85,1.8227997
1427147385.866,2.9474716
1427147385.881,4.0782013
1427147385.897,5.407234
1427147385.913,7.1308365
1427147385.928,9.407982
1427147385.944,12.277023
1427147385.959,15.665741
1427147385.975,19.399002
1427147385.991,23.196854
1427147386.006,26.592216
1427147386.022,28.925362
1427147386.038,29.466164
1427147386.053,27.598305
1427147386.069,23.17025
1427147386.084,16.61193
1427147386.1,8.920731
1427147386.116,1.2702026
1427147386.131,-5.3305283
1427147386.147,-10.368774
1427147386.163,-13.842598
1427147386.178,-16.130562
1427147386.194,-17.67965
1427147386.209,-18.785576
1427147386.225,-19.504585
1427147386.241,-19.765755
1427147386.256,-19.520317
1427147386.272,-18.879456
1427147386.288,-18.151817
1427147386.303,-17.715385
1427147386.319,-17.843239
1427147386.334,-18.567017
1427147386.35,-19.62246
1427147386.366,-20.664803
1427147386.381,-21.379044
1427147386.397,-21.664108
1427147386.413,-21.591377
1427147386.428,-21.295204
1427147386.444,-20.793472
1427147386.459,-19.975777
1427147386.475,-18.622658
1427147386.491,-16.581474
1427147386.506,-13.835381
1427147386.522,-10.520149
1427147386.538,-6.8481674
1427147386.553,-3.0402832
1427147386.569,0.70323944
1427147386.584,4.240593
1427147386.6,7.5526657
1427147386.616,10.722977
1427147386.631,13.968971
1427147386.647,17.54853
1427147386.663,21.648544
1427147386.678,26.158676
1427147386.694,30.686325
1427147386.709,34.561264
1427147386.725,37.085274
1427147386.741,37.69182
1427147386.756,36.137497
1427147386.772,32.48809
1427147386.788,27.150414
1427147386.803,20.693405
1427147386.819,13.800781
1427147386.834,7.137718
1427147386.85,1.2355423
1427147386.866,-3.6135025
1427147386.881,-7.3731537
1427147386.897,-10.224876
1427147386.913,-12.424286
1427147386.928,-14.164261
1427147386.944,-15.494331
1427147386.959,-16.388474
1427147386.975,-16.82766
1427147386.991,-16.978241
1427147387.006,-17.156837
1427147387.022,-17.733719
1427147387.038,-18.903381
1427147387.053,-20.544739
1427147387.069,-22.23574
1427147387.084,-23.5018
1427147387.1,-24.050385
1427147387.116,-23.935707
1427147387.131,-23.497131
1427147387.147,-23.13198
1427147387.163,-22.964386
1427147387.178,-22.78672
1427147387.194,-22.138077
1427147387.209,-20.592087
1427147387.225,-18.000282
1427147387.241,-14.607513
1427147387.256,-10.881996
1427147387.272,-7.295906
1427147387.288,-4.0701065
1427147387.303,-1.1012497
1427147387.319,1.9056473
1427147387.334,5.251587
1427147387.35,9.070168
1427147387.366,13.2736435
1427147387.381,17.67553
1427147387.397,22.084862
1427147387.413,26.427528
1427147387.428,30.66594
1427147387.444,34.6522
1427147387.459,37.97039
1427147387.475,39.97638
1427147387.491,39.938843
1427147387.506,37.381187
1427147387.522,32.268303
1427147387.538,25.102707
1427147387.553,16.726738
1427147387.569,8.056511
1427147387.584,-0.11803436
1427147387.6,-7.2148056
1427147387.616,-12.805115
1427147387.631,-16.512772
1427147387.647,-18.042366
1427147387.663,-17.274803
1427147387.678,-14.412979
1427147387.694,-10.021263
1427147387.709,-4.989769
1427147387.725,-0.2703247
1427147387.741,3.3318024
1427147387.756,5.351116
1427147387.772,5.694763
1427147387.788,4.6146736
1427147387.803,2.561222
1427147387.819,0.06554413
1427147387.834,-2.428913
1427147387.85,-4.663769
1427147387.866,-6.597748
1427147387.881,-8.324055
1427147387.897,-9.941727
1427147387.913,-11.381786
1427147387.928,-12.407059
1427147387.944,-12.673847
1427147387.96,-11.983032
1427147387.975,-10.359192
1427147387.991,-8.142475
1427147388.006,-5.806736
1427147388.022,-3.7719154
1427147388.038,-2.1732445
1427147388.053,-0.8581886
1427147388.069,0.49288177
1427147388.085,2.1261292
1427147388.1,4.0915604
1427147388.116,6.2074585
1427147388.131,8.176441
1427147388.147,9.770882
1427147388.163,10.987602
1427147388.178,12.030888
1427147388.194,13.269032
1427147388.21,15.067825
1427147388.225,17.668251
1427147388.241,21.076824
1427147388.256,25.061935
1427147388.272,29.152496
1427147388.288,32.708046
1427147388.303,34.97344
1427147388.319,35.25976
1427147388.335,33.080395
1427147388.35,28.3759
1427147388.366,21.548504
1427147388.381,13.436382
1427147388.397,5.038803
1427147388.413,-2.7399254
1427147388.428,-9.324688
1427147388.444,-14.5075
1427147388.46,-18.329693
1427147388.475,-20.903145
1427147388.491,-22.332241
1427147388.506,-22.739475
1427147388.522,-22.420216
1427147388.538,-21.853825
1427147388.553,-21.655842
1427147388.569,-22.287079
1427147388.585,-23.872059
1427147388.6,-26.14106
1427147388.616,-28.576633
1427147388.631,-30.69339
1427147388.647,-32.271564
1427147388.663,-33.31916
1427147388.678,-33.98768
1427147388.694,-34.348152
1427147388.71,-34.361717
1427147388.725,-33.886684
1427147388.741,-32.84331
1427147388.756,-31.266396
1427147388.772,-29.243668
1427147388.788,-26.827599
1427147388.803,-23.98566
1427147388.819,-20.645863
1427147388.835,-16.854118
1427147388.85,-12.861036
1427147388.866,-9.105278
1427147388.881,-6.0093136
1427147388.897,-3.764761
1427147388.913,-2.2114792
1427147388.928,-0.934988
1427147388.944,0.50795555
1427147388.96,2.315567
1427147388.975,4.4141846
1427147388.991,6.524002
1427147389.006,8.407341
1427147389.022,10.019444
1427147389.038,11.5797415
1427147389.053,13.384331
1427147389.069,15.689401
1427147389.085,18.607393
1427147389.1,22.133507
1427147389.116,26.192383
1427147389.131,30.658188
1427147389.147,35.25048
1427147389.163,39.434933
1427147389.178,42.43828
1427147389.194,43.462254
1427147389.21,41.973125
1427147389.225,38.021156
1427147389.241,32.19465
1427147389.256,25.399515
1427147389.272,18.4944
1427147389.288,12.08281
1427147389.303,6.408869
1427147389.319,1.5409651
1427147389.335,-2.4939566
1427147389.35,-5.6303253
1427147389.366,-7.826206
1427147389.381,-9.148592
1427147389.397,-9.826786
1427147389.413,-10.191057
1427147389.428,-10.594931
1427147389.444,-11.313053
1427147389.46,-12.557768
1427147389.475,-14.414391
1427147389.491,-16.89515
1427147389.506,-19.85071
1427147389.522,-23.022291
1427147389.538,-26.030174
1427147389.553,-28.540142
1427147389.569,-30.316307
1427147389.585,-31.271507
1427147389.6,-31.400047
1427147389.616,-30.7359
1427147389.631,-29.292015
1427147389.647,-27.138386
1427147389.663,-24.399532
1427147389.678,-21.316376
1427147389.694,-18.120335
1427147389.71,-15.027874
1427147389.725,-12.140919
1427147389.741,-9.482994
1427147389.756,-7.027546
1427147389.772,-4.7626915
1427147389.788,-2.6635437
1427147389.803,-0.71079636
1427147389.819,1.169651
1427147389.835,3.0837097
1427147389.85,5.1272736
1427147389.866,7.3455048
1427147389.881,9.660187
1427147389.897,11.892097
1427147389.913,13.821808
1427147389.928,15.279961
1427147389.944,16.253265
1427147389.96,16.919586
1427147389.975,17.712463
1427147389.991,19.117393
1427147390.006,21.579712
1427147390.022,25.226295
1427147390.038,29.762268
1427147390.053,34.442024
1427147390.069,38.268974
1427147390.085,40.268463
1427147390.1,39.783104
1427147390.116,36.687004
1427147390.131,31.416992
1427147390.147,24.800537
1427147390.163,17.82811
1427147390.178,11.363098
1427147390.194,5.922615
1427147390.21,1.6443863
1427147390.225,-1.611206
1427147390.241,-4.089325
1427147390.256,-5.9460907
1427147390.272,-7.2007675
1427147390.288,-7.8233795
1427147390.303,-7.900131
1427147390.319,-7.675804
1427147390.335,-7.551468
1427147390.35,-7.8719635
1427147390.366,-8.815857
1427147390.381,-10.271721
1427147390.397,-12.016838
1427147390.413,-13.765289
1427147390.428,-15.394943
1427147390.444,-16.883766
1427147390.46,-18.275162
1427147390.475,-19.54982
1427147390.491,-20.622604
1427147390.506,-21.325272
1427147390.522,-21.48146
1427147390.538,-20.908234
1427147390.553,-19.50827
1427147390.569,-17.266556
1427147390.585,-14.340073
1427147390.6,-11.039429
1427147390.616,-7.7837677
1427147390.632,-4.8889313
1427147390.647,-2.4875183
1427147390.663,-0.46394348
1427147390.678,1.3850555
1427147390.694,3.1886444
1427147390.71,4.908661
1427147390.725,6.4716644
1427147390.741,7.8773193
1427147390.757,9.298843
1427147390.772,10.997314
1427147390.788,13.15329
1427147390.803,15.655167
1427147390.819,18.191391
1427147390.835,20.423538
1427147390.85,22.239532
1427147390.866,23.82785
1427147390.882,25.557938
1427147390.897,27.665192
1427147390.913,30.09404
1427147390.928,32.37326
1427147390.944,33.834854
1427147390.96,33.840073
1427147390.975,32.054306
1427147390.991,28.520187
1427147391.007,23.635315
1427147391.022,17.997223
1427147391.038,12.236145
1427147391.053,6.895035
1427147391.069,2.3726196
1427147391.085,-1.1230164
1427147391.1,-3.5220032
1427147391.116,-4.8988953
1427147391.132,-5.435089
1427147391.147,-5.4121246
1427147391.163,-5.129959
1427147391.178,-4.8485565
1427147391.194,-4.749115
1427147391.21,-4.933792
1427147391.225,-5.4252777
1427147391.241,-6.2417297
1427147391.257,-7.346039
1427147391.272,-8.663666
1427147391.288,-9.9765625
1427147391.303,-11.054108
1427147391.319,-11.714294
1427147391.335,-11.949295
1427147391.35,-11.915939
1427147391.366,-11.830078
1427147391.382,-11.789429
1427147391.397,-11.70163
1427147391.413,-11.334915
1427147391.428,-10.505249
1427147391.444,-9.261124
1427147391.46,-7.8710327
1427147391.475,-6.662857
1427147391.491,-5.810913
1427147391.507,-5.1987
1427147391.522,-4.535721
1427147391.538,-3.5005035
1427147391.553,-2.0001526
1427147391.569,-0.15194702
1427147391.585,1.7996979
1427147391.6,3.681839
1427147391.616,5.460602
1427147391.632,7.226288
1427147391.647,9.115265
1427147391.663,11.257843
1427147391.678,13.754654
1427147391.694,16.713501
1427147391.71,20.210144
1427147391.725,24.251297
1427147391.741,28.581238
1427147391.757,32.70848
1427147391.772,35.897827
1427147391.788,37.406296
1427147391.803,36.71277
1427147391.819,33.70816
1427147391.835,28.711884
1427147391.85,22.37291
1427147391.866,15.488144
1427147391.882,8.804642
1427147391.897,2.9087677
1427147391.913,-1.8380432
1427147391.928,-5.2591248
1427147391.944,-7.3367004
1427147391.96,-8.219574
1427147391.975,-8.182526
1427147391.991,-7.613968
1427147392.007,-6.9243774
1427147392.022,-6.5493774
1427147392.038,-6.725601
1427147392.053,-7.522873
1427147392.069,-8.851761
1427147392.085,-10.503021
1427147392.1,-12.2500305
1427147392.116,-13.957428
1427147392.132,-15.577057
1427147392.147,-17.10942
1427147392.163,-18.54625
1427147392.178,-19.80986
1427147392.194,-20.691483
1427147392.21,-20.92659
1427147392.225,-20.24237
1427147392.241,-18.561539
1427147392.257,-16.057816
1427147392.272,-13.175644
1427147392.288,-10.406174
1427147392.303,-8.158859
1427147392.319,-6.5242157
1427147392.335,-5.3525085
1427147392.35,-4.38356
1427147392.366,-3.3901672
1427147392.382,-2.2729034
1427147392.397,-0.9786377
1427147392.413,0.57444763
1427147392.428,2.5278625
1427147392.444,4.949829
1427147392.46,7.6755524
1427147392.475,10.363937
1427147392.491,12.546875
1427147392.507,14.026779
1427147392.522,14.984604
1427147392.538,15.983673
1427147392.553,17.611237
1427147392.569,20.10614
1427147392.585,23.095245
1427147392.6,25.793182
1427147392.616,27.229477
1427147392.632,26.695969
1427147392.647,23.965286
1427147392.663,19.344574
1427147392.678,13.485764
1427147392.694,7.192795
1427147392.71,1.2121277
1427147392.725,-3.9151
1427147392.741,-7.9019165
1427147392.757,-10.685318
1427147392.772,-12.390091
1427147392.788,-13.113754
1427147392.803,-12.92421
1427147392.819,-11.83255
1427147392.835,-9.955582
1427147392.85,-7.5904083
1427147392.866,-5.2936096
1427147392.882,-3.6723328
1427147392.897,-3.2003174
1427147392.913,-4.023529
1427147392.928,-5.899124
1427147392.944,-8.307434
1427147392.96,-10.68927
1427147392.975,-12.537033
1427147392.991,-13.556427
1427147393.007,-13.706238
1427147393.022,-13.197922
1427147393.038,-12.392578
1427147393.053,-11.689697
1427147393.069,-11.298508
1427147393.085,-11.171066
1427147393.1,-10.979965
1427147393.116,-10.348389
1427147393.132,-8.991608
1427147393.147,-6.9148254
1427147393.163,-4.2189026
1427147393.178,-1.0902557
1427147393.194,2.368988
1427147393.21,6.089752
1427147393.225,9.910248
1427147393.241,13.539825
1427147393.257,16.606201
1427147393.272,18.885666
1427147393.288,20.503723
1427147393.304,21.945633
1427147393.319,23.801178
1427147393.335,26.359879
1427147393.35,29.45343
1427147393.366,32.376953
1427147393.382,34.211365
1427147393.397,34.121674
1427147393.413,31.76744
1427147393.428,27.261078
1427147393.444,21.127884
1427147393.46,14.0681305
1427147393.475,6.768753
1427147393.491,-0.22805786
1427147393.507,-6.4731293
1427147393.522,-11.60553
1427147393.538,-15.245316
1427147393.554,-17.140945
1427147393.569,-17.235138
1427147393.585,-15.820511
1427147393.6,-13.488937
1427147393.616,-11.016754
1427147393.632,-9.111099
1427147393.647,-8.212357
1427147393.663,-8.378372
1427147393.679,-9.357193
1427147393.694,-10.746643
1427147393.71,-12.214249
1427147393.725,-13.553909
1427147393.741,-14.686569
1427147393.757,-15.584869
1427147393.772,-16.18602
1427147393.788,-16.363525
1427147393.804,-15.998245
1427147393.819,-15.019302
1427147393.835,-13.489334
1427147393.85,-11.589142
1427147393.866,-9.543625
1427147393.882,-7.4868774
1427147393.897,-5.4266357
1427147393.913,-3.147995
1427147393.929,-0.43223572
1427147393.944,2.801056
1427147393.96,6.3326263
1427147393.975,9.773819
1427147393.991,12.676987
1427147394.007,14.815399
1427147394.022,16.248795
1427147394.038,17.28714
1427147394.054,18.334366
1427147394.069,19.74733
1427147394.085,21.765228
1427147394.1,24.529846
1427147394.116,28.017075
1427147394.132,31.997162
1427147394.147,35.89673
1427147394.163,38.894287
1427147394.179,40.032898
1427147394.194,38.651016
1427147394.21,34.604797
1427147394.225,28.414429
1427147394.241,21.030777
1427147394.257,13.567444
1427147394.272,6.9356995
1427147394.288,1.7830048
1427147394.304,-1.6472168
1427147394.319,-3.4459686
1427147394.335,-4.040634
1427147394.35,-4.039383
1427147394.366,-4.14624
1427147394.382,-4.847946
1427147394.397,-6.3077545
1427147394.413,-8.308395
1427147394.429,-10.473145
1427147394.444,-12.483994
1427147394.46,-14.280174
1427147394.475,-15.955132
1427147394.491,-17.666504
1427147394.507,-19.426353
1427147394.522,-21.116081
1427147394.538,-22.54969
1427147394.554,-23.662415
1427147394.569,-24.48851
1427147394.585,-25.108177
1427147394.6,-25.489967
1427147394.616,-25.451195
1427147394.632,-24.695717
1427147394.647,-23.021645
1427147394.663,-20.363083
1427147394.679,-16.891006
1427147394.694,-12.940086
1427147394.71,-8.903023
1427147394.725,-5.1273956
1427147394.741,-1.8801193
1427147394.757,0.73734283
1427147394.772,2.7412033
1427147394.788,4.2927246
1427147394.804,5.6078415
1427147394.819,6.9321136
1427147394.835,8.442322
1427147394.85,10.375832
1427147394.866,12.93824
1427147394.882,16.34703
1427147394.897,20.638283
1427147394.913,25.604424
1427147394.929,30.640068
1427147394.944,34.919167
1427147394.96,37.567596
1427147394.975,37.97557
1427147394.991,35.93126
1427147395.007,31.676659
1427147395.022,25.769485
1427147395.038,19.003662
1427147395.054,12.16114
1427147395.069,5.9254456
1427147395.085,0.7203064
1427147395.1,-3.3114166
1427147395.116,-6.3238144
1427147395.132,-8.60717
1427147395.147,-10.459053
1427147395.163,-12.030624
1427147395.179,-13.306541
1427147395.194,-14.22937
1427147395.21,-14.841171
1427147395.225,-15.2758255
1427147395.241,-15.772636
1427147395.257,-16.503479
1427147395.272,-17.520813
1427147395.288,-18.725586
1427147395.304,-20.01756
1427147395.319,-21.306904
1427147395.335,-22.560364
1427147395.35,-23.717041
1427147395.366,-24.64822
1427147395.382,-25.15844
1427147395.397,-25.062828
1427147395.413,-24.218578
1427147395.429,-22.606369
1427147395.444,-20.324371
1427147395.46,-17.593376
1427147395.475,-14.700481
1427147395.491,-11.984901
1427147395.507,-9.7291565
1427147395.522,-8.056622
1427147395.538,-6.853977
1427147395.554,-5.7792892
1427147395.569,-4.404999
1427147395.585,-2.4575577
1427147395.6,0.033542633
1427147395.616,2.6882324
1427147395.632,5.0138397
1427147395.647,6.619129
1427147395.663,7.4801674
1427147395.679,7.9481773
1427147395.694,8.61219
1427147395.71,10.0209465
1427147395.725,12.500671
1427147395.741,16.029755
1427147395.757,20.270027
1427147395.772,24.644623
1427147395.788,28.491886
1427147395.804,31.129272
1427147395.819,31.977898
1427147395.835,30.67878
1427147395.85,27.203613
1427147395.866,21.850609
1427147395.882,15.239262
1427147395.897,8.159958
1427147395.913,1.4520111
1427147395.929,-4.1845016
1427147395.944,-8.279596
1427147395.96,-10.723185
1427147395.976,-11.747097
1427147395.991,-11.811035
1427147396.007,-11.455832
1427147396.022,-11.087059
1427147396.038,-10.834715
1427147396.054,-10.616867
1427147396.069,-10.269495
1427147396.085,-9.7815075
1427147396.1,-9.322966
1427147396.116,-9.214252
1427147396.132,-9.700708
1427147396.147,-10.824684
1427147396.163,-12.346758
1427147396.179,-13.910145
1427147396.194,-15.162317
1427147396.21,-15.908686
1427147396.226,-16.04665
1427147396.241,-15.5742035
1427147396.257,-14.492479
1427147396.272,-12.905979
1427147396.288,-11.041964
1427147396.304,-9.248056
1427147396.319,-7.8357477
1427147396.335,-6.9005814
1427147396.351,-6.203476
1427147396.366,-5.223221
1427147396.382,-3.4035606
1427147396.397,-0.44797516
1427147396.413,3.5359144
1427147396.429,8.022297
1427147396.444,12.235827
1427147396.46,15.319475
1427147396.476,16.578625
1427147396.491,15.689339
1427147396.507,12.915845
1427147396.522,9.112062
1427147396.538,5.57829
1427147396.554,3.6207771
1427147396.569,4.0136523
1427147396.585,6.573493
1427147396.601,10.171015
1427147396.616,13.126661
1427147396.632,13.949122
1427147396.647,11.909672
1427147396.663,7.31903
1427147396.679,1.2895317
1427147396.694,-4.802794
1427147396.71,-9.913094
1427147396.726,-13.566646
1427147396.741,-15.858147
1427147396.757,-17.139896
1427147396.772,-17.762867
1427147396.788,-17.838018
1427147396.804,-17.345095
1427147396.819,-16.210508
1427147396.835,-14.562608
1427147396.851,-12.768768
1427147396.866,-11.378145
1427147396.882,-10.854237
1427147396.897,-11.393282
1427147396.913,-12.758172
1427147396.929,-14.422628
1427147396.944,-15.8322525
1427147396.96,-16.69828
1427147396.976,-17.084225
1427147396.991,-17.35051
1427147397.007,-17.795635
1427147397.022,-18.479364
1427147397.038,-19.114197
1427147397.054,-19.231625
1427147397.069,-18.481297
1427147397.085,-16.818985
1427147397.101,-14.511547
1427147397.116,-11.99977
1427147397.132,-9.604402
1427147397.147,-7.4246273
1427147397.163,-5.337495
1427147397.179,-3.1359348
1427147397.194,-0.7066107
1427147397.21,1.913765
1427147397.226,4.571913
1427147397.241,7.113571
1427147397.257,9.490387
1427147397.272,11.774715
1427147397.288,14.115486
1427147397.304,16.664503
1427147397.319,19.532227
1427147397.335,22.741112
1427147397.351,26.25389
1427147397.366,29.882341
1427147397.382,33.303135
1427147397.397,36.018837
1427147397.413,37.438557
1427147397.429,37.049877
1427147397.444,34.615097
1427147397.46,30.301872
1427147397.476,24.750904
1427147397.491,18.840149
1427147397.507,13.437969
1427147397.522,9.125355
1427147397.538,6.045473
1427147397.554,3.9297447
1427147397.569,2.288044
1427147397.585,0.63482285
1427147397.601,-1.3134632
1427147397.616,-3.632681
1427147397.632,-6.208334
1427147397.647,-8.861391
1427147397.663,-11.418949
1427147397.679,-13.764324
1427147397.694,-15.811762
1427147397.71,-17.546621
1427147397.726,-18.986938
1427147397.741,-20.220972
1427147397.757,-21.34861
1427147397.772,-22.467224
1427147397.788,-23.571234
1427147397.804,-24.518118
1427147397.819,-25.052439
1427147397.835,-24.859932
1427147397.851,-23.694056
1427147397.866,-21.475508
1427147397.882,-18.354908
1427147397.897,-14.700428
1427147397.913,-10.986673
1427147397.929,-7.690956
1427147397.944,-5.108885
1427147397.96,-3.312786
1427147397.976,-2.078373
1427147397.991,-1.0588436
1427147398.007,0.11361122
1427147398.022,1.6380749
1427147398.038,3.5529194
1427147398.054,5.7155437
1427147398.069,7.9634724
1427147398.085,10.185638
1427147398.101,12.417425
1427147398.116,14.758471
1427147398.132,17.319296
1427147398.147,20.127386
1427147398.163,23.091208
1427147398.179,26.028019
1427147398.194,28.688768
1427147398.21,30.768023
1427147398.226,31.973333
1427147398.241,32.02313
1427147398.257,30.737644
1427147398.272,28.111275
1427147398.288,24.346727
1427147398.304,19.86242
1427147398.319,15.192951
1427147398.335,10.843985
1427147398.351,7.1609936
1427147398.366,4.2371063
1427147398.382,1.9655437
1427147398.397,0.107975006
1427147398.413,-1.5605488
1427147398.429,-3.1924534
1427147398.444,-4.852846
1427147398.46,-6.5483704
1427147398.476,-8.241245
1427147398.491,-9.900532
1427147398.507,-11.479607
1427147398.522,-12.944981
1427147398.538,-14.302864
1427147398.554,-15.556036
1427147398.569,-16.72073
1427147398.585,-17.794191
1427147398.601,-18.709208
1427147398.616,-19.366571
1427147398.632,-19.649918
1427147398.647,-19.480808
1427147398.663,-18.85469
1427147398.679,-17.880014
1427147398.694,-16.700706
1427147398.71,-15.468231
1427147398.726,-14.301994
1427147398.741,-13.252558
1427147398.757,-12.297264
1427147398.772,-11.36158
1427147398.788,-10.324247
1427147398.804,-9.067692
1427147398.819,-7.524967
1427147398.835,-5.70875
1427147398.851,-3.7290726
1427147398.866,-1.7697487
1427147398.882,0.030069351
1427147398.898,1.6324539
1427147398.913,3.173771
1427147398.929,4.924671
1427147398.944,7.2590256
1427147398.96,10.46616
1427147398.976,14.666279
1427147398.991,19.613993
1427147399.007,24.706188
1427147399.023,29.078283
1427147399.038,31.79748
1427147399.054,32.148254
1427147399.069,29.866825
1427147399.085,25.216951
1427147399.101,18.951052
1427147399.116,12.069748
1427147399.132,5.5469913
1427147399.148,0.09053993
1427147399.163,-3.939272
1427147399.179,-6.5799294
1427147399.194,-8.120541
1427147399.21,-8.955507
1427147399.226,-9.452408
1427147399.241,-9.859547
1427147399.257,-10.249529
1427147399.273,-10.593193
1427147399.288,-10.803009
1427147399.304,-10.824465
1427147399.319,-10.694687
1427147399.335,-10.518919
1427147399.351,-10.445152
1427147399.366,-10.594149
1427147399.382,-11.015484
1427147399.398,-11.663513
1427147399.413,-12.424625
1427147399.429,-13.155384
1427147399.444,-13.715
1427147399.46,-13.996403
1427147399.476,-13.909496
1427147399.491,-13.4269905
1427147399.507,-12.552177
1427147399.523,-11.335068
1427147399.538,-9.832325
1427147399.554,-8.138065
1427147399.569,-6.3217773
1427147399.585,-4.4851875
1427147399.601,-2.6796036
1427147399.616,-0.93211365
1427147399.632,0.770298
1427147399.648,2.4610634
1427147399.663,4.1587143
1427147399.679,5.870182
1427147399.694,7.617859
1427147399.71,9.4730835
1427147399.726,11.61512
1427147399.741,14.247982
1427147399.757,17.481918
1427147399.773,21.180126
1427147399.788,24.864433
1427147399.804,27.80183
1427147399.819,29.219841
1427147399.835,28.537262
1427147399.851,25.589397
1427147399.866,20.637173
1427147399.882,14.308056
1427147399.898,7.3651505
1427147399.913,0.6143799
1427147399.929,-5.297741
1427147399.944,-9.957401
1427147399.96,-13.2470665
1427147399.976,-15.27108
1427147399.991,-16.28672
1427147400.007,-16.568989
1427147400.023,-16.314198
1427147400.038,-15.652626
1427147400.054,-14.687901
1427147400.069,-13.565517
1427147400.085,-12.490051
1427147400.101,-11.610359
1427147400.116,-10.998497
1427147400.132,-10.57444
1427147400.148,-10.2211075
1427147400.163,-9.82793
1427147400.179,-9.437698
1427147400.194,-9.136139
1427147400.21,-9.013763
1427147400.226,-9.041248
1427147400.241,-9.073765
1427147400.257,-8.883263
1427147400.273,-8.249981
1427147400.288,-7.0047493
1427147400.304,-5.065918
1427147400.319,-2.469883
1427147400.335,0.6158905
1427147400.351,3.8798447
1427147400.366,6.9328194
1427147400.382,9.450317
1427147400.398,11.279022
1427147400.413,12.544445
1427147400.429,13.607567
1427147400.444,14.893738
1427147400.46,16.701042
1427147400.476,19.164474
1427147400.491,22.210049
1427147400.507,25.663086
1427147400.523,29.242294
1427147400.538,32.576866
1427147400.554,35.162983
1427147400.569,36.403755
1427147400.585,35.759735
1427147400.601,32.955437
1427147400.616,28.149506
1427147400.632,21.967312
1427147400.648,15.2897835
1427147400.663,9.057831
1427147400.679,3.8801346
1427147400.694,-0.005378723
1427147400.71,-2.8020287
1427147400.726,-4.8604546
1427147400.741,-6.537937
1427147400.757,-7.987278
1427147400.773,-9.221298
1427147400.788,-10.216778
1427147400.804,-11.001476
1427147400.819,-11.725101
1427147400.835,-12.558502
1427147400.851,-13.559742
1427147400.866,-14.642632
1427147400.882,-15.613468
1427147400.898,-16.323055
1427147400.913,-16.754341
1427147400.929,-17.049934
1427147400.944,-17.358364
1427147400.96,-17.743195
1427147400.976,-18.069206
1427147400.991,-18.088974
1427147401.007,-17.534664
1427147401.023,-16.273426
1427147401.038,-14.296837
1427147401.054,-11.720955
1427147401.069,-8.744106
1427147401.085,-5.613529
1427147401.101,-2.5859566
1427147401.116,0.058937073
1427147401.132,2.1141968
1427147401.148,3.4800262
1427147401.163,4.2232666
1427147401.179,4.5302544
1427147401.194,4.6485405
1427147401.21,4.831703
1427147401.226,5.368782
1427147401.241,6.5357323
1427147401.257,8.610847
1427147401.273,11.7512665
1427147401.288,15.888935
1427147401.304,20.579659
1427147401.319,25.086365
1427147401.335,28.474781
1427147401.351,29.965172
1427147401.366,29.129333
1427147401.382,26.036743
1427147401.398,21.19215
1427147401.413,15.388081
1427147401.429,9.432911
1427147401.444,3.999817
1427147401.46,-0.5316353
1427147401.476,-4.0576515
1427147401.491,-6.7257347
1427147401.507,-8.788887
1427147401.523,-10.526581
1427147401.538,-12.1593895
1427147401.554,-13.805954
1427147401.57,-15.445824
1427147401.585,-16.998878
1427147401.601,-18.287285
1427147401.616,-19.159405
1427147401.632,-19.52013
1427147401.648,-19.467476
1427147401.663,-19.218044
1427147401.679,-19.087204
1427147401.695,-19.370945
1427147401.71,-20.286861
1427147401.726,-21.884808
1427147401.741,-24.02182
1427147401.757,-26.345203
1427147401.773,-28.354553
1427147401.788,-29.458721
1427147401.804,-29.14077
1427147401.82,-27.135479
1427147401.835,-23.56461
1427147401.851,-18.912823
1427147401.866,-13.919922
1427147401.882,-9.324322
1427147401.898,-5.687889
1427147401.913,-3.2027817
1427147401.929,-1.7697945
1427147401.945,-1.0537605
1427147401.96,-0.6603546
1427147401.976,-0.15685654
1427147401.991,0.811573
1427147402.007,2.5151863
1427147402.023,5.0791626
1427147402.038,8.490532
1427147402.054,12.594818
1427147402.07,17.177341
1427147402.085,22.01902
1427147402.101,26.86993
1427147402.116,31.450172
1427147402.132,35.42289
1427147402.148,38.37594
1427147402.163,39.903294
1427147402.179,39.662003
1427147402.195,37.52058
1427147402.21,33.53254
1427147402.226,28.008839
1427147402.241,21.411392
1427147402.257,14.364773
1427147402.273,7.482788
1427147402.288,1.3202171
1427147402.304,-3.741333
1427147402.32,-7.4980545
1427147402.335,-9.978008
1427147402.351,-11.347744
1427147402.366,-11.846081
1427147402.382,-11.726868
1427147402.398,-11.221352
1427147402.413,-10.551327
1427147402.429,-9.989681
1427147402.445,-9.78669
1427147402.46,-10.193115
1427147402.476,-11.313099
1427147402.491,-13.084812
1427147402.507,-15.225555
1427147402.523,-17.39264
1427147402.538,-19.234413
1427147402.554,-20.58014
1427147402.57,-21.444359
1427147402.585,-21.951832
1427147402.601,-22.231693
1427147402.616,-22.302021
1427147402.632,-22.049263
1427147402.648,-21.303505
1427147402.663,-20.016315
1427147402.679,-18.296822
1427147402.695,-16.410011
1427147402.71,-14.718525
1427147402.726,-13.438644
1427147402.741,-12.595245
1427147402.757,-11.982567
1427147402.773,-11.303421
1427147402.788,-10.254166
1427147402.804,-8.7417755
1427147402.82,-6.8317947
1427147402.835,-4.6998596
1427147402.851,-2.4932785
1427147402.866,-0.23271942
1427147402.882,2.2013931
1427147402.898,4.9800034
1427147402.913,8.226074
1427147402.929,11.925827
1427147402.945,15.920868
1427147402.96,19.915604
1427147402.976,23.556664
1427147402.991,26.380783
1427147403.007,27.935684
1427147403.023,27.796066
1427147403.038,25.750046
1427147403.054,21.865456
1427147403.07,16.61322
1427147403.085,10.783676
1427147403.101,5.300865
1427147403.116,0.9494171
1427147403.132,-1.8835068
1427147403.148,-3.2851486
1427147403.163,-3.698822
1427147403.179,-3.752655
1427147403.195,-3.9140167
1427147403.21,-4.396965
1427147403.226,-5.1317444
1427147403.241,-5.926895
1427147403.257,-6.6203995
1427147403.273,-7.2582703
1427147403.288,-7.91922
1427147403.304,-8.708237
1427147403.32,-9.576408
1427147403.335,-10.328926
1427147403.351,-10.731628
1427147403.366,-10.679916
1427147403.382,-10.262131
1427147403.398,-9.73436
1427147403.413,-9.330658
1427147403.429,-9.17247
1427147403.445,-9.158646
1427147403.46,-9.105911
1427147403.476,-8.818901
1427147403.491,-8.27401
1427147403.507,-7.5883408
1427147403.523,-6.9799805
