1426794618.159,0.0
1426794618.175,0.0
1426794618.191,0.0
1426794618.206,0.0
1426794618.222,0.0
1426794618.238,0.0
1426794618.253,0.0
1426794618.269,0.0
1426794618.284,0.0
1426794618.3,0.0022315353
1426794618.316,-0.0045169927
1426794618.331,-0.011265522
1426794618.347,-0.011383951
1426794618.363,0.0011864507
1426794618.378,0.025910312
1426794618.394,0.050634187
1426794618.409,0.051362894
1426794618.425,-0.0014929791
1426794618.441,-0.1302426
1426794618.456,-0.35562757
1426794618.472,-0.6591247
1426794618.488,-1.0095103
1426794618.503,-1.3709826
1426794618.519,-1.7197359
1426794618.534,-2.0551105
1426794618.55,-2.39945
1426794618.566,-2.7866635
1426794618.581,-3.2399073
1426794618.597,-3.796012
1426794618.613,-4.418684
1426794618.628,-5.0592937
1426794618.644,-5.6644096
1426794618.66,-6.2021537
1426794618.675,-6.6808796
1426794618.691,-7.149598
1426794618.706,-7.6782336
1426794618.722,-8.310739
1426794618.738,-9.143657
1426794618.753,-10.089731
1426794618.769,-11.041313
1426794618.785,-11.8842125
1426794618.8,-12.564316
1426794618.816,-13.13563
1426794618.831,-13.760044
1426794618.847,-14.65232
1426794618.863,-15.962056
1426794618.878,-17.914442
1426794618.894,-20.317299
1426794618.91,-22.903854
1426794618.925,-25.37947
1426794618.941,-27.578028
1426794618.956,-29.57246
1426794618.972,-31.675173
1426794618.988,-34.3178
1426794619.003,-37.813618
1426794619.019,-42.541233
1426794619.035,-48.1463
1426794619.05,-54.104755
1426794619.066,-59.83309
1426794619.081,-64.972374
1426794619.097,-69.58293
1426794619.113,-74.14353
1426794619.128,-79.344986
1426794619.144,-85.70726
1426794619.16,-93.76193
1426794619.175,-102.99779
1426794619.191,-112.61757
1426794619.206,-121.73034
1426794619.222,-129.76602
1426794619.238,-136.75102
1426794619.253,-143.30344
1426794619.269,-150.74623
1426794619.285,-157.77356
1426794619.3,-166.64323
1426794619.316,-177.94798
1426794619.331,-191.79102
1426794619.347,-206.96808
1426794619.363,-220.56592
1426794619.378,-228.24644
1426794619.394,-225.36154
1426794619.41,-208.53198
1426794619.425,-176.87024
1426794619.441,-132.76222
1426794619.456,-80.04997
1426794619.472,-23.069275
1426794619.488,34.94339
1426794619.503,92.43695
1426794619.519,149.15695
1426794619.535,205.22772
1426794619.55,260.36963
1426794619.566,313.74133
1426794619.581,363.87396
1426794619.597,409.83353
1426794619.613,450.90775
1426794619.628,486.50244
1426794619.644,515.73865
1426794619.66,537.2274
1426794619.675,549.22
1426794619.691,549.9613
1426794619.706,538.367
1426794619.722,514.2055
1426794619.738,478.674
1426794619.753,433.87952
1426794619.769,382.45126
1426794619.785,327.02106
1426794619.8,269.84186
1426794619.816,212.63379
1426794619.831,156.6594
1426794619.847,102.95233
1426794619.863,52.373596
1426794619.878,5.9046936
1426794619.894,-35.580414
1426794619.91,-71.42584
1426794619.925,-101.35184
1426794619.941,-125.50113
1426794619.956,-144.3797
1426794619.972,-158.69403
1426794619.988,-169.15071
1426794620.003,-176.3711
1426794620.019,-180.75139
1426794620.035,-182.57419
1426794620.05,-182.06863
1426794620.066,-179.5066
1426794620.081,-175.23318
1426794620.097,-169.65265
1426794620.113,-163.17645
1426794620.128,-156.14491
1426794620.144,-148.8057
1426794620.16,-141.29549
1426794620.175,-133.68843
1426794620.191,-126.018845
1426794620.206,-118.333565
1426794620.222,-110.692764
1426794620.238,-103.16527
1426794620.253,-95.82231
1426794620.269,-88.71347
1426794620.285,-81.87211
1426794620.3,-75.31005
1426794620.316,-69.04034
1426794620.331,-63.064594
1426794620.347,-57.39493
1426794620.363,-52.040176
1426794620.378,-47.004494
1426794620.394,-42.290684
1426794620.41,-37.89142
1426794620.425,-33.8028
1426794620.441,-30.011023
1426794620.456,-26.515322
1426794620.472,-23.301725
1426794620.488,-20.368551
1426794620.503,-17.709908
1426794620.519,-15.319037
1426794620.535,-13.19186
1426794620.55,-11.315744
1426794620.566,-9.681259
1426794620.581,-8.2723255
1426794620.597,-7.0763426
1426794620.613,-6.0751123
1426794620.628,-5.2518663
1426794620.644,-4.5888457
1426794620.66,-4.0722423
1426794620.675,-3.6848154
1426794620.691,-3.4097924
1426794620.706,-3.2380805
1426794620.722,-3.1567533
1426794620.738,-3.1559236
1426794620.753,-3.2243567
1426794620.769,-3.3589692
1426794620.785,-3.552664
1426794620.8,-3.7988338
1426794620.816,-4.099946
1426794620.831,-4.4472165
1426794620.847,-4.8405623
1426794620.863,-5.2774563
1426794620.878,-5.7580304
1426794620.894,-6.2829905
1426794620.91,-6.850464
1426794620.925,-7.4628706
1426794620.941,-8.119807
1426794620.956,-8.822819
1426794620.972,-9.572913
1426794620.988,-10.367384
1426794621.003,-11.209886
1426794621.019,-12.0922
1426794621.035,-13.024225
1426794621.05,-14.012115
1426794621.066,-15.065529
1426794621.081,-16.17953
1426794621.097,-17.356676
1426794621.113,-18.585241
1426794621.128,-19.8441
1426794621.144,-21.101156
1426794621.16,-22.285498
1426794621.175,-23.320911
1426794621.191,-24.108837
1426794621.206,-24.528912
1426794621.222,-24.470345
1426794621.238,-23.8399
1426794621.253,-22.554369
1426794621.269,-20.58813
1426794621.285,-17.949474
1426794621.3,-14.718925
1426794621.316,-10.971329
1426794621.332,-6.8875465
1426794621.347,-2.6504364
1426794621.363,1.5383759
1426794621.378,5.4777985
1426794621.394,9.003395
1426794621.41,11.975288
1426794621.425,14.30397
1426794621.441,15.949989
1426794621.456,16.923542
1426794621.472,17.259953
1426794621.488,17.051956
1426794621.503,16.39922
1426794621.519,15.400227
1426794621.535,14.161087
1426794621.55,12.758461
1426794621.566,11.246193
1426794621.582,9.66127
1426794621.597,8.016571
1426794621.613,6.3117447
1426794621.628,4.577751
1426794621.644,2.8303223
1426794621.66,1.0792389
1426794621.675,-0.6796646
1426794621.691,-2.4598923
1426794621.707,-4.25885
1426794621.722,-6.100052
1426794621.738,-8.021973
1426794621.753,-10.070297
1426794621.769,-12.202629
1426794621.785,-14.383507
1426794621.8,-16.617462
1426794621.816,-18.898132
1426794621.832,-21.259415
1426794621.847,-23.706184
1426794621.863,-26.290009
1426794621.878,-29.05333
1426794621.894,-32.09417
1426794621.91,-35.25386
1426794621.925,-38.45337
1426794621.941,-41.652252
1426794621.957,-44.835434
1426794621.972,-48.007248
1426794621.988,-51.183914
1426794622.003,-54.41736
1426794622.019,-57.805023
1426794622.035,-61.49681
1426794622.05,-65.25798
1426794622.066,-68.97507
1426794622.082,-72.58496
1426794622.097,-76.03398
1426794622.113,-79.29219
1426794622.128,-82.32042
1426794622.144,-85.112366
1426794622.16,-87.699005
1426794622.175,-90.19008
1426794622.191,-92.20688
1426794622.207,-93.51752
1426794622.222,-93.89592
1426794622.238,-93.1055
1426794622.253,-90.775696
1426794622.269,-86.380585
1426794622.285,-79.12097
1426794622.3,-67.77878
1426794622.316,-54.51294
1426794622.332,-40.03174
1426794622.347,-24.877197
1426794622.363,-9.526886
1426794622.378,5.586609
1426794622.394,20.034882
1426794622.41,33.438934
1426794622.425,45.37921
1426794622.441,55.390137
1426794622.457,62.860504
1426794622.472,67.65729
1426794622.488,69.49136
1426794622.503,68.127045
1426794622.519,63.502594
1426794622.535,55.86551
1426794622.55,45.762054
1426794622.566,33.944458
1426794622.582,21.213745
1426794622.597,8.200714
1426794622.613,-4.3046265
1426794622.628,-15.897919
1426794622.644,-26.385315
1426794622.66,-35.562073
1426794622.675,-43.11487
1426794622.691,-48.49225
1426794622.707,-51.142517
1426794622.722,-50.64441
1426794622.738,-47.048096
1426794622.753,-40.614624
1426794622.769,-32.146606
1426794622.785,-22.56189
1426794622.8,-12.545532
1426794622.816,-2.2071533
1426794622.832,8.91864
1426794622.847,21.667908
1426794622.863,36.78296
1426794622.878,54.45038
1426794622.894,74.19495
1426794622.91,94.97113
1426794622.925,115.51135
1426794622.941,134.97089
1426794622.957,153.14862
1426794622.972,170.5614
1426794622.988,188.09668
1426794623.003,206.72693
1426794623.019,227.17194
1426794623.035,249.776
1426794623.05,274.1557
1426794623.066,298.78668
1426794623.082,320.77838
1426794623.097,336.1762
1426794623.113,340.89685
1426794623.128,332.11224
1426794623.144,309.51935
1426794623.16,275.7793
1426794623.175,235.81506
1426794623.191,195.1665
1426794623.207,158.19867
1426794623.222,127.01453
1426794623.238,101.420654
1426794623.253,79.938416
1426794623.269,60.988342
1426794623.285,43.869995
1426794623.3,28.845764
1426794623.316,16.62732
1426794623.332,7.5944824
1426794623.347,1.2692871
1426794623.363,-3.5648804
1426794623.378,-8.369446
1426794623.394,-14.121704
1426794623.41,-20.759705
1426794623.425,-27.230835
1426794623.441,-32.02716
1426794623.457,-34.065125
1426794623.472,-33.384827
1426794623.488,-31.23059
1426794623.503,-29.39386
1426794623.519,-29.425476
1426794623.535,-31.677063
1426794623.55,-35.140656
1426794623.566,-37.922882
1426794623.582,-38.341217
1426794623.597,-35.83737
1426794623.613,-31.277283
1426794623.628,-26.440277
1426794623.644,-22.993408
1426794623.66,-21.52771
1426794623.675,-21.212677
1426794623.691,-20.404602
1426794623.707,-17.765411
1426794623.722,-13.312408
1426794623.738,-8.6397705
1426794623.753,-6.18808
1426794623.769,-8.07431
1426794623.785,-14.88855
1426794623.8,-25.31488
1426794623.816,-36.794342
1426794623.832,-46.729614
1426794623.847,-53.73413
1426794623.863,-58.103516
1426794623.878,-61.37262
1426794623.894,-65.29187
1426794623.91,-70.73706
1426794623.925,-77.13884
1426794623.941,-82.82541
1426794623.957,-85.98241
1426794623.972,-85.68968
1426794623.988,-82.46782
1426794624.004,-77.94707
1426794624.019,-74.067505
1426794624.035,-72.0146
1426794624.05,-71.68173
1426794624.066,-71.817154
1426794624.082,-70.90234
1426794624.097,-68.08397
1426794624.113,-63.74948
1426794624.128,-59.24469
1426794624.144,-56.16214
1426794624.16,-55.312912
1426794624.175,-56.187073
1426794624.191,-57.221405
1426794624.207,-56.65732
1426794624.222,-53.60295
1426794624.238,-48.545135
1426794624.254,-43.077385
1426794624.269,-39.032234
1426794624.285,-37.402435
1426794624.3,-37.74546
1426794624.316,-38.4402
1426794624.332,-37.622536
1426794624.347,-34.244057
1426794624.363,-28.69313
1426794624.379,-22.52301
1426794624.394,-17.61345
1426794624.41,-15.124115
1426794624.425,-14.829269
1426794624.441,-15.2667465
1426794624.457,-14.602058
1426794624.472,-11.64592
1426794624.488,-6.559204
1426794624.504,-0.6881027
1426794624.519,4.1477737
1426794624.535,6.7067184
1426794624.55,7.082718
1426794624.566,6.68499
1426794624.582,7.46315
1426794624.597,10.859398
1426794624.613,16.99337
1426794624.629,24.671074
1426794624.644,31.911621
1426794624.66,37.00039
1426794624.675,39.263535
1426794624.691,39.173798
1426794624.707,37.80236
1426794624.722,35.99607
1426794624.738,33.728104
1426794624.754,30.19072
1426794624.769,24.308517
1426794624.785,15.608101
1426794624.8,4.743519
1426794624.816,-6.5947533
1426794624.832,-16.42295
1426794624.847,-23.417809
1426794624.863,-27.54494
1426794624.879,-29.963821
1426794624.894,-32.32717
1426794624.91,-35.80836
1426794624.925,-40.339394
1426794624.941,-44.667736
1426794624.957,-47.111343
1426794624.972,-46.58648
1426794624.988,-43.380512
1426794625.004,-38.990734
1426794625.019,-35.423428
1426794625.035,-34.096016
1426794625.05,-35.075836
1426794625.066,-37.06771
1426794625.082,-38.290268
1426794625.097,-37.40261
1426794625.113,-34.34596
1426794625.129,-30.208103
1426794625.144,-26.590939
1426794625.16,-24.65498
1426794625.175,-24.365875
1426794625.191,-24.5929
1426794625.207,-23.757412
1426794625.222,-20.798687
1426794625.238,-15.859589
1426794625.254,-10.189701
1426794625.269,-5.5097237
1426794625.285,-3.0430336
1426794625.3,-2.8275375
1426794625.316,-3.6787262
1426794625.332,-3.8343353
1426794625.347,-1.9262543
1426794625.363,2.18676
1426794625.379,7.4316177
1426794625.394,12.065697
1426794625.41,14.629646
1426794625.425,14.812218
1426794625.441,13.588409
1426794625.457,12.612137
1426794625.472,13.295593
1426794625.488,15.925308
1426794625.504,19.562553
1426794625.519,22.579948
1426794625.535,23.603027
1426794625.55,22.39566
1426794625.566,20.106956
1426794625.582,18.645676
1426794625.597,19.69783
1426794625.613,23.718605
1426794625.629,29.714127
1426794625.644,35.677155
1426794625.66,39.567917
1426794625.675,40.280365
1426794625.691,38.075325
1426794625.707,34.19098
1426794625.722,30.013336
1426794625.738,26.240059
1426794625.754,22.561943
1426794625.769,17.992012
1426794625.785,11.645798
1426794625.8,3.503418
1426794625.816,-5.3747635
1426794625.832,-13.329559
1426794625.847,-18.914635
1426794625.863,-21.704422
1426794625.879,-22.451256
1426794625.894,-22.640602
1426794625.91,-23.60672
1426794625.925,-25.757057
1426794625.941,-28.315521
1426794625.957,-29.867706
1426794625.972,-29.213455
1426794625.988,-26.189522
1426794626.004,-21.845695
1426794626.019,-17.931923
1426794626.035,-15.973526
1426794626.05,-16.410942
1426794626.066,-18.343018
1426794626.082,-20.10212
1426794626.097,-20.13942
1426794626.113,-18.02819
1426794626.129,-14.634705
1426794626.144,-11.6430435
1426794626.16,-10.602737
1426794626.175,-11.978683
1426794626.191,-14.874527
1426794626.207,-17.51603
1426794626.222,-18.251915
1426794626.238,-16.538246
1426794626.254,-13.182594
1426794626.269,-9.85466
1426794626.285,-8.104584
1426794626.3,-8.458199
1426794626.316,-10.071907
1426794626.332,-11.263725
1426794626.347,-10.518112
1426794626.363,-7.405884
1426794626.379,-2.7984543
1426794626.394,1.5926666
1426794626.41,4.1884003
1426794626.425,4.417679
1426794626.441,3.0627747
1426794626.457,1.7563629
1426794626.472,2.0033417
1426794626.488,4.324234
1426794626.504,7.931534
1426794626.519,11.227158
1426794626.535,12.672501
1426794626.55,11.772446
1426794626.566,9.395309
1426794626.582,7.33638
1426794626.597,7.3222046
1426794626.613,9.9964905
1426794626.629,14.48288
1426794626.644,18.825363
1426794626.66,20.909943
1426794626.675,19.663956
1426794626.691,15.60611
1426794626.707,10.51268
1426794626.722,6.4842987
1426794626.738,4.767029
1426794626.754,5.157898
1426794626.769,6.2560425
1426794626.785,6.294693
1426794626.8,4.204666
1426794626.816,0.25202942
1426794626.832,-4.170166
1426794626.847,-7.385742
1426794626.863,-8.424713
1426794626.879,-7.511322
1426794626.894,-5.779724
1426794626.91,-4.4685974
1426794626.926,-3.9575806
1426794626.941,-3.3930511
1426794626.957,-1.0778809
1426794626.972,4.445999
1426794626.988,13.330933
1426794627.004,24.019379
1426794627.019,33.784607
1426794627.035,39.91748
1426794627.051,41.007416
1426794627.066,37.64586
1426794627.082,31.989471
1426794627.097,26.627441
1426794627.113,23.200317
1426794627.129,21.742554
1426794627.144,20.973618
1426794627.16,19.255249
1426794627.176,15.730347
1426794627.191,10.912735
1426794627.207,6.3486786
1426794627.222,3.6235046
1426794627.238,3.376175
1426794627.254,4.905533
1426794627.269,6.5751495
1426794627.285,6.6948547
1426794627.301,4.549347
1426794627.316,0.7771301
1426794627.332,-3.0247955
1426794627.347,-5.1748962
1426794627.363,-4.947342
1426794627.379,-2.9091797
1426794627.394,-0.62275696
1426794627.41,0.26148987
1426794627.426,-1.0825653
1426794627.441,-4.139511
1426794627.457,-7.406891
1426794627.472,-9.216614
1426794627.488,-8.8020935
1426794627.504,-6.6970367
1426794627.519,-4.423004
1426794627.535,-3.5746002
1426794627.551,-4.8315277
1426794627.566,-7.442444
1426794627.582,-9.680801
1426794627.597,-9.84288
1426794627.613,-7.40152
1426794627.629,-3.4375153
1426794627.644,-0.1517334
1426794627.66,0.19076538
1426794627.676,-3.5297089
1426794627.691,-10.649033
1426794627.707,-19.136017
1426794627.722,-26.60817
1426794627.738,-31.61763
1426794627.754,-34.191956
1426794627.769,-35.60756
1426794627.785,-37.501785
1426794627.801,-40.784744
1426794627.816,-45.033707
1426794627.832,-48.727432
1426794627.847,-50.104263
1426794627.863,-48.24225
1426794627.879,-43.577866
1426794627.894,-37.727676
1426794627.91,-32.629227
1426794627.926,-29.523712
1426794627.941,-28.296066
1426794627.957,-27.678833
1426794627.972,-26.075745
1426794627.988,-22.606567
1426794628.004,-17.69867
1426794628.019,-12.811905
1426794628.035,-9.607544
1426794628.051,-8.970459
1426794628.066,-10.314087
1426794628.082,-11.930923
1426794628.097,-11.857147
1426794628.113,-9.011948
1426794628.129,-3.7948914
1426794628.144,2.212555
1426794628.16,7.111908
1426794628.176,9.757553
1426794628.191,10.381897
1426794628.207,10.38443
1426794628.222,11.453018
1426794628.238,14.491669
1426794628.254,19.133545
1426794628.269,23.921722
1426794628.285,27.142181
1426794628.301,27.821716
1426794628.316,26.322937
1426794628.332,24.175629
1426794628.347,23.216919
1426794628.363,24.519318
1426794628.379,27.828522
1426794628.394,31.693695
1426794628.41,34.299286
1426794628.426,34.46756
1426794628.441,32.40979
1426794628.457,29.561066
1426794628.472,27.807648
1426794628.488,28.404541
1426794628.504,31.328217
1426794628.519,35.387238
1426794628.535,38.98227
1426794628.551,41.045258
1426794628.566,41.653046
1426794628.582,41.83725
1426794628.597,42.810852
1426794628.613,44.98639
1426794628.629,47.547028
1426794628.644,48.795044
1426794628.66,47.0235
1426794628.676,41.48413
1426794628.691,32.942413
1426794628.707,23.326233
1426794628.722,14.776093
1426794628.738,8.552643
1426794628.754,4.47171
1426794628.769,1.1907959
1426794628.785,-2.9475403
1426794628.801,-8.83374
1426794628.816,-16.008118
1426794628.832,-22.865967
1426794628.847,-27.505585
1426794628.863,-28.84433
1426794628.879,-27.195038
1426794628.894,-24.125
1426794628.91,-21.601105
1426794628.926,-21.016174
1426794628.941,-22.383148
1426794628.957,-24.507233
1426794628.972,-25.704163
1426794628.988,-24.859406
1426794629.004,-22.101929
1426794629.019,-18.693176
1426794629.035,-16.353363
1426794629.051,-16.195587
1426794629.066,-18.0484
1426794629.082,-20.507233
1426794629.097,-21.694855
1426794629.113,-20.337097
1426794629.129,-16.49884
1426794629.144,-11.491791
1426794629.16,-7.158264
1426794629.176,-4.8281555
1426794629.191,-4.5240784
1426794629.207,-4.9716797
1426794629.222,-4.4019775
1426794629.238,-1.5725708
1426794629.254,3.45932
1426794629.269,9.393219
1426794629.285,14.375732
1426794629.301,17.03717
1426794629.316,17.28952
1426794629.332,16.32663
1426794629.347,15.936798
1426794629.363,17.464325
1426794629.379,21.044006
1426794629.394,25.616669
1426794629.41,29.461212
1426794629.426,31.144257
1426794629.441,30.306335
1426794629.457,27.696747
1426794629.472,24.616028
1426794629.488,22.08725
1426794629.504,20.180786
1426794629.519,18.065216
1426794629.535,14.55014
1426794629.551,8.908844
1426794629.566,1.535553
1426794629.582,-6.0966187
1426794629.598,-12.0607605
1426794629.613,-14.976349
1426794629.629,-14.725342
1426794629.644,-12.465637
1426794629.66,-10.044006
1426794629.676,-9.0407715
1426794629.691,-9.9487915
1426794629.707,-11.986237
1426794629.723,-13.714294
1426794629.738,-13.8871765
1426794629.754,-12.293335
1426794629.769,-9.806641
1426794629.785,-7.8788147
1426794629.801,-7.681793
1426794629.816,-9.3689575
1426794629.832,-11.929169
1426794629.848,-13.745056
1426794629.863,-13.526733
1426794629.879,-11.039276
1426794629.894,-7.1913147
1426794629.91,-3.5516968
1426794629.926,-1.4751282
1426794629.941,-1.3245239
1426794629.957,-2.2506104
1426794629.973,-2.7705994
1426794629.988,-1.6142273
1426794630.004,1.4566956
1426794630.019,5.506012
1426794630.035,8.9097595
1426794630.051,10.259644
1426794630.066,9.176788
1426794630.082,6.590637
1426794630.098,4.1378784
1426794630.113,3.2768555
1426794630.129,4.4022827
1426794630.144,6.6669006
1426794630.16,8.502197
1426794630.176,8.518707
1426794630.191,6.3523254
1426794630.207,2.9160461
1426794630.223,-0.19638062
1426794630.238,-1.5943909
1426794630.254,-0.90179443
1426794630.269,1.082489
1426794630.285,2.8984985
1426794630.301,3.3011475
1426794630.316,2.016449
1426794630.332,-0.0602417
1426794630.348,-1.383728
1426794630.363,-0.61920166
1426794630.379,2.4782104
1426794630.394,6.968933
1426794630.41,11.131073
1426794630.426,13.40387
1426794630.441,13.240051
1426794630.457,11.467163
1426794630.473,9.852203
1426794630.488,10.173737
1426794630.504,13.215118
1426794630.519,18.353394
1426794630.535,23.804993
1426794630.551,27.477783
1426794630.566,27.989532
1426794630.582,25.339722
1426794630.598,20.661835
1426794630.613,15.501312
1426794630.629,10.872711
1426794630.644,6.71167
1426794630.66,2.0882263
1426794630.676,-4.122467
1426794630.691,-12.308136
1426794630.707,-21.661133
1426794630.723,-30.518494
1426794630.738,-37.15912
1426794630.754,-40.821716
1426794630.769,-41.993866
1426794630.785,-42.158203
1426794630.801,-42.855133
1426794630.816,-44.750122
1426794630.832,-47.232056
1426794630.848,-48.833496
1426794630.863,-48.130463
1426794630.879,-44.70703
1426794630.894,-39.430023
1426794630.91,-34.04474
1426794630.926,-30.292572
1426794630.941,-28.917816
1426794630.957,-29.361877
1426794630.973,-30.077606
1426794630.988,-29.45047
1426794631.004,-26.766174
1426794631.019,-22.534454
1426794631.035,-18.149017
1426794631.051,-15.066193
1426794631.066,-13.879089
1426794631.082,-13.884888
1426794631.098,-13.495514
1426794631.113,-11.133514
1426794631.129,-6.2387695
1426794631.144,0.43154907
1426794631.16,7.160187
1426794631.176,12.197998
1426794631.191,14.7430725
1426794631.207,15.368713
1426794631.223,15.63913
1426794631.238,17.142792
1426794631.254,20.54599
1426794631.269,25.241669
1426794631.285,29.696014
1426794631.301,32.306396
1426794631.316,32.351257
1426794631.332,30.399872
1426794631.348,28.009247
1426794631.363,26.865265
1426794631.379,27.83371
1426794631.394,30.605194
1426794631.41,33.898987
1426794631.426,36.29013
1426794631.441,37.122925
1426794631.457,36.95172
1426794631.473,37.13568
1426794631.488,38.982666
1426794631.504,42.672302
1426794631.519,46.973328
1426794631.535,49.65399
1426794631.551,48.611115
1426794631.566,42.9971
1426794631.582,33.786896
1426794631.598,23.288483
1426794631.613,14.052216
1426794631.629,7.5140686
1426794631.644,3.5152893
1426794631.66,0.5444946
1426794631.676,-3.2051392
1426794631.691,-8.701721
1426794631.707,-15.406952
1426794631.723,-21.628632
1426794631.738,-25.446594
1426794631.754,-25.913116
1426794631.769,-23.573486
1426794631.785,-20.203278
1426794631.801,-17.904144
1426794631.816,-17.89389
1426794631.832,-19.930511
1426794631.848,-22.481598
1426794631.863,-23.684723
1426794631.879,-22.511108
1426794631.894,-19.380676
1426794631.91,-15.842041
1426794631.926,-13.762909
1426794631.941,-14.135437
1426794631.957,-16.480469
1426794631.973,-19.078827
1426794631.988,-19.965973
1426794632.004,-18.081635
1426794632.019,-13.838165
1426794632.035,-8.905884
1426794632.051,-5.26062
1426794632.066,-4.099457
1426794632.082,-5.1166077
1426794632.098,-6.770508
1426794632.113,-7.0473633
1426794632.129,-4.725342
1426794632.144,0.11175537
1426794632.16,6.1615295
1426794632.176,11.660309
1426794632.191,15.435699
1426794632.207,17.580017
1426794632.223,19.272217
1426794632.238,21.99173
1426794632.254,26.499146
1426794632.27,32.352142
1426794632.285,38.12262
1426794632.301,42.3042
1426794632.316,44.280396
1426794632.332,44.804474
1426794632.348,45.60315
1426794632.363,48.37213
1426794632.379,53.59491
1426794632.394,60.110138
1426794632.41,65.56708
1426794632.426,67.498566
1426794632.441,64.54056
1426794632.457,57.1257
1426794632.473,47.184082
1426794632.488,37.117493
1426794632.504,28.57669
1426794632.52,21.812988
1426794632.535,15.791779
1426794632.551,9.058624
1426794632.566,0.76849365
1426794632.582,-8.630737
1426794632.598,-17.58667
1426794632.613,-24.255646
1426794632.629,-27.65207
1426794632.645,-28.139801
1426794632.66,-27.284851
1426794632.676,-26.963226
1426794632.691,-28.341583
1426794632.707,-31.136658
1426794632.723,-33.94333
1426794632.738,-35.01819
1426794632.754,-33.431244
1426794632.77,-29.622955
1426794632.785,-25.1904
1426794632.801,-21.99878
1426794632.816,-21.119446
1426794632.832,-22.19867
1426794632.848,-23.68518
1426794632.863,-23.703644
1426794632.879,-21.154938
1426794632.895,-16.342499
1426794632.91,-10.778122
1426794632.926,-6.311371
1426794632.941,-4.1119537
1426794632.957,-3.9716187
1426794632.973,-4.4617767
1426794632.988,-3.7981567
1426794633.004,-0.9084778
1426794633.02,3.961563
1426794633.035,9.46788
1426794633.051,13.948578
1426794633.066,16.393814
1426794633.082,17.09639
1426794633.098,17.401337
1426794633.113,18.949844
1426794633.129,22.642487
1426794633.145,28.188995
1426794633.16,34.32663
1426794633.176,39.608185
1426794633.191,43.290955
1426794633.207,45.870148
1426794633.223,48.699875
1426794633.238,53.08635
1426794633.254,59.246628
1426794633.27,65.90727
1426794633.285,70.690414
1426794633.301,71.16974
1426794633.316,66.10292
1426794633.332,56.07672
1426794633.348,43.26564
1426794633.363,30.356537
1426794633.379,19.238907
1426794633.395,10.269318
1426794633.41,2.3843079
1426794633.426,-5.9913025
1426794633.441,-15.832687
1426794633.457,-26.792084
1426794633.473,-37.310944
1426794633.488,-45.476425
1426794633.504,-50.06688
1426794633.52,-51.226624
1426794633.535,-50.29445
1426794633.551,-49.11245
1426794633.566,-48.9962
1426794633.582,-50.068733
1426794633.598,-51.30932
1426794633.613,-51.276276
1426794633.629,-49.063545
1426794633.645,-44.94104
1426794633.66,-40.222626
1426794633.676,-36.607597
1426794633.691,-35.187813
1426794633.707,-35.811974
1426794633.723,-37.133545
1426794633.738,-37.332115
1426794633.754,-35.17855
1426794633.77,-30.704338
1426794633.785,-25.157448
1426794633.801,-20.278961
1426794633.816,-17.304016
1426794633.832,-16.247528
1426794633.848,-15.8990555
1426794633.863,-14.56884
1426794633.879,-11.122383
1426794633.895,-5.6732063
1426794633.91,0.5202713
1426794633.926,5.7428055
1426794633.941,8.892601
1426794633.957,10.105568
1426794633.973,10.738014
1426794633.988,12.558483
1426794634.004,16.607384
1426794634.02,22.629074
1426794634.035,29.188416
1426794634.051,34.48787
1426794634.066,37.45816
1426794634.082,38.513268
1426794634.098,39.35401
1426794634.113,42.059242
1426794634.129,47.83477
1426794634.145,56.117
1426794634.16,64.703964
1426794634.176,70.61936
1426794634.191,71.49445
1426794634.207,66.656586
1426794634.223,57.308178
1426794634.238,45.769646
1426794634.254,34.244427
1426794634.27,23.753744
1426794634.285,13.914146
1426794634.301,3.5368652
1426794634.316,-8.330846
1426794634.332,-21.527344
1426794634.348,-34.625946
1426794634.363,-45.681026
1426794634.379,-53.238853
1426794634.395,-57.156174
1426794634.41,-58.542755
1426794634.426,-59.166252
1426794634.441,-60.347763
1426794634.457,-62.27264
1426794634.473,-63.944183
1426794634.488,-63.864613
1426794634.504,-61.043278
1426794634.52,-55.76292
1426794634.535,-49.477543
1426794634.551,-44.196064
1426794634.566,-41.424232
1426794634.582,-41.362003
1426794634.598,-42.780754
1426794634.613,-43.757404
1426794634.629,-42.699257
1426794634.645,-39.255516
1426794634.66,-34.404583
1426794634.676,-29.88755
1426794634.691,-27.141556
1426794634.707,-26.436947
1426794634.723,-26.666042
1426794634.738,-26.001945
1426794634.754,-22.98861
1426794634.77,-17.414085
1426794634.785,-10.470657
1426794634.801,-4.1472855
1426794634.816,-0.13423157
1426794634.832,1.1334763
1426794634.848,0.7162399
1426794634.863,0.5039902
1426794634.879,2.1766891
1426794634.895,6.1823196
1426794634.91,11.6067505
1426794634.926,16.689545
1426794634.942,19.917198
1426794634.957,20.964218
1426794634.973,20.863853
1426794634.988,21.37484
1426794635.004,23.95617
1426794635.02,28.854874
1426794635.035,35.10518
1426794635.051,41.095596
1426794635.066,45.621384
1426794635.082,48.59857
1426794635.098,51.005905
1426794635.113,54.10849
1426794635.129,58.408485
1426794635.145,63.000076
1426794635.16,65.79213
1426794635.176,64.49732
1426794635.192,57.752853
1426794635.207,45.932465
1426794635.223,31.07589
1426794635.238,15.95369
1426794635.254,2.9213333
1426794635.27,-7.116188
1426794635.285,-14.763039
1426794635.301,-21.552132
1426794635.317,-28.915688
1426794635.332,-37.284843
1426794635.348,-45.740227
1426794635.363,-52.63691
1426794635.379,-56.4832
1426794635.395,-56.860497
1426794635.41,-54.676926
1426794635.426,-51.64611
1426794635.442,-49.43393
1426794635.457,-48.66855
1426794635.473,-48.740936
1426794635.488,-48.247093
1426794635.504,-45.9358
1426794635.52,-41.61006
1426794635.535,-36.237602
1426794635.551,-31.480553
1426794635.567,-28.702957
1426794635.582,-28.147514
1426794635.598,-28.721565
1426794635.613,-28.681
1426794635.629,-26.550285
1426794635.645,-22.030846
1426794635.66,-16.131737
1426794635.676,-10.581749
1426794635.692,-6.8885956
1426794635.707,-5.478241
1426794635.723,-5.480446
1426794635.738,-5.2973557
1426794635.754,-3.5134583
1426794635.77,0.28782654
1426794635.785,5.3264236
1426794635.801,10.127228
1426794635.817,13.39888
1426794635.832,14.707832
1426794635.848,14.776337
1426794635.863,14.816742
1426794635.879,15.770042
1426794635.895,17.475876
1426794635.91,18.688309
1426794635.926,17.605904
1426794635.942,12.915848
1426794635.957,4.642021
1426794635.973,-5.671753
1426794635.988,-15.556534
1426794636.004,-22.700691
1426794636.02,-26.009796
1426794636.035,-25.976608
1426794636.051,-24.240532
1426794636.067,-22.683083
1426794636.082,-22.36647
1426794636.098,-23.082489
1426794636.113,-23.67698
1426794636.129,-22.894157
1426794636.145,-20.343712
1426794636.16,-16.779976
1426794636.176,-13.765419
1426794636.192,-12.724892
1426794636.207,-14.089764
1426794636.223,-16.917881
1426794636.238,-19.4264
1426794636.254,-19.951172
1426794636.27,-17.950031
1426794636.285,-14.247368
1426794636.301,-10.566669
1426794636.317,-8.560947
1426794636.332,-8.851337
1426794636.348,-10.6208725
1426794636.363,-12.137329
1426794636.379,-11.721455
1426794636.395,-8.781048
1426794636.41,-4.078209
1426794636.426,0.6258507
1426794636.442,3.5757523
1426794636.457,3.995678
1426794636.473,2.5075798
1426794636.488,0.691267
1426794636.504,0.19935799
1426794636.52,1.7804279
1426794636.535,4.918665
1426794636.551,8.223836
1426794636.567,10.237186
1426794636.582,10.340723
1426794636.598,9.157481
1426794636.613,8.095884
1426794636.629,8.538153
1426794636.645,10.92441
1426794636.66,14.491173
1426794636.676,17.675804
1426794636.692,18.973776
1426794636.707,17.819096
1426794636.723,14.943254
1426794636.738,11.939285
1426794636.754,10.373041
1426794636.77,10.855932
1426794636.785,12.805254
1426794636.801,14.830816
1426794636.817,15.597437
1426794636.832,14.701214
1426794636.848,12.963348
1426794636.863,11.92057
1426794636.879,12.952492
1426794636.895,16.367508
1426794636.91,21.237019
1426794636.926,25.849625
1426794636.942,28.682823
1426794636.957,29.272152
1426794636.973,28.548855
1426794636.988,28.33266
1426794637.004,30.345581
1426794637.02,35.126163
1426794637.035,41.689266
1426794637.051,47.83215
1426794637.067,51.152622
1426794637.082,50.177803
1426794637.098,45.1023
1426794637.113,37.518723
1426794637.129,29.579231
1426794637.145,22.803165
1426794637.16,17.410614
1426794637.176,12.434776
1426794637.192,6.5046654
1426794637.207,-1.1071091
1426794637.223,-9.834686
1426794637.238,-18.06633
1426794637.254,-23.996346
1426794637.27,-26.709877
1426794637.285,-26.682316
1426794637.301,-25.474056
1426794637.317,-24.87862
1426794637.332,-25.856293
1426794637.348,-28.007648
1426794637.363,-29.91428
1426794637.379,-30.019836
1426794637.395,-27.655075
1426794637.41,-23.476006
1426794637.426,-19.137943
1426794637.442,-16.411419
1426794637.457,-16.188957
1426794637.473,-17.95757
1426794637.488,-20.123997
1426794637.504,-20.861229
1426794637.52,-19.23595
1426794637.535,-15.652115
1426794637.551,-11.618771
1426794637.567,-8.88073
1426794637.582,-8.383659
1426794637.598,-9.713608
1426794637.613,-11.380699
1426794637.629,-11.695091
1426794637.645,-9.819756
1426794637.66,-6.227211
1426794637.676,-2.4371033
1426794637.692,-0.10638428
1426794637.707,-0.114601135
1426794637.723,-1.9555817
1426794637.738,-4.0947723
1426794637.754,-4.806038
1426794637.77,-3.2160034
1426794637.785,0.33022308
1426794637.801,4.4591293
1426794637.817,7.6216583
1426794637.832,8.976593
1426794637.848,8.902206
1426794637.864,8.675102
1426794637.879,9.681374
1426794637.895,12.568909
1426794637.91,16.80487
1426794637.926,21.04889
1426794637.942,23.895622
1426794637.957,24.765503
1426794637.973,24.30017
1426794637.989,24.000694
1426794638.004,25.321884
1426794638.02,28.664772
1426794638.035,33.01342
1426794638.051,36.37348
1426794638.067,36.74685
1426794638.082,33.198586
1426794638.098,26.439667
1426794638.114,18.389359
1426794638.129,11.249977
1426794638.145,6.333969
1426794638.16,3.541542
1426794638.176,1.5503769
1426794638.192,-1.3098602
1426794638.207,-6.0295105
1426794638.223,-12.279839
1426794638.239,-18.581612
1426794638.254,-23.130608
1426794638.27,-24.821594
1426794638.285,-23.811852
1426794638.301,-21.417206
1426794638.317,-19.351234
1426794638.332,-18.77066
1426794638.348,-19.623795
1426794638.364,-20.783897
1426794638.379,-20.748444
1426794638.395,-18.693443
1426794638.41,-14.950371
1426794638.426,-10.904892
1426794638.442,-8.24736
1426794638.457,-7.9967117
1426794638.473,-9.881836
1426794638.489,-12.547386
1426794638.504,-14.253059
1426794638.52,-13.949066
1426794638.535,-11.8061905
1426794638.551,-9.064552
1426794638.567,-7.297081
1426794638.582,-7.4375687
1426794638.598,-9.178192
1426794638.614,-11.120529
1426794638.629,-11.564507
1426794638.645,-9.599976
1426794638.66,-5.5945587
1426794638.676,-1.025238
1426794638.692,2.352974
1426794638.707,3.5010376
1426794638.723,2.708603
1426794638.739,1.3591461
1426794638.754,1.1270905
1426794638.77,2.934845
1426794638.785,6.484764
1426794638.801,10.418198
1426794638.817,13.091888
1426794638.832,13.541344
1426794638.848,12.053154
1426794638.864,9.990585
1426794638.879,9.081718
1426794638.895,10.391251
1426794638.91,13.817184
1426794638.926,18.201324
1426794638.942,22.061584
1426794638.957,24.397583
1426794638.973,25.299316
1426794638.989,25.670914
1426794639.004,26.553284
1426794639.02,28.210648
1426794639.035,29.80156
1426794639.051,29.738693
1426794639.067,26.56929
1426794639.082,19.882141
1426794639.098,10.7539215
1426794639.114,1.3470612
1426794639.129,-6.087982
1426794639.145,-10.279846
1426794639.16,-11.396805
1426794639.176,-10.788269
1426794639.192,-10.110199
1426794639.207,-10.379868
1426794639.223,-11.385117
1426794639.239,-12.007584
1426794639.254,-10.949036
1426794639.27,-7.7299805
1426794639.285,-3.0705872
1426794639.301,1.4003601
1426794639.317,3.998291
1426794639.332,3.8988953
1426794639.348,1.6127319
1426794639.364,-1.3315582
1426794639.379,-3.238449
1426794639.395,-3.2610016
1426794639.41,-1.8025055
1426794639.426,-0.2190857
1426794639.442,0.049316406
1426794639.457,-1.6816711
1426794639.473,-4.774994
1426794639.489,-7.714615
1426794639.504,-8.887939
1426794639.52,-7.6151886
1426794639.535,-4.499893
1426794639.551,-1.1286316
1426794639.567,0.81640625
1426794639.582,0.4678192
1426794639.598,-1.6661072
1426794639.614,-4.0710144
1426794639.629,-5.0434113
1426794639.645,-3.7326355
1426794639.66,-0.5628662
1426794639.676,3.0195313
1426794639.692,5.376999
1426794639.707,5.599777
1426794639.723,4.0763855
1426794639.739,2.2261658
1426794639.754,1.7084656
1426794639.77,3.3800507
1426794639.785,6.8526764
1426794639.801,10.661392
1426794639.817,13.126953
1426794639.832,13.30159
1426794639.848,11.651962
1426794639.864,9.784546
1426794639.879,9.649139
1426794639.895,12.395111
1426794639.91,17.701569
1426794639.926,23.899506
1426794639.942,28.7397
1426794639.957,30.5253
1426794639.973,28.93016
1426794639.989,25.043533
1426794640.004,20.643951
1426794640.02,17.124908
1426794640.035,14.752441
1426794640.051,12.617584
1426794640.067,9.311813
1426794640.082,3.9087067
1426794640.098,-3.3252258
1426794640.114,-10.952377
1426794640.129,-17.104095
1426794640.145,-20.573914
1426794640.16,-21.444214
1426794640.176,-20.997421
1426794640.192,-20.945938
1426794640.207,-22.391922
1426794640.223,-25.143372
1426794640.239,-27.906433
1426794640.254,-29.03366
1426794640.27,-27.676376
1426794640.285,-24.330261
1426794640.301,-20.644226
1426794640.317,-18.532059
1426794640.332,-19.142273
1426794640.348,-22.114532
1426794640.364,-25.815735
1426794640.379,-28.209534
1426794640.395,-28.02655
1426794640.41,-25.37088
1426794640.426,-21.62703
1426794640.442,-18.529541
1426794640.457,-17.159332
1426794640.473,-17.290604
1426794640.489,-17.539703
1426794640.504,-16.278122
1426794640.52,-12.67038
1426794640.536,-7.216522
1426794640.551,-1.4901276
1426794640.567,2.7071533
1426794640.582,4.390625
1426794640.598,3.9863586
1426794640.614,3.0663452
1426794640.629,3.5017548
1426794640.645,6.306793
1426794640.661,11.124924
1426794640.676,16.438278
1426794640.692,20.427063
1426794640.707,22.002747
1426794640.723,21.504425
1426794640.739,20.522537
1426794640.754,21.001373
1426794640.77,24.14325
1426794640.786,29.739395
1426794640.801,36.27054
1426794640.817,41.610367
1426794640.832,44.123535
1426794640.848,43.418854
1426794640.864,40.38031
1426794640.879,36.5439
1426794640.895,33.084946
1426794640.911,30.246445
1426794640.926,27.239853
1426794640.942,22.882172
1426794640.957,16.493637
1426794640.973,8.533936
1426794640.989,0.51431274
1426794641.004,-5.7266846
1426794641.02,-9.05246
1426794641.036,-9.6315155
1426794641.051,-8.840347
1426794641.067,-8.473068
1426794641.082,-9.703629
1426794641.098,-12.397919
1426794641.114,-15.276596
1426794641.129,-16.69629
1426794641.145,-15.741943
1426794641.161,-12.722031
1426794641.176,-9.047668
1426794641.192,-6.410965
1426794641.207,-5.854019
1426794641.223,-7.159149
1426794641.239,-9.048859
1426794641.254,-9.941681
1426794641.27,-8.938248
1426794641.286,-6.324112
1426794641.301,-3.4049988
1426794641.317,-1.7197723
1426794641.332,-2.1547546
1426794641.348,-4.3187866
1426794641.364,-6.7707214
1426794641.379,-7.7804413
1426794641.395,-6.345932
1426794641.411,-2.732544
1426794641.426,1.6893616
1426794641.442,5.203064
1426794641.457,6.6945953
1426794641.473,6.252426
1426794641.489,5.018326
1426794641.504,4.507431
1426794641.52,5.641449
1426794641.536,8.273529
1426794641.551,11.319122
1426794641.567,13.420593
1426794641.582,13.703552
1426794641.598,12.379257
1426794641.614,10.577103
1426794641.629,9.70668
1426794641.645,10.634476
1426794641.661,13.223488
1426794641.676,16.492569
1426794641.692,19.213821
1426794641.707,20.721703
1426794641.723,21.433113
1426794641.739,22.58928
1426794641.754,25.50795
1426794641.77,30.652023
1426794641.786,37.131332
1426794641.801,42.94809
1426794641.817,45.89708
1426794641.832,44.62757
1426794641.848,39.35666
1426794641.864,31.691566
1426794641.879,23.820015
1426794641.895,17.373169
1426794641.911,12.74334
1426794641.926,9.068748
1426794641.942,4.945465
1426794641.957,-0.6647644
1426794641.973,-7.7965775
1426794641.989,-15.479515
1426794642.004,-22.286613
1426794642.02,-27.131577
1426794642.036,-29.781593
1426794642.051,-30.917381
1426794642.067,-31.56778
1426794642.082,-32.55565
1426794642.098,-33.942467
1426794642.114,-35.064125
1426794642.129,-35.008934
1426794642.145,-33.285027
1426794642.161,-30.254967
1426794642.176,-27.001846
1426794642.192,-24.829994
1426794642.207,-24.522484
1426794642.223,-25.863716
1426794642.239,-27.727493
1426794642.254,-28.700455
1426794642.27,-27.88472
1426794642.286,-25.34991
1426794642.301,-22.128052
1426794642.317,-19.55804
1426794642.332,-18.552448
1426794642.348,-19.04441
1426794642.364,-20.071003
1426794642.379,-20.29816
1426794642.395,-18.81057
1426794642.411,-15.523205
1426794642.426,-11.265312
1426794642.442,-7.2065125
1426794642.457,-4.2294464
1426794642.473,-2.4447174
1426794642.489,-1.1717682
1426794642.504,0.56482315
1426794642.52,3.466591
1426794642.536,7.511799
1426794642.551,11.976788
1426794642.567,15.881691
1426794642.582,18.4892
1426794642.598,19.76662
1426794642.614,20.261757
1426794642.629,20.831146
1426794642.645,22.110184
1426794642.661,24.206718
1426794642.676,26.745602
1426794642.692,29.232414
1426794642.707,31.374779
1426794642.723,33.26893
1426794642.739,35.207283
1426794642.754,37.344337
1426794642.77,39.298702
1426794642.786,40.178425
1426794642.801,38.870594
1426794642.817,34.513622
1426794642.832,26.962456
1426794642.848,16.89817
1426794642.864,5.456688
1426794642.879,-6.2579
1426794642.895,-17.617905
1426794642.911,-28.517548
1426794642.926,-39.13101
1426794642.942,-49.479706
1426794642.957,-59.19691
1426794642.973,-67.50694
1426794642.989,-73.53944
1426794643.004,-76.77673
1426794643.02,-77.4211
1426794643.036,-76.439896
1426794643.051,-75.37587
1426794643.067,-75.71896
1426794643.082,-78.24938
1426794643.098,-82.54428
1426794643.114,-87.04686
1426794643.129,-89.66502
1426794643.145,-88.7321
1426794643.161,-83.79849
1426794643.176,-75.88835
1426794643.192,-67.015335
1426794643.208,-59.376007
1426794643.223,-54.435745
1426794643.239,-52.687424
1426794643.254,-53.781975
1426794643.27,-57.103447
1426794643.286,-62.088562
1426794643.301,-68.12759
1426794643.317,-74.3472
1426794643.333,-79.491684
1426794643.348,-82.10827
1426794643.364,-81.21274
1426794643.379,-76.76744
1426794643.395,-69.84515
1426794643.411,-62.076447
1426794643.426,-54.87555
1426794643.442,-48.792847
1426794643.458,-43.417343
1426794643.473,-37.776306
1426794643.489,-31.059692
1426794643.504,-23.113205
1426794643.52,-14.53714
1426794643.536,-6.285019
1426794643.551,0.74157715
1426794643.567,5.9307404
1426794643.583,8.878174
1426794643.598,9.2668915
1426794643.614,7.07193
1426794643.629,2.6240234
1426794643.645,-3.3712463
1426794643.661,-9.220795
1426794643.676,-12.53418
1426794643.692,-11.382263
1426794643.708,-5.2273865
1426794643.723,4.8085938
1426794643.739,16.321747
1426794643.754,26.819641
1426794643.77,34.504974
1426794643.786,38.39087
1426794643.801,38.714905
1426794643.817,36.459564
1426794643.833,32.43216
1426794643.848,27.140564
1426794643.864,20.870117
1426794643.879,13.991516
1426794643.895,7.439911
1426794643.911,2.1708984
1426794643.926,-2.236023
1426794643.942,-6.2018127
1426794643.958,-9.758331
1426794643.973,-12.701447
1426794643.989,-14.521515
1426794644.004,-14.606598
1426794644.02,-12.838837
1426794644.036,-8.351746
1426794644.051,-1.1549072
1426794644.067,5.7422485
1426794644.083,10.803284
1426794644.098,15.224182
1426794644.114,20.968994
1426794644.129,29.753601
1426794644.145,41.60913
1426794644.161,54.18347
1426794644.176,66.33026
1426794644.192,76.54608
1426794644.208,79.00238
1426794644.223,71.9892
1426794644.239,59.24341
1426794644.254,45.07141
1426794644.27,32.89209
1426794644.286,24.330872
1426794644.301,19.082947
1426794644.317,20.452332
1426794644.333,30.674866
1426794644.348,41.495728
1426794644.364,46.42932
1426794644.379,44.284424
1426794644.395,35.835022
1426794644.411,25.47882
1426794644.426,20.26184
1426794644.442,26.723206
1426794644.458,54.581116
1426794644.473,108.61224
1426794644.489,175.58875
1426794644.504,241.97937
1426794644.52,300.31842
1426794644.536,345.5327
1426794644.551,376.4671
1426794644.567,394.33258
1426794644.583,362.5821
1426794644.598,262.58386
1426794644.614,157.01886
1426794644.629,75.20996
1426794644.645,8.602905
1426794644.661,-44.144592
1426794644.676,-85.13025
1426794644.692,-116.1145
1426794644.708,-139.3681
1426794644.723,-159.2378
1426794644.739,-171.57397
1426794644.754,-168.45764
1426794644.77,-154.07239
1426794644.786,-130.91144
1426794644.801,-97.71863
1426794644.817,-55.36383
1426794644.833,-4.2178955
1426794644.848,54.793884
1426794644.864,118.06818
1426794644.879,161.94519
1426794644.895,170.492
1426794644.911,134.21228
1426794644.926,63.77826
1426794644.942,-19.629944
1426794644.958,-101.49646
1426794644.973,-174.97235
1426794644.989,-225.9347
1426794645.004,-263.5465
1426794645.02,-291.87213
1426794645.036,-308.23853
1426794645.051,-313.97858
1426794645.067,-309.21625
1426794645.083,-292.0865
1426794645.098,-269.96722
1426794645.114,-244.67615
1426794645.129,-216.32428
1426794645.145,-186.47662
1426794645.161,-152.66785
1426794645.176,-109.74823
1426794645.192,-56.831726
1426794645.208,5.092163
1426794645.223,73.53162
1426794645.239,144.26593
1426794645.254,214.85352
1426794645.27,283.84607
1426794645.286,349.38593
1426794645.301,412.906
1426794645.317,477.42554
1426794645.333,543.02313
1426794645.348,606.9864
1426794645.364,664.3784
1426794645.379,709.64813
1426794645.395,740.33203
1426794645.411,756.67
1426794645.426,759.8943
1426794645.442,752.5023
1426794645.458,737.1354
1426794645.473,715.1454
1426794645.489,686.98303
1426794645.504,652.66846
1426794645.52,612.1305
1426794645.536,565.5585
1426794645.551,511.95547
1426794645.567,448.6327
1426794645.583,372.17633
1426794645.598,281.26514
1426794645.614,178.24846
1426794645.629,69.326035
1426794645.645,-37.549942
1426794645.661,-135.30315
1426794645.676,-219.28308
1426794645.692,-287.83698
1426794645.708,-341.4178
1426794645.723,-383.65915
1426794645.739,-417.95163
1426794645.754,-446.0065
1426794645.77,-466.82928
1426794645.786,-478.78745
1426794645.801,-480.93307
1426794645.817,-473.71875
1426794645.833,-458.38266
1426794645.848,-436.1721
1426794645.864,-412.4596
1426794645.88,-392.13293
1426794645.895,-377.46777
1426794645.911,-366.47098
1426794645.926,-355.69922
1426794645.942,-342.41824
1426794645.958,-326.56726
1426794645.973,-309.63586
1426794645.989,-293.72815
1426794646.004,-286.82404
1426794646.02,-296.50424
1426794646.036,-326.926
1426794646.051,-375.97107
1426794646.067,-439.18567
1426794646.083,-512.0834
1426794646.098,-593.1444
1426794646.114,-681.73
1426794646.13,-740.6128
1426794646.145,-739.34174
1426794646.161,-667.4101
1426794646.176,-543.0292
1426794646.192,-397.56757
1426794646.208,-257.29962
1426794646.223,-134.57959
1426794646.239,-33.013306
1426794646.255,49.673096
1426794646.27,117.97827
1426794646.286,170.94519
1426794646.301,207.22992
1426794646.317,220.80914
1426794646.333,220.37616
1426794646.348,215.3605
1426794646.364,212.44336
1426794646.38,212.13605
1426794646.395,213.16507
1426794646.411,213.61566
1426794646.426,207.44211
1426794646.442,189.18393
1426794646.458,155.60419
1426794646.473,107.97998
1426794646.489,47.658447
1426794646.505,-6.577606
1426794646.52,-44.376556
1426794646.536,-60.42151
1426794646.551,-55.62195
1426794646.567,-38.107025
1426794646.583,-16.85852
1426794646.598,1.6719055
1426794646.614,16.626892
1426794646.63,30.055115
1426794646.645,43.217834
1426794646.661,54.977783
1426794646.676,65.46954
1426794646.692,75.79886
1426794646.708,85.929474
1426794646.723,95.558136
1426794646.739,103.66147
1426794646.755,106.670685
1426794646.77,107.96478
1426794646.786,107.79535
1426794646.801,104.903046
1426794646.817,100.39145
1426794646.833,96.77945
1426794646.848,95.542816
1426794646.864,96.6344
1426794646.88,97.736664
1426794646.895,97.105194
1426794646.911,94.061035
1426794646.926,84.78656
1426794646.942,67.09784
1426794646.958,42.751373
1426794646.973,15.210876
1426794646.989,-14.5164795
1426794647.005,-41.9084
1426794647.02,-68.20952
1426794647.036,-95.65254
1426794647.051,-126.336075
1426794647.067,-166.82549
1426794647.083,-220.9888
1426794647.098,-286.8237
1426794647.114,-357.4312
1426794647.13,-424.08246
1426794647.145,-478.16107
1426794647.161,-513.60767
1426794647.176,-526.4819
1426794647.192,-487.46555
1426794647.208,-391.9565
1426794647.223,-263.82477
1426794647.239,-139.03377
1426794647.255,-40.954636
1426794647.27,26.50418
1426794647.286,70.45836
1426794647.301,98.49346
1426794647.317,115.91697
1426794647.333,126.523476
1426794647.348,129.2525
1426794647.364,126.38202
1426794647.38,124.95239
1426794647.395,133.40663
1426794647.411,157.12413
1426794647.426,197.53943
1426794647.442,248.44318
1426794647.458,304.4517
1426794647.473,351.64505
1426794647.489,376.5864
1426794647.505,375.4672
1426794647.52,355.9955
1426794647.536,330.97794
1426794647.551,310.45056
1426794647.567,298.53717
1426794647.583,293.58612
1426794647.598,291.08115
1426794647.614,284.38574
1426794647.63,265.92905
1426794647.645,231.82384
1426794647.661,184.08218
1426794647.676,129.94891
1426794647.692,78.85803
1426794647.708,38.86697
1426794647.723,13.525288
1426794647.739,1.9289684
1426794647.755,-0.85900116
1426794647.77,-1.0034561
1426794647.786,-2.6281967
1426794647.801,-6.4764595
1426794647.817,-11.1093445
1426794647.833,-15.081081
1426794647.848,-18.407013
1426794647.864,-22.861753
1426794647.88,-30.790648
1426794647.895,-43.801193
1426794647.911,-61.72969
1426794647.926,-82.95079
1426794647.942,-105.309364
1426794647.958,-127.57843
1426794647.973,-149.91539
1426794647.989,-170.80798
1426794648.005,-189.88097
1426794648.02,-204.2238
1426794648.036,-208.9115
1426794648.051,-199.02505
1426794648.067,-172.83257
1426794648.083,-133.62343
1426794648.098,-89.22829
1426794648.114,-48.939556
1426794648.13,-19.815601
1426794648.145,-4.526169
1426794648.161,-0.5894184
1426794648.176,-2.825901
1426794648.192,-6.1694756
1426794648.208,-7.7166576
1426794648.223,-6.9619694
1426794648.239,-4.869545
1426794648.255,-2.4940147
1426794648.27,-0.22545815
1426794648.286,1.835329
1426794648.301,4.052435
1426794648.317,6.778305
1426794648.333,10.199896
1426794648.348,14.599028
1426794648.364,20.743237
1426794648.38,29.570951
1426794648.395,41.091522
1426794648.411,53.47087
1426794648.426,62.691418
1426794648.442,64.06
1426794648.458,53.991463
1426794648.473,31.465212
1426794648.489,-1.3298831
1426794648.505,-39.244633
1426794648.52,-75.444534
1426794648.536,-103.268196
1426794648.551,-117.66374
1426794648.567,-116.64245
1426794648.583,-101.36223
1426794648.598,-76.224625
1426794648.614,-47.934574
1426794648.63,-23.274277
1426794648.645,-6.3850803
1426794648.661,1.9804306
1426794648.676,3.205803
1426794648.692,-1.4306374
1426794648.708,-12.171978
1426794648.723,-28.970825
1426794648.739,-50.49356
1426794648.755,-73.62323
1426794648.77,-93.60455
1426794648.786,-105.48512
1426794648.802,-106.6229
1426794648.817,-98.22558
1426794648.833,-84.739494
1426794648.848,-71.45877
1426794648.864,-59.956657
1426794648.88,-48.91336
1426794648.895,-36.971916
1426794648.911,-24.408707
1426794648.927,-12.841949
1426794648.942,-4.299736
1426794648.958,-0.016784668
1426794648.973,0.4011078
1426794648.989,-0.81682587
1426794649.005,-1.3707733
1426794649.02,3.5496368
1426794649.036,17.29889
1426794649.052,41.020477
1426794649.067,74.716064
1426794649.083,117.89996
1426794649.098,169.42218
1426794649.114,227.40196
1426794649.13,272.92975
1426794649.145,292.26282
1426794649.161,284.2777
1426794649.177,259.06567
1426794649.192,228.53212
1426794649.208,200.12863
1426794649.223,176.65546
1426794649.239,158.42377
1426794649.255,144.90692
1426794649.27,135.15843
1426794649.286,129.82526
1426794649.302,127.88655
1426794649.317,124.690216
1426794649.333,113.465515
1426794649.348,89.34515
1426794649.364,52.448517
1426794649.38,8.2417755
1426794649.395,-35.040268
1426794649.411,-70.147934
1426794649.427,-91.76723
1426794649.442,-99.28673
1426794649.458,-96.6425
1426794649.473,-89.61354
1426794649.489,-82.36777
1426794649.505,-76.15933
1426794649.52,-70.42163
1426794649.536,-64.624344
1426794649.552,-59.44763
1426794649.567,-55.256607
1426794649.583,-52.288414
1426794649.598,-50.480377
1426794649.614,-49.36644
1426794649.63,-47.891518
1426794649.645,-44.681915
1426794649.661,-39.126083
1426794649.677,-31.773476
1426794649.692,-24.198158
1426794649.708,-17.724411
1426794649.723,-13.187225
1426794649.739,-10.77906
1426794649.755,-9.972507
1426794649.77,-9.467632
1426794649.786,-7.688278
1426794649.802,-3.594532
1426794649.817,2.8531837
1426794649.833,10.5796585
1426794649.848,18.096233
1426794649.864,24.011234
1426794649.88,27.53093
1426794649.895,28.67329
1426794649.911,28.518225
1426794649.927,28.63945
1426794649.942,30.131348
1426794649.958,33.283478
1426794649.973,37.293922
1426794649.989,40.574123
1426794650.005,41.35639
1426794650.02,38.08498
1426794650.036,29.560972
1426794650.052,14.84713
1426794650.067,-5.9868755
1426794650.083,-31.200064
1426794650.098,-56.808876
1426794650.114,-77.04782
1426794650.13,-86.19176
1426794650.145,-81.00929
1426794650.161,-62.152054
1426794650.177,-36.044983
1426794650.192,-11.045395
1426794650.208,5.9914627
1426794650.223,12.466404
1426794650.239,10.518845
1426794650.255,5.128956
1426794650.27,1.0907135
1426794650.286,0.9277916
1426794650.302,4.453125
1426794650.317,9.804977
1426794650.333,15.121811
1426794650.348,19.114857
1426794650.364,20.822922
1426794650.38,19.068962
1426794650.395,12.819561
1426794650.411,1.7038002
1426794650.427,-13.075935
1426794650.442,-28.783707
1426794650.458,-41.91652
1426794650.473,-49.445457
1426794650.489,-50.272957
1426794650.505,-45.639862
1426794650.52,-38.585854
1426794650.536,-32.493843
1426794650.552,-29.788887
1426794650.567,-31.041138
1426794650.583,-35.052376
1426794650.598,-39.700645
1426794650.614,-42.95063
1426794650.63,-43.666306
1426794650.645,-41.951195
1426794650.661,-38.71411
1426794650.677,-35.038605
1426794650.692,-31.543068
1426794650.708,-28.394005
1426794650.723,-25.45372
1426794650.739,-22.759277
1426794650.755,-20.607468
1426794650.77,-19.446877
1426794650.786,-19.541412
1426794650.802,-20.582527
1426794650.817,-21.742897
1426794650.833,-22.112442
1426794650.848,-21.014267
1426794650.864,-18.270515
1426794650.88,-14.109177
1426794650.895,-9.050438
1426794650.911,-3.7203064
1426794650.927,1.1807022
1426794650.942,5.0634155
1426794650.958,7.5456924
1426794650.973,8.6822815
1426794650.989,8.91954
1426794651.005,8.849365
1426794651.02,8.832649
1426794651.036,8.748871
1426794651.052,8.188705
1426794651.067,6.838478
1426794651.083,5.0790024
1426794651.098,4.0515137
1426794651.114,5.0476837
1426794651.13,8.667236
1426794651.145,13.9804
1426794651.161,18.728485
1426794651.177,20.325233
1426794651.192,17.304848
1426794651.208,10.148582
1426794651.223,1.2357559
1426794651.239,-6.4213943
1426794651.255,-10.606201
1426794651.27,-10.81279
1426794651.286,-8.221855
1426794651.302,-4.6260605
1426794651.317,-1.3614426
1426794651.333,1.0732727
1426794651.348,2.6820984
1426794651.364,3.2732544
1426794651.38,2.1983795
1426794651.395,-1.2268448
1426794651.411,-6.8329697
1426794651.427,-13.172585
1426794651.442,-17.904495
1426794651.458,-19.080147
1426794651.474,-16.198849
1426794651.489,-10.606945
1426794651.505,-4.7018394
1426794651.52,-0.63913727
1426794651.536,0.595623
1426794651.552,-0.58784103
1426794651.567,-3.0705872
1426794651.583,-5.90226
1426794651.599,-8.512405
1426794651.614,-10.754379
1426794651.63,-12.385696
1426794651.645,-13.14447
1426794651.661,-12.682701
1426794651.677,-11.231037
1426794651.692,-9.468517
1426794651.708,-8.10738
1426794651.724,-7.2360764
1426794651.739,-6.180378
1426794651.755,-3.9233818
1426794651.77,0.14086151
1426794651.786,5.4872417
1426794651.802,10.709202
1426794651.817,14.159784
1426794651.833,15.073093
1426794651.849,14.140173
1426794651.864,13.040674
1426794651.88,13.455832
1426794651.895,15.881971
1426794651.911,19.409147
1426794651.927,22.240852
1426794651.942,22.977886
1426794651.958,21.381853
1426794651.974,18.688057
1426794651.989,16.698994
1426794652.005,16.596365
1426794652.02,18.1068
1426794652.036,19.763885
1426794652.052,19.712906
1426794652.067,16.967377
1426794652.083,11.888566
1426794652.099,5.9512568
1426794652.114,0.8594351
1426794652.13,-2.2931395
1426794652.145,-3.3905497
1426794652.161,-2.8919315
1426794652.177,-1.2332983
1426794652.192,1.6022558
1426794652.208,5.968401
1426794652.224,12.198951
1426794652.239,19.873009
1426794652.255,27.998568
1426794652.27,35.29156
1426794652.286,40.703087
1426794652.302,43.958126
1426794652.317,45.572044
1426794652.333,46.62329
1426794652.349,48.324417
1426794652.364,51.619576
1426794652.38,56.61747
1426794652.395,62.80417
1426794652.411,69.23158
1426794652.427,74.70207
1426794652.442,78.214264
1426794652.458,79.207825
1426794652.474,77.75464
1426794652.489,74.40224
1426794652.505,69.90263
1426794652.52,64.44472
1426794652.536,58.171085
1426794652.552,51.252594
1426794652.567,44.14201
1426794652.583,37.493553
1426794652.599,31.888535
1426794652.614,27.25618
1426794652.63,22.385002
1426794652.645,17.421486
1426794652.661,11.258804
1426794652.677,2.8371048
1426794652.692,-8.196487
1426794652.708,-21.110062
1426794652.724,-34.190033
1426794652.739,-45.440895
1426794652.755,-53.31382
1426794652.77,-57.273766
1426794652.786,-57.831093
1426794652.802,-56.50412
1426794652.817,-54.73381
1426794652.833,-53.38954
1426794652.849,-52.529816
1426794652.864,-51.61171
1426794652.88,-49.942337
1426794652.895,-47.166565
1426794652.911,-43.42534
1426794652.927,-39.282516
1426794652.942,-35.65573
1426794652.958,-33.119644
1426794652.974,-31.675919
1426794652.989,-30.765335
1426794653.005,-29.53952
1426794653.02,-27.3609
1426794653.036,-24.034561
1426794653.052,-19.838043
1426794653.067,-15.2378235
1426794653.083,-10.685623
1426794653.099,-6.193268
1426794653.114,-1.4651642
1426794653.13,3.7597961
1426794653.145,9.296555
1426794653.161,14.479736
1426794653.177,18.528534
1426794653.192,21.153183
1426794653.208,22.979523
1426794653.224,25.424118
1426794653.239,30.199142
1426794653.255,38.380783
1426794653.27,49.671524
1426794653.286,62.382935
1426794653.302,74.08957
1426794653.317,82.80789
1426794653.333,87.84689
1426794653.349,90.13745
1426794653.364,91.61844
1426794653.38,94.22455
1426794653.395,98.88342
1426794653.411,105.12491
1426794653.427,111.41449
1426794653.442,116.01709
1426794653.458,117.78516
1426794653.474,116.53253
1426794653.489,112.72464
1426794653.505,106.867645
1426794653.52,98.930115
1426794653.536,88.368774
1426794653.552,74.71768
1426794653.567,58.25107
1426794653.583,40.228577
1426794653.599,22.490295
1426794653.614,6.5064697
1426794653.63,-7.328705
1426794653.645,-19.865692
1426794653.661,-32.461243
1426794653.677,-45.88257
1426794653.692,-59.552612
1426794653.708,-71.59033
1426794653.724,-79.710205
1426794653.739,-82.3866
1426794653.755,-79.67297
1426794653.77,-73.323
1426794653.786,-66.05759
1426794653.802,-60.62155
1426794653.817,-58.92926
1426794653.833,-61.557068
1426794653.849,-67.73999
1426794653.864,-75.62976
1426794653.88,-82.86798
1426794653.895,-87.30475
1426794653.911,-87.64917
1426794653.927,-83.73157
1426794653.942,-76.34839
1426794653.958,-66.70117
1426794653.974,-55.868347
1426794653.989,-44.668213
1426794654.005,-33.880188
1426794654.02,-24.713379
1426794654.036,-18.804993
1426794654.052,-17.673218
1426794654.067,-21.74768
1426794654.083,-29.76123
1426794654.099,-38.96045
1426794654.114,-46.271973
1426794654.13,-49.79669
1426794654.146,-49.790833
1426794654.161,-48.44104
1426794654.177,-48.59558
1426794654.192,-52.179382
1426794654.208,-59.25769
1426794654.224,-68.11902
1426794654.239,-76.39032
1426794654.255,-82.22528
1426794654.271,-85.127075
1426794654.286,-85.72754
1426794654.302,-85.08301
1426794654.317,-83.86224
1426794654.333,-81.93762
1426794654.349,-78.403564
1426794654.364,-72.0636
1426794654.38,-61.910217
1426794654.396,-47.564575
1426794654.411,-29.47931
1426794654.427,-8.92511
1426794654.442,12.1293335
1426794654.458,31.34607
1426794654.474,46.537476
1426794654.489,56.098694
1426794654.505,59.330994
1426794654.521,56.30896
1426794654.536,47.579285
1426794654.552,33.68994
1426794654.567,15.143799
1426794654.583,-7.338196
1426794654.599,-32.443237
1426794654.614,-58.09497
1426794654.63,-81.83179
1426794654.646,-101.60828
1426794654.661,-116.38098
1426794654.677,-126.16205
1426794654.692,-131.37537
1426794654.708,-132.16724
1426794654.724,-127.95477
1426794654.739,-117.954834
1426794654.755,-102.05737
1426794654.771,-81.72046
1426794654.786,-59.872437
1426794654.802,-39.93518
1426794654.817,-24.39093
1426794654.833,-13.784973
1426794654.849,-6.7474976
1426794654.864,-1.0001831
1426794654.88,5.2717896
1426794654.896,12.398193
1426794654.911,19.278625
1426794654.927,24.218018
1426794654.942,26.03955
1426794654.958,24.813538
1426794654.974,21.900635
1426794654.989,19.161194
1426794655.005,18.04071
1426794655.021,18.818726
1426794655.036,20.667175
1426794655.052,22.256287
1426794655.067,22.648865
1426794655.083,21.857117
1426794655.099,20.835693
1426794655.114,20.871582
1426794655.13,22.804565
1426794655.146,26.510681
1426794655.161,30.993134
1426794655.177,34.934845
1426794655.192,37.435028
1426794655.208,38.44742
1426794655.224,38.81726
1426794655.239,39.755188
1426794655.255,42.260315
1426794655.271,46.55072
1426794655.286,52.046844
1426794655.302,57.657074
1426794655.317,62.37799
1426794655.333,65.82175
1426794655.349,68.462585
1426794655.364,71.41739
1426794655.38,75.984344
1426794655.396,82.90805
1426794655.411,91.97589
1426794655.427,101.95596
1426794655.442,110.98047
1426794655.458,117.17844
1426794655.474,119.337585
1426794655.489,117.11102
1426794655.505,110.874115
1426794655.521,101.22296
1426794655.536,88.63794
1426794655.552,73.356995
1426794655.567,55.601776
1426794655.583,35.93405
1426794655.599,15.46759
1426794655.614,-4.361664
1426794655.63,-22.2099
1426794655.646,-37.382416
1426794655.661,-49.94702
1426794655.677,-60.51895
1426794655.692,-69.72461
1426794655.708,-77.75464
1426794655.724,-84.16107
1426794655.739,-88.23389
1426794655.755,-89.43396
1426794655.771,-87.92349
1426794655.786,-84.60434
1426794655.802,-80.778625
1426794655.817,-77.594666
1426794655.833,-75.52362
1426794655.849,-74.18469
1426794655.864,-72.68674
1426794655.88,-70.1676
1426794655.896,-66.33234
1426794655.911,-61.58484
1426794655.927,-56.759094
1426794655.942,-52.621063
1426794655.958,-49.361084
1426794655.974,-46.442963
1426794655.989,-42.937653
1426794656.005,-38.05197
1426794656.021,-31.648376
1426794656.036,-24.365784
1426794656.052,-17.266266
1426794656.067,-11.283936
1426794656.083,-6.7111206
1426794656.099,-3.039215
1426794656.114,0.71673584
1426794656.13,5.4720154
1426794656.146,11.548431
1426794656.161,18.552155
1426794656.177,25.615631
1426794656.192,31.824524
1426794656.208,36.578888
1426794656.224,39.694122
1426794656.239,41.20096
1426794656.255,41.045166
1426794656.271,38.887634
1426794656.286,34.201447
1426794656.302,26.535095
1426794656.317,15.872772
1426794656.333,2.8918762
1426794656.349,-11.060211
1426794656.364,-24.20758
1426794656.38,-34.83145
1426794656.396,-41.787994
1426794656.411,-44.79654
1426794656.427,-44.484406
1426794656.442,-42.10199
1426794656.458,-38.98831
1426794656.474,-36.066742
1426794656.489,-33.646545
1426794656.505,-31.539612
1426794656.521,-29.465118
1426794656.536,-27.433899
1426794656.552,-25.8031
1426794656.567,-25.08429
1426794656.583,-25.5242
1426794656.599,-26.81903
1426794656.614,-28.131897
1426794656.63,-28.544159
1426794656.646,-27.558563
1426794656.661,-25.38443
1426794656.677,-22.836456
1426794656.692,-20.865448
1426794656.708,-19.910767
1426794656.724,-19.630615
1426794656.739,-19.082642
1426794656.755,-17.321411
1426794656.771,-14.020996
1426794656.786,-9.768433
1426794656.802,-5.7256775
1426794656.818,-3.0422974
1426794656.833,-2.100525
1426794656.849,-2.34021
1426794656.864,-2.533081
1426794656.88,-1.5119324
1426794656.896,1.1299438
1426794656.911,4.833252
1426794656.927,8.415039
1426794656.942,10.748703
1426794656.958,11.458939
1426794656.974,11.171051
1426794656.989,11.156494
1426794657.005,12.613861
1426794657.021,15.986908
1426794657.036,20.723572
1426794657.052,25.621185
1426794657.068,29.45871
1426794657.083,31.76416
1426794657.099,33.045883
1426794657.114,34.517197
1426794657.13,37.34265
1426794657.146,41.940308
1426794657.161,47.74858
1426794657.177,53.550385
1426794657.193,58.185333
1426794657.208,61.26271
1426794657.224,63.40663
1426794657.239,65.90964
1426794657.255,69.94267
1426794657.271,75.88316
1426794657.286,83.10278
1426794657.302,90.43387
1426794657.318,96.85365
1426794657.333,102.17485
1426794657.349,107.04373
1426794657.364,112.41536
1426794657.38,118.65138
1426794657.396,124.87164
1426794657.411,129.08725
1426794657.427,128.9281
1426794657.443,122.74933
1426794657.458,110.47476
1426794657.474,93.68303
1426794657.489,74.870224
1426794657.505,56.323135
1426794657.521,39.194275
1426794657.536,23.261368
1426794657.552,7.533127
1426794657.568,-8.893631
1426794657.583,-25.993683
1426794657.599,-42.68979
1426794657.614,-57.315475
1426794657.63,-68.51218
1426794657.646,-75.928925
1426794657.661,-80.32002
1426794657.677,-83.09784
1426794657.693,-85.51869
1426794657.708,-88.03241
1426794657.724,-90.09238
1426794657.739,-90.65907
1426794657.755,-88.94389
1426794657.771,-85.06241
1426794657.786,-80.1165
1426794657.802,-75.676575
1426794657.818,-73.01819
1426794657.833,-72.31285
1426794657.849,-72.58714
1426794657.864,-72.18126
1426794657.88,-69.71738
1426794657.896,-64.8531
1426794657.911,-58.454895
1426794657.927,-52.095825
1426794657.943,-47.15396
1426794657.958,-44.01111
1426794657.974,-41.883514
1426794657.989,-39.353134
1426794658.005,-35.230637
1426794658.021,-29.275269
1426794658.036,-22.304245
1426794658.052,-15.660461
1426794658.068,-10.426941
1426794658.083,-6.7530365
1426794658.099,-3.8319397
1426794658.114,-0.3454132
1426794658.13,4.6874695
1426794658.146,11.363113
1426794658.161,18.86116
1426794658.177,25.920563
1426794658.193,31.547806
1426794658.208,35.616013
1426794658.224,38.89601
1426794658.239,42.608383
1426794658.255,47.625626
1426794658.271,54.01085
1426794658.286,60.97284
1426794658.302,67.445435
1426794658.318,72.717224
1426794658.333,77.02318
1426794658.349,81.31058
1426794658.364,86.61867
1426794658.38,93.14702
1426794658.396,99.82692
1426794658.411,104.522415
1426794658.427,104.94122
1426794658.443,99.67842
1426794658.458,88.921814
1426794658.474,74.37167
1426794658.489,58.399734
1426794658.505,42.99254
1426794658.521,28.927612
1426794658.536,15.7591095
1426794658.552,2.45607
1426794658.568,-11.713425
1426794658.583,-26.43126
1426794658.599,-40.39174
1426794658.614,-51.833725
1426794658.63,-59.570526
1426794658.646,-63.538696
1426794658.661,-64.859604
1426794658.677,-65.19075
1426794658.693,-65.87245
1426794658.708,-67.23364
1426794658.724,-68.595
1426794658.739,-68.78259
1426794658.755,-67.009705
1426794658.771,-63.44835
1426794658.786,-59.170013
1426794658.802,-55.61583
1426794658.818,-53.816666
1426794658.833,-53.721725
1426794658.849,-54.260544
1426794658.864,-53.87628
1426794658.88,-51.439346
1426794658.896,-46.824783
1426794658.911,-40.984726
1426794658.927,-35.368073
1426794658.943,-31.095474
1426794658.958,-28.30365
1426794658.974,-26.108871
1426794658.989,-23.1557
1426794659.005,-18.461472
1426794659.021,-12.024307
1426794659.036,-4.794113
1426794659.052,1.8806458
1426794659.068,7.07312
1426794659.083,10.824646
1426794659.099,14.053177
1426794659.114,17.996643
1426794659.13,23.330421
1426794659.146,29.772362
1426794659.161,36.184006
1426794659.177,41.2567
1426794659.193,44.326233
1426794659.208,45.897858
1426794659.224,47.432404
1426794659.239,50.572014
1426794659.255,56.16198
1426794659.271,63.615326
1426794659.286,71.0621
1426794659.302,76.09766
1426794659.318,76.870346
1426794659.333,72.80339
1426794659.349,64.691635
1426794659.364,54.090164
1426794659.38,42.413956
1426794659.396,30.300568
1426794659.411,17.593292
1426794659.427,3.9114761
1426794659.443,-10.651154
1426794659.458,-25.00978
1426794659.474,-37.37751
1426794659.489,-45.95211
1426794659.505,-49.857635
1426794659.521,-49.58349
1426794659.536,-46.8198
1426794659.552,-43.604446
1426794659.568,-41.445076
1426794659.583,-40.665207
1426794659.599,-40.524475
1426794659.614,-39.879692
1426794659.63,-38.02057
1426794659.646,-35.145958
1426794659.661,-32.19957
1426794659.677,-30.305374
1426794659.693,-30.029518
1426794659.708,-30.994186
1426794659.724,-32.06703
1426794659.74,-31.991508
1426794659.755,-30.12912
1426794659.771,-26.750061
1426794659.786,-22.866623
1426794659.802,-19.653313
1426794659.818,-17.787231
1426794659.833,-17.039413
1426794659.849,-16.463593
1426794659.865,-14.927551
1426794659.88,-11.8264885
1426794659.896,-7.4006233
1426794659.911,-2.6363869
1426794659.927,1.3040504
1426794659.943,3.7165604
1426794659.958,4.828186
1426794659.974,5.671303
1426794659.99,7.5253334
1426794660.005,11.170177
1426794660.021,16.456913
1426794660.036,22.408264
1426794660.052,27.789993
1426794660.068,31.822529
1426794660.083,34.695343
1426794660.099,37.43343
1426794660.115,41.284824
1426794660.13,46.897793
1426794660.146,53.890236
1426794660.161,61.03906
1426794660.177,66.99208
1426794660.193,71.06503
1426794660.208,73.787865
1426794660.224,76.63426
1426794660.24,81.272156
1426794660.255,88.50784
1426794660.271,97.7677
1426794660.286,107.221634
1426794660.302,114.50859
1426794660.318,117.71109
1426794660.333,116.074875
1426794660.349,110.0817
1426794660.365,100.94974
1426794660.38,89.8239
1426794660.396,77.21146
1426794660.411,62.95578
1426794660.427,46.649025
1426794660.443,28.270267
1426794660.458,8.6368065
1426794660.474,-10.707619
1426794660.49,-28.060822
1426794660.505,-42.394318
1426794660.521,-53.747955
1426794660.536,-63.099976
1426794660.552,-71.65172
1426794660.568,-80.02543
1426794660.583,-87.81391
1426794660.599,-93.787544
1426794660.615,-96.63214
1426794660.63,-95.86779
1426794660.646,-92.21901
1426794660.661,-87.3345
1426794660.677,-83.00217
1426794660.693,-80.30849
1426794660.708,-79.125496
1426794660.724,-78.38026
1426794660.74,-76.7234
1426794660.755,-73.387505
1426794660.771,-68.588196
1426794660.786,-63.3183
1426794660.802,-58.73175
1426794660.818,-55.44993
1426794660.833,-53.18289
1426794660.849,-50.89911
1426794660.865,-47.483208
1426794660.88,-42.416313
1426794660.896,-36.056496
1426794660.911,-29.424576
1426794660.927,-23.599365
1426794660.943,-19.081978
1426794660.958,-15.452957
1426794660.974,-11.714836
1426794660.99,-6.850868
1426794661.005,-0.57424164
1426794661.021,6.5567627
1426794661.036,13.418449
1426794661.052,19.00428
1426794661.068,23.061996
1426794661.083,26.292213
1426794661.099,29.949028
1426794661.115,35.143555
1426794661.13,42.146057
1426794661.146,50.226593
1426794661.161,58.05126
1426794661.177,64.437805
1426794661.193,69.03618
1426794661.208,72.62956
1426794661.224,76.659874
1426794661.24,82.43768
1426794661.255,90.214226
1426794661.271,98.85202
1426794661.286,106.16002
1426794661.302,109.74084
1426794661.318,107.985535
1426794661.333,100.703514
1426794661.349,89.0505
1426794661.365,74.85138
1426794661.38,59.685486
1426794661.396,44.281654
1426794661.411,28.552017
1426794661.427,12.024231
1426794661.443,-5.4083176
1426794661.458,-23.059067
1426794661.474,-39.559074
1426794661.49,-53.400414
1426794661.505,-63.755226
1426794661.521,-70.76705
1426794661.536,-75.441505
1426794661.552,-79.04018
1426794661.568,-82.33861
1426794661.583,-85.20519
1426794661.599,-86.77825
1426794661.615,-86.101944
1426794661.63,-82.87412
1426794661.646,-77.807724
1426794661.661,-72.36224
1426794661.677,-68.0255
1426794661.693,-65.57279
1426794661.708,-64.60082
1426794661.724,-63.861153
1426794661.74,-61.935272
1426794661.755,-58.086075
1426794661.771,-52.612328
1426794661.786,-46.637024
1426794661.802,-41.42698
1426794661.818,-37.66147
1426794661.833,-35.04068
1426794661.849,-32.508263
1426794661.865,-28.909477
1426794661.88,-23.719406
1426794661.896,-17.361404
1426794661.911,-10.988098
1426794661.927,-5.824913
1426794661.943,-2.4633636
1426794661.958,-0.45350647
1426794661.974,1.432785
1426794661.99,4.5777435
1426794662.005,9.654793
1426794662.021,16.314331
1426794662.036,23.406166
1426794662.052,29.62648
1426794662.068,34.273354
1426794662.083,37.660408
1426794662.099,40.833824
1426794662.115,44.937943
1426794662.13,50.45806
1426794662.146,56.973717
1426794662.161,63.45497
1426794662.177,68.93487
1426794662.193,73.198654
1426794662.208,76.99547
1426794662.224,81.5656
1426794662.24,87.82268
1426794662.255,95.5075
1426794662.271,103.03438
1426794662.286,107.99486
1426794662.302,108.13561
1426794662.318,102.37556
1426794662.333,91.25175
1426794662.349,76.52623
1426794662.365,60.344437
1426794662.38,44.20135
1426794662.396,28.544712
1426794662.412,12.95982
1426794662.427,-3.1130714
1426794662.443,-19.65121
1426794662.458,-35.74135
1426794662.474,-49.924088
1426794662.49,-60.87243
1426794662.505,-68.0665
1426794662.521,-72.05503
1426794662.537,-74.05121
1426794662.552,-75.319
1426794662.568,-76.5057
1426794662.583,-77.41456
1426794662.599,-77.28933
1426794662.615,-75.42944
1426794662.63,-71.81871
1426794662.646,-67.247955
1426794662.662,-63.0363
1426794662.677,-60.314217
1426794662.693,-59.41671
1426794662.708,-59.621696
1426794662.724,-59.51084
1426794662.74,-57.739746
1426794662.755,-53.77127
1426794662.771,-48.130943
1426794662.787,-42.049297
1426794662.802,-36.78426
1426794662.818,-32.890266
1426794662.833,-29.943016
1426794662.849,-26.8782
1426794662.865,-22.635208
1426794662.88,-16.886776
1426794662.896,-10.172642
1426794662.912,-3.6760712
1426794662.927,1.4838448
1426794662.943,4.8723145
1426794662.958,7.0039673
1426794662.974,9.073093
1426794662.99,12.306557
1426794663.005,17.280495
1426794663.021,23.63256
1426794663.037,30.26445
1426794663.052,35.944794
1426794663.068,40.025524
1426794663.083,42.834343
1426794663.099,45.447403
1426794663.115,49.111996
1426794663.13,54.464516
1426794663.146,61.258533
1426794663.162,68.537125
1426794663.177,75.2392
1426794663.193,80.80949
1426794663.208,85.39925
1426794663.224,89.489075
1426794663.24,93.26831
1426794663.255,96.098
1426794663.271,96.56184
1426794663.287,93.04738
1426794663.302,84.54989
1426794663.318,71.27434
1426794663.333,54.701942
1426794663.349,36.980373
1426794663.365,20.06818
1426794663.38,4.9758377
1426794663.396,-8.3451805
1426794663.412,-20.64756
1426794663.427,-32.655876
1426794663.443,-44.407043
1426794663.458,-55.069904
1426794663.474,-63.356525
1426794663.49,-68.21581
1426794663.505,-69.52402
1426794663.521,-68.198616
1426794663.537,-65.80773
1426794663.552,-63.78655
1426794663.568,-62.737373
1426794663.583,-62.21777
1426794663.599,-61.152847
1426794663.615,-58.609413
1426794663.63,-54.468445
1426794663.646,-49.53096
1426794663.662,-45.071407
1426794663.677,-42.09484
1426794663.693,-40.678295
1426794663.708,-39.87787
1426794663.724,-38.25144
1426794663.74,-34.619785
1426794663.755,-28.836063
1426794663.771,-21.797207
1426794663.787,-15.043152
1426794663.802,-9.892052
1426794663.818,-6.7623463
1426794663.833,-4.944647
1426794663.849,-3.0152721
1426794663.865,0.3529091
1426794663.88,5.6989384
1426794663.896,12.441694
1426794663.912,19.256413
1426794663.927,24.708998
1426794663.943,27.95645
1426794663.958,29.061768
1426794663.974,28.689373
1426794663.99,27.484581
1426794664.005,25.48306
1426794664.021,22.02944
1426794664.037,16.145805
1426794664.052,7.2627363
1426794664.068,-4.1576333
1426794664.083,-16.523916
1426794664.099,-27.641047
1426794664.115,-35.598255
1426794664.13,-39.610786
1426794664.146,-40.22101
1426794664.162,-38.882652
1426794664.177,-37.145226
1426794664.193,-35.845722
1426794664.208,-34.840576
1426794664.224,-33.376892
1426794664.24,-30.80175
1426794664.255,-27.185162
1426794664.271,-23.433249
1426794664.287,-20.793694
1426794664.302,-20.147316
1426794664.318,-21.420021
1426794664.333,-23.52386
1426794664.349,-24.920757
1426794664.365,-24.454605
1426794664.38,-21.98211
1426794664.396,-18.403137
1426794664.412,-15.145966
1426794664.427,-13.36396
1426794664.443,-13.264381
1426794664.458,-14.039291
1426794664.474,-14.370163
1426794664.49,-13.205215
1426794664.505,-10.43261
1426794664.521,-6.8722687
1426794664.537,-3.81781
1426794664.552,-2.2499084
1426794664.568,-2.242607
1426794664.583,-2.9281845
1426794664.599,-3.0630264
1426794664.615,-1.777626
1426794664.63,0.86380005
1426794664.646,3.9164047
1426794664.662,6.1065674
1426794664.677,6.6336517
1426794664.693,5.687683
1426794664.708,4.3910217
1426794664.724,4.1744995
1426794664.74,5.9405365
1426794664.755,9.519608
1426794664.771,13.820953
1426794664.787,17.40802
1426794664.802,19.335709
1426794664.818,19.689133
1426794664.833,19.525208
1426794664.849,20.231537
1426794664.865,22.722443
1426794664.88,26.826935
1426794664.896,31.474945
1426794664.912,35.25479
1426794664.927,37.286163
1426794664.943,37.749756
1426794664.958,37.831924
1426794664.974,39.026367
1426794664.99,42.327652
1426794665.005,47.625717
1426794665.021,53.80626
1426794665.037,59.39148
1426794665.052,63.31845
1426794665.068,65.55086
1426794665.084,67.03841
1426794665.099,69.196045
1426794665.115,73.07422
1426794665.13,78.819595
1426794665.146,85.62042
1426794665.162,92.09308
1426794665.177,96.94287
1426794665.193,99.431366
1426794665.209,99.54707
1426794665.224,97.69124
1426794665.24,94.17839
1426794665.255,88.885544
1426794665.271,81.27528
1426794665.287,70.764725
1426794665.302,57.222336
1426794665.318,41.381424
1426794665.334,24.701157
1426794665.349,8.881973
1426794665.365,-4.902191
1426794665.38,-16.442886
1426794665.396,-26.426956
1426794665.412,-35.921616
1426794665.427,-45.552063
1426794665.443,-55.040985
1426794665.459,-63.199158
1426794665.474,-68.67467
1426794665.49,-70.71164
1426794665.505,-69.70691
1426794665.521,-67.04167
1426794665.537,-64.44539
1426794665.552,-63.082184
1426794665.568,-63.01332
1426794665.584,-63.311615
1426794665.599,-62.69806
1426794665.615,-60.416504
1426794665.63,-56.66591
1426794665.646,-52.474197
1426794665.662,-49.046432
1426794665.677,-47.00972
1426794665.693,-46.010956
1426794665.709,-44.88623
1426794665.724,-42.376038
1426794665.74,-37.84355
1426794665.755,-31.692947
1426794665.771,-25.086334
1426794665.787,-19.356476
1426794665.802,-15.236481
1426794665.818,-12.503891
1426794665.834,-10.151199
1426794665.849,-7.024292
1426794665.865,-2.5508118
1426794665.88,2.9355927
1426794665.896,8.392334
1426794665.912,12.664017
1426794665.927,15.192642
1426794665.943,16.368164
1426794665.959,17.352402
1426794665.974,19.42302
1426794665.99,23.240555
1426794666.005,28.467087
1426794666.021,33.9691
1426794666.037,38.416367
1426794666.052,41.086105
1426794666.068,42.350204
1426794666.084,43.51213
1426794666.099,46.173264
1426794666.115,51.283066
1426794666.13,58.58052
1426794666.146,66.60347
1426794666.162,73.29906
1426794666.177,76.93118
1426794666.193,76.81033
1426794666.209,73.41208
1426794666.224,67.858444
1426794666.24,61.20067
1426794666.255,53.760803
1426794666.271,45.174194
1426794666.287,34.799606
1426794666.302,22.449707
1426794666.318,8.812744
1426794666.334,-4.677948
1426794666.349,-16.448044
1426794666.365,-25.552856
1426794666.38,-32.05652
1426794666.396,-36.878662
1426794666.412,-41.218994
1426794666.427,-45.773117
1426794666.443,-50.337708
1426794666.459,-53.92575
1426794666.474,-55.443542
1426794666.49,-54.3824
1426794666.505,-51.26883
1426794666.521,-47.417786
1426794666.537,-44.358337
1426794666.552,-42.996002
1426794666.568,-43.177658
1426794666.584,-43.845535
1426794666.599,-43.704353
1426794666.615,-42.058952
1426794666.63,-39.175682
1426794666.646,-36.129227
1426794666.662,-34.1148
1426794666.677,-33.660065
1426794666.693,-34.235786
1426794666.709,-34.50882
1426794666.724,-33.104874
1426794666.74,-29.396584
1426794666.755,-23.919685
1426794666.771,-18.014694
1426794666.787,-13.150635
1426794666.802,-10.062553
1426794666.818,-8.326813
1426794666.834,-6.6591263
1426794666.849,-3.6327667
1426794666.865,1.4362106
1426794666.88,8.087334
1426794666.896,15.005981
1426794666.912,20.71592
1426794666.927,24.447685
1426794666.943,26.549751
1426794666.959,28.297516
1426794666.974,31.13565
1426794666.99,35.882484
1426794667.005,42.277985
1426794667.021,49.23416
1426794667.037,55.413948
1426794667.052,59.967102
1426794667.068,62.82139
1426794667.084,64.48567
1426794667.099,65.47709
1426794667.115,65.64767
1426794667.13,64.10082
1426794667.146,59.530212
1426794667.162,50.933083
1426794667.177,38.344154
1426794667.193,23.062546
1426794667.209,7.2687454
1426794667.224,-6.8350296
1426794667.24,-17.897934
1426794667.255,-25.81295
1426794667.271,-31.45057
1426794667.287,-35.991066
1426794667.302,-40.140266
1426794667.318,-43.715897
1426794667.334,-45.911255
1426794667.349,-45.950935
1426794667.365,-43.794426
1426794667.38,-40.35697
1426794667.396,-37.168816
1426794667.412,-35.6043
1426794667.427,-36.15731
1426794667.443,-38.118004
1426794667.459,-39.970695
1426794667.474,-40.2033
1426794667.49,-38.13916
1426794667.505,-34.297333
1426794667.521,-30.015
1426794667.537,-26.73407
1426794667.552,-25.104813
1426794667.568,-24.661072
1426794667.584,-24.119415
1426794667.599,-22.163345
1426794667.615,-18.230331
1426794667.63,-12.855225
1426794667.646,-7.2650757
1426794667.662,-2.7465515
1426794667.677,0.14014435
1426794667.693,1.8308105
1426794667.709,3.4345322
1426794667.724,6.089134
1426794667.74,10.2127075
1426794667.756,15.367523
1426794667.771,20.508774
1426794667.787,24.63237
1426794667.802,27.380997
1426794667.818,29.264435
1426794667.834,31.379837
1426794667.849,34.772278
1426794667.865,39.78608
1426794667.88,45.857574
1426794667.896,51.818832
1426794667.912,56.532852
1426794667.927,59.66716
1426794667.943,61.90982
1426794667.959,64.67735
1426794667.974,69.30074
1426794667.99,76.14127
1426794668.006,84.21192
1426794668.021,91.49961
1426794668.037,95.75834
1426794668.052,95.51303
1426794668.068,90.65164
1426794668.084,82.24661
1426794668.099,71.883934
1426794668.115,60.75379
1426794668.131,49.150604
1426794668.146,36.659603
1426794668.162,22.672752
1426794668.177,7.180542
1426794668.193,-8.92841
1426794668.209,-24.114166
1426794668.224,-36.873383
1426794668.24,-46.478283
1426794668.256,-53.251316
1426794668.271,-58.280415
1426794668.287,-62.74912
1426794668.302,-67.201584
1426794668.318,-71.25805
1426794668.334,-73.91996
1426794668.349,-74.25099
1426794668.365,-72.11174
1426794668.381,-68.34548
1426794668.396,-64.42026
1426794668.412,-61.734566
1426794668.427,-60.805576
1426794668.443,-61.047028
1426794668.459,-61.095055
1426794668.474,-59.62626
1426794668.49,-56.121494
1426794668.506,-51.181904
1426794668.521,-46.08882
1426794668.537,-42.137592
1426794668.552,-39.785915
1426794668.568,-38.436047
1426794668.584,-36.802944
1426794668.599,-33.704937
1426794668.615,-28.804466
1426794668.631,-22.788515
1426794668.646,-16.979824
1426794668.662,-12.593605
1426794668.677,-10.007729
1426794668.693,-8.545138
1426794668.709,-6.871272
1426794668.724,-3.7207499
1426794668.74,1.327405
1426794668.756,7.6762
1426794668.771,14.074258
1426794668.787,19.326567
1426794668.802,22.998875
1426794668.818,25.631231
1426794668.834,28.376936
1426794668.849,32.272728
1426794668.865,37.624985
1426794668.881,43.860588
1426794668.896,49.966988
1426794668.912,55.119766
1426794668.927,59.29429
1426794668.943,63.26799
1426794668.959,68.02705
1426794668.974,73.994125
1426794668.99,80.43428
1426794669.006,85.56583
1426794669.021,87.26939
1426794669.037,84.00632
1426794669.052,75.619736
1426794669.068,63.39436
1426794669.084,49.44946
1426794669.099,35.754597
1426794669.115,23.321053
1426794669.131,11.947697
1426794669.146,0.6829567
1426794669.162,-11.398144
1426794669.177,-24.419964
1426794669.193,-37.47448
1426794669.209,-49.048904
1426794669.224,-57.799202
1426794669.24,-63.270634
1426794669.256,-66.06549
1426794669.271,-67.451485
1426794669.287,-68.61197
1426794669.302,-69.95795
1426794669.318,-71.00616
1426794669.334,-70.77104
1426794669.349,-68.55592
1426794669.365,-64.521706
1426794669.381,-59.754356
1426794669.396,-55.726303
1426794669.412,-53.54516
1426794669.427,-53.297813
1426794669.443,-53.957947
1426794669.459,-53.948715
1426794669.474,-51.97159
1426794669.49,-47.76396
1426794669.506,-42.18975
1426794669.521,-36.783356
1426794669.537,-32.91871
1426794669.552,-30.980827
1426794669.568,-30.174614
1426794669.584,-28.987541
1426794669.599,-26.085724
1426794669.615,-21.072723
1426794669.631,-14.759865
1426794669.646,-8.647331
1426794669.662,-4.064293
1426794669.677,-1.3424225
1426794669.693,0.37174225
1426794669.709,2.5934258
1426794669.724,6.5949783
1426794669.74,12.6124
1426794669.756,19.757114
1426794669.771,26.529507
1426794669.787,31.708172
1426794669.802,35.08194
1426794669.818,37.502445
1426794669.834,40.379295
1426794669.849,44.788147
1426794669.865,50.908627
1426794669.881,57.98033
1426794669.896,64.836
1426794669.912,70.56221
1426794669.927,74.98461
1426794669.943,78.54291
1426794669.959,81.75726
1426794669.974,84.589676
1426794669.99,86.19507
1426794670.006,85.163
1426794670.021,80.21126
1426794670.037,70.84617
1426794670.052,57.763382
1426794670.068,42.613914
1426794670.084,27.354416
1426794670.099,13.44231
1426794670.115,1.3626976
1426794670.131,-9.352318
1426794670.146,-19.592678
1426794670.162,-29.99218
1426794670.177,-40.375984
1426794670.193,-49.77919
1426794670.209,-56.887127
1426794670.224,-60.819298
1426794670.24,-61.636276
1426794670.256,-60.395798
1426794670.271,-58.657547
1426794670.287,-57.703697
1426794670.302,-57.876114
1426794670.318,-58.49019
1426794670.334,-58.330322
1426794670.349,-56.47547
1426794670.365,-52.891685
1426794670.381,-48.4823
1426794670.396,-44.602768
1426794670.412,-42.276375
1426794670.428,-41.55626
1426794670.443,-41.51127
1426794670.459,-40.732597
1426794670.474,-38.218826
1426794670.49,-33.929253
1426794670.506,-28.853722
1426794670.521,-24.3975
1426794670.537,-21.598114
1426794670.552,-20.46254
1426794670.568,-19.969078
1426794670.584,-18.664394
1426794670.599,-15.563896
1426794670.615,-10.691208
1426794670.631,-5.0902977
1426794670.646,-0.18861389
1426794670.662,3.0932465
1426794670.678,4.907776
1426794670.693,6.400139
1426794670.709,9.051006
1426794670.724,13.716335
1426794670.74,20.144928
1426794670.756,27.100548
1426794670.771,33.045555
1426794670.787,36.979298
1426794670.803,39.042557
1426794670.818,40.376896
1426794670.834,42.513744
1426794670.849,46.519382
1426794670.865,52.50208
1426794670.881,59.641056
1426794670.896,66.633865
1426794670.912,72.35161
1426794670.928,76.292435
1426794670.943,78.56361
1426794670.959,79.51845
1426794670.974,79.1935
1426794670.99,77.06706
1426794671.006,72.22258
1426794671.021,63.859905
1426794671.037,51.944626
1426794671.053,37.49863
1426794671.068,22.342278
1426794671.084,8.384201
1426794671.099,-3.2419205
1426794671.115,-12.58643
1426794671.131,-20.668987
1426794671.146,-28.721561
1426794671.162,-37.394234
1426794671.178,-46.214725
1426794671.193,-53.819206
1426794671.209,-58.678085
1426794671.224,-60.039776
1426794671.24,-58.337204
1426794671.256,-55.021683
1426794671.271,-51.812584
1426794671.287,-49.879314
1426794671.303,-49.31958
1426794671.318,-49.306736
1426794671.334,-48.670227
1426794671.349,-46.73031
1426794671.365,-43.665447
1426794671.381,-40.388824
1426794671.396,-37.984688
1426794671.412,-36.996807
1426794671.428,-36.98831
1426794671.443,-36.73651
1426794671.459,-34.897762
1426794671.474,-30.780445
1426794671.49,-24.812717
1426794671.506,-18.310291
1426794671.521,-12.783947
1426794671.537,-9.14735
1426794671.553,-7.2093353
1426794671.568,-5.8377724
1426794671.584,-3.6517525
1426794671.599,0.14461517
1426794671.615,5.3490105
1426794671.631,10.920227
1426794671.646,15.651875
1426794671.662,18.871681
1426794671.678,20.845776
1426794671.693,22.503365
1426794671.709,24.773983
1426794671.724,27.790333
1426794671.74,30.679146
1426794671.756,31.862446
1426794671.771,29.829014
1426794671.787,23.932507
1426794671.803,14.845989
1426794671.818,4.277645
1426794671.834,-5.7311935
1426794671.849,-13.702038
1426794671.865,-19.201307
1426794671.881,-22.765898
1426794671.896,-25.328438
1426794671.912,-27.546698
1426794671.928,-29.384281
1426794671.943,-30.22347
1426794671.959,-29.403086
1426794671.974,-26.862848
1426794671.99,-23.322777
1426794672.006,-20.055641
1426794672.021,-18.269176
1426794672.037,-18.442482
1426794672.053,-20.01481
1426794672.068,-21.696568
1426794672.084,-22.112343
1426794672.099,-20.642178
1426794672.115,-17.648771
1426794672.131,-14.303672
1426794672.146,-11.892991
1426794672.162,-11.067966
1426794672.178,-11.425235
1426794672.193,-11.809607
1426794672.209,-10.926474
1426794672.224,-8.20845
1426794672.24,-4.152649
1426794672.256,-0.086322784
1426794672.271,2.5493279
1426794672.287,3.0380173
1426794672.303,1.778717
1426794672.318,0.05158615
1426794672.334,-0.7594032
1426794672.349,-0.053264618
1426794672.365,1.6821518
1426794672.381,3.1662903
1426794672.396,3.1156387
1426794672.412,1.0848236
1426794672.428,-2.1787987
1426794672.443,-5.124832
1426794672.459,-6.208397
1426794672.474,-4.852211
1426794672.49,-1.6892929
1426794672.506,1.7617035
1426794672.521,3.9243393
1426794672.537,4.0702133
1426794672.553,2.6779327
1426794672.568,1.166954
1426794672.584,1.0701447
1426794672.599,3.1970901
1426794672.615,7.2656097
1426794672.631,12.105377
1426794672.646,16.371178
1426794672.662,19.247139
1426794672.678,20.946457
1426794672.693,22.440567
1426794672.709,24.86779
1426794672.724,28.792068
1426794672.74,33.980515
1426794672.756,39.54708
1426794672.771,44.52855
1426794672.787,48.522247
1426794672.803,51.849663
1426794672.818,55.230553
1426794672.834,59.168236
1426794672.849,63.290733
1426794672.865,66.3721
1426794672.881,66.75609
1426794672.896,63.147354
1426794672.912,55.33
1426794672.928,44.376953
1426794672.943,32.198776
1426794672.959,20.72081
1426794672.974,11.003159
1426794672.99,2.9339752
1426794673.006,-4.4205933
1426794673.021,-12.145584
1426794673.037,-20.621323
1426794673.053,-29.225693
1426794673.068,-36.62999
1426794673.084,-41.576935
1426794673.099,-43.671432
1426794673.115,-43.614746
1426794673.131,-42.843307
1426794673.146,-42.71135
1426794673.162,-43.763687
1426794673.178,-45.423325
1426794673.193,-46.43181
1426794673.209,-45.61708
1426794673.224,-42.701447
1426794673.24,-38.395706
1426794673.256,-34.027817
1426794673.271,-30.817383
1426794673.287,-29.16948
1426794673.303,-28.475525
1426794673.318,-27.501343
1426794673.334,-25.10527
1426794673.35,-20.943893
1426794673.365,-15.651611
1426794673.381,-10.456177
1426794673.396,-6.5073853
1426794673.412,-4.1846924
1426794673.428,-2.8865204
1426794673.443,-1.4228973
1426794673.459,1.3306732
1426794673.475,5.6819305
1426794673.49,10.977264
1426794673.506,15.976669
1426794673.521,19.506989
1426794673.537,21.187027
1426794673.553,21.680206
1426794673.568,22.28569
1426794673.584,24.26828
1426794673.6,28.120834
1426794673.615,33.350296
1426794673.631,38.774994
1426794673.646,43.215134
1426794673.662,46.199005
1426794673.678,48.273163
1426794673.693,50.672714
1426794673.709,54.661835
1426794673.725,60.631226
1426794673.74,67.798386
1426794673.756,74.44212
1426794673.771,78.628265
1426794673.787,79.15642
1426794673.803,76.043625
1426794673.818,70.36774
1426794673.834,63.539444
1426794673.85,56.475723
1426794673.865,49.168427
1426794673.881,40.889664
1426794673.896,30.858582
1426794673.912,19.001907
1426794673.928,6.256302
1426794673.943,-5.761505
1426794673.959,-15.48848
1426794673.975,-22.246231
1426794673.99,-26.458313
1426794674.006,-29.306442
1426794674.021,-32.034866
1426794674.037,-35.199524
1426794674.053,-38.387695
1426794674.068,-40.5486
1426794674.084,-40.698685
1426794674.1,-38.634445
1426794674.115,-35.118317
1426794674.131,-31.536545
1426794674.146,-29.22049
1426794674.162,-28.692001
1426794674.178,-29.429245
1426794674.193,-30.19336
1426794674.209,-29.716888
1426794674.225,-27.49585
1426794674.24,-23.994202
1426794674.256,-20.354141
1426794674.271,-17.724472
1426794674.287,-16.571686
1426794674.303,-16.37062
1426794674.318,-15.989929
1426794674.334,-14.314392
1426794674.35,-10.975388
1426794674.365,-6.505554
1426794674.381,-1.9850616
1426794674.396,1.5957642
1426794674.412,3.9932404
1426794674.428,5.850464
1426794674.443,8.276184
1426794674.459,12.156418
1426794674.475,17.499664
1426794674.49,23.37886
1426794674.506,28.433777
1426794674.521,31.658157
1426794674.537,33.065506
1426794674.553,33.821533
1426794674.568,35.62607
1426794674.584,39.832474
1426794674.6,46.56578
1426794674.615,54.59108
1426794674.631,61.811462
1426794674.646,66.18863
1426794674.662,66.66641
1426794674.678,63.502182
1426794674.693,57.894806
1426794674.709,51.216904
1426794674.725,44.196823
1426794674.74,36.686646
1426794674.756,27.971878
1426794674.771,17.46051
1426794674.787,5.3234406
1426794674.803,-7.3144608
1426794674.818,-18.851059
1426794674.834,-27.904846
1426794674.85,-34.050575
1426794674.865,-37.90174
1426794674.881,-40.69787
1426794674.896,-43.551743
1426794674.912,-46.775253
1426794674.928,-49.722374
1426794674.943,-51.2666
1426794674.959,-50.535965
1426794674.975,-47.577446
1426794674.99,-43.43058
1426794675.006,-39.631172
1426794675.021,-37.41169
1426794675.037,-37.08606
1426794675.053,-37.873222
1426794675.068,-38.41342
1426794675.084,-37.509193
1426794675.1,-34.812843
1426794675.115,-30.883858
1426794675.131,-26.8143
1426794675.146,-23.533028
1426794675.162,-21.235634
1426794675.178,-19.298737
1426794675.193,-16.696991
1426794675.209,-12.696579
1426794675.225,-7.3812866
1426794675.24,-1.6470871
1426794675.256,3.284233
1426794675.271,6.565979
1426794675.287,8.249374
1426794675.303,9.292625
1426794675.318,10.984505
1426794675.334,14.232033
1426794675.35,18.997047
1426794675.365,24.386581
1426794675.381,29.16977
1426794675.396,32.553665
1426794675.412,34.688934
1426794675.428,36.66323
1426794675.443,39.91848
1426794675.459,45.415733
1426794675.475,52.99295
1426794675.49,61.27353
1426794675.506,68.17476
1426794675.521,71.7514
1426794675.537,70.97999
1426794675.553,66.13317
1426794675.568,58.45267
1426794675.584,49.4302
1426794675.6,40.010845
1426794675.615,30.290821
1426794675.631,19.70298
1426794675.646,7.704254
1426794675.662,-5.553711
1426794675.678,-19.006306
1426794675.693,-31.086998
1426794675.709,-40.494312
1426794675.725,-46.89373
1426794675.74,-51.002743
1426794675.756,-54.11051
1426794675.771,-57.2587
1426794675.787,-60.621563
1426794675.803,-63.388046
1426794675.818,-64.38023
1426794675.834,-62.852024
1426794675.85,-59.123547
1426794675.865,-54.51068
1426794675.881,-50.716698
1426794675.896,-48.893562
1426794675.912,-49.03077
1426794675.928,-49.975502
1426794675.943,-50.075047
1426794675.959,-48.160503
1426794675.975,-44.174683
1426794675.99,-39.129967
1426794676.006,-34.507477
1426794676.022,-31.352243
1426794676.037,-29.680616
1426794676.053,-28.494623
1426794676.068,-26.443321
1426794676.084,-22.660309
1426794676.1,-17.315441
1426794676.115,-11.452095
1426794676.131,-6.403143
1426794676.147,-2.9558296
1426794676.162,-0.9224205
1426794676.178,0.78207016
1426794676.193,3.422186
1426794676.209,7.7373676
1426794676.225,13.494038
1426794676.24,19.634373
1426794676.256,24.877016
1426794676.272,28.39968
1426794676.287,30.322334
1426794676.303,31.61139
1426794676.318,33.599586
1426794676.334,37.24815
1426794676.35,42.665882
1426794676.365,49.100094
1426794676.381,55.262875
1426794676.397,59.946228
1426794676.412,62.508892
1426794676.428,62.999626
1426794676.443,61.85615
1426794676.459,59.382698
1426794676.475,55.339592
1426794676.49,48.98626
1426794676.506,39.52522
1426794676.522,26.735878
1426794676.537,11.454212
1426794676.553,-4.4927406
1426794676.568,-18.890396
1426794676.584,-29.987381
1426794676.6,-37.183228
1426794676.615,-41.057335
1426794676.631,-42.91538
1426794676.647,-44.048904
1426794676.662,-45.092724
1426794676.678,-45.8715
1426794676.693,-45.78587
1426794676.709,-44.443325
1426794676.725,-42.0821
1426794676.74,-39.574703
1426794676.756,-37.985085
1426794676.772,-37.9748
1426794676.787,-39.35773
1426794676.803,-41.132057
1426794676.818,-42.00202
1426794676.834,-41.093616
1426794676.85,-38.44395
1426794676.865,-34.920685
1426794676.881,-31.758713
1426794676.897,-29.808174
1426794676.912,-29.016228
1426794676.928,-28.471188
1426794676.943,-26.949707
1426794676.959,-23.657112
1426794676.975,-18.767788
1426794676.99,-13.336372
1426794677.006,-8.753548
1426794677.022,-5.9550667
1426794677.037,-4.8824463
1426794677.053,-4.4900246
1426794677.068,-3.3933945
1426794677.084,-0.66335297
1426794677.1,3.6104088
1426794677.115,8.393982
1426794677.131,12.335022
1426794677.147,14.590927
1426794677.162,15.388222
1426794677.178,15.9257965
1426794677.193,17.657478
1426794677.209,21.42337
1426794677.225,26.923248
1426794677.24,32.93876
1426794677.256,37.99459
1426794677.272,41.263283
1426794677.287,43.051804
1426794677.303,44.64144
1426794677.318,47.55989
1426794677.334,52.709373
1426794677.35,59.813248
1426794677.365,67.57759
1426794677.381,74.22846
1426794677.397,78.30713
1426794677.412,79.23315
1426794677.428,77.35028
1426794677.443,73.51314
1426794677.459,68.43132
1426794677.475,62.22699
1426794677.49,54.47056
1426794677.506,44.56418
1426794677.522,32.381325
1426794677.537,18.600754
1426794677.553,4.680504
1426794677.568,-7.7917557
1426794677.584,-17.797295
1426794677.6,-25.365562
1426794677.615,-31.386963
1426794677.631,-37.03882
1426794677.647,-42.97326
1426794677.662,-48.859688
1426794677.678,-53.531456
1426794677.693,-55.675415
1426794677.709,-54.67929
1426794677.725,-51.088554
1426794677.74,-46.405937
1426794677.756,-42.381035
1426794677.772,-40.161484
1426794677.787,-39.751358
1426794677.803,-40.09964
1426794677.818,-39.815125
1426794677.834,-37.96599
1426794677.85,-34.63508
1426794677.865,-30.776947
1426794677.881,-27.655281
1426794677.897,-26.015038
1426794677.912,-25.6278
1426794677.928,-25.357986
1426794677.943,-23.832108
1426794677.959,-20.24363
1426794677.975,-14.862991
1426794677.99,-8.849609
1426794678.006,-3.6760101
1426794678.022,-0.2928238
1426794678.037,1.3902588
1426794678.053,2.3944092
1426794678.068,4.0453644
1426794678.084,7.189766
1426794678.1,11.698189
1426794678.115,16.62098
1426794678.131,20.753967
1426794678.147,23.369736
1426794678.162,24.675896
1426794678.178,25.724205
1426794678.193,27.729187
1426794678.209,31.362045
1426794678.225,36.331787
1426794678.24,41.595505
1426794678.256,46.033928
1426794678.272,49.153847
1426794678.287,51.424026
1426794678.303,53.983337
1426794678.318,57.851387
1426794678.334,63.106358
1426794678.35,68.58966
1426794678.365,72.318306
1426794678.381,72.35485
1426794678.397,67.7643
1426794678.412,59.04145
1426794678.428,47.823357
1426794678.443,36.07853
1426794678.459,25.161911
1426794678.475,15.32159
1426794678.49,5.919979
1426794678.506,-3.9441109
1426794678.522,-14.669762
1426794678.537,-25.72068
1426794678.553,-35.817463
1426794678.568,-43.56607
1426794678.584,-48.201607
1426794678.6,-50.00762
1426794678.615,-50.101337
1426794678.631,-49.853764
1426794678.647,-50.144726
1426794678.662,-50.97275
1426794678.678,-51.538067
1426794678.694,-50.86165
1426794678.709,-48.472702
1426794678.725,-44.755024
1426794678.74,-40.805893
1426794678.756,-37.8592
1426794678.772,-36.570465
1426794678.787,-36.621223
1426794678.803,-36.918476
1426794678.818,-36.185814
1426794678.834,-33.701984
1426794678.85,-29.702118
1426794678.865,-25.178513
1426794678.881,-21.328455
1426794678.897,-18.844055
1426794678.912,-17.500687
1426794678.928,-16.264633
1426794678.944,-13.94459
1426794678.959,-9.887133
1426794678.975,-4.43705
1426794678.99,1.2789555
1426794679.006,5.9255104
1426794679.022,8.76053
1426794679.037,10.074265
1426794679.053,11.047804
1426794679.069,13.102322
1426794679.084,17.048391
1426794679.1,22.651733
1426794679.115,28.789808
1426794679.131,34.054493
1426794679.147,37.657524
1426794679.162,39.873848
1426794679.178,41.970703
1426794679.194,45.43872
1426794679.209,51.085026
1426794679.225,58.453987
1426794679.24,65.95178
1426794679.256,71.52525
1426794679.272,73.59765
1426794679.287,71.78877
1426794679.303,66.87422
1426794679.319,60.228664
1426794679.334,52.934128
1426794679.35,45.256336
1426794679.365,36.650608
1426794679.381,26.35601
1426794679.397,14.101075
1426794679.412,0.5714016
1426794679.428,-12.7405205
1426794679.444,-24.23331
1426794679.459,-32.986095
1426794679.475,-39.17394
1426794679.49,-43.82881
1426794679.506,-48.206505
1426794679.522,-52.95133
1426794679.537,-57.72924
1426794679.553,-61.418705
1426794679.569,-62.77199
1426794679.584,-61.262516
1426794679.6,-57.476215
1426794679.615,-52.84907
1426794679.631,-49.036438
1426794679.647,-47.004604
1426794679.662,-46.58244
1426794679.678,-46.638733
1426794679.694,-45.770912
1426794679.709,-43.164566
1426794679.725,-39.062355
1426794679.74,-34.536373
1426794679.756,-30.835476
1426794679.772,-28.642565
1426794679.787,-27.626266
1426794679.803,-26.696157
1426794679.819,-24.64234
1426794679.834,-20.91408
1426794679.85,-15.924606
1426794679.865,-10.819719
1426794679.881,-6.842578
1426794679.897,-4.630028
1426794679.912,-3.8343515
1426794679.928,-3.3023138
1426794679.944,-1.7055998
1426794679.959,1.7385764
1426794679.975,6.841459
1426794679.99,12.604973
1426794680.006,17.77011
1426794680.022,21.56027
1426794680.037,24.13669
1426794680.053,26.439642
1426794680.069,29.613998
1426794680.084,34.26248
1426794680.1,40.020153
1426794680.115,45.8054
1426794680.131,50.466454
1426794680.147,53.560432
1426794680.162,55.715412
1426794680.178,58.317078
1426794680.194,62.61464
1426794680.209,68.8312
1426794680.225,75.77602
1426794680.24,81.26342
1426794680.256,83.04104
1426794680.272,79.85898
1426794680.287,71.992836
1426794680.303,61.045258
1426794680.319,49.080933
1426794680.334,37.606415
1426794680.35,26.989384
1426794680.365,16.598396
1426794680.381,5.452244
1426794680.397,-6.9361134
1426794680.412,-20.061642
1426794680.428,-32.56077
1426794680.444,-42.87967
1426794680.459,-50.097507
1426794680.475,-54.349457
1426794680.49,-56.624424
1426794680.506,-58.20649
1426794680.522,-59.91904
1426794680.537,-61.705246
1426794680.553,-62.77612
1426794680.569,-62.20337
1426794680.584,-59.65294
1426794680.6,-55.699005
1426794680.615,-51.61075
1426794680.631,-48.754044
1426794680.647,-47.804893
1426794680.662,-48.40168
1426794680.678,-49.31597
1426794680.694,-49.159447
1426794680.709,-47.16876
1426794680.725,-43.60289
1426794680.74,-39.49096
1426794680.756,-36.053146
1426794680.772,-33.929596
1426794680.787,-32.814182
1426794680.803,-31.63375
1426794680.819,-29.218302
1426794680.834,-25.023514
1426794680.85,-19.492252
1426794680.865,-13.775515
1426794680.881,-9.15349
1426794680.897,-6.29055
1426794680.912,-4.860386
1426794680.928,-3.7512074
1426794680.944,-1.6681728
1426794680.959,2.0967712
1426794680.975,7.2881784
1426794680.99,12.839574
1426794681.006,17.493404
1426794681.022,20.54158
1426794681.037,22.279533
1426794681.053,23.850271
1426794681.069,26.57751
1426794681.084,31.099752
1426794681.1,36.966877
1426794681.115,42.790504
1426794681.131,46.84292
1426794681.147,47.941704
1426794681.162,45.903976
1426794681.178,41.47506
1426794681.194,35.757973
1426794681.209,29.495605
1426794681.225,22.724037
1426794681.24,14.980462
1426794681.256,5.852022
1426794681.272,-4.3995285
1426794681.287,-14.624468
1426794681.303,-23.143229
1426794681.319,-28.506771
1426794681.334,-30.264524
1426794681.35,-29.22195
1426794681.366,-27.015224
1426794681.381,-25.378843
1426794681.397,-25.271152
1426794681.412,-26.52659
1426794681.428,-28.113403
1426794681.444,-28.80045
1426794681.459,-27.977722
1426794681.475,-25.959263
1426794681.49,-23.746773
1426794681.506,-22.446709
1426794681.522,-22.555489
1426794681.537,-23.667679
1426794681.553,-24.683876
1426794681.569,-24.44749
1426794681.584,-22.4888
1426794681.6,-19.313091
1426794681.616,-16.135227
1426794681.631,-14.197948
1426794681.647,-14.020264
1426794681.662,-15.040237
1426794681.678,-15.907883
1426794681.694,-15.247475
1426794681.709,-12.4782715
1426794681.725,-8.174797
1426794681.741,-3.7093582
1426794681.756,-0.55864716
1426794681.772,0.5836487
1426794681.787,0.12915039
1426794681.803,-0.6187668
1426794681.819,-0.20584106
1426794681.834,2.116661
1426794681.85,6.0154724
1426794681.866,10.303856
1426794681.881,13.573593
1426794681.897,15.041527
1426794681.912,14.998947
1426794681.928,14.6258545
1426794681.944,15.347313
1426794681.959,18.004715
1426794681.975,22.384773
1426794681.991,27.408546
1426794682.006,31.747147
1426794682.022,34.65239
1426794682.037,36.349396
1426794682.053,37.895576
1426794682.069,40.454834
1426794682.084,44.55433
1426794682.1,49.752342
1426794682.116,54.936356
1426794682.131,58.99106
1426794682.147,61.556664
1426794682.162,63.23732
1426794682.178,65.21965
1426794682.194,68.53301
1426794682.209,73.26538
1426794682.225,78.28492
1426794682.241,81.72695
1426794682.256,81.75455
1426794682.272,77.47383
1426794682.287,69.35306
1426794682.303,58.92166
1426794682.319,47.99479
1426794682.334,37.876602
1426794682.35,28.733803
1426794682.366,19.755745
1426794682.381,9.862038
1426794682.397,-1.4200745
1426794682.412,-13.488358
1426794682.428,-24.919807
1426794682.444,-34.2155
1426794682.459,-40.573326
1426794682.475,-44.204117
1426794682.491,-46.219498
1426794682.506,-48.036217
1426794682.522,-50.45965
1426794682.537,-53.303413
1426794682.553,-55.54648
1426794682.569,-56.122795
1426794682.584,-54.689026
1426794682.6,-51.8882
1426794682.616,-48.806343
1426794682.631,-46.648872
1426794682.647,-46.05435
1426794682.662,-46.66172
1426794682.678,-47.2603
1426794682.694,-46.526093
1426794682.709,-43.910614
1426794682.725,-40.02395
1426794682.741,-36.159973
1426794682.756,-33.008293
1426794682.772,-30.850487
1426794682.787,-29.544945
1426794682.803,-28.426765
1426794682.819,-26.520027
1426794682.834,-23.26168
1426794682.85,-19.068848
1426794682.866,-15.233353
1426794682.881,-13.032417
1426794682.897,-11.745888
1426794682.912,-10.331558
1426794682.928,-8.26194
1426794682.944,-5.419052
1426794682.959,-1.8145218
1426794682.975,2.2366867
1426794682.991,5.8118973
1426794683.006,7.5741196
1426794683.022,7.114609
1426794683.037,7.124878
1426794683.053,9.9179535
1426794683.069,15.670212
1426794683.084,22.923622
1426794683.1,29.931183
1426794683.116,35.476707
1426794683.131,38.679466
1426794683.147,39.188652
1426794683.162,38.31553
1426794683.178,40.777885
1426794683.194,49.586464
1426794683.209,63.844765
1426794683.225,80.17994
1426794683.241,95.47549
1426794683.256,108.43192
1426794683.272,119.141075
1426794683.287,128.51918
1426794683.303,121.46403
1426794683.319,94.412735
1426794683.334,58.426872
1426794683.35,26.956604
1426794683.366,4.3453674
1426794683.381,-11.793343
1426794683.397,-24.163605
1426794683.412,-31.173447
1426794683.428,-35.313385
1426794683.444,-37.54223
1426794683.459,-35.966278
1426794683.475,-30.282509
1426794683.491,-22.704147
1426794683.506,-15.583595
1426794683.522,-12.774315
1426794683.537,-13.866898
1426794683.553,-17.118248
1426794683.569,-21.30587
1426794683.584,-25.334846
1426794683.6,-27.156868
1426794683.616,-26.585014
1426794683.631,-25.624916
1426794683.647,-26.4432
1426794683.662,-29.518234
1426794683.678,-33.20913
1426794683.694,-35.87288
1426794683.709,-37.120354
1426794683.725,-37.126976
1426794683.741,-35.507744
1426794683.756,-32.679573
1426794683.772,-29.7845
1426794683.787,-27.623787
1426794683.803,-25.908798
1426794683.819,-23.362915
1426794683.834,-19.386963
1426794683.85,-14.664154
1426794683.866,-10.244469
1426794683.881,-6.6044846
1426794683.897,-3.87043
1426794683.912,-1.8037338
1426794683.928,0.292984
1426794683.944,3.349907
1426794683.959,8.0733185
1426794683.975,14.035152
1426794683.991,19.90097
1426794684.006,24.350014
1426794684.022,26.99617
1426794684.037,28.383728
1426794684.053,29.642975
1426794684.069,31.893932
1426794684.084,35.67588
1426794684.1,40.735817
1426794684.116,46.095165
1426794684.131,50.651257
1426794684.147,53.992596
1426794684.162,56.546005
1426794684.178,59.249313
1426794684.194,62.76729
1426794684.209,66.84054
1426794684.225,70.10824
1426794684.241,70.71898
1426794684.256,67.10173
1426794684.272,58.851707
1426794684.288,46.99095
1426794684.303,33.53753
1426794684.319,20.583036
1426794684.334,9.356808
1426794684.35,-0.15727043
1426794684.366,-8.918604
1426794684.381,-18.091242
1426794684.397,-28.178778
1426794684.413,-38.654785
1426794684.428,-48.154396
1426794684.444,-55.21368
1426794684.459,-59.07006
1426794684.475,-60.02404
1426794684.491,-59.245293
1426794684.506,-58.121937
1426794684.522,-57.54512
1426794684.538,-57.495056
1426794684.553,-57.235733
1426794684.569,-55.891144
1426794684.584,-53.134926
1426794684.6,-49.502228
1426794684.616,-46.06353
1426794684.631,-43.88876
1426794684.647,-43.309616
1426794684.663,-43.723434
1426794684.678,-43.83541
1426794684.694,-42.401596
1426794684.709,-38.94158
1426794684.725,-33.998657
1426794684.741,-28.831945
1426794684.756,-24.74569
1426794684.772,-22.378613
1426794684.788,-21.350258
1426794684.803,-20.525352
1426794684.819,-18.65517
1426794684.834,-15.115839
1426794684.85,-10.190813
1426794684.866,-4.8370514
1426794684.881,-0.16401863
1426794684.897,3.2769833
1426794684.913,5.8069
1426794684.928,8.417179
1426794684.944,12.16711
1426794684.959,17.523003
1426794684.975,24.022469
1426794684.991,30.540752
1426794685.006,35.868725
1426794685.022,39.466072
1426794685.038,41.806805
1426794685.053,44.17221
1426794685.069,47.989452
1426794685.084,53.959316
1426794685.1,61.666126
1426794685.116,69.72595
1426794685.131,76.38478
1426794685.147,80.324234
1426794685.163,81.11264
1426794685.178,79.173416
1426794685.194,75.29662
1426794685.209,69.99991
1426794685.225,63.206352
1426794685.241,54.44082
1426794685.256,43.27095
1426794685.272,29.856014
1426794685.288,15.2103195
1426794685.303,0.86045456
1426794685.319,-11.747299
1426794685.334,-21.940063
1426794685.35,-30.027893
1426794685.366,-36.969513
1426794685.381,-43.73551
1426794685.397,-50.606956
1426794685.413,-56.96434
1426794685.428,-61.569756
1426794685.444,-63.334976
1426794685.459,-62.01111
1426794685.475,-58.458023
1426794685.491,-54.223892
1426794685.506,-50.868645
1426794685.522,-49.147057
1426794685.538,-48.752975
1426794685.553,-48.597244
1426794685.569,-47.50212
1426794685.584,-44.926865
1426794685.6,-41.22396
1426794685.616,-37.362312
1426794685.631,-34.33271
1426794685.647,-32.473473
1426794685.663,-31.246872
1426794685.678,-29.524437
1426794685.694,-26.28138
1426794685.709,-21.246887
1426794685.725,-15.157906
1426794685.741,-9.348541
1426794685.756,-5.061798
1426794685.772,-2.665306
1426794685.788,-1.3986893
1426794685.803,0.24841309
1426794685.819,3.699356
1426794685.834,9.40892
1426794685.85,16.52002
1426794685.866,23.18792
1426794685.881,27.416603
1426794685.897,27.97129
1426794685.913,24.85749
1426794685.928,19.139824
1426794685.944,12.298645
1426794685.959,5.371994
1426794685.975,-1.3806152
1426794685.991,-8.298477
1426794686.006,-15.804611
1426794686.022,-23.738823
1426794686.038,-31.168411
1426794686.053,-36.67331
1426794686.069,-39.092125
1426794686.084,-38.196617
1426794686.1,-34.938744
1426794686.116,-31.022346
1426794686.131,-28.143044
1426794686.147,-27.19329
1426794686.163,-27.875237
1426794686.178,-28.994461
1426794686.194,-29.2378
1426794686.209,-27.988121
1426794686.225,-25.636871
1426794686.241,-23.332108
1426794686.256,-22.297745
1426794686.272,-23.033863
1426794686.288,-24.99855
1426794686.303,-26.860428
1426794686.319,-27.223866
1426794686.334,-25.466854
1426794686.35,-22.049263
1426794686.366,-18.245945
1426794686.381,-15.4658165
1426794686.397,-14.44426
1426794686.413,-14.817284
1426794686.428,-15.453663
1426794686.444,-15.093586
1426794686.459,-13.186832
1426794686.475,-10.237322
1426794686.491,-7.429739
1426794686.506,-5.9414825
1426794686.522,-6.1460953
1426794686.538,-7.37936
1426794686.553,-8.225131
1426794686.569,-7.3558316
1426794686.584,-4.336643
1426794686.6,0.1432656
1426794686.616,4.657672
1426794686.631,7.8031363
1426794686.647,9.001658
1426794686.663,8.806401
1426794686.678,8.559832
1426794686.694,9.623983
1426794686.709,12.553066
1426794686.725,16.852066
1426794686.741,21.311481
1426794686.756,24.675531
1426794686.772,26.446213
1426794686.788,27.135937
1426794686.803,27.978626
1426794686.819,30.192528
1426794686.834,34.238274
1426794686.85,39.51554
1426794686.866,44.734264
1426794686.881,48.62451
1426794686.897,50.695663
1426794686.913,51.53746
1426794686.928,52.47426
1426794686.944,54.85419
1426794686.96,59.288746
1426794686.975,65.382355
1426794686.991,72.05107
1426794687.006,78.089096
1426794687.022,82.869415
1426794687.038,86.48773
1426794687.053,89.50076
1426794687.069,92.3028
1426794687.085,94.57924
1426794687.1,95.2086
1426794687.116,92.77362
1426794687.131,86.17189
1426794687.147,75.28457
1426794687.163,61.191067
1426794687.178,45.733837
1426794687.194,30.802765
1426794687.21,17.516777
1426794687.225,5.8931236
1426794687.241,-4.8341675
1426794687.256,-15.627007
1426794687.272,-26.813793
1426794687.288,-37.778824
1426794687.303,-47.19435
1426794687.319,-53.758945
1426794687.335,-56.974476
1426794687.35,-57.43302
1426794687.366,-56.53917
1426794687.381,-55.796234
1426794687.397,-56.033142
1426794687.413,-57.083214
1426794687.428,-58.01722
1426794687.444,-57.820305
1426794687.46,-56.08934
1426794687.475,-53.281662
1426794687.491,-50.428055
1426794687.506,-48.537003
1426794687.522,-47.93962
1426794687.538,-48.05668
1426794687.553,-47.6988
1426794687.569,-45.692043
1426794687.585,-41.610542
1426794687.6,-36.03911
1426794687.616,-30.283298
1426794687.631,-25.69258
1426794687.647,-22.878536
1426794687.663,-21.395615
1426794687.678,-19.91788
1426794687.694,-17.074879
1426794687.71,-12.248503
1426794687.725,-5.9711742
1426794687.741,0.39797974
1426794687.756,5.421692
1426794687.772,8.464003
1426794687.788,10.045044
1426794687.803,11.517908
1426794687.819,14.287884
1426794687.835,18.896751
1426794687.85,24.78938
1426794687.866,30.645872
1426794687.881,35.148712
1426794687.897,37.83656
1426794687.913,39.40501
1426794687.928,41.34661
1426794687.944,45.134098
1426794687.96,51.377193
1426794687.975,59.400288
1426794687.991,67.55804
1426794688.006,73.915634
1426794688.022,77.1436
1426794688.038,76.95956
1426794688.053,74.0389
1426794688.069,69.39068
1426794688.085,63.629814
1426794688.1,56.652756
1426794688.116,47.856133
1426794688.131,36.69071
1426794688.147,23.342062
1426794688.163,8.888125
1426794688.178,-5.0193367
1426794688.194,-16.880598
1426794688.21,-26.061598
1426794688.225,-32.94407
1426794688.241,-38.547432
1426794688.256,-43.88426
1426794688.272,-49.226185
1426794688.288,-53.983727
1426794688.303,-57.04971
1426794688.319,-57.53359
1426794688.335,-55.415367
1426794688.35,-51.71142
1426794688.366,-47.984898
1426794688.381,-45.677944
1426794688.397,-45.337666
1426794688.413,-46.396374
1426794688.428,-47.515736
1426794688.444,-47.37324
1426794688.46,-45.398087
1426794688.475,-42.055424
1426794688.491,-38.497665
1426794688.506,-35.876198
1426794688.522,-34.579617
1426794688.538,-34.026398
1426794688.553,-32.96274
1426794688.569,-30.241299
1426794688.585,-25.51115
1426794688.6,-19.464725
1426794688.616,-13.432819
1426794688.631,-8.685871
1426794688.647,-5.647743
1426794688.663,-3.6661491
1426794688.678,-1.368042
1426794688.694,2.5417023
1426794688.71,8.457825
1426794688.725,15.603661
1426794688.741,22.498959
1426794688.756,27.731216
1426794688.772,30.827545
1426794688.788,32.540936
1426794688.803,34.45938
1426794688.819,38.127563
1426794688.835,44.2183
1426794688.85,52.162178
1426794688.866,60.53876
1426794688.881,67.79433
1426794688.897,72.972084
1426794688.913,75.9917
1426794688.928,77.32177
1426794688.944,77.41273
1426794688.96,76.11789
1426794688.975,72.701996
1426794688.991,66.24289
1426794689.006,56.229183
1426794689.022,43.084343
1426794689.038,28.153126
1426794689.053,13.221748
1426794689.069,-0.20643234
1426794689.085,-11.509853
1426794689.1,-21.070232
1426794689.116,-29.813541
1426794689.131,-38.600418
1426794689.147,-47.511703
1426794689.163,-55.72059
1426794689.178,-61.890778
1426794689.194,-64.92585
1426794689.21,-64.65163
1426794689.225,-62.010605
1426794689.241,-58.62387
1426794689.256,-56.01149
1426794689.272,-54.86373
1426794689.288,-54.7808
1426794689.303,-54.627106
1426794689.319,-53.285873
1426794689.335,-50.399612
1426794689.35,-46.521812
1426794689.366,-42.77394
1426794689.381,-40.156044
1426794689.397,-38.854553
1426794689.413,-38.098907
1426794689.428,-36.590294
1426794689.444,-33.246506
1426794689.46,-27.909523
1426794689.475,-21.501015
1426794689.491,-15.486656
1426794689.506,-11.141945
1426794689.522,-8.785728
1426794689.538,-7.6200714
1426794689.553,-6.160988
1426794689.569,-3.0780716
1426794689.585,2.0648804
1426794689.6,8.6651
1426794689.616,15.446671
1426794689.632,21.231346
1426794689.647,25.58834
1426794689.663,29.0093
1426794689.678,32.554222
1426794689.694,37.14868
1426794689.71,43.039055
1426794689.725,49.69928
1426794689.741,56.22506
1426794689.757,61.91535
1426794689.772,66.74314
1426794689.788,71.35629
1426794689.803,76.53229
1426794689.819,82.525696
1426794689.835,88.514824
1426794689.85,92.71337
1426794689.866,93.05709
1426794689.882,88.087364
1426794689.897,77.7386
1426794689.913,63.430565
1426794689.928,47.48799
1426794689.944,32.125618
1426794689.96,18.532234
1426794689.975,6.5494537
1426794689.991,-4.8497086
1426794690.007,-16.749947
1426794690.022,-29.388657
1426794690.038,-41.909325
1426794690.053,-52.716896
1426794690.069,-60.392036
1426794690.085,-64.46402
1426794690.1,-65.64305
1426794690.116,-65.401825
1426794690.132,-65.18432
1426794690.147,-65.582375
1426794690.163,-66.146286
1426794690.178,-65.78398
1426794690.194,-63.562332
1426794690.21,-59.400726
1426794690.225,-54.25293
1426794690.241,-49.602905
1426794690.257,-46.69536
1426794690.272,-45.77694
1426794690.288,-45.90944
1426794690.303,-45.472855
1426794690.319,-43.051117
1426794690.335,-38.20668
1426794690.35,-31.769638
1426794690.366,-25.32866
1426794690.382,-20.419342
1426794690.397,-17.596474
1426794690.413,-16.22174
1426794690.428,-14.806305
1426794690.444,-11.897507
1426794690.46,-6.9003143
1426794690.475,-0.36359406
1426794690.491,6.372551
1426794690.507,11.889244
1426794690.522,15.391815
1426794690.538,16.940262
1426794690.553,17.15136
1426794690.569,16.552742
1426794690.585,15.094688
1426794690.6,12.086464
1426794690.616,6.710182
1426794690.632,-1.3781204
1426794690.647,-11.471947
1426794690.663,-21.873528
1426794690.678,-30.479881
1426794690.694,-35.67212
1426794690.71,-37.027725
1426794690.725,-35.409676
1426794690.741,-32.48436
1426794690.757,-29.874298
1426794690.772,-28.355896
1426794690.788,-27.658905
1426794690.803,-26.84277
1426794690.819,-25.045132
1426794690.835,-22.112915
1426794690.85,-18.79237
1426794690.866,-16.242733
1426794690.882,-15.408794
1426794690.897,-16.320541
1426794690.913,-18.100433
1426794690.928,-19.37928
1426794690.944,-19.122143
1426794690.96,-17.196548
1426794690.975,-14.444672
1426794690.991,-12.175814
1426794691.007,-11.396204
1426794691.022,-12.186962
1426794691.038,-13.6340275
1426794691.053,-14.332085
1426794691.069,-13.20457
1426794691.085,-10.131496
1426794691.1,-6.025827
1426794691.116,-2.3092813
1426794691.132,-0.14200783
1426794691.147,0.25155258
1426794691.163,-0.3126793
1426794691.178,-0.4713745
1426794691.194,0.89058685
1426794691.21,3.9880486
1426794691.225,8.012432
1426794691.241,11.644577
1426794691.257,13.779213
1426794691.272,14.211426
1426794691.288,13.751617
1426794691.303,13.733192
1426794691.319,15.231304
1426794691.335,18.413673
1426794691.35,22.420273
1426794691.366,25.909775
1426794691.382,27.835396
1426794691.397,28.144005
1426794691.413,27.833275
1426794691.428,28.404694
1426794691.444,30.952362
1426794691.46,35.568832
1426794691.475,41.22345
1426794691.491,46.404137
1426794691.507,49.89969
1426794691.522,51.51863
1426794691.538,52.08628
1426794691.553,52.97367
1426794691.569,55.26133
1426794691.585,59.18672
1426794691.6,64.158554
1426794691.616,69.19537
1426794691.632,73.59066
1426794691.647,77.32421
1426794691.663,80.977615
1426794691.678,85.15039
1426794691.694,89.78933
1426794691.71,93.85305
1426794691.725,95.53446
1426794691.741,93.02492
1426794691.757,85.35741
1426794691.772,73.00806
1426794691.788,57.686874
1426794691.803,41.653717
1426794691.819,26.670204
1426794691.835,13.389862
1426794691.85,1.3446808
1426794691.866,-10.450188
1426794691.882,-22.674934
1426794691.897,-35.082436
1426794691.913,-46.535583
1426794691.928,-55.570427
1426794691.944,-61.200783
1426794691.96,-63.471413
1426794691.975,-63.445503
1426794691.991,-62.627968
1426794692.007,-62.23857
1426794692.022,-62.592842
1426794692.038,-63.112465
1426794692.053,-62.736275
1426794692.069,-60.748558
1426794692.085,-57.249367
1426794692.1,-53.19568
1426794692.116,-49.85972
1426794692.132,-48.137688
1426794692.147,-47.920464
1426794692.163,-48.14538
1426794692.178,-47.36673
1426794692.194,-44.578865
1426794692.21,-39.77581
1426794692.225,-33.924164
1426794692.241,-28.416359
1426794692.257,-24.281906
1426794692.272,-21.625893
1426794692.288,-19.652748
1426794692.304,-17.148613
1426794692.319,-13.282509
1426794692.335,-8.027687
1426794692.35,-2.1657639
1426794692.366,3.18367
1426794692.382,7.2617188
1426794692.397,10.171509
1426794692.413,12.795509
1426794692.428,16.323387
1426794692.444,21.472878
1426794692.46,28.013313
1426794692.475,34.819176
1426794692.491,40.474434
1426794692.507,44.1168
1426794692.522,46.069984
1426794692.538,47.724922
1426794692.554,50.85131
1426794692.569,56.463394
1426794692.585,64.11734
1426794692.6,71.91242
1426794692.616,77.329865
1426794692.632,78.348175
1426794692.647,74.36323
1426794692.663,66.32887
1426794692.679,56.0979
1426794692.694,45.368965
1426794692.71,34.92241
1426794692.725,24.494064
1426794692.741,13.308762
1426794692.757,0.84342194
1426794692.772,-12.50576
1426794692.788,-25.478416
1426794692.804,-36.4337
1426794692.819,-44.215607
1426794692.835,-48.66736
1426794692.85,-50.673836
1426794692.866,-51.603004
1426794692.882,-52.590973
1426794692.897,-53.886765
1426794692.913,-54.845016
1426794692.929,-54.413643
