1425922146.447,0.0
1425922146.463,0.0
1425922146.478,0.0
1425922146.494,0.0
1425922146.509,0.0
1425922146.525,0.0
1425922146.541,0.0
1425922146.556,0.0
1425922146.572,0.0
1425922146.588,0.0022315353
1425922146.603,-0.0045169927
1425922146.619,-0.011265522
1425922146.634,-0.011383951
1425922146.65,0.0011864507
1425922146.666,0.025910312
1425922146.681,0.050634187
1425922146.697,0.051362894
1425922146.713,-0.0014929791
1425922146.728,-0.1302426
1425922146.744,-0.35562757
1425922146.759,-0.6591247
1425922146.775,-1.0095103
1425922146.791,-1.3709826
1425922146.806,-1.7197359
1425922146.822,-2.0551105
1425922146.838,-2.39945
1425922146.853,-2.7866635
1425922146.869,-3.2399073
1425922146.884,-3.796012
1425922146.9,-4.418684
1425922146.916,-5.0592937
1425922146.931,-5.6644096
1425922146.947,-6.2021537
1425922146.963,-6.6808796
1425922146.978,-7.149598
1425922146.994,-7.6782336
1425922147.01,-8.310739
1425922147.025,-9.143657
1425922147.041,-10.089731
1425922147.056,-11.041313
1425922147.072,-11.8842125
1425922147.088,-12.564316
1425922147.103,-13.13563
1425922147.119,-13.760044
1425922147.135,-14.65232
1425922147.15,-15.962056
1425922147.166,-17.914442
1425922147.181,-20.317299
1425922147.197,-22.903854
1425922147.213,-25.37947
1425922147.228,-27.578028
1425922147.244,-29.57246
1425922147.26,-31.675173
1425922147.275,-34.3178
1425922147.291,-37.813618
1425922147.306,-42.541233
1425922147.322,-48.1463
1425922147.338,-54.104755
1425922147.353,-59.83309
1425922147.369,-64.972374
1425922147.385,-69.58293
1425922147.4,-74.14353
1425922147.416,-79.344986
1425922147.431,-85.70726
1425922147.447,-93.76193
1425922147.463,-102.99779
1425922147.478,-112.61757
1425922147.494,-121.73034
1425922147.51,-129.76602
1425922147.525,-136.75102
1425922147.541,-143.30344
1425922147.556,-150.74623
1425922147.572,-157.77356
1425922147.588,-166.64323
1425922147.603,-177.94798
1425922147.619,-191.79102
1425922147.635,-206.96808
1425922147.65,-220.56592
1425922147.666,-228.24644
1425922147.681,-225.36154
1425922147.697,-208.53198
1425922147.713,-176.87024
1425922147.728,-132.76222
1425922147.744,-80.04997
1425922147.76,-23.069275
1425922147.775,34.94339
1425922147.791,92.43695
1425922147.806,149.15695
1425922147.822,205.22772
1425922147.838,260.36963
1425922147.853,313.74133
1425922147.869,363.87396
1425922147.885,409.83353
1425922147.9,450.90775
1425922147.916,486.50244
1425922147.931,515.73865
1425922147.947,537.2274
1425922147.963,549.22
1425922147.978,549.9613
1425922147.994,538.367
1425922148.01,514.2055
1425922148.025,478.674
1425922148.041,433.87952
1425922148.056,382.45126
1425922148.072,327.02106
1425922148.088,269.84186
1425922148.103,212.63379
1425922148.119,156.6594
1425922148.135,102.95233
1425922148.15,52.373596
1425922148.166,5.9046936
1425922148.181,-35.580414
1425922148.197,-71.42584
1425922148.213,-101.35184
1425922148.228,-125.50113
1425922148.244,-144.37967
1425922148.26,-158.69397
1425922148.275,-169.15085
1425922148.291,-176.37164
1425922148.306,-180.75249
1425922148.322,-182.57556
1425922148.338,-182.06937
1425922148.353,-179.50551
1425922148.369,-175.2299
1425922148.385,-169.64894
1425922148.4,-163.17656
1425922148.416,-156.15392
1425922148.431,-148.82568
1425922148.447,-141.32126
1425922148.463,-133.70566
1425922148.478,-126.00615
1425922148.494,-118.26913
1425922148.51,-110.5628
1425922148.525,-102.9699
1425922148.541,-95.575745
1425922148.556,-88.437706
1425922148.572,-81.58566
1425922148.588,-75.017746
1425922148.603,-68.729095
1425922148.619,-62.707268
1425922148.635,-56.96109
1425922148.65,-51.51014
1425922148.666,-46.378735
1425922148.681,-41.58987
1425922148.697,-37.147297
1425922148.713,-33.039463
1425922148.728,-29.227724
1425922148.744,-25.679005
1425922148.76,-22.353735
1425922148.775,-19.246342
1425922148.791,-16.37662
1425922148.806,-13.784679
1425922148.822,-11.514209
1425922148.838,-9.577444
1425922148.853,-7.942485
1425922148.869,-6.525139
1425922148.885,-5.2246614
1425922148.9,-3.9522285
1425922148.916,-2.6780927
1425922148.931,-1.4491136
1425922148.947,-0.37248397
1425922148.963,0.44333962
1425922148.978,0.9453341
1425922148.994,1.1829145
1425922149.01,1.3145969
1425922149.025,1.5422205
1425922149.041,2.0299947
1425922149.056,2.8132722
1425922149.072,3.7735484
1425922149.088,4.6828876
1425922149.103,5.2977586
1425922149.119,5.4953446
1425922149.135,5.343952
1425922149.15,5.09875
1425922149.166,5.0895157
1425922149.181,5.5725675
1425922149.197,6.6035266
1425922149.213,7.9759197
1425922149.228,9.313541
1425922149.244,10.268842
1425922149.26,10.637814
1425922149.275,10.488934
1425922149.291,10.108949
1425922149.306,9.868862
1425922149.322,10.085701
1425922149.338,10.996195
1425922149.353,12.710565
1425922149.369,15.166725
1425922149.385,17.964054
1425922149.4,20.260647
1425922149.416,20.866241
1425922149.431,18.67277
1425922149.447,13.193075
1425922149.463,4.9593163
1425922149.478,-4.477291
1425922149.494,-13.152792
1425922149.51,-19.435108
1425922149.525,-22.657225
1425922149.541,-23.223415
1425922149.556,-22.196875
1425922149.572,-20.628946
1425922149.588,-19.046623
1425922149.603,-17.391516
1425922149.619,-15.344969
1425922149.635,-12.757591
1425922149.65,-9.912052
1425922149.666,-7.4301643
1425922149.682,-5.918522
1425922149.697,-5.601574
1425922149.713,-6.2164574
1425922149.728,-7.117609
1425922149.744,-7.556776
1425922149.76,-7.0368004
1425922149.775,-5.5055637
1425922149.791,-3.2683296
1425922149.807,-0.89237213
1425922149.822,1.0360527
1425922149.838,2.0058708
1425922149.853,1.6647873
1425922149.869,-0.1894474
1425922149.885,-3.4991264
1425922149.9,-7.9297466
1425922149.916,-12.774929
1425922149.932,-17.106865
1425922149.947,-20.013485
1425922149.963,-20.913715
1425922149.978,-19.734287
1425922149.994,-16.923382
1425922150.01,-13.225773
1425922150.025,-9.386353
1425922150.041,-5.9209785
1425922150.057,-3.086094
1425922150.072,-0.905426
1425922150.088,0.67064667
1425922150.103,1.6906471
1425922150.119,2.192234
1425922150.135,2.2454376
1425922150.15,1.978138
1425922150.166,1.5893936
1425922150.182,1.2564735
1425922150.197,1.0956764
1425922150.213,1.116909
1425922150.228,1.2684364
1425922150.244,1.4832687
1425922150.26,1.732441
1425922150.275,1.9856682
1425922150.291,2.2515526
1425922150.307,2.5199165
1425922150.322,2.8307476
1425922150.338,3.24992
1425922150.353,3.894125
1425922150.369,4.8077602
1425922150.385,5.945753
1425922150.4,7.1023693
1425922150.416,8.058525
1425922150.432,8.584078
1425922150.447,8.641558
1425922150.463,8.314381
1425922150.478,7.8118076
1425922150.494,7.3225956
1425922150.51,7.0245953
1425922150.525,6.987995
1425922150.541,7.270693
1425922150.557,7.9252777
1425922150.572,8.952869
1425922150.588,10.250961
1425922150.603,11.470051
1425922150.619,11.997473
1425922150.635,11.137974
1425922150.65,8.358091
1425922150.666,3.6279774
1425922150.682,-2.4537945
1425922150.697,-8.722853
1425922150.713,-13.869482
1425922150.728,-16.835754
1425922150.744,-17.154785
1425922150.76,-15.068075
1425922150.775,-11.414227
1425922150.791,-7.21467
1425922150.807,-3.3973522
1425922150.822,-0.5439739
1425922150.838,1.1338863
1425922150.853,1.6948051
1425922150.869,1.3298283
1425922150.885,0.27113914
1425922150.9,-1.3209362
1425922150.916,-3.2881317
1425922150.932,-5.4751377
1425922150.947,-7.68668
1425922150.963,-9.797203
1425922150.978,-11.651861
1425922150.994,-13.258354
1425922151.01,-14.6266575
1425922151.025,-15.84716
1425922151.041,-16.945652
1425922151.057,-17.891457
1425922151.072,-18.580116
1425922151.088,-18.910667
1425922151.103,-18.838938
1425922151.119,-18.395126
1425922151.135,-17.580965
1425922151.15,-16.356775
1425922151.166,-14.669106
1425922151.182,-12.454634
1425922151.197,-9.744066
1425922151.213,-6.7569885
1425922151.228,-3.626007
1425922151.244,-0.53671646
1425922151.26,2.4646587
1425922151.275,5.406704
1425922151.291,8.384949
1425922151.307,11.376499
1425922151.322,14.301453
1425922151.338,17.015823
1425922151.353,19.447742
1425922151.369,21.564405
1425922151.385,23.283463
1425922151.4,24.268646
1425922151.416,23.911411
1425922151.432,21.513483
1425922151.447,16.713825
1425922151.463,9.806392
1425922151.478,1.9418898
1425922151.494,-5.282217
1425922151.51,-10.3271885
1425922151.525,-12.34343
1425922151.541,-11.434425
1425922151.557,-8.498218
1425922151.572,-4.7248077
1425922151.588,-1.1561937
1425922151.603,1.6721478
1425922151.619,3.6592336
1425922151.635,5.002784
1425922151.65,5.8803725
1425922151.666,6.4039474
1425922151.682,6.561115
1425922151.697,6.3467054
1425922151.713,5.8202457
1425922151.728,5.1647596
1425922151.744,4.5727906
1425922151.76,4.187559
1425922151.775,3.9983468
1425922151.791,3.8992836
1425922151.807,3.7757049
1425922151.822,3.5894089
1425922151.838,3.4201818
1425922151.853,3.4455304
1425922151.869,3.8350372
1425922151.885,4.6428137
1425922151.9,5.759858
1425922151.916,6.9731436
1425922151.932,7.989502
1425922151.947,8.729866
1425922151.963,9.183622
1425922151.978,9.5179825
1425922151.994,9.920934
1425922152.01,10.561026
1425922152.025,11.518031
1425922152.041,12.737114
1425922152.057,14.031467
1425922152.072,15.154178
1425922152.088,16.00282
1425922152.103,16.548014
1425922152.119,16.98324
1425922152.135,17.676197
1425922152.15,19.045492
1425922152.166,21.374926
1425922152.182,24.59267
1425922152.197,28.226168
1425922152.213,30.742153
1425922152.228,30.653778
1425922152.244,26.760815
1425922152.26,18.620457
1425922152.275,6.8295555
1425922152.291,-7.0475645
1425922152.307,-20.990135
1425922152.322,-33.09616
1425922152.338,-42.17661
1425922152.354,-47.888252
1425922152.369,-50.52849
1425922152.385,-50.781517
1425922152.4,-49.36715
1425922152.416,-46.80182
1425922152.432,-43.467846
1425922152.447,-39.64031
1425922152.463,-35.613976
1425922152.478,-31.672712
1425922152.494,-28.08527
1425922152.51,-24.982847
1425922152.525,-22.420563
1425922152.541,-20.385662
1425922152.557,-18.805927
1425922152.572,-17.554068
1425922152.588,-16.476088
1425922152.604,-15.401974
1425922152.619,-14.231087
1425922152.635,-12.925788
1425922152.65,-11.480497
1425922152.666,-9.891113
1425922152.682,-8.103386
1425922152.697,-5.9252634
1425922152.713,-3.151956
1425922152.729,0.38104868
1425922152.744,4.6761875
1425922152.76,9.496338
1425922152.775,14.44683
1425922152.791,19.126106
1425922152.807,23.244276
1425922152.822,26.7289
1425922152.838,29.701351
1425922152.854,32.445255
1425922152.869,35.316303
1425922152.885,38.693207
1425922152.9,42.907513
1425922152.916,48.115803
1425922152.932,54.1034
1425922152.947,60.147892
1425922152.963,64.96606
1425922152.979,66.9729
1425922152.994,64.71315
1425922153.01,57.43321
1425922153.025,45.41285
1425922153.041,30.028826
1425922153.057,13.329916
1425922153.072,-2.5615559
1425922153.088,-16.023468
1425922153.104,-26.267067
1425922153.119,-33.288452
1425922153.135,-37.56533
1425922153.15,-39.721825
1425922153.166,-40.271545
1425922153.182,-39.58169
1425922153.197,-37.94333
1425922153.213,-35.6982
1425922153.229,-33.28388
1425922153.244,-31.114511
1425922153.26,-29.484354
1425922153.275,-28.410181
1425922153.291,-27.665665
1425922153.307,-26.852123
1425922153.322,-25.613932
1425922153.338,-23.796843
1425922153.354,-21.514536
1425922153.369,-19.089106
1425922153.385,-16.872843
1425922153.4,-15.058516
1425922153.416,-13.563397
1425922153.432,-12.033158
1425922153.447,-9.974752
1425922153.463,-6.9759865
1425922153.479,-2.8652477
1425922153.494,2.174735
1425922153.51,7.665968
1425922153.525,13.018148
1425922153.541,17.747406
1425922153.557,21.67743
1425922153.572,25.00829
1425922153.588,28.198483
1425922153.604,31.806463
1425922153.619,36.339043
1425922153.635,42.06474
1425922153.65,48.897614
1425922153.666,56.30791
1425922153.682,63.249794
1425922153.697,68.28642
1425922153.713,69.84101
1425922153.729,66.646645
1425922153.744,58.24431
1425922153.76,45.246876
1425922153.775,29.286863
1425922153.791,12.561581
1425922153.807,-2.8172512
1425922153.822,-15.416716
1425922153.838,-24.739008
1425922153.854,-31.10103
1425922153.869,-35.261566
1425922153.885,-37.955704
1425922153.9,-39.671425
1425922153.916,-40.597313
1425922153.932,-40.782745
1425922153.947,-40.2895
1425922153.963,-39.28974
1425922153.979,-38.02867
1425922153.994,-36.727936
1425922154.01,-35.481373
1425922154.025,-34.261772
1425922154.041,-32.9795
1425922154.057,-31.625221
1425922154.072,-30.259584
1425922154.088,-28.991673
1425922154.104,-27.866318
1425922154.119,-26.768267
1425922154.135,-25.450844
1425922154.15,-23.674055
1425922154.166,-21.302334
1425922154.182,-18.426367
1425922154.197,-15.242397
1425922154.213,-11.929678
1425922154.229,-8.494928
1425922154.244,-4.767809
1425922154.26,-0.5433693
1425922154.275,4.241724
1425922154.291,9.394663
1425922154.307,14.541616
1425922154.322,19.322784
1425922154.338,23.567362
1425922154.354,27.409904
1425922154.369,31.195215
1425922154.385,35.370255
1425922154.4,40.312126
1425922154.416,46.247406
1425922154.432,53.11915
1425922154.447,60.469078
1425922154.463,67.308685
1425922154.479,72.17657
1425922154.494,73.39916
1425922154.51,69.63798
1425922154.525,60.406475
1425922154.541,46.413544
1425922154.557,29.452026
1425922154.572,11.867905
1425922154.588,-4.159012
1425922154.604,-17.185555
1425922154.619,-26.78009
1425922154.635,-33.336758
1425922154.65,-37.66535
1425922154.666,-40.548008
1425922154.682,-42.480858
1425922154.697,-43.619892
1425922154.713,-43.963516
1425922154.729,-43.528122
1425922154.744,-42.505383
1425922154.76,-41.193764
1425922154.775,-39.931145
1425922154.791,-38.87824
1425922154.807,-38.008057
1425922154.822,-37.141846
1425922154.838,-36.11574
1425922154.854,-34.91585
1425922154.869,-33.68551
1425922154.885,-32.588127
1425922154.9,-31.639935
1425922154.916,-30.616886
1425922154.932,-29.101841
1425922154.947,-26.696667
1425922154.963,-23.274113
1425922154.979,-19.051968
1425922154.994,-14.522751
1425922155.01,-10.18898
1425922155.025,-6.306938
1425922155.041,-2.7692947
1425922155.057,0.78328705
1425922155.072,4.750351
1425922155.088,9.30677
1425922155.104,14.341621
1425922155.119,19.497353
1425922155.135,24.40223
1425922155.15,28.791039
1425922155.166,32.63642
1425922155.182,36.110332
1425922155.197,39.576294
1425922155.213,43.463326
1425922155.229,48.202938
1425922155.244,53.989563
1425922155.26,60.573135
1425922155.276,67.04702
1425922155.291,71.902084
1425922155.307,73.34119
1425922155.322,69.90608
1425922155.338,61.02085
1425922155.354,47.36833
1425922155.369,30.715488
1425922155.385,13.39468
1425922155.401,-2.4437447
1425922155.416,-15.376907
1425922155.432,-24.955284
1425922155.447,-31.500298
1425922155.463,-35.735035
1425922155.479,-38.363445
1425922155.494,-39.88092
1425922155.51,-40.54874
1425922155.526,-40.510555
1425922155.541,-39.891666
1425922155.557,-38.87531
1425922155.572,-37.647808
1425922155.588,-36.377304
1425922155.604,-35.154007
1425922155.619,-34.02003
1425922155.635,-32.976345
1425922155.651,-32.05644
1425922155.666,-31.241573
1425922155.682,-30.493717
1425922155.697,-29.69814
1425922155.713,-28.688736
1425922155.729,-27.30479
1425922155.744,-25.433765
1425922155.76,-23.071808
1425922155.776,-20.289066
1425922155.791,-17.171787
1425922155.807,-13.785034
1425922155.822,-10.085949
1425922155.838,-6.0288315
1425922155.854,-1.5819397
1425922155.869,3.1813545
1425922155.885,8.104458
1425922155.901,12.935909
1425922155.916,17.49337
1425922155.932,21.660103
1425922155.947,25.473248
1425922155.963,29.094658
1425922155.979,32.7924
1425922155.994,36.90269
1425922156.01,41.80046
1425922156.026,47.69179
1425922156.041,54.402206
1425922156.057,61.128204
1425922156.072,66.4355
1425922156.088,68.54441
1425922156.104,65.91084
1425922156.119,57.849197
1425922156.135,44.898643
1425922156.151,28.724953
1425922156.166,11.612778
1425922156.182,-4.2494354
1425922156.197,-17.36079
1425922156.213,-27.127518
1425922156.229,-33.7407
1425922156.244,-37.82412
1425922156.26,-40.050232
1425922156.276,-40.938065
1425922156.291,-40.778214
1425922156.307,-39.765205
1425922156.322,-38.070156
1425922156.338,-35.985718
1425922156.354,-33.884243
1425922156.369,-32.151207
1425922156.385,-31.014702
1425922156.401,-30.46642
1425922156.416,-30.214478
1425922156.432,-29.85125
1425922156.447,-29.023485
1425922156.463,-27.62414
1425922156.479,-25.823753
1425922156.494,-23.948696
1425922156.51,-22.277515
1425922156.526,-20.885944
1425922156.541,-19.554144
1425922156.557,-17.849344
1425922156.572,-15.315811
1425922156.588,-11.671459
1425922156.604,-6.9310684
1425922156.619,-1.4084988
1425922156.635,4.4127197
1425922156.651,10.02846
1425922156.666,15.091305
1425922156.682,19.492735
1425922156.697,23.354513
1425922156.713,26.940977
1425922156.729,30.591896
1425922156.744,34.674995
1425922156.76,39.538445
1425922156.776,45.373375
1425922156.791,52.085274
1425922156.807,59.01869
1425922156.822,64.92622
1425922156.838,68.14145
1425922156.854,67.03399
1425922156.869,60.613384
1425922156.885,48.989044
1425922156.901,33.46202
1425922156.916,16.166183
1425922156.932,-0.59251213
1425922156.947,-14.987551
1425922156.963,-26.069145
1425922156.979,-33.77604
1425922156.994,-38.61976
1425922157.01,-41.297604
1425922157.026,-42.41029
1425922157.041,-42.329155
1425922157.057,-41.314945
1425922157.072,-39.590332
1425922157.088,-37.449
1425922157.104,-35.18943
1425922157.119,-33.091003
1425922157.135,-31.313135
1425922157.151,-29.912657
1425922157.166,-28.824211
1425922157.182,-27.924362
1425922157.197,-27.061022
1425922157.213,-26.111296
1425922157.229,-24.990543
1425922157.244,-23.641663
1425922157.26,-22.063396
1425922157.276,-20.22588
1425922157.291,-18.085342
1425922157.307,-15.587796
1425922157.322,-12.6779375
1425922157.338,-9.314854
1425922157.354,-5.4846296
1425922157.369,-1.218791
1425922157.385,3.4281669
1425922157.401,8.321789
1425922157.416,13.280098
1425922157.432,18.086737
1425922157.447,22.556393
1425922157.463,26.609442
1425922157.479,30.324772
1425922157.494,33.933167
1425922157.51,37.81343
1425922157.526,42.39124
1425922157.541,48.024307
1425922157.557,54.81618
1425922157.572,62.38955
1425922157.588,69.726036
1425922157.604,75.197945
1425922157.619,76.89579
1425922157.635,73.236244
1425922157.651,63.575912
1425922157.666,48.6247
1425922157.682,30.335203
1425922157.697,11.345287
1425922157.713,-5.875227
1425922157.729,-19.692776
1425922157.744,-29.620815
1425922157.76,-36.091305
1425922157.776,-40.004837
1425922157.791,-42.205284
1425922157.807,-43.24839
1425922157.822,-43.40142
1425922157.838,-42.79943
1425922157.854,-41.6176
1425922157.869,-40.111397
1425922157.885,-38.56435
1425922157.901,-37.18465
1425922157.916,-36.017914
1425922157.932,-34.959938
1425922157.948,-33.868824
1425922157.963,-32.683735
1425922157.979,-31.418564
1425922157.994,-30.189947
1425922158.01,-29.066025
1425922158.026,-28.014006
1425922158.041,-26.83837
1425922158.057,-25.264269
1425922158.073,-23.036491
1425922158.088,-20.05176
1425922158.104,-16.419613
1425922158.119,-12.384829
1425922158.135,-8.211498
1425922158.151,-4.0480323
1425922158.166,0.15471792
1425922158.182,4.550393
1425922158.198,9.266637
1425922158.213,14.270206
1425922158.229,19.358084
1425922158.244,24.22236
1425922158.26,28.629263
1425922158.276,32.52059
1425922158.291,36.094208
1425922158.307,39.74163
1425922158.323,43.99231
1425922158.338,49.291718
1425922158.354,55.82651
1425922158.369,63.25428
1425922158.385,70.55727
1425922158.401,76.088585
1425922158.416,77.89904
1425922158.432,74.35016
1425922158.448,64.77338
1425922158.463,49.835075
1425922158.479,31.45477
1425922158.494,12.236183
1425922158.51,-5.336438
1425922158.526,-19.583275
1425922158.541,-29.890192
1425922158.557,-36.547657
1425922158.573,-40.31422
1425922158.588,-42.015392
1425922158.604,-42.28678
1425922158.619,-41.634342
1425922158.635,-40.44158
1425922158.651,-39.092278
1425922158.666,-37.887585
1425922158.682,-36.995678
1425922158.698,-36.363037
1425922158.713,-35.784912
1425922158.729,-35.02597
1425922158.744,-33.956093
1425922158.76,-32.638695
1425922158.776,-31.298363
1425922158.791,-30.172184
1425922158.807,-29.372051
1425922158.823,-28.751942
1425922158.838,-27.97613
1425922158.854,-26.636883
1425922158.869,-24.462452
1425922158.885,-21.428797
1425922158.901,-17.754953
1425922158.916,-13.742001
1425922158.932,-9.648489
1425922158.948,-5.570959
1425922158.963,-1.4246693
1425922158.979,2.909317
1425922158.994,7.48691
1425922159.01,12.233023
1425922159.026,16.948416
1425922159.041,21.418207
1425922159.057,25.514088
1425922159.073,29.279732
1425922159.088,32.921547
1425922159.104,36.79739
1425922159.119,41.284798
1425922159.135,46.718742
1425922159.151,53.17185
1425922159.166,60.28862
1425922159.182,67.13014
1425922159.198,72.214096
1425922159.213,73.810974
1425922159.229,70.460205
1425922159.244,61.512375
1425922159.26,47.509926
1425922159.276,30.106333
1425922159.291,11.65753
1425922159.307,-5.518778
1425922159.323,-19.739138
1425922159.338,-30.295277
1425922159.354,-37.32685
1425922159.369,-41.48751
1425922159.385,-43.51555
1425922159.401,-44.00009
1425922159.416,-43.31887
1425922159.432,-41.7455
1425922159.448,-39.579475
1425922159.463,-37.133286
1425922159.479,-34.75357
1425922159.494,-32.708134
1425922159.51,-31.118933
1425922159.526,-29.968313
1425922159.541,-29.123823
1425922159.557,-28.387793
1425922159.573,-27.587965
1425922159.588,-26.604118
1425922159.604,-25.405739
1425922159.619,-24.006618
1425922159.635,-22.437277
1425922159.651,-20.68485
1425922159.666,-18.649534
1425922159.682,-16.18621
1425922159.698,-13.13238
1425922159.713,-9.4145355
1425922159.729,-5.040554
1425922159.744,-0.1510582
1425922159.76,5.0397034
1425922159.776,10.301918
1425922159.791,15.448946
1425922159.807,20.358284
1425922159.823,24.96544
1425922159.838,29.253685
1425922159.854,33.278793
1425922159.869,37.19691
1425922159.885,41.347523
1425922159.901,46.149452
1425922159.916,51.92542
1425922159.932,58.55368
1425922159.948,65.206604
1425922159.963,70.355095
1425922159.979,72.12153
1425922159.994,68.91296
1425922160.01,60.10422
1425922160.026,46.327003
1425922160.041,29.34414
1425922160.057,11.461487
1425922160.073,-5.172142
1425922160.088,-19.123951
1425922160.104,-29.805515
1425922160.119,-37.27263
1425922160.135,-41.90491
1425922160.151,-44.102695
1425922160.166,-44.196297
1425922160.182,-42.504257
1425922160.198,-39.45679
1425922160.213,-35.66422
1425922160.229,-31.823767
1425922160.244,-28.593588
1425922160.26,-26.37698
1425922160.276,-25.230774
1425922160.291,-24.836498
1425922160.307,-24.692741
1425922160.323,-24.285988
1425922160.338,-23.349533
1425922160.354,-21.899765
1425922160.369,-20.21093
1425922160.385,-18.596786
1425922160.401,-17.215618
1425922160.416,-15.922466
1425922160.432,-14.306728
1425922160.448,-11.871433
1425922160.463,-8.248299
1425922160.479,-3.4156075
1425922160.494,2.2781677
1425922160.51,8.258255
1425922160.526,13.92915
1425922160.541,18.913597
1425922160.557,23.1994
1425922160.573,27.10134
1425922160.588,31.109762
1425922160.604,35.758533
1425922160.62,41.448685
1425922160.635,48.353683
1425922160.651,56.282806
1425922160.666,64.516045
1425922160.682,71.720985
1425922160.698,76.13531
1425922160.713,75.94961
1425922160.729,69.970634
1425922160.745,58.156956
1425922160.76,41.776527
1425922160.776,23.09079
1425922160.791,4.662184
1425922160.807,-11.421377
1425922160.823,-24.016203
1425922160.838,-32.97413
1425922160.854,-38.797348
1425922160.87,-42.24713
1425922160.885,-43.9684
1425922160.901,-44.43109
1425922160.916,-43.956493
1425922160.932,-42.808376
1425922160.948,-41.234253
1425922160.963,-39.42605
1425922160.979,-37.5176
1425922160.995,-35.587875
1425922161.01,-33.657784
1425922161.026,-31.74569
1425922161.041,-29.88236
1425922161.057,-28.095625
1425922161.073,-26.425575
1425922161.088,-24.895275
1425922161.104,-23.502235
1425922161.12,-22.202868
1425922161.135,-20.87482
1425922161.151,-19.34895
1425922161.166,-17.40542
1425922161.182,-14.824002
1425922161.198,-11.424654
1425922161.213,-7.147887
1425922161.229,-2.0708685
1425922161.245,3.5594997
1425922161.26,9.366744
1425922161.276,14.94852
1425922161.291,20.001125
1425922161.307,24.397236
1425922161.323,28.26355
1425922161.338,31.925232
1425922161.354,35.8114
1425922161.37,40.347553
1425922161.385,45.89969
1425922161.401,52.62236
1425922161.416,60.320286
1425922161.432,68.22542
1425922161.448,74.950584
1425922161.463,78.648994
1425922161.479,77.51139
1425922161.495,70.41211
1425922161.51,57.453815
1425922161.526,40.09745
1425922161.541,20.778358
1425922161.557,2.130805
1425922161.573,-13.777337
1425922161.588,-25.951597
1425922161.604,-34.41362
1425922161.62,-39.89693
1425922161.635,-43.26817
1425922161.651,-45.22596
1425922161.666,-46.123405
1425922161.682,-46.13542
1425922161.698,-45.39478
1425922161.713,-44.11376
1425922161.729,-42.569023
1425922161.745,-40.99938
1425922161.76,-39.545486
1425922161.776,-38.19988
1425922161.791,-36.878822
1425922161.807,-35.514793
1425922161.823,-34.10549
1425922161.838,-32.702484
1425922161.854,-31.32148
1425922161.87,-29.878696
1425922161.885,-28.204247
1425922161.901,-26.12199
1425922161.916,-23.535618
1425922161.932,-20.488016
1425922161.948,-17.106499
1425922161.963,-13.524567
1425922161.979,-9.7727785
1425922161.995,-5.7766056
1425922162.01,-1.417408
1425922162.026,3.3373852
1425922162.041,8.389036
1425922162.057,13.505745
1425922162.073,18.45003
1425922162.088,23.041704
1425922162.104,27.287436
1425922162.12,31.345486
1425922162.135,35.564617
1425922162.151,40.34503
1425922162.166,46.08215
1425922162.182,52.913494
1425922162.198,60.500374
1425922162.213,67.84534
1425922162.229,73.372
1425922162.245,75.22484
1425922162.26,71.87218
1425922162.276,62.67868
1425922162.291,48.248848
1425922162.307,30.350498
1425922162.323,11.433228
1425922162.338,-6.125231
1425922162.354,-20.600374
1425922162.37,-31.286987
1425922162.385,-38.378387
1425922162.401,-42.638695
1425922162.416,-44.914658
1425922162.432,-45.8862
1425922162.448,-45.902855
1425922162.463,-45.126747
1425922162.479,-43.683872
1425922162.495,-41.790073
1425922162.51,-39.760986
1425922162.526,-37.958916
1425922162.541,-36.605698
1425922162.557,-35.737564
1425922162.573,-35.19629
1425922162.588,-34.73117
1425922162.604,-34.071808
1425922162.62,-33.055332
1425922162.635,-31.602942
1425922162.651,-29.710457
1425922162.666,-27.411104
1425922162.682,-24.755882
1425922162.698,-21.811298
1425922162.713,-18.686434
1425922162.729,-15.430447
1425922162.745,-12.05578
1425922162.76,-8.450199
1425922162.776,-4.484213
1425922162.791,-0.0305233
1425922162.807,4.881613
1425922162.823,10.083113
1425922162.838,15.287415
1425922162.854,20.207169
1425922162.87,24.662586
1425922162.885,28.649395
1425922162.901,32.331898
1425922162.916,36.021523
1425922162.932,40.091568
1425922162.948,44.947166
1425922162.963,50.8328
1425922162.979,57.590443
1425922162.995,64.46854
1425922163.01,70.049835
1425922163.026,72.49235
1425922163.041,70.08844
1425922163.057,61.889015
1425922163.073,48.201836
1425922163.088,30.624868
1425922163.104,11.617126
1425922163.12,-6.245672
1425922163.135,-20.976717
1425922163.151,-31.667803
1425922163.166,-38.44295
1425922163.182,-42.12142
1425922163.198,-43.6911
1425922163.213,-43.95047
1425922163.229,-43.31522
1425922163.245,-41.92939
1425922163.26,-39.848488
1425922163.276,-37.23144
1425922163.292,-34.429367
1425922163.307,-31.883898
1425922163.323,-29.944384
1425922163.338,-28.723587
1425922163.354,-28.032862
1425922163.37,-27.516365
1425922163.385,-26.8086
1425922163.401,-25.723984
1425922163.416,-24.299286
1425922163.432,-22.702208
1425922163.448,-21.050112
1425922163.463,-19.327518
1425922163.479,-17.332392
1425922163.495,-14.770819
1425922163.51,-11.408741
1425922163.526,-7.1878166
1425922163.542,-2.2337036
1425922163.557,3.1536427
1425922163.573,8.62776
1425922163.588,13.89661
1425922163.604,18.785475
1425922163.62,23.231613
1425922163.635,27.329489
1425922163.651,31.241793
1425922163.667,35.222816
1425922163.682,39.555008
1425922163.698,44.571808
1425922163.713,50.491512
1425922163.729,57.23968
1425922163.745,64.19661
1425922163.76,70.082565
1425922163.776,73.128395
1425922163.792,71.59374
1425922163.807,64.37634
1425922163.823,51.614693
1425922163.838,34.7661
1425922163.854,16.195202
1425922163.87,-1.5926037
1425922163.885,-16.706398
1425922163.901,-28.30017
1425922163.917,-36.463146
1425922163.932,-41.83367
1425922163.948,-45.08127
1425922163.963,-46.61727
1425922163.979,-46.5912
1425922163.995,-45.10827
1425922164.01,-42.441628
1425922164.026,-39.127224
1425922164.042,-35.825867
1425922164.057,-33.133457
1425922164.073,-31.321228
1425922164.088,-30.28238
1425922164.104,-29.609041
1425922164.12,-28.803167
1425922164.135,-27.533482
1425922164.151,-25.760105
1425922164.167,-23.72639
1425922164.182,-21.821064
1425922164.198,-20.301022
1425922164.213,-19.133686
1425922164.229,-17.920437
1425922164.245,-16.091568
1425922164.26,-13.110981
1425922164.276,-8.768295
1425922164.292,-3.2348404
1425922164.307,2.9863892
1425922164.323,9.254688
1425922164.338,15.039467
1425922164.354,20.07809
1425922164.37,24.421219
1425922164.385,28.38065
1425922164.401,32.375153
1425922164.417,36.884907
1425922164.432,42.318356
1425922164.448,48.92634
1425922164.463,56.575928
1425922164.479,64.55219
1425922164.495,71.44856
1425922164.51,75.35739
1425922164.526,74.38242
1425922164.542,67.35132
1425922164.557,54.354256
1425922164.573,36.918674
1425922164.588,17.541912
1425922164.604,-1.0537529
1425922164.62,-16.777252
1425922164.635,-28.636513
1425922164.651,-36.702526
1425922164.667,-41.682674
1425922164.682,-44.407272
1425922164.698,-45.47614
1425922164.713,-45.240814
1425922164.729,-43.966606
1425922164.745,-41.995464
1425922164.76,-39.763657
1425922164.776,-37.700966
1425922164.792,-36.06159
1425922164.807,-34.861813
1425922164.823,-33.92172
1425922164.838,-33.000603
1425922164.854,-31.895283
1425922164.87,-30.555267
1425922164.885,-29.013973
1425922164.901,-27.37038
1425922164.917,-25.702412
1425922164.932,-24.045055
1425922164.948,-22.372997
1425922164.963,-20.625435
1425922164.979,-18.651463
1425922164.995,-16.204872
1425922165.01,-13.021103
1425922165.026,-8.88242
1425922165.042,-3.6762772
1425922165.057,2.4679031
1425922165.073,9.203709
1425922165.088,15.996979
1425922165.104,22.322155
1425922165.12,27.781013
1425922165.135,32.33651
1425922165.151,36.269794
1425922165.167,40.190823
1425922165.182,44.7851
1425922165.198,50.61394
1425922165.213,57.81724
1425922165.229,65.93355
1425922165.245,73.79121
1425922165.26,79.6484
1425922165.276,81.60145
1425922165.292,78.11297
1425922165.307,68.56644
1425922165.323,53.586487
1425922165.338,34.940216
1425922165.354,15.060444
1425922165.37,-3.6254501
1425922165.385,-19.321518
1425922165.401,-31.18227
1425922165.417,-39.239235
1425922165.432,-44.074745
1425922165.448,-46.44098
1425922165.463,-47.034542
1425922165.479,-46.386707
1425922165.495,-44.93897
1425922165.51,-43.07556
1425922165.526,-41.149326
1425922165.542,-39.419956
1425922165.557,-38.02776
1425922165.573,-36.972397
1425922165.588,-36.140556
1425922165.604,-35.346996
1425922165.62,-34.446598
1425922165.635,-33.327503
1425922165.651,-31.953556
1425922165.667,-30.357098
1425922165.682,-28.574978
1425922165.698,-26.646992
1425922165.713,-24.561852
1425922165.729,-22.24376
1425922165.745,-19.593575
1425922165.76,-16.46265
1425922165.776,-12.73634
1425922165.792,-8.328598
1425922165.807,-3.250286
1425922165.823,2.354889
1425922165.838,8.22731
1425922165.854,14.045788
1425922165.87,19.497837
1425922165.885,24.379318
1425922165.901,28.686237
1425922165.917,32.630882
1425922165.932,36.604332
1425922165.948,41.100876
1425922165.964,46.569626
1425922165.979,53.252758
1425922165.995,60.90672
1425922166.01,68.66412
1425922166.026,75.01347
1425922166.042,78.07804
1425922166.057,76.155945
1425922166.073,68.31621
1425922166.088,54.824768
1425922166.104,37.216473
1425922166.12,17.850883
1425922166.135,-0.7456322
1425922166.151,-16.581474
1425922166.167,-28.615509
1425922166.182,-36.775925
1425922166.198,-41.70223
1425922166.214,-44.28058
1425922166.229,-45.331154
1425922166.245,-45.429775
1425922166.26,-44.895317
1425922166.276,-43.906757
1425922166.292,-42.59437
1425922166.307,-41.113575
1425922166.323,-39.598286
1425922166.339,-38.174286
1425922166.354,-36.885
1425922166.37,-35.736977
1425922166.385,-34.71681
1425922166.401,-33.804905
1425922166.417,-32.957794
1425922166.432,-32.097042
1425922166.448,-31.090828
1425922166.464,-29.75951
1425922166.479,-27.927994
1425922166.495,-25.469223
1425922166.51,-22.391972
1425922166.526,-18.791931
1425922166.542,-14.8250885
1425922166.557,-10.606632
1425922166.573,-6.148487
1425922166.589,-1.4015808
1425922166.604,3.7139435
1425922166.62,9.154541
1425922166.635,14.772892
1425922166.651,20.278389
1425922166.667,25.402424
1425922166.682,29.986427
1425922166.698,34.113934
1425922166.714,38.084797
1425922166.729,42.401264
1425922166.745,47.57683
1425922166.76,53.929104
1425922166.776,61.280285
1425922166.792,68.807816
1425922166.807,74.996
1425922166.823,77.95445
1425922166.839,75.95622
1425922166.854,68.07283
1425922166.87,54.610733
1425922166.885,37.13808
1425922166.901,18.03812
1425922166.917,-0.22953796
1425922166.932,-15.814426
1425922166.948,-27.839249
1425922166.964,-36.32146
1425922166.979,-41.78362
1425922166.995,-44.860703
1425922167.01,-46.019688
1425922167.026,-45.580345
1425922167.042,-43.836704
1425922167.057,-41.189735
1425922167.073,-38.165924
1425922167.089,-35.307194
1425922167.104,-32.99171
1425922167.12,-31.343407
1425922167.135,-30.21135
1425922167.151,-29.315598
1425922167.167,-28.403492
1425922167.182,-27.352787
1425922167.198,-26.216991
1425922167.214,-25.144993
1425922167.229,-24.262867
1425922167.245,-23.550705
1425922167.26,-22.757946
1425922167.276,-21.500359
1425922167.292,-19.324368
1425922167.307,-15.923698
1425922167.323,-11.224022
1425922167.339,-5.493103
1425922167.354,0.78025055
1425922167.37,7.004406
1425922167.385,12.704712
1425922167.401,17.632729
1425922167.417,21.84832
1425922167.432,25.629921
1425922167.448,29.378532
1425922167.464,33.51626
1425922167.479,38.463066
1425922167.495,44.542686
1425922167.51,51.86364
1425922167.526,60.075115
1425922167.542,68.168175
1425922167.557,74.47383
1425922167.573,77.02143
1425922167.589,74.15144
1425922167.604,65.213684
1425922167.62,50.921284
1425922167.635,33.24742
1425922167.651,14.755383
1425922167.667,-2.2218323
1425922167.682,-16.216278
1425922167.698,-26.8292
1425922167.714,-34.40522
1425922167.729,-39.53956
1425922167.745,-42.661427
1425922167.76,-43.908764
1425922167.776,-43.35179
1425922167.792,-41.248516
1425922167.807,-38.215965
1425922167.823,-35.048058
1425922167.839,-32.462067
1425922167.854,-30.788303
1425922167.87,-29.84795
1425922167.885,-29.093979
1425922167.901,-27.97231
1425922167.917,-26.217167
1425922167.932,-24.03453
1425922167.948,-21.929398
1425922167.964,-20.40982
1425922167.979,-19.633476
1425922167.995,-19.272655
1425922168.01,-18.590225
1425922168.026,-16.790192
1425922168.042,-13.328552
1425922168.057,-8.178055
1425922168.073,-1.8091965
1425922168.089,4.988941
1425922168.104,11.435684
1425922168.12,17.00444
1425922168.135,21.598969
1425922168.151,25.4982
1425922168.167,29.242767
1425922168.182,33.445343
1425922168.198,38.63465
1425922168.214,45.11001
1425922168.229,52.763542
1425922168.245,60.897476
1425922168.26,68.17542
1425922168.276,72.78796
1425922168.292,72.9299
1425922168.307,67.37604
1425922168.323,56.085716
1425922168.339,40.315964
1425922168.354,22.315323
1425922168.37,4.5872726
1425922168.385,-10.845253
1425922168.401,-22.94197
1425922168.417,-31.62004
1425922168.432,-37.410652
1425922168.448,-40.968643
1425922168.464,-42.77942
1425922168.479,-43.107277
1425922168.495,-42.166153
1425922168.51,-40.290924
1425922168.526,-37.974953
1425922168.542,-35.734764
1425922168.557,-33.96089
1425922168.573,-32.754707
1425922168.589,-31.922905
1425922168.604,-31.082687
1425922168.62,-29.86853
1425922168.635,-28.083206
1425922168.651,-25.834328
1425922168.667,-23.439575
1425922168.682,-21.293709
1425922168.698,-19.619972
1425922168.714,-18.320572
1425922168.729,-16.949104
1425922168.745,-14.881691
1425922168.76,-11.578781
1425922168.776,-6.8402786
1425922168.792,-0.92781067
1425922168.807,5.5261765
1425922168.823,11.76561
1425922168.839,17.192093
1425922168.854,21.621376
1425922168.87,25.296906
1425922168.886,28.782852
1425922168.901,32.7445
1425922168.917,37.755775
1425922168.932,44.15216
1425922168.948,51.891945
1425922168.964,60.442772
1425922168.979,68.64632
1425922168.995,74.810265
1425922169.011,77.04718
1425922169.026,73.82292
1425922169.042,64.578316
1425922169.057,50.071785
1425922169.073,32.281204
1425922169.089,13.767044
1425922169.104,-3.0899734
1425922169.12,-16.790146
1425922169.136,-26.915054
1425922169.151,-33.919228
1425922169.167,-38.605736
1425922169.182,-41.66012
1425922169.198,-43.439323
1425922169.214,-44.052956
1425922169.229,-43.57521
1425922169.245,-42.25592
1425922169.261,-40.52806
1425922169.276,-38.87008
1425922169.292,-37.634987
1425922169.307,-36.886475
1425922169.323,-36.402496
1425922169.339,-35.82155
1425922169.354,-34.803032
1425922169.37,-33.21811
1425922169.386,-31.155373
1425922169.401,-28.886963
1425922169.417,-26.66784
1425922169.432,-24.648224
1425922169.448,-22.758804
1425922169.464,-20.760193
1425922169.479,-18.320885
1425922169.495,-15.15992
1425922169.511,-11.137375
1425922169.526,-6.292877
1425922169.542,-0.84181976
1425922169.557,4.900444
1425922169.573,10.605812
1425922169.589,15.992218
1425922169.604,20.908401
1425922169.62,25.345253
1425922169.636,29.47306
1425922169.651,33.56749
1425922169.667,38.03386
1425922169.682,43.307922
1425922169.698,49.70314
1425922169.714,57.151688
1425922169.729,64.984955
1425922169.745,71.83823
1425922169.761,75.86373
1425922169.776,75.23917
1425922169.792,68.841125
1425922169.807,56.734344
1425922169.823,40.31395
1425922169.839,21.902527
1425922169.854,4.046219
1425922169.87,-11.267479
1425922169.886,-23.039902
1425922169.901,-31.30526
1425922169.917,-36.75432
1425922169.932,-40.249878
1425922169.948,-42.46273
1425922169.964,-43.780006
1425922169.979,-44.364433
1425922169.995,-44.32376
1425922170.011,-43.807236
1425922170.026,-43.0204
1425922170.042,-42.12169
1425922170.057,-41.175003
1425922170.073,-40.15625
1425922170.089,-39.01857
1425922170.104,-37.771866
1425922170.12,-36.523376
1425922170.136,-35.404007
1425922170.151,-34.471527
1425922170.167,-33.611313
1425922170.182,-32.55522
1425922170.198,-30.981857
1425922170.214,-28.668625
1425922170.229,-25.573639
1425922170.245,-21.832962
1425922170.261,-17.673813
1425922170.276,-13.263672
1425922170.292,-8.696472
1425922170.307,-3.949417
1425922170.323,0.99661255
1425922170.339,6.0705414
1425922170.354,11.116379
1425922170.37,15.909271
1425922170.386,20.290787
1425922170.401,24.223572
1425922170.417,27.85794
1425922170.432,31.487183
1425922170.448,35.518097
1425922170.464,40.361633
1425922170.479,46.325714
1425922170.495,53.389557
1425922170.511,60.996918
1425922170.526,67.945435
1425922170.542,72.514114
1425922170.557,72.91026
1425922170.573,67.86815
1425922170.589,57.190292
1425922170.604,41.968002
1425922170.62,24.28949
1425922170.636,6.600769
1425922170.651,-9.058136
1425922170.667,-21.545395
1425922170.682,-30.697311
1425922170.698,-37.004517
1425922170.714,-41.178925
1425922170.729,-43.817535
1425922170.745,-45.267685
1425922170.761,-45.75006
1425922170.776,-45.450058
1425922170.792,-44.610565
1425922170.807,-43.463684
1425922170.823,-42.18489
1425922170.839,-40.872345
1425922170.854,-39.561523
1425922170.87,-38.283257
1425922170.886,-37.072716
1425922170.901,-35.968117
1425922170.917,-34.938316
1425922170.932,-33.908203
1425922170.948,-32.743706
1425922170.964,-31.324135
1425922170.979,-29.574463
1425922170.995,-27.446075
1425922171.011,-24.927513
1425922171.026,-21.985191
1425922171.042,-18.57122
1425922171.057,-14.632668
1425922171.073,-10.14344
1425922171.089,-5.1495132
1425922171.104,0.20468903
1425922171.12,5.6941605
1425922171.136,11.027931
1425922171.151,15.93959
1425922171.167,20.252327
1425922171.182,23.958115
1425922171.198,27.241554
1425922171.214,30.43843
1425922171.229,33.991768
1425922171.245,38.38874
1425922171.261,44.028763
1425922171.276,50.978416
1425922171.292,58.773125
1425922171.307,66.187874
1425922171.323,71.38761
1425922171.339,72.36558
1425922171.354,67.65856
1425922171.37,56.983383
1425922171.386,41.494484
1425922171.401,23.478271
1425922171.417,5.575386
1425922171.432,-10.018906
1425922171.448,-22.144089
1425922171.464,-30.727142
1425922171.479,-36.390434
1425922171.495,-39.9347
1425922171.511,-41.931633
1425922171.526,-42.62555
1425922171.542,-42.076965
1425922171.558,-40.436485
1425922171.573,-38.047455
1425922171.589,-35.44127
1425922171.604,-33.174538
1425922171.62,-31.588646
1425922171.636,-30.708656
1425922171.651,-30.28276
1425922171.667,-29.924065
1425922171.683,-29.316666
1425922171.698,-28.357468
1425922171.714,-27.121147
1425922171.729,-25.774544
1425922171.745,-24.408005
1425922171.761,-22.96119
1425922171.776,-21.275795
1425922171.792,-19.133598
1425922171.808,-16.393234
1425922171.823,-12.950058
1425922171.839,-8.817741
1425922171.854,-4.066345
1425922171.87,1.1274033
1425922171.886,6.503174
1425922171.901,11.741364
1425922171.917,16.55951
1425922171.933,20.817703
1425922171.948,24.58355
1425922171.964,28.125687
1425922171.979,31.816422
1425922171.995,36.06156
1425922172.011,41.17428
1425922172.026,47.27202
1425922172.042,54.128952
1425922172.058,60.992554
1425922172.073,66.58275
1425922172.089,69.24095
1425922172.104,67.44121
1425922172.12,60.31981
1425922172.136,48.16165
1425922172.151,32.409805
1425922172.167,15.288208
1425922172.183,-0.91802216
1425922172.198,-14.486946
1425922172.214,-24.648258
1425922172.229,-31.489567
1425922172.245,-35.623154
1425922172.261,-37.774345
1425922172.276,-38.50662
1425922172.292,-38.18737
1425922172.308,-37.086678
1425922172.323,-35.47477
1425922172.339,-33.678936
1425922172.354,-32.034885
1425922172.37,-30.779343
1425922172.386,-29.970047
1425922172.401,-29.473091
1425922172.417,-28.98648
1425922172.433,-28.202682
1425922172.448,-26.88483
1425922172.464,-25.017723
1425922172.479,-22.763859
1425922172.495,-20.437183
1425922172.511,-18.305504
1425922172.526,-16.449772
1425922172.542,-14.669647
1425922172.558,-12.526382
1425922172.573,-9.528675
1425922172.589,-5.367695
1425922172.604,-0.08482742
1425922172.62,5.886942
1425922172.636,11.897432
1425922172.651,17.31987
1425922172.667,21.79637
1425922172.683,25.346487
1425922172.698,28.347067
1425922172.714,31.328747
1425922172.729,34.825684
1425922172.745,39.25329
1425922172.761,44.83843
1425922172.776,51.46836
1425922172.792,58.58638
1425922172.808,65.043594
1425922172.823,69.224045
1425922172.839,69.38396
1425922172.854,64.29498
1425922172.87,53.735016
1425922172.886,38.772408
1425922172.901,21.483995
1425922172.917,4.2985716
1425922172.933,-10.735052
1425922172.948,-22.459635
1425922172.964,-30.73396
1425922172.979,-36.07838
1425922172.995,-39.291996
1425922173.011,-41.03034
1425922173.026,-41.683056
1425922173.042,-41.430904
1425922173.058,-40.40162
1425922173.073,-38.7767
1425922173.089,-36.855965
1425922173.104,-34.950523
1425922173.12,-33.34971
1425922173.136,-32.149696
1425922173.151,-31.26334
1425922173.167,-30.439537
1425922173.183,-29.398151
1425922173.198,-27.947315
1425922173.214,-26.09741
1425922173.229,-24.026054
1425922173.245,-21.997564
1425922173.261,-20.150686
1425922173.276,-18.41516
1425922173.292,-16.487743
1425922173.308,-13.937731
1425922173.323,-10.384266
1425922173.339,-5.720626
1425922173.354,-0.16620445
1425922173.37,5.7498446
1425922173.386,11.42595
1425922173.401,16.401468
1425922173.417,20.561808
1425922173.433,24.1478
1425922173.448,27.668785
1425922173.464,31.647943
1425922173.479,36.496437
1425922173.495,42.405212
1425922173.511,49.293
1425922173.526,56.71942
1425922173.542,63.81102
1425922173.558,69.235054
1425922173.573,71.407234
1425922173.589,68.903564
1425922173.604,61.03127
1425922173.62,48.184258
1425922173.636,31.907537
1425922173.651,14.439709
1425922173.667,-1.9590683
1425922173.683,-15.661528
1425922173.698,-25.963608
1425922173.714,-33.053337
1425922173.729,-37.5755
1425922173.745,-40.287006
1425922173.761,-41.707283
1425922173.776,-42.12166
1425922173.792,-41.673584
1425922173.808,-40.49367
1425922173.823,-38.77238
1425922173.839,-36.778133
1425922173.854,-34.776497
1425922173.87,-32.979607
1425922173.886,-31.486252
1425922173.901,-30.301762
1425922173.917,-29.328533
1425922173.933,-28.448326
1425922173.948,-27.533863
1425922173.964,-26.478085
1425922173.979,-25.211933
1425922173.995,-23.68721
1425922174.011,-21.889679
1425922174.026,-19.812122
1425922174.042,-17.412495
1425922174.058,-14.602341
1425922174.073,-11.257244
1425922174.089,-7.258587
1425922174.104,-2.5841103
1425922174.12,2.6163902
1425922174.136,8.042759
1425922174.151,13.319107
1425922174.167,18.13858
1425922174.183,22.386131
1425922174.198,26.204453
1425922174.214,29.920063
1425922174.23,33.970375
1425922174.245,38.73898
1425922174.261,44.509064
1425922174.276,51.306595
1425922174.292,58.829613
1425922174.308,66.25182
1425922174.323,72.23364
1425922174.339,75.07625
1425922174.354,73.194435
1425922174.37,65.6926
1425922174.386,52.795547
1425922174.401,35.959732
1425922174.417,17.484581
1425922174.433,-0.1867218
1425922174.448,-15.158409
1425922174.464,-26.503975
1425922174.48,-34.23426
1425922174.495,-38.99041
1425922174.511,-41.556854
1425922174.526,-42.56607
1425922174.542,-42.401413
1425922174.558,-41.303192
1425922174.573,-39.51525
1425922174.589,-37.35743
1425922174.605,-35.182304
1425922174.62,-33.283607
1425922174.636,-31.822357
1425922174.651,-30.783981
1425922174.667,-30.033218
1425922174.683,-29.395393
1425922174.698,-28.726654
1425922174.714,-27.924248
1425922174.73,-26.940918
1425922174.745,-25.755379
1425922174.761,-24.344612
1425922174.776,-22.699615
1425922174.792,-20.816612
1425922174.808,-18.677017
1425922174.823,-16.21598
1425922174.839,-13.305229
1425922174.855,-9.797142
1425922174.87,-5.6019516
1425922174.886,-0.78691864
1425922174.901,4.4005737
1425922174.917,9.600243
1425922174.933,14.475746
1425922174.948,18.843903
1425922174.964,22.749039
1425922174.98,26.388779
1425922174.995,30.05471
1425922175.011,34.011223
1425922175.026,38.46991
1425922175.042,43.652367
1425922175.058,49.702293
1425922175.073,56.51844
1425922175.089,63.47567
1425922175.105,69.29941
1425922175.12,72.23347
1425922175.136,70.549736
1425922175.151,63.238167
1425922175.167,50.54708
1425922175.183,34.013405
1425922175.198,16.015778
1425922175.214,-0.99209595
1425922175.23,-15.200485
1425922175.245,-25.805412
1425922175.261,-32.890617
1425922175.276,-37.060944
1425922175.292,-39.001915
1425922175.308,-39.28163
1425922175.323,-38.27025
1425922175.339,-36.319214
1425922175.355,-33.78511
1425922175.37,-31.087921
1425922175.386,-28.60057
1425922175.401,-26.60875
1425922175.417,-25.231918
1425922175.433,-24.416351
1425922175.448,-23.994263
1425922175.464,-23.712341
1425922175.48,-23.333511
1425922175.495,-22.674622
1425922175.511,-21.635773
1425922175.526,-20.251709
1425922175.542,-18.620453
1425922175.558,-16.843842
1425922175.573,-14.953308
1425922175.589,-12.836197
1425922175.605,-10.248383
1425922175.62,-6.927902
1425922175.636,-2.7105713
1425922175.651,2.308899
1425922175.667,7.79718
1425922175.683,13.244797
1425922175.698,18.163986
1425922175.714,22.265564
1425922175.73,25.590393
1425922175.745,28.464142
1425922175.761,31.41986
1425922175.776,35.01097
1425922175.792,39.646225
1425922175.808,45.450012
1425922175.823,52.136475
1425922175.839,58.91513
1425922175.855,64.49596
1425922175.87,67.29048
1425922175.886,65.81131
1425922175.901,59.153427
1425922175.917,47.417862
1425922175.933,31.80748
1425922175.948,14.373596
1425922175.964,-2.5853271
1425922175.98,-17.150925
1425922175.995,-28.248962
1425922176.011,-35.69615
1425922176.026,-39.959747
1425922176.042,-41.73625
1425922176.058,-41.628525
1425922176.073,-40.040573
1425922176.089,-37.286575
1425922176.105,-33.746185
1425922176.12,-29.96817
1425922176.136,-26.537872
1425922176.151,-23.960144
1425922176.167,-22.384155
1425922176.183,-21.59668
1425922176.198,-21.12529
1425922176.214,-20.470093
1425922176.23,-19.346191
1425922176.245,-17.780289
1425922176.261,-16.07605
1425922176.276,-14.554764
1425922176.292,-13.397049
1425922176.308,-12.519608
1425922176.323,-11.555298
1425922176.339,-10.044647
1425922176.355,-7.5850983
1425922176.37,-4.01001
1425922176.386,0.5712433
1425922176.401,5.7872925
1425922176.417,11.157822
1425922176.433,16.207489
1425922176.448,20.633255
1425922176.464,24.37503
1425922176.48,27.658371
1425922176.495,30.89972
1425922176.511,34.617737
1425922176.526,39.296112
1425922176.542,45.192688
1425922176.558,52.14009
1425922176.573,59.41324
1425922176.589,65.68048
1425922176.605,69.241165
1425922176.62,68.45235
1425922176.636,62.310562
1425922176.651,50.8824
1425922176.667,35.45688
1425922176.683,18.165375
1425922176.698,1.3757477
1425922176.714,-13.040466
1425922176.73,-24.070084
1425922176.745,-31.603943
1425922176.761,-36.077026
1425922176.776,-38.093933
1425922176.792,-38.141205
1425922176.808,-36.601456
1425922176.823,-33.876755
1425922176.839,-30.531754
1425922176.855,-27.252945
1425922176.87,-24.64853
1425922176.886,-23.046188
1425922176.902,-22.330719
1425922176.917,-22.051407
1425922176.933,-21.650436
1425922176.948,-20.712616
1425922176.964,-19.202469
1425922176.98,-17.36905
1425922176.995,-15.580505
1425922177.011,-14.082947
1425922177.026,-12.850204
1425922177.042,-11.578171
1425922177.058,-9.823059
1425922177.073,-7.176178
1425922177.089,-3.44841
1425922177.105,1.2683105
1425922177.12,6.6097717
1425922177.136,12.0598755
1425922177.152,17.093613
1425922177.167,21.425598
1425922177.183,25.108307
1425922177.198,28.559631
1425922177.214,32.406235
1425922177.23,37.266937
1425922177.245,43.453384
1425922177.261,50.741333
1425922177.277,58.240692
1425922177.292,64.51875
1425922177.308,67.88251
1425922177.323,66.86499
1425922177.339,60.675934
1425922177.355,49.553146
1425922177.37,34.75302
1425922177.386,18.238113
1425922177.402,2.13208
1425922177.417,-11.855377
1425922177.433,-22.76503
1425922177.448,-30.382019
1425922177.464,-35.042328
1425922177.48,-37.3071
1425922177.495,-37.740585
1425922177.511,-36.848755
1425922177.527,-35.12719
1425922177.542,-33.03914
1425922177.558,-30.992592
1425922177.573,-29.218231
1425922177.589,-27.739243
1425922177.605,-26.377083
1425922177.62,-24.900177
1425922177.636,-23.13935
1425922177.652,-21.132645
1425922177.667,-19.093971
1425922177.683,-17.349648
1425922177.698,-16.12001
1425922177.714,-15.394669
1425922177.73,-14.823479
1425922177.745,-13.806488
1425922177.761,-11.726921
1425922177.777,-8.203819
1425922177.792,-3.2980118
1425922177.808,2.4801712
1425922177.823,8.386147
1425922177.839,13.741035
1425922177.855,18.230484
1425922177.87,21.990303
1425922177.886,25.548378
1425922177.902,29.571617
1425922177.917,34.655586
1425922177.933,41.074577
1425922177.948,48.620438
1425922177.964,56.444008
1425922177.98,63.108658
1425922177.995,66.835396
1425922178.011,65.99933
1425922178.027,59.691246
1425922178.042,48.169884
1425922178.058,32.86769
1425922178.073,15.991707
1425922178.089,-0.1930008
1425922178.105,-14.015816
1425922178.12,-24.751953
1425922178.136,-32.5393
1425922178.152,-37.977463
1425922178.167,-41.684242
1425922178.183,-44.02841
1425922178.198,-45.11592
1425922178.214,-44.97309
1425922178.23,-43.74763
1425922178.245,-41.789776
1425922178.261,-39.575535
1425922178.277,-37.520733
1425922178.292,-35.838696
1425922178.308,-34.447124
1425922178.323,-33.078686
1425922178.339,-31.454079
1425922178.355,-29.421928
1425922178.37,-27.101059
1425922178.386,-24.749077
1425922178.402,-22.675262
1425922178.417,-20.983887
1425922178.433,-19.521275
1425922178.448,-17.84269
1425922178.464,-15.392433
1425922178.48,-11.745293
1425922178.495,-6.7900505
1425922178.511,-0.82045746
1425922178.527,5.560257
1425922178.542,11.65892
1425922178.558,16.969776
1425922178.573,21.350033
1425922178.589,25.05109
1425922178.605,28.61377
1425922178.62,32.608227
1425922178.636,37.539696
1425922178.652,43.681553
1425922178.667,50.99115
1425922178.683,58.961666
1425922178.698,66.537445
1425922178.714,72.13578
1425922178.73,73.996124
1425922178.745,70.68795
1425922178.761,61.685318
1425922178.777,47.73089
1425922178.792,30.68975
1425922178.808,13.014776
1425922178.823,-3.0469418
1425922178.839,-16.074537
1425922178.855,-25.70187
1425922178.87,-32.40155
1425922178.886,-36.97972
1425922178.902,-40.156605
1425922178.917,-42.281315
1425922178.933,-43.430336
1425922178.948,-43.591248
1425922178.964,-42.881462
1425922178.98,-41.559902
1425922178.995,-39.984604
1425922179.011,-38.48446
1425922179.027,-37.233303
1425922179.042,-36.237396
1425922179.058,-35.371235
1425922179.073,-34.43935
1425922179.089,-33.296688
1425922179.105,-31.844849
1425922179.12,-30.081142
1425922179.136,-28.090702
1425922179.152,-25.979292
1425922179.167,-23.8262
1425922179.183,-21.643314
1425922179.198,-19.295431
1425922179.214,-16.582672
1425922179.23,-13.280426
1425922179.245,-9.234822
1425922179.261,-4.4283876
1425922179.277,0.9713583
1425922179.292,6.6821804
1425922179.308,12.354914
1425922179.323,17.690607
1425922179.339,22.478662
1425922179.355,26.69609
1425922179.37,30.487778
1425922179.386,34.20325
1425922179.402,38.30568
1425922179.417,43.27302
1425922179.433,49.424057
1425922179.448,56.674088
1425922179.464,64.31484
1425922179.48,70.98761
1425922179.495,74.90172
1425922179.511,74.31219
1425922179.527,68.1434
1425922179.542,56.44074
1425922179.558,40.472958
1425922179.573,22.412155
1425922179.589,4.644409
1425922179.605,-10.853703
1425922179.62,-22.982346
1425922179.636,-31.576859
1425922179.652,-37.14848
1425922179.667,-40.495647
1425922179.683,-42.37976
1425922179.698,-43.33347
1425922179.714,-43.66327
1425922179.73,-43.510437
1425922179.745,-42.971577
1425922179.761,-42.103626
1425922179.777,-40.98269
1425922179.792,-39.66791
1425922179.808,-38.210495
1425922179.824,-36.67137
1425922179.839,-35.15086
1425922179.855,-33.729458
1425922179.87,-32.461895
1425922179.886,-31.312225
1425922179.902,-30.147575
1425922179.917,-28.775738
1425922179.933,-27.032822
1425922179.949,-24.826027
1425922179.964,-22.149685
1425922179.98,-19.061024
1425922179.995,-15.571823
1425922180.011,-11.650814
1425922180.027,-7.243679
1425922180.042,-2.3701096
1425922180.058,2.8133965
1425922180.074,8.059967
1425922180.089,13.081287
1425922180.105,17.704597
1425922180.12,21.907467
1425922180.136,25.84586
1425922180.152,29.778095
1425922180.167,34.015804
1425922180.183,38.885883
1425922180.199,44.646446
1425922180.214,51.342728
1425922180.23,58.59202
1425922180.245,65.41855
1425922180.261,70.281715
1425922180.277,71.4402
1425922180.292,67.487495
1425922180.308,57.985985
1425922180.324,43.72995
1425922180.339,26.624664
1425922180.355,9.080688
1425922180.37,-6.7187347
1425922180.386,-19.455772
1425922180.402,-28.834328
1425922180.417,-35.345627
1425922180.433,-39.80374
1425922180.449,-42.851982
1425922180.464,-44.792534
1425922180.48,-45.62744
1425922180.495,-45.326378
1425922180.511,-44.043213
1425922180.527,-42.177185
1425922180.542,-40.24492
1425922180.558,-38.693024
1425922180.574,-37.705788
1425922180.589,-37.150444
1425922180.605,-36.674103
1425922180.62,-35.914436
1425922180.636,-34.636627
1425922180.652,-32.851387
1425922180.667,-30.735641
1425922180.683,-28.547653
1425922180.699,-26.462181
1425922180.714,-24.512833
1425922180.73,-22.548218
1425922180.745,-20.315285
1425922180.761,-17.51625
1425922180.777,-13.935875
1425922180.792,-9.498085
1425922180.808,-4.319725
1425922180.824,1.3248978
1425922180.839,7.045105
1425922180.855,12.458366
1425922180.87,17.283623
1425922180.886,21.478378
1425922180.902,25.222717
1425922180.917,28.941956
1425922180.933,33.18297
1425922180.949,38.463867
1425922180.964,45.032875
1425922180.98,52.6539
1425922180.995,60.412666
1425922181.011,66.79267
1425922181.027,69.96248
1425922181.042,68.33735
1425922181.058,61.116158
1425922181.074,48.686577
1425922181.089,32.565582
1425922181.105,14.988792
1425922181.12,-1.744667
1425922181.136,-15.900085
1425922181.152,-26.682922
1425922181.167,-34.133392
1425922181.183,-38.84887
1425922181.199,-41.52391
1425922181.214,-42.70449
1425922181.23,-42.702263
1425922181.245,-41.74124
1425922181.261,-40.10086
1425922181.277,-38.19055
1425922181.292,-36.467613
1425922181.308,-35.262238
1425922181.324,-34.611206
1425922181.339,-34.254753
1425922181.355,-33.763435
1425922181.37,-32.785545
1425922181.386,-31.18811
1425922181.402,-29.149796
1425922181.417,-26.973885
1425922181.433,-24.967506
1425922181.449,-23.205612
1425922181.464,-21.526756
1425922181.48,-19.565933
1425922181.495,-16.931976
1425922181.511,-13.3474045
1425922181.527,-8.77388
1425922181.542,-3.4113998
1425922181.558,2.3325272
1425922181.574,8.004417
1425922181.589,13.204697
1425922181.605,17.72583
1425922181.62,21.600456
1425922181.636,25.080452
1425922181.652,28.556442
1425922181.667,32.485886
1425922181.683,37.313606
1425922181.699,43.338814
1425922181.714,50.488808
1425922181.73,58.179657
1425922181.745,65.208954
1425922181.761,69.91712
1425922181.777,70.60387
1425922181.792,66.11643
1425922181.808,56.281693
1425922181.824,42.094215
1425922181.839,25.43457
1425922181.855,8.502602
1425922181.87,-6.795204
1425922181.886,-19.279213
1425922181.902,-28.599342
1425922181.917,-35.00621
1425922181.933,-39.02021
1425922181.949,-41.14234
1425922181.964,-41.737717
1425922181.98,-41.098064
1425922181.995,-39.57167
1425922182.011,-37.59767
1425922182.027,-35.68284
1425922182.042,-34.222443
1425922182.058,-33.35496
1425922182.074,-32.901966
1425922182.089,-32.476368
1425922182.105,-31.655903
1425922182.12,-30.21838
1425922182.136,-28.221127
1425922182.152,-25.948467
1425922182.167,-23.735397
1425922182.183,-21.78312
1425922182.199,-20.027374
1425922182.214,-18.182644
1425922182.23,-15.841576
1425922182.245,-12.6475525
1425922182.261,-8.444778
1425922182.277,-3.3385277
1425922182.292,2.335453
1425922182.308,8.082771
1425922182.324,13.428448
1425922182.339,18.08134
1425922182.355,22.062664
1425922182.37,25.698395
1425922182.386,29.550705
1425922182.402,34.230854
1425922182.417,40.17433
1425922182.433,47.44684
1425922182.449,55.56895
1425922182.464,63.444378
1425922182.48,69.49031
1425922182.496,71.938416
1425922182.511,69.37904
1425922182.527,61.24694
1425922182.542,48.128773
1425922182.558,31.671661
1425922182.574,14.150707
1425922182.589,-2.2590485
1425922182.605,-16.001099
1425922182.621,-26.452278
1425922182.636,-33.80013
1425922182.652,-38.65479
1425922182.667,-41.65122
1425922182.683,-43.219433
1425922182.699,-43.557552
1425922182.714,-42.8195
1425922182.73,-41.242027
1425922182.746,-39.21056
1425922182.761,-37.176987
1425922182.777,-35.50645
1425922182.792,-34.34488
1425922182.808,-33.57832
1425922182.824,-32.91872
1425922182.839,-32.05166
1425922182.855,-30.74807
1425922182.871,-29.005451
1425922182.886,-26.97736
1425922182.902,-24.885506
1425922182.917,-22.882977
1425922182.933,-20.972477
1425922182.949,-18.986382
1425922182.964,-16.663912
1425922182.98,-13.724909
1425922182.996,-9.98345
1425922183.011,-5.3906994
1425922183.027,-0.09012604
1425922183.042,5.6290054
1425922183.058,11.377926
1425922183.074,16.806366
1425922183.089,21.69363
1425922183.105,26.019907
1425922183.121,29.970263
1425922183.136,33.89251
1425922183.152,38.19365
1425922183.167,43.27905
1425922183.183,49.388733
1425922183.199,56.457695
1425922183.214,63.882828
1425922183.23,70.490524
1425922183.246,74.65193
1425922183.261,74.67975
1425922183.277,69.417725
1425922183.292,58.70309
1425922183.308,43.554314
1425922183.324,25.940042
1425922183.339,8.192429
1425922183.355,-7.6404743
1425922183.371,-20.289146
1425922183.386,-29.38106
1425922183.402,-35.282063
1425922183.417,-38.70492
1425922183.433,-40.398663
1425922183.449,-40.950603
1425922183.464,-40.7397
1425922183.48,-39.9923
1425922183.496,-38.89922
1425922183.511,-37.638016
1425922183.527,-36.38991
1425922183.542,-35.273544
1425922183.558,-34.30042
1425922183.574,-33.365074
1425922183.589,-32.31931
1425922183.605,-31.043922
1425922183.621,-29.513546
1425922183.636,-27.77125
1425922183.652,-25.903122
1425922183.667,-23.980833
1425922183.683,-22.047752
1425922183.699,-20.078344
1425922183.714,-18.011185
1425922183.73,-15.725751
1425922183.746,-13.038654
1425922183.761,-9.744758
1425922183.777,-5.700174
1425922183.792,-0.8939791
1425922183.808,4.4882746
1425922183.824,10.087379
1425922183.839,15.512698
1425922183.855,20.465403
1425922183.871,24.85347
1425922183.886,28.80011
1425922183.902,32.56377
1425922183.917,36.50601
1425922183.933,41.01633
1425922183.949,46.48577
1425922183.964,53.104004
1425922183.98,60.646614
1425922183.996,68.222855
1425922184.011,74.25933
1425922184.027,76.82087
1425922184.042,74.23955
1425922184.058,65.71951
1425922184.074,51.811337
1425922184.089,34.274155
1425922184.105,15.583067
1425922184.121,-1.8472023
1425922184.136,-16.281641
1425922184.152,-26.994053
1425922184.167,-34.143017
1425922184.183,-38.43404
1425922184.199,-40.69673
1425922184.214,-41.64206
1425922184.23,-41.73482
1425922184.246,-41.257927
1425922184.261,-40.352818
1425922184.277,-39.149597
1425922184.292,-37.777092
1425922184.308,-36.376972
1425922184.324,-35.061974
1425922184.339,-33.89614
1425922184.355,-32.845875
1425922184.371,-31.813215
1425922184.386,-30.664757
1425922184.402,-29.320602
1425922184.417,-27.754238
1425922184.433,-26.004023
1425922184.449,-24.102392
1425922184.464,-22.043304
1425922184.48,-19.757822
1425922184.496,-17.122782
1425922184.511,-14.000992
1425922184.527,-10.312473
1425922184.542,-6.0361423
1425922184.558,-1.2812424
1425922184.574,3.7671509
1425922184.589,8.835133
1425922184.605,13.68812
1425922184.621,18.1175
1425922184.636,22.078135
1425922184.652,25.674076
1425922184.667,29.144583
1425922184.683,32.806786
1425922184.699,37.020355
1425922184.714,42.0772
1425922184.73,48.171947
1425922184.746,55.193264
1425922184.761,62.566566
1425922184.777,69.10143
1425922184.792,73.13447
1425922184.808,72.90348
1425922184.824,67.20508
1425922184.839,55.898834
1425922184.855,40.144108
1425922184.871,22.10492
1425922184.886,4.2997475
1425922184.902,-11.175251
1425922184.917,-23.11664
1425922184.933,-31.346966
1425922184.949,-36.404057
1425922184.964,-39.088306
1425922184.98,-40.093914
1425922184.996,-39.9089
1425922185.011,-38.859165
1425922185.027,-37.2315
1425922185.042,-35.361332
1425922185.058,-33.58129
1425922185.074,-32.11045
1425922185.089,-31.031845
1425922185.105,-30.206451
1425922185.121,-29.424507
1425922185.136,-28.452656
1425922185.152,-27.183388
1425922185.168,-25.625256
1425922185.183,-23.927345
1425922185.199,-22.245918
1425922185.214,-20.697681
1425922185.23,-19.262218
1425922185.246,-17.744041
1425922185.261,-15.832489
1425922185.277,-13.19751
1425922185.293,-9.6272545
1425922185.308,-5.0920486
1425922185.324,0.18688965
1425922185.339,5.822197
1425922185.355,11.395287
1425922185.371,16.56223
1425922185.386,21.146088
1425922185.402,25.137394
1425922185.418,28.719994
1425922185.433,32.20469
1425922185.449,35.999474
1425922185.464,40.54248
1425922185.48,46.152767
1425922185.496,52.823814
1425922185.511,60.013973
1425922185.527,66.54539
1425922185.543,70.77312
1425922185.558,70.987434
1425922185.574,66.011284
1425922185.589,55.683277
1425922185.605,41.03967
1425922185.621,24.06189
1425922185.636,7.085747
1425922185.652,-7.9221764
1425922185.668,-19.84629
1425922185.683,-28.482487
1425922185.699,-34.25441
1425922185.714,-37.78526
1425922185.73,-39.552273
1425922185.746,-39.82611
1425922185.761,-38.799034
1425922185.777,-36.7866
1425922185.793,-34.27815
1425922185.808,-31.832748
1425922185.824,-29.85463
1425922185.839,-28.518398
1425922185.855,-27.66409
1425922185.871,-26.962555
1425922185.886,-26.059887
1425922185.902,-24.749916
1425922185.918,-23.039627
1425922185.933,-21.115849
1425922185.949,-19.260986
1425922185.964,-17.680275
1425922185.98,-16.344818
1425922185.996,-14.947536
1425922186.011,-12.95599
1425922186.027,-9.849964
1425922186.043,-5.40374
1425922186.058,0.18480682
1425922186.074,6.2912674
1425922186.089,12.13443
1425922186.105,17.098276
1425922186.121,20.979496
1425922186.136,24.024582
1425922186.152,26.801006
1425922186.168,29.944763
1425922186.183,34.002155
1425922186.199,39.31804
1425922186.214,45.914005
1425922186.23,53.40866
1425922186.246,60.835182
1425922186.261,66.70392
1425922186.277,69.24395
1425922186.293,66.955635
1425922186.308,59.155914
1425922186.324,46.39231
1425922186.339,30.359236
1425922186.355,13.397432
1425922186.371,-2.2587357
1425922186.386,-15.1059
1425922186.402,-24.65862
1425922186.418,-31.278646
1425922186.433,-35.717617
1425922186.449,-38.651817
1425922186.464,-40.41442
1425922186.48,-41.04123
1425922186.496,-40.506516
1425922186.511,-38.94158
1425922186.527,-36.779114
1425922186.543,-34.572105
1425922186.558,-32.82302
1425922186.574,-31.706966
1425922186.589,-31.079077
1425922186.605,-30.545301
1425922186.621,-29.704933
1425922186.636,-28.328453
1425922186.652,-26.461739
1425922186.668,-24.327156
1425922186.683,-22.231892
1425922186.699,-20.392317
1425922186.714,-18.852345
1425922186.73,-17.431938
1425922186.746,-15.785437
1425922186.761,-13.467127
1425922186.777,-10.11307
1425922186.793,-5.575817
1425922186.808,-0.03555298
1425922186.824,6.0460005
1425922186.839,12.0735855
1425922186.855,17.54755
1425922186.871,22.218197
1425922186.886,26.197233
1425922186.902,29.835712
1425922186.918,33.63061
1425922186.933,38.075214
1425922186.949,43.557007
1425922186.964,50.224693
1425922186.98,57.81191
1425922186.996,65.45997
1425922187.011,71.694756
1425922187.027,74.657616
1425922187.043,72.68956
1425922187.058,64.92088
1425922187.074,51.750088
1425922187.089,34.798145
1425922187.105,16.44981
1425922187.121,-0.91156137
1425922187.136,-15.553804
1425922187.152,-26.747513
1425922187.168,-34.6183
1425922187.183,-39.825516
1425922187.199,-43.09448
1425922187.214,-45.016075
1425922187.23,-45.952187
1425922187.246,-46.135143
1425922187.261,-45.738663
1425922187.277,-44.921764
1425922187.293,-43.815067
1425922187.308,-42.50904
1425922187.324,-41.062435
1425922187.339,-39.516163
1425922187.355,-37.929054
1425922187.371,-36.365845
1425922187.386,-34.905037
1425922187.402,-33.596912
1425922187.418,-32.425858
1425922187.433,-31.287155
1425922187.449,-29.996239
1425922187.464,-28.336971
1425922187.48,-26.089167
1425922187.496,-23.12823
1425922187.511,-19.455086
1425922187.527,-15.228904
1425922187.543,-10.69842
1425922187.558,-6.1112328
1425922187.574,-1.5953796
1425922187.589,2.8623376
1425922187.605,7.386789
1425922187.621,12.069098
1425922187.636,16.897627
1425922187.652,21.688988
1425922187.668,26.195013
1425922187.683,30.22465
1425922187.699,33.76622
1425922187.714,37.10013
1425922187.73,40.728477
1425922187.746,45.291794
1425922187.761,51.25347
1425922187.777,58.575943
1425922187.793,66.45742
1425922187.808,73.27849
1425922187.824,76.95133
1425922187.84,75.52668
1425922187.855,67.95463
1425922187.871,54.59682
1425922187.886,37.19465
1425922187.902,18.342653
1425922187.918,0.6191449
1425922187.933,-14.135336
1425922187.949,-25.219307
1425922187.964,-32.90964
1425922187.98,-37.993137
1425922187.996,-41.265392
1425922188.011,-43.222187
1425922188.027,-44.085957
1425922188.043,-43.928967
1425922188.058,-42.863396
1425922188.074,-41.157856
1425922188.09,-39.19742
1425922188.105,-37.369225
1425922188.121,-35.954533
1425922188.136,-35.026646
1425922188.152,-34.47754
1425922188.168,-34.058113
1425922188.183,-33.49493
1425922188.199,-32.58111
1425922188.215,-31.265736
1425922188.23,-29.599974
1425922188.246,-27.699284
1425922188.261,-25.643808
1425922188.277,-23.426205
1425922188.293,-20.899675
1425922188.308,-17.865185
1425922188.324,-14.137527
1425922188.34,-9.640671
1425922188.355,-4.4627953
1425922188.371,1.1732898
1425922188.386,6.930827
1425922188.402,12.472824
1425922188.418,17.51486
1425922188.433,21.93139
1425922188.449,25.7848
1425922188.465,29.314354
1425922188.48,32.946762
1425922188.496,37.186256
1425922188.511,42.51703
1425922188.527,49.149582
1425922188.543,56.816082
1425922188.558,64.51313
1425922188.574,70.61103
1425922188.59,73.16654
1425922188.605,70.5206
1425922188.621,61.935795
1425922188.636,47.977608
1425922188.652,30.44873
1425922188.668,11.867155
1425922188.683,-5.2886224
1425922188.699,-19.273228
1425922188.715,-29.40812
1425922188.73,-35.958008
1425922188.746,-39.745018
1425922188.761,-41.653336
1425922188.777,-42.32513
1425922188.793,-42.097885
1425922188.808,-41.11194
1425922188.824,-39.490833
1425922188.84,-37.48556
1425922188.855,-35.420853
1425922188.871,-33.632298
1425922188.886,-32.308044
1425922188.902,-31.429287
1425922188.918,-30.775024
1425922188.933,-30.04781
1425922188.949,-29.014214
1425922188.965,-27.62176
1425922188.98,-25.970303
1425922188.996,-24.254002
1425922189.011,-22.60016
1425922189.027,-20.992008
1425922189.043,-19.225294
1425922189.058,-16.985367
1425922189.074,-13.95808
1425922189.09,-9.95119
1425922189.105,-4.9978266
1425922189.121,0.6476946
1425922189.136,6.5717044
1425922189.152,12.301584
1425922189.168,17.481186
1425922189.183,21.91015
1425922189.199,25.637585
1425922189.215,28.91411
1425922189.23,32.16742
1425922189.246,35.89651
1425922189.261,40.643738
1425922189.277,46.770306
1425922189.293,54.240463
1425922189.308,62.382236
1425922189.324,69.761696
1425922189.34,74.41665
1425922189.355,74.390305
1425922189.371,68.42618
1425922189.386,56.51979
1425922189.402,40.041992
1425922189.418,21.335712
1425922189.433,2.9914646
1425922189.449,-12.90686
1425922189.465,-25.282919
1425922189.48,-34.03529
1425922189.496,-39.733677
1425922189.511,-43.096283
1425922189.527,-44.691914
1425922189.543,-44.79639
1425922189.558,-43.582924
1425922189.574,-41.30874
1425922189.59,-38.428047
1425922189.605,-35.533016
1425922189.621,-33.159542
1425922189.636,-31.555698
1425922189.652,-30.618265
1425922189.668,-29.973948
1425922189.683,-29.184996
1425922189.699,-27.96405
1425922189.715,-26.312302
1425922189.73,-24.426828
1425922189.746,-22.601032
1425922189.761,-20.975685
1425922189.777,-19.484772
1425922189.793,-17.808914
1425922189.808,-15.510217
1425922189.824,-12.184967
1425922189.84,-7.664006
1425922189.855,-2.0749083
1425922189.871,4.1481733
1425922189.886,10.384018
1425922189.902,16.048565
1425922189.918,20.807205
1425922189.933,24.747574
1425922189.949,28.31908
1425922189.965,32.19782
1425922189.98,37.037872
1425922189.996,43.241894
1425922190.011,50.81105
1425922190.027,59.177116
1425922190.043,67.21231
1425922190.058,73.32056
1425922190.074,75.77934
1425922190.09,73.121124
1425922190.105,64.718124
1425922190.121,51.05742
1425922190.136,33.76589
1425922190.152,15.154737
1425922190.168,-2.449009
1425922190.183,-17.313316
1425922190.199,-28.65256
1425922190.215,-36.549694
1425922190.23,-41.61682
1425922190.246,-44.558563
1425922190.261,-45.931202
1425922190.277,-46.110416
1425922190.293,-45.358932
1425922190.308,-43.950596
1425922190.324,-42.17048
1425922190.34,-40.328403
1425922190.355,-38.624935
1425922190.371,-37.169445
1425922190.386,-35.86972
1425922190.402,-34.566357
1425922190.418,-33.02197
1425922190.433,-31.087341
1425922190.449,-28.766064
1425922190.465,-26.255016
1425922190.48,-23.849056
1425922190.496,-21.820642
1425922190.511,-20.213062
1425922190.527,-18.77806
1425922190.543,-17.041267
1425922190.558,-14.456072
1425922190.574,-10.635588
1425922190.59,-5.530566
1425922190.605,0.5430403
1425922190.621,7.001874
1425922190.636,13.219467
1425922190.652,18.69953
1425922190.668,23.268467
1425922190.683,27.09022
1425922190.699,30.598885
1425922190.715,34.35193
1425922190.73,38.903088
1425922190.746,44.676476
1425922190.762,51.835407
1425922190.777,60.09827
1425922190.793,68.57076
1425922190.808,75.69218
1425922190.824,79.4667
1425922190.84,78.0031
1425922190.855,70.190895
1425922190.871,56.239014
1425922190.887,37.79764
1425922190.902,17.508266
1425922190.918,-1.78092
1425922190.933,-17.890423
1425922190.949,-29.77776
1425922190.965,-37.591778
1425922190.98,-42.19446
1425922190.996,-44.683327
1425922191.012,-45.866592
1425922191.027,-46.15898
1425922191.043,-45.648914
1425922191.058,-44.35317
1425922191.074,-42.37253
1425922191.09,-39.98993
1425922191.105,-37.583797
1425922191.121,-35.480915
1425922191.137,-33.857994
1425922191.152,-32.667732
1425922191.168,-31.735
1425922191.183,-30.855232
1425922191.199,-29.903442
1425922191.215,-28.829695
1425922191.23,-27.613945
1425922191.246,-26.171843
1425922191.262,-24.31911
1425922191.277,-21.853537
1425922191.293,-18.628157
1425922191.308,-14.658836
1425922191.324,-10.080126
1425922191.34,-5.0957127
1425922191.355,0.15638351
1425922191.371,5.596594
1425922191.387,11.205656
1425922191.402,16.872572
1425922191.418,22.386993
1425922191.433,27.465921
1425922191.449,31.890034
1425922191.465,35.64628
1425922191.48,39.037376
1425922191.496,42.628555
1425922191.512,47.136395
1425922191.527,53.104652
1425922191.543,60.620476
1425922191.558,68.99359
1425922191.574,76.74121
1425922191.59,81.74231
1425922191.605,81.88483
1425922191.621,75.74103
1425922191.637,63.190384
1425922191.652,45.567657
1425922191.668,25.318327
1425922191.683,5.220707
1425922191.699,-12.3979645
1425922191.715,-26.212013
1425922191.73,-35.958023
1425922191.746,-42.15699
1425922191.762,-45.64328
1425922191.777,-47.20343
1425922191.793,-47.409946
1425922191.808,-46.653824
1425922191.824,-45.232285
1425922191.84,-43.44139
1425922191.855,-41.54959
1425922191.871,-39.77201
1425922191.887,-38.213295
1425922191.902,-36.881462
1425922191.918,-35.699974
1425922191.933,-34.622314
1425922191.949,-33.622723
1425922191.965,-32.702446
1425922191.98,-31.787828
1425922191.996,-30.72572
1425922192.012,-29.25264
1425922192.027,-27.120121
1425922192.043,-24.219667
1425922192.058,-20.659643
1425922192.074,-16.729307
1425922192.09,-12.741123
1425922192.105,-8.857208
1425922192.121,-5.0077896
1425922192.137,-0.9391327
1425922192.152,3.6077557
1425922192.168,8.724213
1425922192.183,14.254934
1425922192.199,19.86877
1425922192.215,25.154066
1425922192.23,29.844078
1425922192.246,33.89695
1425922192.262,37.533844
1425922192.277,41.19976
1425922192.293,45.5175
1425922192.308,51.075623
1425922192.324,58.161057
1425922192.34,66.40432
1425922192.355,74.55501
1425922192.371,80.596436
1425922192.387,82.227295
1425922192.402,77.63078
1425922192.418,66.23575
1425922192.433,49.03575
1425922192.449,28.377207
1425922192.465,7.189169
1425922192.48,-11.855179
1425922192.496,-27.060562
1425922192.512,-37.85766
1425922192.527,-44.602547
1425922192.543,-48.08333
1425922192.558,-49.14552
1425922192.574,-48.471558
1425922192.59,-46.618587
1425922192.605,-44.082596
1425922192.621,-41.345856
1425922192.637,-38.82274
1425922192.652,-36.768883
1425922192.668,-35.246735
1425922192.683,-34.11924
1425922192.699,-33.17684
1425922192.715,-32.256695
1425922192.73,-31.284912
1425922192.746,-30.274662
1425922192.762,-29.253716
1425922192.777,-28.189644
1425922192.793,-26.975252
1425922192.808,-25.44705
1425922192.824,-23.4494
1425922192.84,-20.907791
1425922192.855,-17.82451
1425922192.871,-14.273539
1425922192.887,-10.325733
1425922192.902,-6.030155
1425922192.918,-1.398922
1425922192.933,3.549652
1425922192.949,8.725983
1425922192.965,13.962835
1425922192.98,19.030754
1425922192.996,23.726313
1425922193.012,27.961163
1425922193.027,31.843103
1425922193.043,35.693886
1425922193.058,39.956894
1425922193.074,45.155903
1425922193.09,51.635056
1425922193.105,59.326275
1425922193.121,67.45359
1425922193.137,74.50809
1425922193.152,78.45636
1425922193.168,77.33789
1425922193.183,69.96756
1425922193.199,56.48139
1425922193.215,38.430054
1425922193.23,18.37007
1425922193.246,-0.9428215
1425922193.262,-17.330832
1425922193.277,-29.681402
1425922193.293,-37.94941
1425922193.308,-42.77645
1425922193.324,-44.985397
1425922193.34,-45.26439
1425922193.355,-44.06153
1425922193.371,-41.707733
1425922193.387,-38.58348
1425922193.402,-35.196144
1425922193.418,-32.086906
1425922193.434,-29.710741
1425922193.449,-28.245398
1425922193.465,-27.5384
1425922193.48,-27.173082
1425922193.496,-26.656319
1425922193.512,-25.603655
1425922193.527,-23.925
1425922193.543,-21.799828
1425922193.559,-19.569712
1425922193.574,-17.526592
1425922193.59,-15.745457
1425922193.605,-13.953865
1425922193.621,-11.682541
1425922193.637,-8.424709
1425922193.652,-3.930191
1425922193.668,1.6433716
1425922193.684,7.7811623
1425922193.699,13.815388
1425922193.715,19.198837
1425922193.73,23.708223
1425922193.746,27.498232
1425922193.762,30.98618
1425922193.777,34.672646
1425922193.793,39.04007
1425922193.809,44.46004
1425922193.824,51.149796
1425922193.84,58.981857
1425922193.855,67.27519
1425922193.871,74.641754
1425922193.887,79.148476
1425922193.902,78.80335
1425922193.918,72.30523
1425922193.934,59.615513
1425922193.949,42.143192
1425922193.965,22.351635
1425922193.98,2.975432
1425922193.996,-13.762482
1425922194.012,-26.66959
1425922194.027,-35.610836
1425922194.043,-41.144062
1425922194.059,-44.045082
1425922194.074,-44.965523
1425922194.09,-44.37794
1425922194.105,-42.663822
1425922194.121,-40.275154
1425922194.137,-37.753025
1425922194.152,-35.596695
1425922194.168,-34.1219
1425922194.184,-33.323746
1425922194.199,-32.8887
1425922194.215,-32.36426
1425922194.23,-31.370897
1425922194.246,-29.773724
1425922194.262,-27.720257
1425922194.277,-25.566051
1425922194.293,-23.636688
1425922194.309,-22.074219
1425922194.324,-20.713064
1425922194.34,-19.13552
1425922194.355,-16.795488
1425922194.371,-13.265244
1425922194.387,-8.402969
1425922194.402,-2.4397488
1425922194.418,4.089134
1425922194.434,10.534098
1425922194.449,16.372557
1425922194.465,21.37356
1425922194.48,25.682737
1425922194.496,29.70656
1425922194.512,34.030884
1425922194.527,39.2465
1425922194.543,45.81364
1425922194.559,53.853363
1425922194.574,62.939606
1425922194.59,71.93262
1425922194.605,79.02846
1425922194.621,82.127625
1425922194.637,79.47066
1425922194.652,70.294815
1425922194.668,55.2685
1425922194.684,36.37318
1425922194.699,16.325848
1425922194.715,-2.2691193
1425922194.73,-17.622143
1425922194.746,-29.108185
1425922194.762,-37.050312
1425922194.777,-42.29605
1425922194.793,-45.672535
1425922194.809,-47.6985
1425922194.824,-48.57169
1425922194.84,-48.353527
1425922194.855,-47.183372
1425922194.871,-45.37866
1425922194.887,-43.384323
1425922194.902,-41.600082
1425922194.918,-40.226746
1425922194.934,-39.186626
1425922194.949,-38.218956
1425922194.965,-37.04397
1425922194.98,-35.527786
1425922194.996,-33.720627
1425922195.012,-31.824299
1425922195.027,-30.002762
1425922195.043,-28.264618
1425922195.059,-26.430199
1425922195.074,-24.18531
1425922195.09,-21.228027
1425922195.105,-17.371655
1425922195.121,-12.577354
1425922195.137,-6.997257
1425922195.152,-0.8938408
1425922195.168,5.3731613
1425922195.184,11.407341
1425922195.199,16.887062
1425922195.215,21.630516
1425922195.23,25.73359
1425922195.246,29.538002
1425922195.262,33.622185
1425922195.277,38.594177
1425922195.293,44.949875
1425922195.309,52.80863
1425922195.324,61.736656
1425922195.34,70.62903
1425922195.355,77.82025
1425922195.371,81.36862
1425922195.387,79.583824
1425922195.402,71.59443
1425922195.418,57.734406
1425922195.434,39.589523
1425922195.449,19.573013
1425922195.465,0.2664032
1425922195.48,-16.30973
1425922195.496,-29.08934
1425922195.512,-38.02694
1425922195.527,-43.77044
1425922195.543,-47.199677
1425922195.559,-49.057274
1425922195.574,-49.781128
1425922195.59,-49.593307
1425922195.605,-48.637985
1425922195.621,-47.148186
1425922195.637,-45.40693
1425922195.652,-43.71215
1425922195.668,-42.230995
1425922195.684,-40.985428
1425922195.699,-39.88028
1425922195.715,-38.80298
1425922195.73,-37.667915
1425922195.746,-36.448547
1425922195.762,-35.119995
1425922195.777,-33.62143
1425922195.793,-31.839073
1425922195.809,-29.675423
1425922195.824,-27.065437
1425922195.84,-24.038055
1425922195.855,-20.633926
1425922195.871,-16.862984
1425922195.887,-12.677605
1425922195.902,-8.001762
1425922195.918,-2.8157272
1425922195.934,2.7530518
1425922195.949,8.475258
1425922195.965,14.050896
1425922195.98,19.238213
1425922195.996,23.928612
1425922196.012,28.20922
1425922196.027,32.300636
1425922196.043,36.561226
1425922196.059,41.4187
1425922196.074,47.29377
1425922196.09,54.42005
1425922196.106,62.57225
1425922196.121,70.79511
1425922196.137,77.40468
1425922196.152,80.284096
1425922196.168,77.544495
1425922196.184,68.26232
1425922196.199,52.97882
1425922196.215,33.63945
1425922196.231,13.0466385
1425922196.246,-6.064781
1425922196.262,-21.75801
1425922196.277,-33.28997
1425922196.293,-40.95865
1425922196.309,-45.635796
1425922196.324,-48.238228
1425922196.34,-49.434982
1425922196.356,-49.57232
1425922196.371,-48.841515
1425922196.387,-47.42888
1425922196.402,-45.59011
1425922196.418,-43.6351
1425922196.434,-41.836952
1425922196.449,-40.34487
1425922196.465,-39.156662
1425922196.481,-38.163498
1425922196.496,-37.189865
1425922196.512,-36.080956
1425922196.527,-34.735573
1425922196.543,-33.104706
1425922196.559,-31.18592
1425922196.574,-28.98146
1425922196.59,-26.504532
1425922196.606,-23.721642
1425922196.621,-20.585533
1425922196.637,-17.018646
1425922196.652,-12.943794
1425922196.668,-8.329193
1425922196.684,-3.2185135
1425922196.699,2.2592697
1425922196.715,7.8736496
1425922196.731,13.39576
1425922196.746,18.582542
1425922196.762,23.310379
1425922196.777,27.555748
1425922196.793,31.464752
1425922196.809,35.304703
1425922196.824,39.509354
1425922196.84,44.55755
1425922196.856,50.819313
1425922196.871,58.256447
1425922196.887,66.15867
1425922196.902,73.046745
1425922196.918,76.90986
1425922196.934,75.798416
1425922196.949,68.52795
1425922196.965,55.253723
1425922196.981,37.534416
1425922196.996,17.910637
1425922197.012,-0.8957825
1425922197.027,-16.7929
1425922197.043,-28.765846
1425922197.059,-36.857597
1425922197.074,-41.750893
1425922197.09,-44.312843
1425922197.106,-45.178513
1425922197.121,-44.72728
1425922197.137,-43.208405
1425922197.152,-40.9233
1425922197.168,-38.29361
1425922197.184,-35.81218
1425922197.199,-33.88566
1425922197.215,-32.684677
1425922197.231,-32.07876
1425922197.246,-31.703453
1425922197.262,-31.109703
1425922197.277,-29.955414
1425922197.293,-28.131691
1425922197.309,-25.809944
1425922197.324,-23.332191
1425922197.34,-21.036018
1425922197.356,-19.023987
1425922197.371,-17.088943
1425922197.387,-14.763653
1425922197.402,-11.546501
1425922197.418,-7.1356926
1425922197.434,-1.6106071
1425922197.449,4.5976563
1425922197.465,10.832867
1425922197.481,16.50019
1425922197.496,21.272675
1425922197.512,25.23841
1425922197.527,28.837517
1425922197.543,32.71301
1425922197.559,37.485397
1425922197.574,43.604115
1425922197.59,51.13023
1425922197.606,59.6099
1425922197.621,67.9659
1425922197.637,74.58573
1425922197.652,77.57578
1425922197.668,75.299255
1425922197.684,66.93391
1425922197.699,52.90031
1425922197.715,34.853973
1425922197.731,15.262516
1425922197.746,-3.325161
1425922197.762,-18.984123
1425922197.777,-30.828106
1425922197.793,-38.963737
1425922197.809,-44.080185
1425922197.824,-46.97523
1425922197.84,-48.215008
1425922197.856,-48.08795
1425922197.871,-46.77316
1425922197.887,-44.518326
1425922197.902,-41.79368
1425922197.918,-39.146133
1425922197.934,-37.063114
1425922197.949,-35.730743
1425922197.965,-34.96939
1425922197.981,-34.316612
1425922197.996,-33.27969
1425922198.012,-31.579823
1425922198.027,-29.274055
1425922198.043,-26.696053
1425922198.059,-24.263176
1425922198.074,-22.209705
1425922198.09,-20.460445
1425922198.106,-18.630936
1425922198.121,-16.21674
1425922198.137,-12.763454
1425922198.152,-8.091972
1425922198.168,-2.3358002
1425922198.184,4.083164
1425922198.199,10.613956
1425922198.215,16.716995
1425922198.231,22.065262
1425922198.246,26.590515
1425922198.262,30.526909
1425922198.277,34.312004
1425922198.293,38.516396
1425922198.309,43.709423
1425922198.324,50.294983
1425922198.34,58.23545
1425922198.356,66.84013
1425922198.371,74.622314
1425922198.387,79.50661
1425922198.402,79.37253
1425922198.418,72.818726
1425922198.434,59.798195
1425922198.449,41.76588
1425922198.465,21.311142
1425922198.481,1.3001366
1425922198.496,-15.997763
1425922198.512,-29.402391
1425922198.527,-38.863434
1425922198.543,-44.970272
1425922198.559,-48.477966
1425922198.574,-49.912766
1425922198.59,-49.60884
1425922198.606,-47.851074
1425922198.621,-45.07541
1425922198.637,-41.880333
1425922198.652,-38.89647
1425922198.668,-36.572456
1425922198.684,-35.0419
1425922198.699,-34.117065
1425922198.715,-33.4149
1425922198.731,-32.55229
1425922198.746,-31.276838
1425922198.762,-29.533005
1425922198.778,-27.449375
1425922198.793,-25.223967
1425922198.809,-23.019188
1425922198.824,-20.866627
1425922198.84,-18.620068
1425922198.856,-15.998754
1425922198.871,-12.707164
1425922198.887,-8.53854
1425922198.902,-3.4883556
1425922198.918,2.2103853
1425922198.934,8.183449
1425922198.949,14.005258
1425922198.965,19.325909
1425922198.981,23.991674
1425922198.996,28.059486
1425922199.012,31.795475
1425922199.028,35.599323
1425922199.043,39.95643
1425922199.059,45.32422
1425922199.074,52.0289
1425922199.09,60.025295
1425922199.106,68.65488
1425922199.121,76.530685
1425922199.137,81.65076
1425922199.153,81.878845
1425922199.168,75.70377
1425922199.184,62.893524
1425922199.199,44.762684
1425922199.215,23.88583
1425922199.231,3.2958543
1425922199.246,-14.464223
1425922199.262,-27.951344
1425922199.278,-36.996037
1425922199.293,-42.301712
1425922199.309,-44.92564
1425922199.324,-45.748226
1425922199.34,-45.345898
1425922199.356,-44.021465
1425922199.371,-42.011776
1425922199.387,-39.62308
1425922199.403,-37.20411
1425922199.418,-35.10817
1425922199.434,-33.5408
1425922199.449,-32.502995
1425922199.465,-31.814857
1425922199.481,-31.190155
1425922199.496,-30.36855
1425922199.512,-29.181755
1425922199.528,-27.651548
1425922199.543,-25.882168
1425922199.559,-24.027647
1425922199.574,-22.149263
1425922199.59,-20.180273
1425922199.606,-17.896166
1425922199.621,-15.044557
1425922199.637,-11.400019
1425922199.653,-6.898362
1425922199.668,-1.6467733
1425922199.684,4.0677586
1425922199.699,9.854492
1425922199.715,15.331365
1425922199.731,20.213402
1425922199.746,24.417404
1425922199.762,28.082453
1425922199.778,31.530176
1425922199.793,35.224426
1425922199.809,39.638294
1425922199.824,45.197937
1425922199.84,52.076103
1425922199.856,60.031
1425922199.871,68.17863
1425922199.887,74.95163
1425922199.903,78.35014
1425922199.918,76.49656
1425922199.934,68.275185
1425922199.949,53.93164
1425922199.965,35.139168
1425922199.981,14.586058
1425922199.996,-4.8796177
1425922200.012,-21.066029
1425922200.028,-32.99228
1425922200.043,-40.796913
1425922200.059,-45.345604
1425922200.074,-47.611
1425922200.09,-48.28887
1425922200.106,-47.700058
1425922200.121,-45.99418
1425922200.137,-43.387268
1425922200.153,-40.28791
1425922200.168,-37.252155
1425922200.184,-34.783714
1425922200.199,-33.155598
1425922200.215,-32.31432
1425922200.231,-31.915098
1425922200.246,-31.51567
1425922200.262,-30.755331
1425922200.278,-29.484797
1425922200.293,-27.755836
1425922200.309,-25.762405
1425922200.324,-23.672728
1425922200.34,-21.564592
1425922200.356,-19.370728
1425922200.371,-16.9324
1425922200.387,-14.051689
1425922200.403,-10.570972
1425922200.418,-6.4220963
1425922200.434,-1.637989
1425922200.449,3.6298714
1425922200.465,9.129116
1425922200.481,14.590912
1425922200.496,19.772419
1425922200.512,24.558636
1425922200.528,28.976871
1425922200.543,33.237404
1425922200.559,37.668568
1425922200.574,42.67246
1425922200.59,48.614697
1425922200.606,55.65317
1425922200.621,63.45267
1425922200.637,71.01996
1425922200.653,76.663864
1425922200.668,78.40575
1425922200.684,74.570496
1425922200.699,64.5054
1425922200.715,48.927967
1425922200.731,29.862938
1425922200.746,9.974499
1425922200.762,-8.231304
1425922200.778,-23.07434
1425922200.793,-33.937866
1425922200.809,-41.08727
1425922200.824,-45.165623
1425922200.84,-46.824913
1425922200.856,-46.538048
1425922200.871,-44.651287
1425922200.887,-41.546993
1425922200.903,-37.746788
1425922200.918,-33.87676
1425922200.934,-30.532207
1425922200.949,-28.098248
1425922200.965,-26.638565
1425922200.981,-25.891716
1425922200.996,-25.422668
1425922201.012,-24.803452
1425922201.028,-23.789608
1425922201.043,-22.388435
1425922201.059,-20.823399
1425922201.074,-19.313961
1425922201.09,-17.971241
1425922201.106,-16.616142
1425922201.121,-14.881458
1425922201.137,-12.272762
1425922201.153,-8.417
1425922201.168,-3.2069778
1425922201.184,3.0984917
1425922201.199,9.908253
1425922201.215,16.48819
1425922201.231,22.199348
1425922201.246,26.71777
1425922201.262,30.155773
1425922201.278,32.996582
1425922201.293,35.950645
1425922201.309,39.70408
1425922201.324,44.790462
1425922201.34,51.358906
1425922201.356,59.09215
1425922201.371,67.033676
1425922201.387,73.62399
1425922201.403,76.917175
1425922201.418,75.06607
1425922201.434,67.003586
1425922201.449,52.96678
1425922201.465,34.582653
1425922201.481,14.476929
1425922201.496,-4.5940666
1425922201.512,-20.544907
1425922201.528,-32.40893
1425922201.543,-40.285816
1425922201.559,-44.893932
1425922201.574,-47.01935
1425922201.59,-47.24745
1425922201.606,-45.911938
1425922201.621,-43.343594
1425922201.637,-40.00846
1425922201.653,-36.550674
1425922201.668,-33.622986
1425922201.684,-31.649368
1425922201.7,-30.65292
1425922201.715,-30.270023
1425922201.731,-29.900196
1425922201.746,-28.987385
1425922201.762,-27.268612
1425922201.778,-24.872921
1425922201.793,-22.238361
1425922201.809,-19.862911
1425922201.825,-18.01419
1425922201.84,-16.581669
1425922201.856,-15.068935
1425922201.871,-12.846317
1425922201.887,-9.424
1425922201.903,-4.6645317
1425922201.918,1.1474419
1425922201.934,7.421566
1425922201.95,13.554863
1425922201.965,19.096203
1425922201.981,23.901382
1425922201.996,28.109398
1425922202.012,32.098736
1425922202.028,36.348465
1425922202.043,41.373333
1425922202.059,47.597492
1425922202.075,55.14471
1425922202.09,63.590534
1425922202.106,71.77716
1425922202.121,77.86191
1425922202.137,79.72468
1425922202.153,75.65056
1425922202.168,65.06785
1425922202.184,48.886883
1425922202.2,29.35122
1425922202.215,9.299156
1425922202.231,-8.709675
1425922202.246,-23.13739
1425922202.262,-33.615707
1425922202.278,-40.674484
1425922202.293,-45.16094
1425922202.309,-47.76661
1425922202.325,-48.835228
1425922202.34,-48.48867
1425922202.356,-46.855625
1425922202.371,-44.26967
1425922202.387,-41.28873
1425922202.403,-38.52337
1425922202.418,-36.4519
1425922202.434,-35.233387
1425922202.45,-34.67773
1425922202.465,-34.34749
1425922202.481,-33.767197
1425922202.496,-32.600857
1425922202.512,-30.780964
1425922202.528,-28.507679
1425922202.543,-26.095406
1425922202.559,-23.817146
1425922202.575,-21.68954
1425922202.59,-19.477509
1425922202.606,-16.757698
1425922202.621,-13.133404
1425922202.637,-8.421196
1425922202.653,-2.7368393
1425922202.668,3.511715
1425922202.684,9.795538
1425922202.7,15.652264
1425922202.715,20.829596
1425922202.731,25.352657
1425922202.746,29.441818
1425922202.762,33.475082
1425922202.778,37.839558
1425922202.793,42.94672
1425922202.809,49.13696
1425922202.825,56.54435
1425922202.84,64.8234
1425922202.856,72.91863
1425922202.871,79.0574
1425922202.887,81.12314
1425922202.903,77.347404
1425922202.918,67.02115
1425922202.934,50.91443
1425922202.95,31.193695
1425922202.965,10.697342
1425922202.981,-7.899252
1425922202.996,-22.871283
1425922203.012,-33.67855
1425922203.028,-40.78604
1425922203.043,-45.090485
1425922203.059,-47.451824
1425922203.075,-48.38466
1425922203.09,-48.15451
1425922203.106,-46.916756
1425922203.121,-44.924355
1425922203.137,-42.53351
1425922203.153,-40.12548
1425922203.168,-37.955143
1425922203.184,-36.100555
1425922203.2,-34.49353
1425922203.215,-33.01996
1425922203.231,-31.65018
1425922203.246,-30.447506
1425922203.262,-29.478218
1425922203.278,-28.758331
1425922203.293,-28.132084
1425922203.309,-27.314278
1425922203.325,-25.960665
1425922203.34,-23.800652
1425922203.356,-20.70772
1425922203.371,-16.754318
1425922203.387,-12.122568
1425922203.403,-7.036812
1425922203.418,-1.7024632
1425922203.434,3.749836
1425922203.45,9.206999
1425922203.465,14.540777
1425922203.481,19.59654
1425922203.496,24.240726
1425922203.512,28.451118
1425922203.528,32.35723
1425922203.543,36.255653
1425922203.559,40.559174
1425922203.575,45.724503
1425922203.59,52.055317
1425922203.606,59.551582
1425922203.621,67.61666
1425922203.637,74.97536
1425922203.653,79.72222
1425922203.668,79.81333
1425922203.684,73.731476
1425922203.7,61.19463
1425922203.715,43.4236
1425922203.731,22.886189
1425922203.746,2.5021029
1425922203.762,-15.262476
1425922203.778,-29.05303
1425922203.793,-38.700214
1425922203.809,-44.8744
1425922203.825,-48.473087
1425922203.84,-50.221367
1425922203.856,-50.53483
1425922203.871,-49.6557
1425922203.887,-47.83395
1425922203.903,-45.405457
1425922203.918,-42.782917
1425922203.934,-40.330963
1425922203.95,-38.291035
1425922203.965,-36.72256
1425922203.981,-35.527214
1425922203.996,-34.52389
1425922204.012,-33.497635
1425922204.028,-32.3153
1425922204.043,-30.910976
1425922204.059,-29.323664
1425922204.075,-27.579071
1425922204.09,-25.700119
1425922204.106,-23.591545
1425922204.121,-21.110708
1425922204.137,-18.108845
1425922204.153,-14.479439
1425922204.168,-10.207872
1425922204.184,-5.3821907
1425922204.2,-0.14174747
1425922204.215,5.313018
1425922204.231,10.748989
1425922204.246,15.942286
1425922204.262,20.740686
1425922204.278,25.090858
1425922204.293,29.102482
1425922204.309,32.984787
1425922204.325,37.03578
1425922204.34,41.577896
1425922204.356,46.977524
1425922204.372,53.48065
1425922204.387,60.99907
1425922204.403,68.81193
1425922204.418,75.41021
1425922204.434,78.70235
1425922204.45,76.64487
1425922204.465,68.02625
1425922204.481,53.119083
1425922204.497,33.740166
1425922204.512,12.756025
1425922204.528,-6.891678
1425922204.543,-23.044348
1425922204.559,-34.814743
1425922204.575,-42.439507
1425922204.59,-46.790443
1425922204.606,-48.774284
1425922204.622,-48.994656
1425922204.637,-47.761665
1425922204.653,-45.318344
1425922204.668,-42.035038
1425922204.684,-38.523373
1425922204.7,-35.443558
1425922204.715,-33.298496
1425922204.731,-32.176216
1425922204.747,-31.697264
1425922204.762,-31.187187
1425922204.778,-30.034338
1425922204.793,-27.94919
1425922204.809,-25.155
1425922204.825,-22.197384
1425922204.84,-19.698345
1425922204.856,-17.977505
1425922204.872,-16.894896
1425922204.887,-15.86264
1425922204.903,-14.133493
1425922204.918,-11.09725
1425922204.934,-6.542349
1425922204.95,-0.7175827
1425922204.965,5.7628403
1425922204.981,12.192703
1425922204.997,17.986084
1425922205.012,22.900322
1425922205.028,27.029732
1425922205.043,30.78639
1425922205.059,34.729645
1425922205.075,39.418816
1425922205.09,45.256596
1425922205.106,52.335693
1425922205.122,60.25798
1425922205.137,67.997856
1425922205.153,73.93551
1425922205.168,76.166214
1425922205.184,73.0206
1425922205.2,63.751167
1425922205.215,48.906555
1425922205.231,30.320723
1425922205.247,10.57999
1425922205.262,-7.766718
1425922205.278,-22.937737
1425922205.293,-34.20268
1425922205.309,-41.78238
1425922205.325,-46.339733
1425922205.34,-48.55329
1425922205.356,-48.861115
1425922205.372,-47.552483
1425922205.387,-44.936813
1425922205.403,-41.520874
1425922205.418,-37.9675
1425922205.434,-34.906616
1425922205.45,-32.68197
1425922205.465,-31.269632
1425922205.481,-30.286137
1425922205.497,-29.233112
1425922205.512,-27.732697
1425922205.528,-25.715229
1425922205.543,-23.407097
1425922205.559,-21.192791
1425922205.575,-19.365486
1425922205.59,-17.938305
1425922205.606,-16.562359
1425922205.622,-14.665037
1425922205.637,-11.665768
1425922205.653,-7.2603607
1425922205.668,-1.5452099
1425922205.684,4.952881
1425922205.7,11.497403
1425922205.715,17.383091
1425922205.731,22.248053
1425922205.747,26.175491
1425922205.762,29.694695
1425922205.778,33.56849
1425922205.793,38.56756
1425922205.809,45.191574
1425922205.825,53.49626
1425922205.84,62.875443
1425922205.856,72.03249
1425922205.872,79.08311
1425922205.887,81.96222
1425922205.903,78.96053
1425922205.918,69.33361
1425922205.934,53.71338
1425922205.95,34.028065
1425922205.965,12.9853
1425922205.981,-6.6985035
1425922205.997,-23.089176
1425922206.012,-35.360672
1425922206.028,-43.696796
1425922206.043,-48.8221
1425922206.059,-51.490974
1425922206.075,-52.210564
1425922206.09,-51.29206
1425922206.106,-49.055557
1425922206.122,-45.961533
1425922206.137,-42.64
1425922206.153,-39.683586
1425922206.168,-37.439865
1425922206.184,-35.9503
1425922206.2,-34.95747
1425922206.215,-34.109314
1425922206.231,-33.078953
1425922206.247,-31.662605
1425922206.262,-29.78262
1425922206.278,-27.503551
1425922206.293,-24.996948
1425922206.309,-22.50539
1425922206.325,-20.21893
1425922206.34,-18.158272
1425922206.356,-16.078249
1425922206.372,-13.532731
1425922206.387,-10.019783
1425922206.403,-5.252754
1425922206.418,0.6510277
1425922206.434,7.242056
1425922206.45,13.8849325
1425922206.465,20.006248
1425922206.481,25.308388
1425922206.497,29.844063
1425922206.512,33.93518
1425922206.528,38.070454
1425922206.543,42.810318
1425922206.559,48.63139
1425922206.575,55.81778
1425922206.59,64.21721
1425922206.606,73.01209
1425922206.622,80.69875
1425922206.637,85.251816
1425922206.653,84.62516
1425922206.668,77.46952
1425922206.684,63.677814
1425922206.7,44.633358
1425922206.715,22.881062
1425922206.731,1.4148998
1425922206.747,-17.18886
1425922206.762,-31.410538
1425922206.778,-40.97842
1425922206.793,-46.562443
1425922206.809,-49.259552
1425922206.825,-50.085262
1425922206.84,-49.716915
1425922206.856,-48.505238
1425922206.872,-46.677742
1425922206.887,-44.46823
1425922206.903,-42.18389
1425922206.918,-40.117798
1425922206.934,-38.4648
1425922206.95,-37.202137
1425922206.965,-36.147602
1425922206.981,-35.05081
1425922206.997,-33.70761
1425922207.012,-32.06855
1425922207.028,-30.247568
1425922207.044,-28.410036
1425922207.059,-26.689203
1425922207.075,-25.047974
1425922207.09,-23.291763
1425922207.106,-21.11397
1425922207.122,-18.223726
1425922207.137,-14.44294
1425922207.153,-9.786097
1425922207.169,-4.428268
1425922207.184,1.3464808
1425922207.2,7.2207284
1425922207.215,12.887203
1425922207.231,18.110529
1425922207.247,22.771248
1425922207.262,26.958174
1425922207.278,30.932407
1425922207.294,35.121414
1425922207.309,40.00074
1425922207.325,45.986477
1425922207.34,53.311924
1425922207.356,61.840515
1425922207.372,70.85216
1425922207.387,78.93775
1425922207.403,84.11494
1425922207.419,84.27518
1425922207.434,77.917946
1425922207.45,64.764404
1425922207.465,46.082085
1425922207.481,24.402842
1425922207.497,2.7589774
1425922207.512,-16.206497
1425922207.528,-30.939472
1425922207.544,-41.115135
1425922207.559,-47.35703
1425922207.575,-50.66697
1425922207.59,-51.985596
1425922207.606,-51.923615
1425922207.622,-50.818058
1425922207.637,-48.86121
1425922207.653,-46.273106
1425922207.669,-43.335278
1425922207.684,-40.40567
1425922207.7,-37.82068
1425922207.715,-35.82787
1425922207.731,-34.49179
1425922207.747,-33.69741
1425922207.762,-33.170612
1425922207.778,-32.59791
1425922207.794,-31.706673
1425922207.809,-30.36403
1425922207.825,-28.561348
1425922207.84,-26.401863
1425922207.856,-23.974209
1425922207.872,-21.329998
1425922207.887,-18.391363
1425922207.903,-15.010435
1425922207.919,-11.003057
1425922207.934,-6.2750673
1425922207.95,-0.8673935
1425922207.965,5.0020638
1425922207.981,10.995674
1425922207.997,16.75753
1425922208.012,22.038296
1425922208.028,26.744972
1425922208.044,30.992676
1425922208.059,35.02278
1425922208.075,39.20982
1425922208.09,43.959526
1425922208.106,49.713036
1425922208.122,56.719692
1425922208.137,64.76917
1425922208.153,72.888405
1425922208.169,79.24721
1425922208.184,81.538055
1425922208.2,77.72533
1425922208.215,66.911804
1425922208.231,49.866158
1425922208.247,28.932081
1425922208.262,7.2740927
1425922208.278,-12.187702
1425922208.294,-27.586926
1425922208.309,-38.41889
1425922208.325,-45.18264
1425922208.34,-48.79486
1425922208.356,-50.026676
1425922208.372,-49.352306
1425922208.387,-47.05533
1425922208.403,-43.532406
1425922208.419,-39.407707
1425922208.434,-35.47252
1425922208.45,-32.437893
1425922208.465,-30.656696
1425922208.481,-29.991869
1425922208.497,-29.842892
1425922208.512,-29.454473
1425922208.528,-28.27489
1425922208.544,-26.177736
1425922208.559,-23.533813
1425922208.575,-20.981688
1425922208.59,-19.083864
1425922208.606,-17.979328
1425922208.622,-17.329323
1425922208.637,-16.3866
1425922208.653,-14.3717
1425922208.669,-10.742882
1425922208.684,-5.441885
1425922208.7,1.0985832
1425922208.715,8.101294
1425922208.731,14.751023
1425922208.747,20.450115
1425922208.762,25.021383
1425922208.778,28.747835
1425922208.794,32.23683
1425922208.809,36.222603
1425922208.825,41.33419
1425922208.84,47.925934
1425922208.856,55.90486
1425922208.872,64.63012
1425922208.887,72.79221
1425922208.903,78.51094
1425922208.919,79.71115
1425922208.934,74.72583
1425922208.95,63.003754
1425922208.965,45.51986
1425922208.981,24.61857
1425922208.997,3.33391
1425922209.012,-15.559105
1425922209.028,-30.340305
1425922209.044,-40.566887
1425922209.059,-46.762466
1425922209.075,-49.83988
1425922209.09,-50.574142
1425922209.106,-49.425316
1425922209.122,-46.77967
1425922209.137,-43.083145
1425922209.153,-39.02274
1425922209.169,-35.341114
1425922209.184,-32.572105
1425922209.2,-30.817013
1425922209.215,-29.72606
1425922209.231,-28.70886
1425922209.247,-27.23583
1425922209.262,-25.124971
1425922209.278,-22.617075
1425922209.294,-20.215652
1425922209.309,-18.40821
1425922209.325,-17.330284
1425922209.34,-16.67168
1425922209.356,-15.70055
1425922209.372,-13.622396
1425922209.387,-9.869097
1425922209.403,-4.388302
1425922209.419,2.3342142
1425922209.434,9.470619
1425922209.45,16.175022
1425922209.465,21.897738
1425922209.481,26.545563
1425922209.497,30.501354
1425922209.512,34.487583
1425922209.528,39.335033
1425922209.544,45.772186
1425922209.559,54.074986
1425922209.575,63.7683
1425922209.59,73.45686
1425922209.606,80.98807
1425922209.622,83.93141
1425922209.637,80.40842
1425922209.653,69.7954
1425922209.669,53.076702
1425922209.684,32.58952
1425922209.7,11.287832
1425922209.716,-8.1695595
1425922209.731,-24.076084
1425922209.747,-35.849545
1425922209.762,-43.814785
1425922209.778,-48.69117
1425922209.794,-51.164642
1425922209.809,-51.74088
1425922209.825,-50.729645
1425922209.84,-48.45929
1425922209.856,-45.33314
1425922209.872,-41.878006
1425922209.887,-38.598927
1425922209.903,-35.887657
1425922209.919,-33.882027
1425922209.934,-32.45061
1425922209.95,-31.26746
1425922209.966,-29.973358
1425922209.981,-28.346764
1425922209.997,-26.376715
1425922210.012,-24.225544
1425922210.028,-22.142996
1425922210.044,-20.275063
1425922210.059,-18.521486
1425922210.075,-16.536934
1425922210.091,-13.857287
1425922210.106,-10.049644
1425922210.122,-4.9805326
1425922210.137,1.1209922
1425922210.153,7.694153
1425922210.169,14.066095
1425922210.184,19.74268
1425922210.2,24.578451
1425922210.216,28.843716
1425922210.231,33.059788
1425922210.247,37.84175
1425922210.262,43.70636
1425922210.278,50.952328
1425922210.294,59.516033
1425922210.309,68.826805
1425922210.325,77.67694
1425922210.341,84.2144
1425922210.356,86.32714
1425922210.372,82.24584
1425922210.387,71.30653
1425922210.403,54.318813
1425922210.419,33.535442
1425922210.434,11.9402
1425922210.45,-7.668089
1425922210.466,-23.472836
1425922210.481,-34.918526
1425922210.497,-42.525726
1425922210.512,-47.29001
1425922210.528,-50.107132
1425922210.544,-51.466328
1425922210.559,-51.427853
1425922210.575,-49.922737
1425922210.591,-47.10685
1425922210.606,-43.47718
1425922210.622,-39.817417
1425922210.637,-36.87422
1425922210.653,-35.058308
1425922210.669,-34.24874
1425922210.684,-33.917084
1425922210.7,-33.391552
1425922210.716,-32.231434
1425922210.731,-30.390087
1425922210.747,-28.156656
1425922210.762,-25.922077
1425922210.778,-23.921568
1425922210.794,-22.101364
1425922210.809,-20.157097
1425922210.825,-17.720625
1425922210.841,-14.491733
1425922210.856,-10.328624
1425922210.872,-5.3072147
1425922210.887,0.35822868
1425922210.903,6.3365993
1425922210.919,12.288685
1425922210.934,17.995892
1425922210.95,23.395584
1425922210.966,28.578327
1425922210.981,33.73246
1425922210.997,39.041756
1425922211.012,44.65647
1425922211.028,50.756027
1425922211.044,57.528587
1425922211.059,64.97507
1425922211.075,72.647804
1425922211.091,79.35136
1425922211.106,83.18198
1425922211.122,82.03078
1425922211.137,74.3937
1425922211.153,60.1211
1425922211.169,40.72226
1425922211.184,18.947798
1425922211.2,-2.12183
1425922211.216,-20.060665
1425922211.231,-33.6808
1425922211.247,-43.044075
1425922211.262,-48.915462
1425922211.278,-52.210724
1425922211.294,-53.58347
1425922211.309,-53.379944
1425922211.325,-51.84634
1425922211.341,-49.349014
1425922211.356,-46.386604
1425922211.372,-43.502983
1425922211.387,-41.122715
1425922211.403,-39.3948
1425922211.419,-38.229023
1425922211.434,-37.372513
1425922211.45,-36.509106
1425922211.466,-35.406994
1425922211.481,-33.922546
1425922211.497,-32.033577
1425922211.512,-29.807674
1425922211.528,-27.400894
1425922211.544,-24.938824
1425922211.559,-22.496265
1425922211.575,-19.994957
1425922211.591,-17.217411
1425922211.606,-13.899818
1425922211.622,-9.849773
1425922211.637,-5.046856
1425922211.653,0.32355118
1425922211.669,5.9239388
1425922211.684,11.4240265
1425922211.7,16.563011
1425922211.716,21.243896
1425922211.731,25.540638
1425922211.747,29.622494
1425922211.762,33.77523
1425922211.778,38.347206
1425922211.794,43.760242
1425922211.809,50.333122
1425922211.825,58.09664
1425922211.841,66.420364
1425922211.856,73.89513
1425922211.872,78.51532
1425922211.887,78.20185
1425922211.903,71.55081
1425922211.919,58.460705
1425922211.934,40.348232
1425922211.95,19.74768
1425922211.966,-0.47097015
1425922211.981,-17.962555
1425922211.997,-31.475864
1425922212.012,-40.899536
1425922212.028,-46.9013
1425922212.044,-50.273773
1425922212.059,-51.596535
1425922212.075,-51.116352
1425922212.091,-48.96606
1425922212.106,-45.457386
1425922212.122,-41.233677
1425922212.137,-37.114735
1425922212.153,-33.852886
1425922212.169,-31.822857
1425922212.184,-30.90165
1425922212.2,-30.616962
1425922212.216,-30.393465
1425922212.231,-29.790358
1425922212.247,-28.648766
1425922212.262,-27.045502
1425922212.278,-25.223179
1425922212.294,-23.396679
1425922212.309,-21.670044
1425922212.325,-19.925732
1425922212.341,-17.832165
1425922212.356,-14.9440975
1425922212.372,-10.852785
1425922212.388,-5.4321423
1425922212.403,1.0596313
1425922212.419,7.9841576
1425922212.434,14.589611
1425922212.45,20.280407
1425922212.466,24.8665
1425922212.481,28.59685
1425922212.497,32.03051
1425922212.512,35.827785
1425922212.528,40.558083
1425922212.544,46.619473
1425922212.559,54.08443
1425922212.575,62.560402
1425922212.591,70.99274
1425922212.606,77.68843
1425922212.622,80.606636
1425922212.638,77.967224
1425922212.653,68.89508
1425922212.669,53.86773
1425922212.684,34.675743
1425922212.7,13.907421
1425922212.716,-5.8115883
1425922212.731,-22.493828
1425922212.747,-35.14901
1425922212.763,-43.709312
1425922212.778,-48.69146
1425922212.794,-50.781296
1425922212.809,-50.601494
1425922212.825,-48.67215
1425922212.841,-45.516285
1425922212.856,-41.760468
1425922212.872,-38.115505
1425922212.888,-35.21061
1425922212.903,-33.406605
1425922212.919,-32.64917
1425922212.934,-32.46822
1425922212.95,-32.195854
1425922212.966,-31.277472
1425922212.981,-29.513054
1425922212.997,-27.072
1425922213.013,-24.41605
1425922213.028,-22.010975
1425922213.044,-20.062458
1425922213.059,-18.411098
1425922213.075,-16.569708
1425922213.091,-13.912991
1425922213.106,-9.962809
1425922213.122,-4.608898
1425922213.138,1.8433094
1425922213.153,8.725281
1425922213.169,15.299053
1425922213.184,21.052177
1425922213.2,25.89929
1425922213.216,30.193544
1425922213.231,34.60215
1425922213.247,39.843735
1425922213.263,46.476448
1425922213.278,54.66736
1425922213.294,63.993084
1425922213.309,73.30495
1425922213.325,80.78554
1425922213.341,84.25762
1425922213.356,81.80467
1425922213.372,72.47184
1425922213.388,56.763336
1425922213.403,36.64791
1425922213.419,14.9808655
1425922213.434,-5.3364754
1425922213.45,-22.205505
1425922213.466,-34.727337
1425922213.481,-43.114693
1425922213.497,-48.175606
1425922213.513,-50.806038
1425922213.528,-51.65164
1425922213.544,-51.058807
1425922213.559,-49.26548
1425922213.575,-46.5655
1425922213.591,-43.43869
1425922213.606,-40.438084
1425922213.622,-38.041256
1425922213.638,-36.432354
1425922213.653,-35.47821
1425922213.669,-34.75521
1425922213.684,-33.8018
1425922213.7,-32.289566
1425922213.716,-30.198793
1425922213.731,-27.761032
1425922213.747,-25.327461
1425922213.763,-23.152931
1425922213.778,-21.26423
1425922213.794,-19.413925
1425922213.809,-17.135912
1425922213.825,-13.940348
1425922213.841,-9.477221
1425922213.856,-3.6959877
1425922213.872,3.0615158
1425922213.888,10.185492
1425922213.903,16.974884
1425922213.919,22.926336
1425922213.934,27.916147
1425922213.95,32.23118
1425922213.966,36.405228
1425922213.981,41.014484
1425922213.997,46.517662
1425922214.013,53.17978
1425922214.028,60.96162
1425922214.044,69.41968
1425922214.059,77.494644
1425922214.075,83.4766
1425922214.091,85.285065
1425922214.106,81.08389
1425922214.122,70.0679
1425922214.138,52.976738
1425922214.153,32.011505
1425922214.169,10.186825
1425922214.184,-9.638632
1425922214.2,-25.563232
1425922214.216,-36.99908
1425922214.231,-44.38082
1425922214.247,-48.661827
1425922214.263,-50.757385
1425922214.278,-51.290092
1425922214.294,-50.579437
1425922214.309,-48.81446
1425922214.325,-46.228016
1425922214.341,-43.18227
1425922214.356,-40.14754
1425922214.372,-37.55491
1425922214.388,-35.683426
1425922214.403,-34.536644
1425922214.419,-33.8248
1425922214.434,-33.128574
1425922214.45,-32.038467
1425922214.466,-30.387426
1425922214.481,-28.286251
1425922214.497,-26.045345
1425922214.513,-23.94563
1425922214.528,-22.043707
1425922214.544,-20.072357
1425922214.559,-17.508919
1425922214.575,-13.83753
1425922214.591,-8.795931
1425922214.606,-2.5095005
1425922214.622,4.4881
1425922214.638,11.46887
1425922214.653,17.785309
1425922214.669,23.113937
1425922214.684,27.571718
1425922214.7,31.624083
1425922214.716,35.85539
1425922214.731,40.785408
1425922214.747,46.75262
1425922214.763,53.87886
1425922214.778,62.009422
1425922214.794,70.57208
1425922214.809,78.390625
1425922214.825,83.72
1425922214.841,84.54824
1425922214.856,79.2938
1425922214.872,67.4738
1425922214.888,50.128326
1425922214.903,29.579725
1425922214.919,8.709557
1425922214.934,-9.952057
1425922214.95,-24.914341
1425922214.966,-35.886692
1425922214.981,-43.383514
1425922214.997,-48.21395
1425922215.013,-51.016453
1425922215.028,-52.12977
1425922215.044,-51.71417
1425922215.059,-49.932877
1425922215.075,-47.103233
1425922215.091,-43.723866
1425922215.106,-40.368866
1425922215.122,-37.546494
1425922215.138,-35.5341
1425922215.153,-34.303448
1425922215.169,-33.532104
1425922215.184,-32.76558
1425922215.2,-31.641865
1425922215.216,-30.084362
1425922215.231,-28.299534
1425922215.247,-26.605877
1425922215.263,-25.130836
1425922215.278,-23.64075
1425922215.294,-21.572659
1425922215.31,-18.294811
1425922215.325,-13.430134
1425922215.341,-7.1025047
1425922215.356,0.105960846
1425922215.372,7.3481903
1425922215.388,13.892326
1425922215.403,19.327393
1425922215.419,23.665642
1425922215.435,27.28497
1425922215.45,30.757668
1425922215.466,34.706818
1425922215.481,39.69948
1425922215.497,46.15387
1425922215.513,54.17813
1425922215.528,63.35861
1425922215.544,72.5562
1425922215.56,79.90985
1425922215.575,83.22218
1425922215.591,80.56947
1425922215.606,71.08677
1425922215.622,55.417496
1425922215.638,35.642986
1425922215.653,14.658936
1425922215.669,-4.7618484
1425922215.685,-20.732948
1425922215.7,-32.585865
1425922215.716,-40.65552
1425922215.731,-45.72033
1425922215.747,-48.52795
1425922215.763,-49.51241
1425922215.778,-48.91598
1425922215.794,-46.96696
1425922215.81,-44.059807
1425922215.825,-40.750805
1425922215.841,-37.616
1425922215.856,-35.053764
1425922215.872,-33.149097
1425922215.888,-31.667496
1425922215.903,-30.21725
1425922215.919,-28.432056
1425922215.935,-26.166836
1425922215.95,-23.557972
1425922215.966,-20.985085
1425922215.981,-18.83701
1425922215.997,-17.282448
1425922216.013,-16.106895
1425922216.028,-14.748074
1425922216.044,-12.490387
1425922216.06,-8.811264
1425922216.075,-3.5995827
1425922216.091,2.7279625
1425922216.106,9.402687
1425922216.122,15.588802
1425922216.138,20.714111
1425922216.153,24.669106
1425922216.169,27.822212
1425922216.185,30.844524
1425922216.2,34.479774
1425922216.216,39.29122
1425922216.231,45.540688
1425922216.247,53.05921
1425922216.263,61.20492
1425922216.278,68.77725
1425922216.294,74.13441
1425922216.31,75.473656
1425922216.325,71.35195
1425922216.341,61.20625
1425922216.356,45.745964
1425922216.372,26.886883
1425922216.388,7.2232437
1425922216.403,-10.734428
1425922216.419,-25.252968
1425922216.435,-35.700996
1425922216.45,-42.38107
1425922216.466,-46.077694
1425922216.481,-47.580627
1425922216.497,-47.444653
1425922216.513,-46.005573
1425922216.528,-43.60618
1425922216.544,-40.69587
1425922216.56,-37.835674
1425922216.575,-35.458004
1425922216.591,-33.71689
1425922216.606,-32.403023
1425922216.622,-31.05996
1425922216.638,-29.27145
1425922216.653,-26.893429
1425922216.669,-24.141281
1425922216.685,-21.496609
1425922216.7,-19.412552
1425922216.716,-18.05275
1425922216.731,-17.130268
1425922216.747,-15.952423
1425922216.763,-13.69595
1425922216.778,-9.772205
1425922216.794,-4.113922
1425922216.81,2.7831078
1425922216.825,10.04039
1425922216.841,16.74131
1425922216.856,22.325714
1425922216.872,26.761341
1425922216.888,30.537544
1425922216.903,34.44371
1425922216.919,39.32004
1425922216.935,45.742363
1425922216.95,53.802586
1425922216.966,62.870636
1425922216.981,71.550064
1425922216.997,77.83569
1425922217.013,79.63229
1425922217.028,75.40816
1425922217.044,64.789696
1425922217.06,48.812294
1425922217.075,29.67582
1425922217.091,10.028915
1425922217.106,-7.8002396
1425922217.122,-22.358055
1425922217.138,-33.17283
1425922217.153,-40.531868
1425922217.169,-45.01757
1425922217.185,-47.212265
1425922217.2,-47.564438
1425922217.216,-46.46411
1425922217.231,-44.372307
1425922217.247,-41.844025
1425922217.263,-39.44156
1425922217.278,-37.580093
1425922217.294,-36.395416
1425922217.31,-35.65625
1425922217.325,-34.887306
1425922217.341,-33.593117
1425922217.356,-31.482307
1425922217.372,-28.649284
1425922217.388,-25.515656
1425922217.403,-22.65152
1425922217.419,-20.46901
1425922217.435,-19.006683
1425922217.45,-17.809158
1425922217.466,-16.142395
1425922217.481,-13.233406
1425922217.497,-8.638611
1425922217.513,-2.4456024
1425922217.528,4.7385025
1425922217.544,12.011414
1425922217.56,18.541374
1425922217.575,23.921509
1425922217.591,28.275818
1425922217.606,32.20324
1425922217.622,36.485626
1425922217.638,41.82749
1425922217.653,48.578667
1425922217.669,56.56861
1425922217.685,64.99737
1425922217.7,72.48482
1425922217.716,77.202065
1425922217.731,77.30737
1425922217.747,71.495544
1425922217.763,59.577614
1425922217.778,42.70742
1425922217.794,23.160088
1425922217.81,3.6617432
1425922217.825,-13.431435
1425922217.841,-26.782326
1425922217.856,-36.207573
1425922217.872,-42.37854
1425922217.888,-46.258232
1425922217.903,-48.664063
1425922217.919,-50.019547
1425922217.935,-50.43885
1425922217.95,-49.929947
1425922217.966,-48.585564
1425922217.982,-46.641
1425922217.997,-44.45675
1425922218.013,-42.361443
1425922218.028,-40.571106
1425922218.044,-39.111847
1425922218.06,-37.84574
1425922218.075,-36.58039
1425922218.091,-35.17199
1425922218.107,-33.559372
1425922218.122,-31.784767
1425922218.138,-29.90281
1425922218.153,-27.91246
1425922218.169,-25.738457
1425922218.185,-23.252945
1425922218.2,-20.30133
1425922218.216,-16.752571
1425922218.232,-12.508034
1425922218.247,-7.525635
1425922218.263,-1.8760834
1425922218.278,4.1982117
1425922218.294,10.331642
1425922218.31,16.104988
1425922218.325,21.239746
1425922218.341,25.721436
1425922218.357,29.827515
1425922218.372,34.03016
1425922218.388,38.853012
1425922218.403,44.73362
1425922218.419,51.90799
1425922218.435,60.281136
1425922218.45,69.24778
1425922218.466,77.506676
1425922218.482,83.16176
1425922218.497,84.10949
1425922218.513,78.776825
1425922218.528,66.7854
1425922218.544,49.32582
1425922218.56,28.891617
1425922218.575,8.478653
1425922218.591,-9.38179
1425922218.607,-23.307602
1425922218.622,-33.18612
1425922218.638,-39.803825
1425922218.653,-44.18283
1425922218.669,-47.089546
1425922218.685,-48.854836
1425922218.7,-49.501938
1425922218.716,-49.067116
1425922218.732,-47.73545
1425922218.747,-45.89057
1425922218.763,-43.95134
1425922218.778,-42.235245
1425922218.794,-40.813126
1425922218.81,-39.55655
1425922218.825,-38.278465
1425922218.841,-36.881622
1425922218.857,-35.42102
1425922218.872,-34.029213
1425922218.888,-32.803986
1425922218.903,-31.628685
1425922218.919,-30.198936
1425922218.935,-28.168251
1425922218.95,-25.315575
1425922218.966,-21.712685
1425922218.982,-17.648926
1425922218.997,-13.477219
1425922219.013,-9.358818
1425922219.028,-5.204399
1425922219.044,-0.7430649
1425922219.06,4.2644043
1425922219.075,9.844475
1425922219.091,15.731194
1425922219.107,21.472786
1425922219.122,26.623215
1425922219.138,30.940613
1425922219.153,34.490158
1425922219.169,37.65943
1425922219.185,41.095093
1425922219.2,45.554893
1425922219.216,51.612625
1425922219.232,59.375664
1425922219.247,68.14069
1425922219.263,76.30721
1425922219.278,81.62082
1425922219.294,81.80498
1425922219.31,75.361534
1425922219.325,62.191933
1425922219.341,43.755394
1425922219.357,22.672455
1425922219.372,1.9043045
1425922219.388,-16.097137
1425922219.403,-29.971825
1425922219.419,-39.519188
1425922219.435,-45.41317
1425922219.45,-48.648262
1425922219.466,-50.15545
1425922219.482,-50.540565
1425922219.497,-50.165276
1425922219.513,-49.25618
1425922219.528,-48.00045
1425922219.544,-46.579887
1425922219.56,-45.110626
1425922219.575,-43.60649
1425922219.591,-41.997025
1425922219.607,-40.236694
1425922219.622,-38.359013
1425922219.638,-36.493958
1425922219.653,-34.833736
1425922219.669,-33.46623
1425922219.685,-32.36585
1425922219.7,-31.337635
1425922219.716,-30.08781
1425922219.732,-28.321537
1425922219.747,-25.838112
1425922219.763,-22.58678
1425922219.778,-18.660118
1425922219.794,-14.253391
1425922219.81,-9.551029
1425922219.825,-4.672325
1425922219.841,0.36675644
1425922219.857,5.610199
1425922219.872,11.051956
1425922219.888,16.570282
1425922219.903,21.896324
1425922219.919,26.758629
1425922219.935,31.01529
1425922219.95,34.808575
1425922219.966,38.522385
1425922219.982,42.742947
1425922219.997,48.04511
1425922220.013,54.732014
1425922220.028,62.57719
1425922220.044,70.606094
1425922220.06,77.11046
1425922220.075,79.98259
1425922220.091,77.33113
1425922220.107,68.20349
1425922220.122,53.10609
1425922220.138,33.971817
1425922220.153,13.569981
1425922220.169,-5.3322487
1425922220.185,-20.833212
1425922220.2,-32.168083
1425922220.216,-39.62272
1425922220.232,-43.99767
1425922220.247,-46.13668
1425922220.263,-46.615326
1425922220.278,-45.764645
1425922220.294,-43.81218
1425922220.31,-41.002846
1425922220.325,-37.73594
1425922220.341,-34.491577
1425922220.357,-31.74236
1425922220.372,-29.817036
1425922220.388,-28.776672
1425922220.403,-28.400887
1425922220.419,-28.231083
1425922220.435,-27.807606
1425922220.45,-26.80999
1425922220.466,-25.229145
1425922220.482,-23.292122
1425922220.497,-21.310598
1425922220.513,-19.40962
1425922220.528,-17.44138
1425922220.544,-14.981012
1425922220.56,-11.565485
1425922220.575,-6.911581
1425922220.591,-1.1067266
1425922220.607,5.381541
1425922220.622,11.875034
1425922220.638,17.759098
1425922220.654,22.700306
1425922220.669,26.747198
1425922220.685,30.300655
1425922220.7,33.93369
1425922220.716,38.220993
1425922220.732,43.595886
1425922220.747,50.244797
1425922220.763,57.98829
1425922220.778,66.13404
1425922220.794,73.434654
1425922220.81,78.1202
1425922220.825,78.338
1425922220.841,72.6702
1425922220.857,60.81189
1425922220.872,43.84485
1425922220.888,24.098759
1425922220.904,4.379257
1425922220.919,-12.840433
1425922220.935,-26.146088
1425922220.95,-35.334175
1425922220.966,-41.0695
1425922220.982,-44.284782
1425922220.997,-45.727707
1425922221.013,-45.74066
1425922221.029,-44.46048
1425922221.044,-42.049583
1425922221.06,-38.874245
1425922221.075,-35.496086
1425922221.091,-32.49439
1425922221.107,-30.233582
1425922221.122,-28.742596
1425922221.138,-27.728733
