1425342691.856,0.0
1425342691.872,0.0
1425342691.887,0.0
1425342691.903,0.0
1425342691.918,0.0
1425342691.934,0.0
1425342691.95,0.0
1425342691.965,0.0
1425342691.981,0.0
1425342691.997,0.0022315353
1425342692.012,-0.0045169927
1425342692.028,-0.011265522
1425342692.043,-0.011383951
1425342692.059,0.0011864507
1425342692.075,0.025910312
1425342692.09,0.050634187
1425342692.106,0.051362894
1425342692.122,-0.0014929791
1425342692.137,-0.1302426
1425342692.153,-0.35562757
1425342692.168,-0.6591247
1425342692.184,-1.0095103
1425342692.2,-1.3709826
1425342692.215,-1.7197359
1425342692.231,-2.0551105
1425342692.247,-2.39945
1425342692.262,-2.7866635
1425342692.278,-3.2399073
1425342692.293,-3.796012
1425342692.309,-4.418684
1425342692.325,-5.0592937
1425342692.34,-5.6644096
1425342692.356,-6.2021537
1425342692.372,-6.6808796
1425342692.387,-7.149598
1425342692.403,-7.6782336
1425342692.418,-8.310739
1425342692.434,-9.143657
1425342692.45,-10.089731
1425342692.465,-11.041313
1425342692.481,-11.8842125
1425342692.497,-12.564316
1425342692.512,-13.13563
1425342692.528,-13.760044
1425342692.543,-14.65232
1425342692.559,-15.962056
1425342692.575,-17.914442
1425342692.59,-20.317299
1425342692.606,-22.903854
1425342692.622,-25.37947
1425342692.637,-27.578028
1425342692.653,-29.57246
1425342692.668,-31.675173
1425342692.684,-34.3178
1425342692.7,-37.813618
1425342692.715,-42.541233
1425342692.731,-48.1463
1425342692.747,-54.104755
1425342692.762,-59.83309
1425342692.778,-64.972374
1425342692.793,-69.58293
1425342692.809,-74.14353
1425342692.825,-79.344986
1425342692.84,-85.70726
1425342692.856,-93.76193
1425342692.872,-102.99779
1425342692.887,-112.61757
1425342692.903,-121.73034
1425342692.918,-129.76602
1425342692.934,-136.75102
1425342692.95,-143.30344
1425342692.965,-150.74623
1425342692.981,-157.77356
1425342692.997,-166.64323
1425342693.012,-177.94798
1425342693.028,-191.79102
1425342693.043,-206.96808
1425342693.059,-220.56592
1425342693.075,-228.24644
1425342693.09,-225.36154
1425342693.106,-208.53198
1425342693.122,-176.87024
1425342693.137,-132.76222
1425342693.153,-80.04997
1425342693.168,-23.069275
1425342693.184,34.94339
1425342693.2,92.43695
1425342693.215,149.15695
1425342693.231,205.22772
1425342693.247,260.36963
1425342693.262,313.74133
1425342693.278,363.87396
1425342693.293,409.83353
1425342693.309,450.90775
1425342693.325,486.50244
1425342693.34,515.73865
1425342693.356,537.2274
1425342693.372,549.22
1425342693.387,549.9613
1425342693.403,538.367
1425342693.418,514.2055
1425342693.434,478.674
1425342693.45,433.87952
1425342693.465,382.45126
1425342693.481,327.02106
1425342693.497,269.84186
1425342693.512,212.63379
1425342693.528,156.6594
1425342693.544,102.95233
1425342693.559,52.373596
1425342693.575,5.9046936
1425342693.59,-35.580414
1425342693.606,-71.42584
1425342693.622,-101.35184
1425342693.637,-125.50113
1425342693.653,-144.3797
1425342693.669,-158.69403
1425342693.684,-169.15071
1425342693.7,-176.3711
1425342693.715,-180.75139
1425342693.731,-182.57419
1425342693.747,-182.06863
1425342693.762,-179.5066
1425342693.778,-175.23325
1425342693.794,-169.65286
1425342693.809,-163.17691
1425342693.825,-156.14568
1425342693.84,-148.80681
1425342693.856,-141.29686
1425342693.872,-133.68983
1425342693.887,-126.01962
1425342693.903,-118.33268
1425342693.919,-110.68864
1425342693.934,-103.15572
1425342693.95,-95.80455
1425342693.965,-88.684166
1425342693.981,-81.82744
1425342693.997,-75.24594
1425342694.012,-68.9526
1425342694.028,-62.949085
1425342694.044,-57.247494
1425342694.059,-51.857185
1425342694.075,-46.78282
1425342694.09,-42.02776
1425342694.106,-37.58521
1425342694.122,-33.451748
1425342694.137,-29.613855
1425342694.153,-26.070963
1425342694.169,-22.808779
1425342694.184,-19.824995
1425342694.2,-17.113392
1425342694.215,-14.666497
1425342694.231,-12.47932
1425342694.247,-10.538469
1425342694.262,-8.833674
1425342694.278,-7.3478527
1425342694.294,-6.067689
1425342694.309,-4.9734235
1425342694.325,-4.046258
1425342694.34,-3.2673752
1425342694.356,-2.6211367
1425342694.372,-2.088365
1425342694.387,-1.6507506
1425342694.403,-1.2976913
1425342694.419,-1.0147024
1425342694.434,-0.79105926
1425342694.45,-0.6133206
1425342694.465,-0.47516227
1425342694.481,-0.3684653
1425342694.497,-0.28461677
1425342694.512,-0.22397345
1425342694.528,-0.17647654
1425342694.544,-0.14055526
1425342694.559,-0.11251485
1425342694.575,-0.0926249
1425342694.59,-0.07977182
1425342694.606,-0.06783539
1425342694.622,-0.05929327
1425342694.637,-0.052183747
1425342694.653,-0.046860814
1425342694.669,-0.044131815
1425342694.684,-0.040358156
1425342694.7,-0.039164305
1425342694.715,-0.034330726
1425342694.731,-0.03515649
1425342694.747,-0.03181714
1425342694.762,-0.030750751
1425342694.778,-0.02810505
1425342694.794,-0.029290557
1425342694.809,-0.027453512
1425342694.825,-0.026081413
1425342694.84,-0.023851603
1425342694.856,-0.022989094
1425342694.872,-0.022172749
1425342694.887,-0.022157341
1425342694.903,-0.020827025
1425342694.919,-0.020271063
1425342694.934,-0.01939246
1425342694.95,-0.01876083
1425342694.965,-0.019211799
1425342694.981,-0.017511398
1425342694.997,-0.01697445
1425342695.012,-0.017706022
1425342695.028,-0.016695634
1425342695.044,-0.01588343
1425342695.059,-0.010111153
1425342695.075,-0.011598483
1425342695.09,-0.012862667
1425342695.106,-0.019508108
1425342695.122,-0.023239762
1425342695.137,-0.030598074
1425342695.153,-0.025631621
1425342695.169,-0.007305309
1425342695.184,0.026502296
1425342695.2,0.06981966
1425342695.215,0.113984235
1425342695.231,0.1484401
1425342695.247,0.16109034
1425342695.262,0.1571979
1425342695.278,0.1470643
1425342695.294,0.13660517
1425342695.309,0.15080279
1425342695.325,0.18426546
1425342695.34,0.23727775
1425342695.356,0.29222155
1425342695.372,0.3388917
1425342695.387,0.35685074
1425342695.403,0.3640594
1425342695.419,0.36056235
1425342695.434,0.37373704
1425342695.45,0.42602426
1425342695.465,0.523727
1425342695.481,0.65367883
1425342695.497,0.7795987
1425342695.512,0.87917346
1425342695.528,0.90778923
1425342695.544,0.8897977
1425342695.559,0.85275286
1425342695.575,0.86845076
1425342695.59,0.9939107
1425342695.606,1.239903
1425342695.622,1.5687993
1425342695.637,1.9080741
1425342695.653,2.1535416
1425342695.669,2.250611
1425342695.684,2.211011
1425342695.7,2.1323247
1425342695.715,2.1402307
1425342695.731,2.3609123
1425342695.747,2.8380055
1425342695.762,3.4953763
1425342695.778,4.1750517
1425342695.794,4.7001762
1425342695.809,4.9477525
1425342695.825,4.9340096
1425342695.84,4.8179345
1425342695.856,4.829852
1425342695.872,5.184883
1425342695.887,5.9555445
1425342695.903,7.034236
1425342695.919,8.184191
1425342695.934,9.125055
1425342695.95,9.693844
1425342695.965,9.886161
1425342695.981,9.864352
1425342695.997,9.887019
1425342696.012,10.181296
1425342696.028,10.926883
1425342696.044,12.231914
1425342696.059,14.108808
1425342696.075,16.357319
1425342696.09,18.456629
1425342696.106,19.566639
1425342696.122,18.815907
1425342696.137,15.669563
1425342696.153,10.338387
1425342696.169,3.8591213
1425342696.184,-2.287424
1425342696.2,-6.7246075
1425342696.216,-8.80201
1425342696.231,-8.723824
1425342696.247,-7.3529778
1425342696.262,-5.679079
1425342696.278,-4.3962994
1425342696.294,-3.7877483
1425342696.309,-3.8231926
1425342696.325,-4.4357147
1425342696.341,-5.648546
1425342696.356,-7.5336018
1425342696.372,-10.06201
1425342696.387,-13.019182
1425342696.403,-16.04967
1425342696.419,-18.777538
1425342696.434,-20.966509
1425342696.45,-22.478827
1425342696.466,-23.38674
1425342696.481,-23.825474
1425342696.497,-24.047928
1425342696.512,-24.255672
1425342696.528,-24.67065
1425342696.544,-25.380589
1425342696.559,-26.322239
1425342696.575,-27.295797
1425342696.591,-28.035278
1425342696.606,-28.318316
1425342696.622,-28.056005
1425342696.637,-27.268784
1425342696.653,-26.05001
1425342696.669,-24.450518
1425342696.684,-22.498823
1425342696.7,-20.143278
1425342696.716,-17.380285
1425342696.731,-14.282949
1425342696.747,-10.819229
1425342696.762,-7.0256042
1425342696.778,-2.9613266
1425342696.794,1.3302498
1425342696.809,5.7171345
1425342696.825,9.978392
1425342696.841,13.741259
1425342696.856,16.602804
1425342696.872,18.173698
1425342696.887,18.254904
1425342696.903,16.840057
1425342696.919,14.1971
1425342696.934,10.808689
1425342696.95,7.2957344
1425342696.966,4.302593
1425342696.981,2.3586884
1425342696.997,1.6995678
1425342697.012,2.2666397
1425342697.028,3.715973
1425342697.044,5.57174
1425342697.059,7.4232903
1425342697.075,9.023207
1425342697.091,10.298897
1425342697.106,11.263453
1425342697.122,11.942096
1425342697.137,12.273842
1425342697.153,12.185024
1425342697.169,11.650641
1425342697.184,10.729665
1425342697.2,9.625948
1425342697.216,8.514126
1425342697.231,7.556439
1425342697.247,6.766702
1425342697.262,6.1047044
1425342697.278,5.481722
1425342697.294,4.8934565
1425342697.309,4.382703
1425342697.325,4.052474
1425342697.341,3.9856346
1425342697.356,4.178282
1425342697.372,4.5674815
1425342697.387,5.0044703
1425342697.403,5.3784075
1425342697.419,5.6122236
1425342697.434,5.699066
1425342697.45,5.7296143
1425342697.466,5.8145313
1425342697.481,6.046475
1425342697.497,6.4297333
1425342697.512,6.8801003
1425342697.528,7.2819777
1425342697.544,7.5420475
1425342697.559,7.6175256
1425342697.575,7.595319
1425342697.591,7.577296
1425342697.606,7.681667
1425342697.622,7.9697995
1425342697.637,8.379084
1425342697.653,8.828414
1425342697.669,9.341986
1425342697.684,10.059885
1425342697.7,11.274027
1425342697.716,13.288245
1425342697.731,15.93782
1425342697.747,18.823647
1425342697.762,21.179718
1425342697.778,22.00919
1425342697.794,20.380146
1425342697.809,15.760618
1425342697.825,8.251525
1425342697.841,-1.3822174
1425342697.856,-11.955743
1425342697.872,-22.183773
1425342697.887,-30.960464
1425342697.903,-37.60289
1425342697.919,-41.89665
1425342697.934,-43.9576
1425342697.95,-44.10853
1425342697.966,-42.718643
1425342697.981,-40.116467
1425342697.997,-36.595398
1425342698.012,-32.401363
1425342698.028,-27.78075
1425342698.044,-23.029858
1425342698.059,-18.485094
1425342698.075,-14.446181
1425342698.091,-11.108625
1425342698.106,-8.487293
1425342698.122,-6.4750314
1425342698.137,-4.9106064
1425342698.153,-3.7159934
1425342698.169,-2.8561678
1425342698.184,-2.3540387
1425342698.2,-2.1737146
1425342698.216,-2.126978
1425342698.231,-1.9076118
1425342698.247,-1.2211218
1425342698.262,0.119520664
1425342698.278,2.117466
1425342698.294,4.64705
1425342698.309,7.492613
1425342698.325,10.432791
1425342698.341,13.221731
1425342698.356,15.639078
1425342698.372,17.529068
1425342698.387,18.859016
1425342698.403,19.759342
1425342698.419,20.49601
1425342698.434,21.351372
1425342698.45,22.489836
1425342698.466,23.877008
1425342698.481,25.309532
1425342698.497,26.522177
1425342698.512,27.394966
1425342698.528,27.974958
1425342698.544,28.506681
1425342698.559,29.322062
1425342698.575,30.69936
1425342698.591,32.739548
1425342698.606,35.30605
1425342698.622,38.020386
1425342698.637,40.246754
1425342698.653,41.17431
1425342698.669,40.016884
1425342698.684,36.166
1425342698.7,29.457493
1425342698.716,20.221071
1425342698.731,9.253671
1425342698.747,-2.38581
1425342698.762,-13.579369
1425342698.778,-23.411844
1425342698.794,-31.242254
1425342698.809,-36.7569
1425342698.825,-39.872208
1425342698.841,-40.728935
1425342698.856,-39.614826
1425342698.872,-36.97186
1425342698.888,-33.321613
1425342698.903,-29.21104
1425342698.919,-25.075445
1425342698.934,-21.234169
1425342698.95,-17.866352
1425342698.966,-15.095709
1425342698.981,-13.02162
1425342698.997,-11.716728
1425342699.012,-11.188225
1425342699.028,-11.301796
1425342699.044,-11.784002
1425342699.059,-12.265013
1425342699.075,-12.411848
1425342699.091,-12.020826
1425342699.106,-11.033911
1425342699.122,-9.522821
1425342699.138,-7.575783
1425342699.153,-5.2607765
1425342699.169,-2.5999947
1425342699.184,0.3714733
1425342699.2,3.5803223
1425342699.216,6.8949776
1425342699.231,10.2048
1425342699.247,13.426819
1425342699.263,16.523552
1425342699.278,19.474434
1425342699.294,22.228546
1425342699.309,24.68452
1425342699.325,26.756416
1425342699.341,28.442978
1425342699.356,29.894531
1425342699.372,31.40752
1425342699.388,33.320446
1425342699.403,35.782883
1425342699.419,38.611732
1425342699.434,41.180393
1425342699.45,42.55559
1425342699.466,41.671066
1425342699.481,37.73097
1425342699.497,30.50172
1425342699.513,20.46915
1425342699.528,8.73259
1425342699.544,-3.3211823
1425342699.559,-14.415352
1425342699.575,-23.696213
1425342699.591,-30.813347
1425342699.606,-35.794613
1425342699.622,-38.855537
1425342699.638,-40.182083
1425342699.653,-39.918213
1425342699.669,-38.272667
1425342699.684,-35.56324
1425342699.7,-32.22797
1425342699.716,-28.711342
1425342699.731,-25.270432
1425342699.747,-21.941586
1425342699.763,-18.55455
1425342699.778,-14.913208
1425342699.794,-10.959301
1425342699.809,-6.8815002
1425342699.825,-3.0899734
1425342699.841,-0.080070496
1425342699.856,1.7088699
1425342699.872,2.0166092
1425342699.888,0.86437225
1425342699.903,-1.4715424
1425342699.919,-4.521866
1425342699.934,-7.76754
1425342699.95,-10.71656
1425342699.966,-13.040085
1425342699.981,-14.5561905
1425342699.997,-15.226555
1425342700.013,-15.068497
1425342700.028,-14.11203
1425342700.044,-12.381645
1425342700.059,-9.950386
1425342700.075,-6.903145
1425342700.091,-3.3554077
1425342700.106,0.59407806
1425342700.122,4.8701706
1425342700.138,9.332474
1425342700.153,13.718071
1425342700.169,17.560753
1425342700.184,20.172668
1425342700.2,20.8237
1425342700.216,18.904572
1425342700.231,14.204605
1425342700.247,6.991394
1425342700.263,-1.9810104
1425342700.278,-11.693329
1425342700.294,-21.1025
1425342700.309,-29.383896
1425342700.325,-36.038498
1425342700.341,-40.89714
1425342700.356,-43.97312
1425342700.372,-45.367188
1425342700.388,-45.192795
1425342700.403,-43.613613
1425342700.419,-40.873283
1425342700.434,-37.34689
1425342700.45,-33.440563
1425342700.466,-29.521984
1425342700.481,-25.788841
1425342700.497,-22.284939
1425342700.513,-18.957699
1425342700.528,-15.789787
1425342700.544,-12.847408
1425342700.559,-10.313438
1425342700.575,-8.358772
1425342700.591,-7.0985374
1425342700.606,-6.456932
1425342700.622,-6.259369
1425342700.638,-6.246544
1425342700.653,-6.1483307
1425342700.669,-5.719673
1425342700.684,-4.7900314
1425342700.7,-3.3082466
1425342700.716,-1.3031654
1425342700.731,1.0926476
1425342700.747,3.7298584
1425342700.763,6.4937115
1425342700.778,9.339762
1425342700.794,12.326305
1425342700.809,15.502367
1425342700.825,18.89644
1425342700.841,22.359001
1425342700.856,25.654167
1425342700.872,28.466957
1425342700.888,30.55342
1425342700.903,31.824505
1425342700.919,32.450737
1425342700.934,32.80252
1425342700.95,33.403126
1425342700.966,34.74749
1425342700.981,37.109547
1425342700.997,40.410877
1425342701.013,44.12191
1425342701.028,47.32983
1425342701.044,48.919525
1425342701.059,47.87686
1425342701.075,43.59333
1425342701.091,36.042076
1425342701.106,25.880888
1425342701.122,14.202952
1425342701.138,2.276184
1425342701.153,-8.825144
1425342701.169,-18.38826
1425342701.184,-26.123844
1425342701.2,-31.988804
1425342701.216,-36.065395
1425342701.231,-38.421715
1425342701.247,-39.14778
1425342701.263,-38.41093
1425342701.278,-36.505337
1425342701.294,-33.83316
1425342701.309,-30.835068
1425342701.325,-27.838974
1425342701.341,-25.020935
1425342701.356,-22.447565
1425342701.372,-20.115662
1425342701.388,-18.014631
1425342701.403,-16.2034
1425342701.419,-14.740383
1425342701.434,-13.678217
1425342701.45,-12.999502
1425342701.466,-12.595507
1425342701.481,-12.25367
1425342701.497,-11.712391
1425342701.513,-10.720596
1425342701.528,-9.143635
1425342701.544,-6.976246
1425342701.56,-4.3509903
1425342701.575,-1.468113
1425342701.591,1.4597359
1425342701.606,4.279442
1425342701.622,6.892132
1425342701.638,9.286179
1425342701.653,11.479252
1425342701.669,13.565647
1425342701.684,15.635536
1425342701.7,17.770218
1425342701.716,19.953674
1425342701.731,22.085453
1425342701.747,23.953438
1425342701.763,25.393303
1425342701.778,26.386967
1425342701.794,27.118092
1425342701.81,27.912663
1425342701.825,29.150875
1425342701.841,31.063442
1425342701.856,33.658978
1425342701.872,36.607174
1425342701.888,39.32635
1425342701.903,41.004948
1425342701.919,40.843796
1425342701.935,38.22621
1425342701.95,32.9385
1425342701.966,25.249832
1425342701.981,15.844078
1425342701.997,5.611458
1425342702.013,-4.544609
1425342702.028,-13.942436
1425342702.044,-22.12622
1425342702.06,-28.875969
1425342702.075,-34.0615
1425342702.091,-37.642105
1425342702.106,-39.601692
1425342702.122,-40.02207
1425342702.138,-39.068848
1425342702.153,-37.034683
1425342702.169,-34.24272
1425342702.185,-31.047523
1425342702.2,-27.766876
1425342702.216,-24.658318
1425342702.231,-21.857048
1425342702.247,-19.41787
1425342702.263,-17.31807
1425342702.278,-15.542503
1425342702.294,-14.087624
1425342702.31,-13.028793
1425342702.325,-12.346016
1425342702.341,-11.934425
1425342702.356,-11.544907
1425342702.372,-10.918045
1425342702.388,-9.880486
1425342702.403,-8.454384
1425342702.419,-6.766121
1425342702.435,-5.013191
1425342702.45,-3.2756424
1425342702.466,-1.5055847
1425342702.481,0.42381287
1425342702.497,2.6011887
1425342702.513,4.993576
1425342702.528,7.4314575
1425342702.544,9.722977
1425342702.56,11.747421
1425342702.575,13.519196
1425342702.591,15.14785
1425342702.606,16.750496
1425342702.622,18.325699
1425342702.638,19.808365
1425342702.653,21.106087
1425342702.669,22.200264
1425342702.685,23.160194
1425342702.7,24.12133
1425342702.716,25.176079
1425342702.731,26.381126
1425342702.747,27.770935
1425342702.763,29.44149
1425342702.778,31.545952
1425342702.794,34.27909
1425342702.81,37.624565
1425342702.825,41.217674
1425342702.841,44.25257
1425342702.856,45.660713
1425342702.872,44.4153
1425342702.888,39.90146
1425342702.903,32.17778
1425342702.919,21.951996
1425342702.935,10.398788
1425342702.95,-1.2056427
1425342702.966,-11.789833
1425342702.981,-20.686905
1425342702.997,-27.644897
1425342703.013,-32.720703
1425342703.028,-36.174347
1425342703.044,-38.220108
1425342703.06,-39.055054
1425342703.075,-38.779724
1425342703.091,-37.50215
1425342703.106,-35.334198
1425342703.122,-32.518814
1425342703.138,-29.33603
1425342703.153,-26.06874
1425342703.169,-22.902847
1425342703.185,-19.915756
1425342703.2,-17.14505
1425342703.216,-14.630096
1425342703.231,-12.492538
1425342703.247,-10.900513
1425342703.263,-9.934601
1425342703.278,-9.543762
1425342703.294,-9.49382
1425342703.31,-9.482758
1425342703.325,-9.258942
1425342703.341,-8.714203
1425342703.356,-7.8530884
1425342703.372,-6.746521
1425342703.388,-5.448303
1425342703.403,-3.9796753
1425342703.419,-2.3446808
1425342703.435,-0.52552795
1425342703.45,1.4570618
1425342703.466,3.5815582
1425342703.481,5.8261414
1425342703.497,8.130966
1425342703.513,10.428406
1425342703.528,12.5802
1425342703.544,14.518143
1425342703.56,16.197449
1425342703.575,17.644684
1425342703.591,18.87909
1425342703.606,19.90393
1425342703.622,20.663834
1425342703.638,21.122055
1425342703.653,21.325241
1425342703.669,21.432129
1425342703.685,21.684296
1425342703.7,22.294983
1425342703.716,23.410019
1425342703.731,25.104218
1425342703.747,27.403366
1425342703.763,30.283813
1425342703.778,33.60106
1425342703.794,36.96718
1425342703.81,39.6958
1425342703.825,40.91748
1425342703.841,39.77957
1425342703.856,35.777756
1425342703.872,28.943283
1425342703.888,19.889786
1425342703.903,9.597275
1425342703.919,-0.8688965
1425342703.935,-10.588089
1425342703.95,-18.969604
1425342703.966,-25.732086
1425342703.981,-30.8031
1425342703.997,-34.218918
1425342704.013,-36.08751
1425342704.028,-36.564697
1425342704.044,-35.874054
1425342704.06,-34.282013
1425342704.075,-32.042175
1425342704.091,-29.378525
1425342704.106,-26.468018
1425342704.122,-23.448486
1425342704.138,-20.472809
1425342704.153,-17.737106
1425342704.169,-15.423782
1425342704.185,-13.664978
1425342704.2,-12.459579
1425342704.216,-11.705627
1425342704.231,-11.204544
1425342704.247,-10.784988
1425342704.263,-10.2795105
1425342704.278,-9.590317
1425342704.294,-8.644287
1425342704.31,-7.408188
1425342704.325,-5.889618
1425342704.341,-4.1638184
1425342704.356,-2.3926544
1425342704.372,-0.7210083
1425342704.388,0.79959106
1425342704.403,2.2300415
1425342704.419,3.7626953
1425342704.435,5.5680237
1425342704.45,7.6756287
1425342704.466,9.903778
1425342704.482,11.937897
1425342704.497,13.450745
1425342704.513,14.316193
1425342704.528,14.658646
1425342704.544,14.813614
1425342704.56,15.123154
1425342704.575,15.833359
1425342704.591,16.966522
1425342704.607,18.375885
1425342704.622,19.81491
1425342704.638,21.100632
1425342704.653,22.171173
1425342704.669,23.124146
1425342704.685,24.172897
1425342704.7,25.573135
1425342704.716,27.528732
1425342704.732,30.09906
1425342704.747,33.094925
1425342704.763,36.11032
1425342704.778,38.493347
1425342704.794,39.47888
1425342704.81,38.317734
1425342704.825,34.466766
1425342704.841,27.773163
1425342704.857,18.581375
1425342704.872,7.710388
1425342704.888,-3.682251
1425342704.903,-14.415253
1425342704.919,-23.485489
1425342704.935,-30.32193
1425342704.95,-34.81154
1425342704.966,-37.20813
1425342704.982,-37.92534
1425342704.997,-37.358276
1425342705.013,-35.79602
1425342705.028,-33.42662
1425342705.044,-30.44815
1425342705.06,-27.123322
1425342705.075,-23.778198
1425342705.091,-20.763763
1425342705.107,-18.286865
1425342705.122,-16.422516
1425342705.138,-15.057861
1425342705.153,-14.039703
1425342705.169,-13.268051
1425342705.185,-12.736542
1425342705.2,-12.500504
1425342705.216,-12.579773
1425342705.232,-12.868439
1425342705.247,-13.120972
1425342705.263,-13.017349
1425342705.278,-12.321747
1425342705.294,-10.948273
1425342705.31,-9.015976
1425342705.325,-6.7631073
1425342705.341,-4.4761353
1425342705.357,-2.3583527
1425342705.372,-0.50704956
1425342705.388,1.1257019
1425342705.403,2.6593475
1425342705.419,4.233139
1425342705.435,5.946457
1425342705.45,7.786728
1425342705.466,9.61319
1425342705.482,11.256317
1425342705.497,12.569351
1425342705.513,13.605133
1425342705.528,14.6465
1425342705.544,16.075012
1425342705.56,18.181396
1425342705.575,20.9926
1425342705.591,24.200745
1425342705.607,27.349487
1425342705.622,30.044403
1425342705.638,32.178314
1425342705.653,33.944443
1425342705.669,35.72194
1425342705.685,37.868942
1425342705.7,40.546906
1425342705.716,43.63286
1425342705.732,46.77086
1425342705.747,49.428314
1425342705.763,50.940063
1425342705.778,50.61856
1425342705.794,47.890656
1425342705.81,42.44998
1425342705.825,34.431824
1425342705.841,24.450195
1425342705.857,13.466949
1425342705.872,2.5220032
1425342705.888,-7.5069275
1425342705.903,-16.04242
1425342705.919,-22.783508
1425342705.935,-27.635162
1425342705.95,-30.592758
1425342705.966,-31.737381
1425342705.982,-31.214066
1425342705.997,-29.30542
1425342706.013,-26.413422
1425342706.028,-23.015823
1425342706.044,-19.574036
1425342706.06,-16.476395
1425342706.075,-13.991592
1425342706.091,-12.24263
1425342706.107,-11.251617
1425342706.122,-10.974129
1425342706.138,-11.280098
1425342706.153,-12.01165
1425342706.169,-12.950096
1425342706.185,-13.852348
1425342706.2,-14.46563
1425342706.216,-14.594894
1425342706.232,-14.111961
1425342706.247,-13.037666
1425342706.263,-11.474617
1425342706.278,-9.601212
1425342706.294,-7.5937347
1425342706.31,-5.5610657
1425342706.325,-3.5113907
1425342706.341,-1.407814
1425342706.357,0.7830734
1425342706.372,3.0232239
1425342706.388,5.1878586
1425342706.403,7.094307
1425342706.419,8.602905
1425342706.435,9.6447525
1425342706.45,10.314529
1425342706.466,10.819969
1425342706.482,11.437103
1425342706.497,12.386368
1425342706.513,13.781258
1425342706.528,15.520042
1425342706.544,17.384506
1425342706.56,19.093887
1425342706.575,20.439507
1425342706.591,21.37764
1425342706.607,22.098488
1425342706.622,22.97081
1425342706.638,24.438148
1425342706.653,26.844193
1425342706.669,30.187508
1425342706.685,34.03409
1425342706.7,37.517555
1425342706.716,39.504257
1425342706.732,38.958374
1425342706.747,35.229137
1425342706.763,28.254478
1425342706.778,18.558979
1425342706.794,7.076748
1425342706.81,-5.1097755
1425342706.825,-16.943832
1425342706.841,-27.582054
1425342706.857,-36.381603
1425342706.872,-42.965782
1425342706.888,-47.18176
1425342706.903,-49.12287
1425342706.919,-49.04574
1425342706.935,-47.346115
1425342706.95,-44.464874
1425342706.966,-40.850773
1425342706.982,-36.928677
1425342706.997,-33.099403
1425342707.013,-29.661118
1425342707.028,-26.803093
1425342707.044,-24.557304
1425342707.06,-22.864265
1425342707.075,-21.61473
1425342707.091,-20.763704
1425342707.107,-20.313066
1425342707.122,-20.308243
1425342707.138,-20.693703
1425342707.154,-21.279154
1425342707.169,-21.721699
1425342707.185,-21.639202
1425342707.2,-20.690006
1425342707.216,-18.733952
1425342707.232,-15.853043
1425342707.247,-12.36043
1425342707.263,-8.6569195
1425342707.279,-5.123266
1425342707.294,-1.9909925
1425342707.31,0.6814556
1425342707.325,3.0209875
1425342707.341,5.185011
1425342707.357,7.356454
1425342707.372,9.587187
1425342707.388,11.843249
1425342707.404,13.998535
1425342707.419,15.951017
1425342707.435,17.617676
1425342707.45,19.062769
1425342707.466,20.44032
1425342707.482,22.04282
1425342707.497,24.160328
1425342707.513,26.991137
1425342707.529,30.506718
1425342707.544,34.34919
1425342707.56,37.83455
1425342707.575,40.001415
1425342707.591,39.87283
1425342707.607,36.69106
1425342707.622,30.155903
1425342707.638,20.608833
1425342707.654,8.950216
1425342707.669,-3.534297
1425342707.685,-15.559006
1425342707.7,-26.092037
1425342707.716,-34.56908
1425342707.732,-40.82244
1425342707.747,-44.96482
1425342707.763,-47.153324
1425342707.779,-47.5286
1425342707.794,-46.217365
1425342707.81,-43.453514
1425342707.825,-39.621136
1425342707.841,-35.256016
1425342707.857,-30.916283
1425342707.872,-27.044312
1425342707.888,-23.905537
1425342707.904,-21.606745
1425342707.919,-20.14135
1425342707.935,-19.436075
1425342707.95,-19.347061
1425342707.966,-19.67703
1425342707.982,-20.128002
1425342707.997,-20.392208
1425342708.013,-20.20803
1425342708.029,-19.439209
1425342708.044,-18.053383
1425342708.06,-16.115105
1425342708.075,-13.735276
1425342708.091,-11.051043
1425342708.107,-8.202936
1425342708.122,-5.3127346
1425342708.138,-2.4594402
1425342708.154,0.34188938
1425342708.169,3.136715
1425342708.185,5.9553432
1425342708.2,8.757431
1425342708.216,11.437218
1425342708.232,13.886961
1425342708.247,16.025179
1425342708.263,17.901966
1425342708.279,19.62343
1425342708.294,21.307695
1425342708.31,23.00451
1425342708.325,24.656618
1425342708.341,26.167568
1425342708.357,27.484198
1425342708.372,28.638618
1425342708.388,29.803198
1425342708.404,31.229647
1425342708.419,33.18837
1425342708.435,35.901016
1425342708.45,39.406788
1425342708.466,43.416985
1425342708.482,47.242836
1425342708.497,49.862373
1425342708.513,50.11619
1425342708.529,47.077477
1425342708.544,40.36769
1425342708.56,30.282059
1425342708.575,17.760227
1425342708.591,4.0873756
1425342708.607,-9.431082
1425342708.622,-21.750847
1425342708.638,-32.201492
1425342708.654,-40.524403
1425342708.669,-46.680008
1425342708.685,-50.807262
1425342708.7,-53.106194
1425342708.716,-53.851124
1425342708.732,-53.377316
1425342708.747,-52.065414
1425342708.763,-50.274082
1425342708.779,-48.284386
1425342708.794,-46.27169
1425342708.81,-44.3369
1425342708.825,-42.54543
1425342708.841,-41.00182
1425342708.857,-39.86875
1425342708.872,-39.358917
1425342708.888,-39.615753
1425342708.904,-40.657417
1425342708.919,-42.30794
1425342708.935,-44.27569
1425342708.95,-46.199493
1425342708.966,-47.78711
1425342708.982,-48.85955
1425342708.997,-49.35813
1425342709.013,-49.34308
1425342709.029,-48.981224
1425342709.044,-48.50408
1425342709.06,-48.129837
1425342709.075,-47.967987
1425342709.091,-47.888298
1425342709.107,-47.549644
1425342709.122,-46.53122
1425342709.138,-44.499588
1425342709.154,-41.439735
1425342709.169,-37.5934
1425342709.185,-33.35032
1425342709.2,-28.894669
1425342709.216,-24.042053
1425342709.232,-18.205162
1425342709.247,-10.632408
1425342709.263,-0.74298096
1425342709.279,11.564011
1425342709.294,25.878265
1425342709.31,41.436874
1425342709.325,57.446945
1425342709.341,73.346344
1425342709.357,88.885345
1425342709.372,104.04538
1425342709.388,118.861115
1425342709.404,133.2605
1425342709.419,147.01578
1425342709.435,159.74298
1425342709.45,171.01653
1425342709.466,180.35936
1425342709.482,187.23021
1425342709.497,190.95862
1425342709.513,190.79538
1425342709.529,186.03938
1425342709.544,176.24596
1425342709.56,161.42172
1425342709.575,142.14526
1425342709.591,119.489365
1425342709.607,94.86287
1425342709.622,69.71646
1425342709.638,45.340378
1425342709.654,22.692947
1425342709.669,2.422882
1425342709.685,-15.12265
1425342709.7,-29.758713
1425342709.716,-41.44513
1425342709.732,-50.304718
1425342709.747,-56.676727
1425342709.763,-61.147415
1425342709.779,-64.49945
1425342709.794,-67.56671
1425342709.81,-71.05716
1425342709.826,-75.37143
1425342709.841,-80.61749
1425342709.857,-86.72435
1425342709.872,-93.6649
1425342709.888,-101.59192
1425342709.904,-110.858765
1425342709.919,-121.78635
1425342709.935,-134.38554
1425342709.95,-148.14156
1425342709.966,-162.01044
1425342709.982,-174.62843
1425342709.997,-184.64792
1425342710.013,-191.03732
1425342710.029,-193.13672
1425342710.044,-190.60138
1425342710.06,-183.37544
1425342710.076,-171.69287
1425342710.091,-156.2752
1425342710.107,-138.38246
1425342710.122,-119.68613
1425342710.138,-101.84477
1425342710.154,-85.94852
1425342710.169,-72.05582
1425342710.185,-59.196762
1425342710.201,-45.77408
1425342710.216,-30.301361
1425342710.232,-12.091766
1425342710.247,8.41507
1425342710.263,29.830063
1425342710.279,50.395767
1425342710.294,68.725555
1425342710.31,84.349396
1425342710.326,97.900955
1425342710.341,110.6927
1425342710.357,123.99924
1425342710.372,138.24585
1425342710.388,152.73444
1425342710.404,165.82231
1425342710.419,175.67116
1425342710.435,180.94783
1425342710.451,181.25475
1425342710.466,177.01631
1425342710.482,169.02948
1425342710.497,158.04898
1425342710.513,144.56754
1425342710.529,128.84561
1425342710.544,111.11771
1425342710.56,91.60489
1425342710.576,70.54913
1425342710.591,48.17096
1425342710.607,24.748688
1425342710.622,0.8512573
1425342710.638,-22.471893
1425342710.654,-43.727966
1425342710.669,-61.218903
1425342710.685,-73.551636
1425342710.701,-80.103
1425342710.716,-81.37387
1425342710.732,-78.98465
1425342710.747,-75.399414
1425342710.763,-73.18817
1425342710.779,-74.22043
1425342710.794,-78.99872
1425342710.81,-86.51932
1425342710.826,-94.75299
1425342710.841,-101.52054
1425342710.857,-105.25046
1425342710.872,-105.35745
1425342710.888,-101.98654
1425342710.904,-95.40088
1425342710.919,-85.541595
1425342710.935,-71.96857
1425342710.951,-54.2594
1425342710.966,-32.52539
1425342710.982,-7.794464
1425342710.997,18.043518
1425342711.013,42.691986
1425342711.029,64.08679
1425342711.044,80.89584
1425342711.06,92.76477
1425342711.076,100.21686
1425342711.091,104.2731
1425342711.107,105.90695
1425342711.122,105.64664
1425342711.138,103.47623
1425342711.154,99.04599
1425342711.169,92.14349
1425342711.185,83.111755
1425342711.201,72.98776
1425342711.216,63.240417
1425342711.232,55.33966
1425342711.247,50.272217
1425342711.263,48.356842
1425342711.279,49.140594
1425342711.294,51.65146
1425342711.31,54.577057
1425342711.326,56.578827
1425342711.341,56.470703
1425342711.357,53.492218
1425342711.372,47.39279
1425342711.388,38.506805
1425342711.404,27.666443
1425342711.419,16.047424
1425342711.435,4.8378906
1425342711.451,-5.006653
1425342711.466,-12.958252
1425342711.482,-18.937683
1425342711.497,-23.227386
1425342711.513,-26.210205
1425342711.529,-28.229523
1425342711.544,-29.50418
1425342711.56,-30.220947
1425342711.576,-30.580261
1425342711.591,-30.841614
1425342711.607,-31.19165
1425342711.622,-31.61319
1425342711.638,-31.759003
1425342711.654,-31.086487
1425342711.669,-29.056244
1425342711.685,-25.420288
1425342711.701,-20.331268
1425342711.716,-14.283539
1425342711.732,-7.859131
1425342711.747,-1.5569458
1425342711.763,4.357422
1425342711.779,9.778809
1425342711.794,14.708618
1425342711.81,19.13205
1425342711.826,23.038086
1425342711.841,26.40158
1425342711.857,29.27118
1425342711.872,31.726776
1425342711.888,33.89032
1425342711.904,35.89096
1425342711.919,37.885315
1425342711.935,40.059143
1425342711.951,42.666687
1425342711.966,45.985016
1425342711.982,50.260254
1425342711.997,55.554108
1425342712.013,61.679382
1425342712.029,68.085754
1425342712.044,73.93082
1425342712.06,78.161224
1425342712.076,79.81439
1425342712.091,78.160614
1425342712.107,72.910126
1425342712.122,64.23923
1425342712.138,52.70758
1425342712.154,39.147583
1425342712.169,24.52417
1425342712.185,9.846924
1425342712.201,-3.9787903
1425342712.216,-16.257202
1425342712.232,-26.575043
1425342712.247,-34.86348
1425342712.263,-41.24945
1425342712.279,-45.954025
1425342712.294,-49.09279
1425342712.31,-50.655518
1425342712.326,-50.55481
1425342712.341,-48.80829
1425342712.357,-45.61563
1425342712.372,-41.451218
1425342712.388,-36.919037
1425342712.404,-32.631195
1425342712.419,-29.100906
1425342712.435,-26.640076
1425342712.451,-25.367996
1425342712.466,-25.184372
1425342712.482,-25.783157
1425342712.498,-26.708267
1425342712.513,-27.444519
1425342712.529,-27.593918
1425342712.544,-26.976868
1425342712.56,-25.673172
1425342712.576,-23.902283
1425342712.591,-21.918259
1425342712.607,-19.846191
1425342712.622,-17.664597
1425342712.638,-15.233627
1425342712.654,-12.435043
1425342712.669,-9.222137
1425342712.685,-5.676651
1425342712.701,-1.9594421
1425342712.716,1.7606354
1425342712.732,5.367813
1425342712.748,8.85775
1425342712.763,12.395058
1425342712.779,16.247871
1425342712.794,20.782242
1425342712.81,26.291306
1425342712.826,32.860176
1425342712.841,40.2256
1425342712.857,47.720673
1425342712.873,54.28401
1425342712.888,58.66149
1425342712.904,59.683067
1425342712.919,56.55047
1425342712.935,49.106613
1425342712.951,37.918
1425342712.966,24.154137
1425342712.982,9.300484
1425342712.998,-5.1708984
1425342713.013,-18.072205
1425342713.029,-28.676727
1425342713.044,-36.710625
1425342713.06,-42.263657
1425342713.076,-45.623455
1425342713.091,-47.1702
1425342713.107,-47.22322
1425342713.123,-46.058846
1425342713.138,-43.88394
1425342713.154,-40.898354
1425342713.169,-37.312458
1425342713.185,-33.42136
1425342713.201,-29.598814
1425342713.216,-26.264132
1425342713.232,-23.78413
1425342713.248,-22.372152
1425342713.263,-22.01473
1425342713.279,-22.47444
1425342713.294,-23.338717
1425342713.31,-24.122692
1425342713.326,-24.421392
1425342713.341,-23.981056
1425342713.357,-22.719673
1425342713.373,-20.683466
1425342713.388,-17.956644
1425342713.404,-14.598216
1425342713.419,-10.63624
1425342713.435,-6.13235
1425342713.451,-1.2159576
1425342713.466,3.8849525
1425342713.482,8.881428
1425342713.498,13.490564
1425342713.513,17.558811
1425342713.529,21.076696
1425342713.544,24.232397
1425342713.56,27.330858
1425342713.576,30.725086
1425342713.591,34.690063
1425342713.607,39.337204
1425342713.623,44.47308
1425342713.638,49.616894
1425342713.654,53.939068
1425342713.669,56.387318
1425342713.685,55.90322
1425342713.701,51.714134
1425342713.716,43.56213
1425342713.732,31.864494
1425342713.748,17.637539
1425342713.763,2.2648163
1425342713.779,-12.85936
1425342713.794,-26.607681
1425342713.81,-38.277145
1425342713.826,-47.557396
1425342713.841,-54.41633
1425342713.857,-58.9382
1425342713.873,-61.254974
1425342713.888,-61.510666
1425342713.904,-59.963898
1425342713.919,-56.973427
1425342713.935,-53.044807
1425342713.951,-48.701347
1425342713.966,-44.44702
1425342713.982,-40.62301
1425342713.998,-37.405624
1425342714.013,-34.822067
1425342714.029,-32.816765
1425342714.044,-31.319733
1425342714.06,-30.260658
1425342714.076,-29.557724
1425342714.091,-29.035774
1425342714.107,-28.440857
1425342714.123,-27.507477
1425342714.138,-26.011703
1425342714.154,-23.86448
1425342714.169,-21.070412
1425342714.185,-17.686432
1425342714.201,-13.697609
1425342714.216,-9.048897
1425342714.232,-3.6765366
1425342714.248,2.341751
1425342714.263,8.750015
1425342714.279,15.114822
1425342714.294,20.971458
1425342714.31,25.991066
1425342714.326,30.146835
1425342714.341,33.711823
1425342714.357,37.19229
1425342714.373,41.139503
1425342714.388,45.933617
1425342714.404,51.563194
1425342714.419,57.526634
1425342714.435,62.81498
1425342714.451,66.06883
1425342714.466,65.95155
1425342714.482,61.46488
1425342714.498,52.095505
1425342714.513,38.071655
1425342714.529,20.359375
1425342714.544,0.7142639
1425342714.56,-18.87651
1425342714.576,-36.672943
1425342714.591,-51.44452
1425342714.607,-62.542435
1425342714.623,-69.935165
1425342714.638,-74.143265
1425342714.654,-76.034546
1425342714.669,-76.526764
1425342714.685,-76.163414
1425342714.701,-75.19744
1425342714.716,-73.6444
1425342714.732,-71.43158
1425342714.748,-68.358475
1425342714.763,-64.46087
1425342714.779,-60.3507
1425342714.794,-57.042084
1425342714.81,-55.56533
1425342714.826,-56.06102
1425342714.841,-58.200844
1425342714.857,-61.450897
1425342714.873,-65.2947
1425342714.888,-68.80971
1425342714.904,-71.187485
1425342714.919,-72.48056
1425342714.935,-73.59054
1425342714.951,-76.05909
1425342714.966,-80.84023
1425342714.982,-89.32339
1425342714.998,-102.942604
1425342715.013,-121.6176
1425342715.029,-141.49242
1425342715.044,-156.20528
1425342715.06,-160.29651
1425342715.076,-151.63382
1425342715.091,-132.25433
1425342715.107,-104.88687
1425342715.123,-73.205475
1425342715.138,-40.155834
1425342715.154,-6.573461
1425342715.169,29.598778
1425342715.185,69.36788
1425342715.201,108.26012
1425342715.216,136.99944
1425342715.232,145.849
1425342715.248,133.10187
1425342715.263,102.94197
1425342715.279,62.881767
1425342715.294,21.31276
1425342715.31,-12.877167
1425342715.326,-32.99328
1425342715.341,-36.974335
1425342715.357,-25.823822
1425342715.373,-1.5612946
1425342715.388,37.76786
1425342715.404,91.09786
1425342715.42,151.92717
1425342715.435,192.54774
1425342715.451,186.92885
1425342715.466,136.94052
1425342715.482,69.68489
1425342715.498,22.615143
1425342715.513,-2.5764008
1425342715.529,-7.5641174
1425342715.545,5.4189606
1425342715.56,28.430786
1425342715.576,56.298096
1425342715.591,87.19063
1425342715.607,120.576035
1425342715.623,153.42276
1425342715.638,180.12347
1425342715.654,194.55368
1425342715.67,197.15965
1425342715.685,190.38539
1425342715.701,176.88354
1425342715.716,159.76611
1425342715.732,143.6112
1425342715.748,132.73949
1425342715.763,128.1105
1425342715.779,127.20363
1425342715.795,125.46385
1425342715.81,121.80798
1425342715.826,115.59772
1425342715.841,106.14255
1425342715.857,93.78183
1425342715.873,80.79837
1425342715.888,70.29875
1425342715.904,63.756973
1425342715.92,60.407516
1425342715.935,57.81327
1425342715.951,55.322975
1425342715.966,52.342407
1425342715.982,48.204094
1425342715.998,42.94909
1425342716.013,37.735916
1425342716.029,34.302303
1425342716.045,33.704567
1425342716.06,35.889027
1425342716.076,39.841988
1425342716.091,45.014374
1425342716.107,50.33483
1425342716.123,54.08583
1425342716.138,54.49652
1425342716.154,50.2835
1425342716.17,40.936264
1425342716.185,26.678913
1425342716.201,8.346153
1425342716.216,-12.716755
1425342716.232,-34.537773
1425342716.248,-55.299057
1425342716.263,-73.70551
1425342716.279,-89.01891
1425342716.295,-100.988686
1425342716.31,-109.64592
1425342716.326,-115.109055
1425342716.341,-117.58145
1425342716.357,-117.36284
1425342716.373,-114.96391
1425342716.388,-111.076675
1425342716.404,-106.50737
1425342716.42,-101.9859
1425342716.435,-97.9725
1425342716.451,-94.63742
1425342716.466,-91.85011
1425342716.482,-89.44008
1425342716.498,-87.247406
1425342716.513,-85.28516
1425342716.529,-83.61752
1425342716.545,-82.26752
1425342716.56,-81.12123
1425342716.576,-79.87096
1425342716.591,-78.13983
1425342716.607,-75.575806
1425342716.623,-71.97055
1425342716.638,-67.31421
1425342716.654,-61.73645
1425342716.67,-55.481354
1425342716.685,-48.83499
1425342716.701,-42.03708
1425342716.716,-35.30313
1425342716.732,-28.776825
1425342716.748,-22.497864
1425342716.763,-16.4758
1425342716.779,-10.638214
1425342716.795,-4.9480896
1425342716.81,0.6069336
1425342716.826,5.947754
1425342716.841,10.931763
1425342716.857,15.355804
1425342716.873,19.100708
1425342716.888,22.186707
1425342716.904,24.862762
1425342716.92,27.596497
1425342716.935,30.938446
1425342716.951,35.33954
1425342716.966,40.93869
1425342716.982,47.298737
1425342716.998,53.38025
1425342717.013,57.661102
1425342717.029,58.518127
1425342717.045,54.628265
1425342717.06,45.44742
1425342717.076,31.383057
1425342717.091,13.792328
1425342717.107,-5.410309
1425342717.123,-24.21402
1425342717.138,-41.026093
1425342717.154,-54.86386
1425342717.17,-65.40259
1425342717.185,-72.73395
1425342717.201,-77.09967
1425342717.216,-78.7442
1425342717.232,-77.93448
1425342717.248,-75.02295
1425342717.263,-70.556274
1425342717.279,-65.21921
1425342717.295,-59.72403
1425342717.31,-54.57364
1425342717.326,-50.041412
1425342717.341,-46.150635
1425342717.357,-42.846405
1425342717.373,-40.061737
1425342717.388,-37.768158
1425342717.404,-35.906097
1425342717.42,-34.30777
1425342717.435,-32.65793
1425342717.451,-30.579681
1425342717.466,-27.786041
1425342717.482,-24.180176
1425342717.498,-19.880188
1425342717.513,-15.135254
1425342717.529,-10.167938
1425342717.545,-5.0675354
1425342717.56,0.20187378
1425342717.576,5.62381
1425342717.591,10.988098
1425342717.607,15.835693
1425342717.623,19.542023
1425342717.638,21.548004
1425342717.654,21.671234
1425342717.67,20.232452
1425342717.685,18.048004
1425342717.701,16.217255
1425342717.716,15.930817
1425342717.732,18.20929
1425342717.748,23.765717
1425342717.763,32.764862
1425342717.779,44.573395
1425342717.795,57.568542
1425342717.81,69.26407
1425342717.826,76.76874
1425342717.841,77.63486
1425342717.857,70.62131
1425342717.873,56.164063
1425342717.888,36.191772
1425342717.904,13.49408
1425342717.92,-9.152985
1425342717.935,-29.654694
1425342717.951,-46.884796
1425342717.966,-60.54117
1425342717.982,-70.84488
1425342717.998,-78.1192
1425342718.013,-82.61923
1425342718.029,-84.48877
1425342718.045,-83.881195
1425342718.06,-81.03259
1425342718.076,-76.367615
1425342718.092,-70.47919
1425342718.107,-64.05545
1425342718.123,-57.6951
1425342718.138,-51.788788
1425342718.154,-46.491364
1425342718.17,-41.77664
1425342718.185,-37.56317
1425342718.201,-33.84146
1425342718.217,-30.636383
1425342718.232,-27.92398
1425342718.248,-25.479187
1425342718.263,-22.868927
1425342718.279,-19.577698
1425342718.295,-15.215057
1425342718.31,-9.73996
1425342718.326,-3.5353394
1425342718.342,2.7587585
1425342718.357,8.493652
1425342718.373,13.321533
1425342718.388,17.328308
1425342718.404,20.94693
1425342718.42,24.699646
1425342718.435,28.929092
1425342718.451,33.599945
1425342718.467,38.38681
1425342718.482,42.838135
1425342718.498,46.602737
1425342718.513,49.58351
1425342718.529,51.97104
1425342718.545,54.161087
1425342718.56,56.582687
1425342718.576,59.58728
1425342718.592,63.37245
1425342718.607,67.83006
1425342718.623,72.475815
1425342718.638,76.392975
1425342718.654,78.287735
1425342718.67,76.7744
1425342718.685,70.806915
1425342718.701,60.071198
1425342718.717,45.205826
1425342718.732,27.676361
1425342718.748,9.380341
1425342718.763,-7.878433
1425342718.779,-22.845032
1425342718.795,-34.92778
1425342718.81,-44.055435
1425342718.826,-50.442734
1425342718.842,-54.309875
1425342718.857,-55.83113
1425342718.873,-55.220673
1425342718.888,-52.86705
1425342718.904,-49.371063
1425342718.92,-45.40561
1425342718.935,-41.518753
1425342718.951,-37.957016
1425342718.967,-34.705887
1425342718.982,-31.587448
1425342718.998,-28.490845
1425342719.013,-25.482712
1425342719.029,-22.787186
1425342719.045,-20.637772
1425342719.06,-19.114807
1425342719.076,-18.103271
1425342719.092,-17.248322
1425342719.107,-16.150436
1425342719.123,-14.453781
1425342719.138,-11.991074
1425342719.154,-8.835953
1425342719.17,-5.2339935
1425342719.185,-1.5215302
1425342719.201,2.0369568
1425342719.217,5.348587
1425342719.232,8.509354
1425342719.248,11.712158
1425342719.263,15.131393
1425342719.279,18.764267
1425342719.295,22.424522
1425342719.31,25.883553
1425342719.326,28.936317
1425342719.342,31.572739
1425342719.357,33.912247
1425342719.373,36.181633
1425342719.388,38.621918
1425342719.404,41.440125
1425342719.42,44.832695
1425342719.435,48.94751
1425342719.451,53.73574
1425342719.467,58.78003
1425342719.482,63.13755
1425342719.498,65.47346
1425342719.513,64.346054
1425342719.529,58.70175
1425342719.545,48.30197
1425342719.56,33.882645
1425342719.576,16.998848
1425342719.592,-0.43191528
1425342719.607,-16.665382
1425342719.623,-30.45002
1425342719.638,-41.218033
1425342719.654,-48.90207
1425342719.67,-53.755928
1425342719.685,-56.090714
1425342719.701,-56.205566
1425342719.717,-54.367233
1425342719.732,-50.902428
1425342719.748,-46.2546
1425342719.763,-40.98089
1425342719.779,-35.68122
1425342719.795,-30.868248
1425342719.81,-26.84626
1425342719.826,-23.690628
1425342719.842,-21.311516
1425342719.857,-19.538136
1425342719.873,-18.243427
1425342719.888,-17.352444
1425342719.904,-16.831528
1425342719.92,-16.575706
1425342719.935,-16.34621
1425342719.951,-15.832466
1425342719.967,-14.671219
1425342719.982,-12.647137
1425342719.998,-9.68523
1425342720.013,-5.9524193
1425342720.029,-1.7401924
1425342720.045,2.5910797
1425342720.06,6.686924
1425342720.076,10.303169
1425342720.092,13.340496
1425342720.107,15.820671
1425342720.123,17.90986
1425342720.138,19.814459
1425342720.154,21.734913
1425342720.17,23.791967
1425342720.185,26.011276
1425342720.201,28.34535
1425342720.217,30.677307
1425342720.232,32.854122
1425342720.248,34.74491
1425342720.263,36.294155
1425342720.279,37.58243
1425342720.295,38.878662
1425342720.31,40.65055
1425342720.326,43.411686
1425342720.342,47.459747
1425342720.357,52.63172
1425342720.373,58.1244
1425342720.388,62.588776
1425342720.404,64.435036
1425342720.42,62.33297
1425342720.435,55.646812
1425342720.451,44.65615
1425342720.467,30.48871
1425342720.482,14.767443
1425342720.498,-0.8155198
1425342720.513,-14.94977
1425342720.529,-26.83287
1425342720.545,-36.169727
1425342720.56,-42.980206
1425342720.576,-47.45217
1425342720.592,-49.769104
1425342720.607,-50.184002
1425342720.623,-48.992085
1425342720.638,-46.60204
1425342720.654,-43.446922
1425342720.67,-39.91659
1425342720.685,-36.259205
1425342720.701,-32.599487
1425342720.717,-28.98977
1425342720.732,-25.529222
1425342720.748,-22.40855
1425342720.764,-19.927082
1425342720.779,-18.308989
1425342720.795,-17.672094
1425342720.81,-17.830338
1425342720.826,-18.417671
1425342720.842,-18.984348
1425342720.857,-19.099213
1425342720.873,-18.468279
1425342720.888,-16.971235
1425342720.904,-14.633293
1425342720.92,-11.594826
1425342720.935,-8.034592
1425342720.951,-4.2059555
1425342720.967,-0.34527206
1425342720.982,3.3505707
1425342720.998,6.7761345
1425342721.014,9.933361
1425342721.029,12.92128
1425342721.045,15.8447
1425342721.06,18.782742
1425342721.076,21.689228
1425342721.092,24.439842
1425342721.107,26.847626
1425342721.123,28.811947
1425342721.139,30.322098
1425342721.154,31.58865
1425342721.17,32.97174
1425342721.185,34.94108
1425342721.201,37.868145
1425342721.217,41.904434
1425342721.232,46.765026
1425342721.248,51.714565
1425342721.264,55.64874
1425342721.279,57.375443
1425342721.295,55.86652
1425342721.31,50.580013
1425342721.326,41.64798
1425342721.342,29.781998
1425342721.357,16.142914
1425342721.373,2.0232925
1425342721.389,-11.415298
1425342721.404,-23.257965
1425342721.42,-32.948837
1425342721.435,-40.22194
1425342721.451,-45.039314
1425342721.467,-47.49981
1425342721.482,-47.858063
1425342721.498,-46.431137
1425342721.514,-43.63086
1425342721.529,-39.933884
1425342721.545,-35.83837
1425342721.56,-31.784004
1425342721.576,-28.113037
1425342721.592,-25.013985
1425342721.607,-22.530373
1425342721.623,-20.610855
1425342721.639,-19.18599
1425342721.654,-18.179008
1425342721.67,-17.52987
1425342721.685,-17.121826
1425342721.701,-16.782394
1425342721.717,-16.234612
1425342721.732,-15.209465
1425342721.748,-13.488701
1425342721.764,-11.032623
1425342721.779,-7.9315033
1425342721.795,-4.4073334
1425342721.81,-0.7389374
1425342721.826,2.8114243
1425342721.842,6.102623
1425342721.857,9.069405
1425342721.873,11.77739
1425342721.889,14.3725815
1425342721.904,17.019936
1425342721.92,19.822617
1425342721.935,22.782913
1425342721.951,25.756645
1425342721.967,28.572548
1425342721.982,31.05188
1425342721.998,33.15866
1425342722.014,34.997856
1425342722.029,36.795204
1425342722.045,38.80921
1425342722.06,41.25924
1425342722.076,44.24568
1425342722.092,47.6587
1425342722.107,51.11508
1425342722.123,53.918007
1425342722.139,55.131523
1425342722.154,53.78926
1425342722.17,49.144203
1425342722.185,41.00453
1425342722.201,29.840118
1425342722.217,16.732979
1425342722.232,3.0586853
1425342722.248,-9.865433
1425342722.264,-21.093735
1425342722.279,-30.164215
1425342722.295,-36.99675
1425342722.31,-41.663902
1425342722.326,-44.316048
1425342722.342,-45.051636
1425342722.357,-44.03604
1425342722.373,-41.554657
1425342722.389,-38.09957
1425342722.404,-34.209557
1425342722.42,-30.388275
1425342722.435,-26.931168
1425342722.451,-23.919952
1425342722.467,-21.279678
1425342722.482,-18.907768
1425342722.498,-16.780838
1425342722.514,-14.9687805
1425342722.529,-13.565109
1425342722.545,-12.648972
1425342722.56,-12.175743
1425342722.576,-11.959541
1425342722.592,-11.730965
1425342722.607,-11.204254
1425342722.623,-10.158722
1425342722.639,-8.507156
1425342722.654,-6.3200912
1425342722.67,-3.797226
1425342722.685,-1.1593475
1425342722.701,1.4104614
1425342722.717,3.8929749
1425342722.732,6.3687363
1425342722.748,8.991577
1425342722.764,11.842873
1425342722.779,14.873955
1425342722.795,17.879753
1425342722.81,20.661552
1425342722.826,23.074173
1425342722.842,25.12548
1425342722.857,26.921051
1425342722.873,28.618752
1425342722.889,30.358902
1425342722.904,32.301796
1425342722.92,34.649513
1425342722.935,37.633423
1425342722.951,41.408905
1425342722.967,45.843086
1425342722.982,50.42041
1425342722.998,54.212097
1425342723.014,56.06566
1425342723.029,54.94039
1425342723.045,50.20323
1425342723.06,41.866142
1425342723.076,30.62571
1425342723.092,17.673973
1425342723.107,4.3702316
1425342723.123,-8.074982
1425342723.139,-18.860466
1425342723.154,-27.612228
1425342723.17,-34.317497
1425342723.185,-39.115036
1425342723.201,-42.145172
1425342723.217,-43.520485
1425342723.232,-43.366707
1425342723.248,-41.92045
1425342723.264,-39.568695
1425342723.279,-36.739304
1425342723.295,-33.82093
1425342723.31,-31.052513
1425342723.326,-28.50679
1425342723.342,-26.134384
1425342723.357,-23.893547
1425342723.373,-21.779823
1425342723.389,-19.874794
1425342723.404,-18.271576
1425342723.42,-17.032784
1425342723.436,-16.11956
1425342723.451,-15.376083
1425342723.467,-14.514748
1425342723.482,-13.19857
1425342723.498,-11.146927
1425342723.514,-8.21785
1425342723.529,-4.465782
1425342723.545,-0.15447998
1425342723.56,4.3517914
1425342723.576,8.752441
1425342723.592,12.867462
1425342723.607,16.680466
1425342723.623,20.304672
1425342723.639,23.824799
1425342723.654,27.30127
1425342723.67,30.68148
1425342723.686,33.878876
1425342723.701,36.768593
1425342723.717,39.287994
1425342723.732,41.464233
1425342723.748,43.466164
1425342723.764,45.54509
1425342723.779,48.028145
1425342723.795,51.169907
1425342723.811,55.01851
1425342723.826,59.242523
1425342723.842,63.117012
1425342723.857,65.60872
1425342723.873,65.58803
1425342723.889,62.174698
1425342723.904,55.01915
1425342723.92,44.44056
1425342723.936,31.383614
1425342723.951,17.198074
1425342723.967,3.2892914
1425342723.982,-9.153114
1425342723.998,-19.36457
1425342724.014,-27.035522
1425342724.029,-32.164757
1425342724.045,-34.987045
1425342724.061,-35.84234
1425342724.076,-35.123123
1425342724.092,-33.26114
1425342724.107,-30.712624
1425342724.123,-27.887344
1425342724.139,-25.101013
1425342724.154,-22.550808
1425342724.17,-20.340622
1425342724.186,-18.485348
1425342724.201,-17.016861
1425342724.217,-15.965633
1425342724.232,-15.366367
1425342724.248,-15.20858
1425342724.264,-15.411358
1425342724.279,-15.768692
1425342724.295,-15.990398
1425342724.311,-15.722107
1425342724.326,-14.671501
1425342724.342,-12.701965
1425342724.357,-9.892694
1425342724.373,-6.526474
1425342724.389,-2.9518642
1425342724.404,0.5383682
1425342724.42,3.8773708
1425342724.436,7.1315994
1425342724.451,10.444371
1425342724.467,13.857353
1425342724.482,17.208416
1425342724.498,20.219835
1425342724.514,22.578966
1425342724.529,24.161543
1425342724.545,25.073042
1425342724.561,25.61928
1425342724.576,26.198956
1425342724.592,27.180676
1425342724.607,28.817505
1425342724.623,31.142027
1425342724.639,33.93239
1425342724.654,36.672913
1425342724.67,38.555862
1425342724.686,38.642036
1425342724.701,36.03795
1425342724.717,30.20425
1425342724.732,21.144363
1425342724.748,9.47567
1425342724.764,-3.7193375
1425342724.779,-17.11842
1425342724.795,-29.51509
1425342724.811,-40.00286
1425342724.826,-48.127983
1425342724.842,-53.804466
1425342724.857,-57.19511
1425342724.873,-58.5737
1425342724.889,-58.215042
1425342724.904,-56.371723
1425342724.92,-53.28525
1425342724.936,-49.24611
1425342724.951,-44.636444
1425342724.967,-39.869522
1425342724.982,-35.377296
1425342724.998,-31.463665
1425342725.014,-28.30106
1425342725.029,-25.89803
1425342725.045,-24.168907
1425342725.061,-22.949394
1425342725.076,-22.08348
1425342725.092,-21.45507
1425342725.107,-20.918251
1425342725.123,-20.303802
1425342725.139,-19.383133
1425342725.154,-17.890327
1425342725.17,-15.563362
1425342725.186,-12.245934
1425342725.201,-7.958275
1425342725.217,-2.9427032
1425342725.232,2.403885
1425342725.248,7.621826
1425342725.264,12.32975
1425342725.279,16.376938
1425342725.295,19.79956
1425342725.311,22.863396
1425342725.326,25.857574
1425342725.342,29.099129
1425342725.357,32.764038
1425342725.373,36.89595
1425342725.389,41.326904
1425342725.404,45.650185
1425342725.42,49.20658
1425342725.436,51.160522
1425342725.451,50.616722
1425342725.467,46.876854
1425342725.482,39.643753
1425342725.498,29.202988
1425342725.514,16.396034
1425342725.529,2.4813232
1425342725.545,-11.21183
1425342725.561,-23.56614
1425342725.576,-33.861404
1425342725.592,-41.81434
1425342725.607,-47.463783
1425342725.623,-50.94403
1425342725.639,-52.38199
1425342725.654,-51.87616
1425342725.67,-49.562958
1425342725.686,-45.70939
1425342725.701,-40.77591
1425342725.717,-35.367935
1425342725.732,-30.098228
1425342725.748,-25.48919
1425342725.764,-21.86811
1425342725.779,-19.331963
1425342725.795,-17.796982
1425342725.811,-17.042015
1425342725.826,-16.805305
1425342725.842,-16.838058
1425342725.857,-16.945084
1425342725.873,-16.968506
1425342725.889,-16.764854
1425342725.904,-16.17955
1425342725.92,-15.051552
1425342725.936,-13.21608
1425342725.951,-10.587036
1425342725.967,-7.174103
1425342725.982,-3.1184235
1425342725.998,1.3238983
1425342726.014,5.8143616
1425342726.029,10.047119
1425342726.045,13.795235
1425342726.061,16.994286
1425342726.076,19.754387
1425342726.092,22.375252
1425342726.107,25.19345
1425342726.123,28.533424
1425342726.139,32.553
1425342726.154,37.184616
1425342726.17,42.071968
1425342726.186,46.562088
1425342726.201,49.76233
1425342726.217,50.657227
1425342726.232,48.325462
1425342726.248,42.22428
1425342726.264,32.438522
1425342726.279,19.785538
1425342726.295,5.60878
1425342726.311,-8.554993
1425342726.326,-21.431969
1425342726.342,-32.264984
1425342726.358,-40.83873
1425342726.373,-47.280594
1425342726.389,-51.817093
1425342726.404,-54.58812
1425342726.42,-55.660538
1425342726.436,-55.077805
1425342726.451,-53.01696
1425342726.467,-49.76545
1425342726.483,-45.737373
1425342726.498,-41.335648
1425342726.514,-36.937164
1425342726.529,-32.814095
1425342726.545,-29.17601
1425342726.561,-26.152954
1425342726.576,-23.820786
1425342726.592,-22.14833
1425342726.608,-21.048615
1425342726.623,-20.32859
1425342726.639,-19.697067
1425342726.654,-18.79557
1425342726.67,-17.259857
1425342726.686,-14.812973
1425342726.701,-11.42141
1425342726.717,-7.289505
1425342726.733,-2.8568878
1425342726.748,1.4145012
1425342726.764,5.1922874
1425342726.779,8.426514
1425342726.795,11.277828
1425342726.811,14.003674
1425342726.826,16.78616
1425342726.842,19.63184
1425342726.858,22.394424
1425342726.873,24.850693
1425342726.889,26.856068
1425342726.904,28.417046
1425342726.92,29.719307
1425342726.936,31.107063
1425342726.951,32.918797
1425342726.967,35.49958
1425342726.983,39.004204
1425342726.998,43.372868
1425342727.014,48.18327
1425342727.029,52.684967
1425342727.045,55.83301
1425342727.061,56.469707
1425342727.076,53.644558
1425342727.092,46.877098
1425342727.108,36.356396
1425342727.123,22.987513
1425342727.139,8.1748905
1425342727.154,-6.4801865
1425342727.17,-19.607828
1425342727.186,-30.343554
1425342727.201,-38.432564
1425342727.217,-44.055794
1425342727.233,-47.615288
1425342727.248,-49.47763
1425342727.264,-49.898495
1425342727.279,-49.013496
1425342727.295,-46.98522
1425342727.311,-44.065804
1425342727.326,-40.62037
1425342727.342,-37.00279
1425342727.358,-33.489998
1425342727.373,-30.201782
1425342727.389,-27.173359
1425342727.404,-24.441526
1425342727.42,-22.087006
1425342727.436,-20.229876
1425342727.451,-18.983185
1425342727.467,-18.333155
1425342727.483,-18.10217
1425342727.498,-17.968655
1425342727.514,-17.56741
1425342727.529,-16.558525
1425342727.545,-14.737257
1425342727.561,-12.096042
1425342727.576,-8.769224
1425342727.592,-5.013069
1425342727.608,-1.1202812
1425342727.623,2.656023
1425342727.639,6.12858
1425342727.654,9.208609
1425342727.67,11.898739
1425342727.686,14.311209
1425342727.701,16.620152
1425342727.717,19.012947
1425342727.733,21.605373
1425342727.748,24.376068
1425342727.764,27.140842
1425342727.779,29.668907
1425342727.795,31.759338
1425342727.811,33.440018
1425342727.826,34.98042
1425342727.842,36.851437
1425342727.858,39.529736
1425342727.873,43.284214
1425342727.889,47.96156
1425342727.904,52.87884
1425342727.92,56.928345
1425342727.936,58.83204
1425342727.951,57.47952
1425342727.967,52.281334
1425342727.983,43.365417
1425342727.998,31.580948
1425342728.014,18.20705
1425342728.029,4.6573334
1425342728.045,-7.89917
1425342728.061,-18.704933
1425342728.076,-27.423729
1425342728.092,-34.048607
1425342728.108,-38.742096
1425342728.123,-41.713943
1425342728.139,-43.194344
1425342728.154,-43.375694
1425342728.17,-42.44403
1425342728.186,-40.582657
1425342728.201,-38.010666
1425342728.217,-34.964752
1425342728.233,-31.695824
1425342728.248,-28.420052
1425342728.264,-25.309303
1425342728.279,-22.452713
1425342728.295,-19.950745
1425342728.311,-17.857918
1425342728.326,-16.25235
1425342728.342,-15.141594
1425342728.358,-14.438744
1425342728.373,-13.916
1425342728.389,-13.269859
1425342728.404,-12.161446
1425342728.42,-10.399338
1425342728.436,-7.97126
1425342728.451,-5.0444946
1425342728.467,-1.8865738
1425342728.483,1.254715
1425342728.498,4.2273636
1425342728.514,6.9710007
1425342728.529,9.55262
1425342728.545,12.067238
1425342728.561,14.62812
1425342728.576,17.30243
1425342728.592,20.125687
1425342728.608,23.038155
1425342728.623,25.906326
1425342728.639,28.575356
1425342728.654,30.890045
1425342728.67,32.834892
1425342728.686,34.57956
1425342728.701,36.416275
1425342728.717,38.72718
1425342728.733,41.811806
1425342728.748,45.71476
1425342728.764,50.15783
1425342728.779,54.54004
1425342728.795,58.041443
1425342728.811,59.773506
1425342728.826,58.992188
1425342728.842,55.254257
1425342728.858,48.500465
1425342728.873,39.167915
1425342728.889,28.070724
1425342728.904,16.288612
1425342728.92,4.923218
1425342728.936,-5.116867
1425342728.951,-13.282417
1425342728.967,-19.43428
1425342728.983,-23.722786
1425342728.998,-26.424683
1425342729.014,-27.846466
1425342729.03,-28.215446
1425342729.045,-27.720215
1425342729.061,-26.55516
1425342729.076,-24.9432
1425342729.092,-23.130745
1425342729.108,-21.323502
1425342729.123,-19.653702
1425342729.139,-18.147583
1425342729.155,-16.744751
1425342729.17,-15.413803
1425342729.186,-14.16951
1425342729.201,-13.120995
1425342729.217,-12.34716
1425342729.233,-11.872032
1425342729.248,-11.603531
1425342729.264,-11.299545
1425342729.28,-10.6551895
1425342729.295,-9.421562
1425342729.311,-7.517845
1425342729.326,-5.038292
1425342729.342,-2.206009
1425342729.358,0.67655945
1425342729.373,3.3960342
1425342729.389,5.8423996
1425342729.405,8.022751
1425342729.42,10.04509
1425342729.436,12.065605
1425342729.451,14.215569
1425342729.467,16.568207
1425342729.483,19.077934
1425342729.498,21.595795
1425342729.514,23.86763
1425342729.53,25.713554
1425342729.545,27.086418
1425342729.561,28.18045
1425342729.576,29.35067
1425342729.592,31.012566
1425342729.608,33.39473
1425342729.623,36.41475
1425342729.639,39.600227
1425342729.655,42.221092
1425342729.67,43.464462
1425342729.686,42.61535
1425342729.701,39.240524
1425342729.717,33.273033
1425342729.733,25.01313
1425342729.748,15.069
1425342729.764,4.259323
1425342729.78,-6.5622253
1425342729.795,-16.65966
1425342729.811,-25.526924
1425342729.826,-32.898315
1425342729.842,-38.663857
1425342729.858,-42.822945
1425342729.873,-45.3833
1425342729.889,-46.423462
1425342729.905,-46.091415
1425342729.92,-44.67169
1425342729.936,-42.515
1425342729.951,-39.9636
1425342729.967,-37.28418
1425342729.983,-34.639656
1425342729.998,-32.10704
1425342730.014,-29.736351
1425342730.03,-27.578918
1425342730.045,-25.706947
1425342730.061,-24.171387
1425342730.076,-23.02098
1425342730.092,-22.229996
1425342730.108,-21.676247
1425342730.123,-21.153664
1425342730.139,-20.380661
1425342730.155,-19.09069
1425342730.17,-17.138435
1425342730.186,-14.556427
1425342730.201,-11.5476
1425342730.217,-8.40403
1425342730.233,-5.394867
1425342730.248,-2.648697
1425342730.264,-0.1414032
1425342730.28,2.2787247
1425342730.295,4.8125
1425342730.311,7.5431824
1425342730.326,10.419441
1425342730.342,13.235146
1425342730.358,15.721405
1425342730.373,17.665596
1425342730.389,19.056015
1425342730.405,20.121162
1425342730.42,21.24585
1425342730.436,22.850975
1425342730.451,25.221191
1425342730.467,28.327744
1425342730.483,31.800003
1425342730.498,34.966293
1425342730.514,36.98176
1425342730.53,37.027252
1425342730.545,34.43811
1425342730.561,28.982674
1425342730.576,20.9021
1425342730.592,10.946495
1425342730.608,0.17241669
1425342730.623,-10.309677
1425342730.639,-19.605263
1425342730.655,-27.175415
1425342730.67,-32.846794
1425342730.686,-36.70012
1425342730.701,-38.898987
1425342730.717,-39.652435
1425342730.733,-39.183014
1425342730.748,-37.725853
1425342730.764,-35.520782
1425342730.78,-32.804245
1425342730.795,-29.738205
1425342730.811,-26.441452
1425342730.826,-23.032608
1425342730.842,-19.65789
1425342730.858,-16.541626
1425342730.873,-13.914139
1425342730.889,-11.949821
1425342730.905,-10.683464
1425342730.92,-9.988228
1425342730.936,-9.627716
1425342730.951,-9.308113
1425342730.967,-8.760445
1425342730.983,-7.7598724
1425342730.998,-6.2110825
1425342731.014,-4.1147385
1425342731.03,-1.5418167
1425342731.045,1.3078918
1425342731.061,4.238083
1425342731.076,7.0306473
1425342731.092,9.59687
1425342731.108,11.958656
1425342731.123,14.221046
1425342731.139,16.515785
1425342731.155,18.93084
1425342731.17,21.409897
1425342731.186,23.793991
1425342731.201,25.889908
1425342731.217,27.601059
1425342731.233,28.981445
1425342731.248,30.263664
1425342731.264,31.79364
1425342731.28,33.858543
1425342731.295,36.49556
1425342731.311,39.4534
1425342731.326,42.118073
1425342731.342,43.71074
1425342731.358,43.419693
1425342731.373,40.682526
1425342731.389,35.270218
1425342731.405,27.398544
1425342731.42,17.696777
1425342731.436,7.0767517
1425342731.451,-3.4206238
1425342731.467,-12.874985
1425342731.483,-20.614197
1425342731.498,-26.365173
1425342731.514,-30.210007
1425342731.53,-32.500153
1425342731.545,-33.659286
1425342731.561,-34.016647
1425342731.576,-33.786316
1425342731.592,-33.025024
1425342731.608,-31.769302
1425342731.623,-30.060822
1425342731.639,-27.996338
1425342731.655,-25.682648
1425342731.67,-23.252106
1425342731.686,-20.86139
1425342731.702,-18.703217
1425342731.717,-16.939377
1425342731.733,-15.625046
1425342731.748,-14.685455
1425342731.764,-13.92363
1425342731.78,-13.070999
1425342731.795,-11.977127
1425342731.811,-10.600311
1425342731.827,-9.0359955
1425342731.842,-7.3208466
1425342731.858,-5.4821777
1425342731.873,-3.4261932
1425342731.889,-1.0868073
1425342731.905,1.5147858
1425342731.92,4.230652
1425342731.936,6.8476715
1425342731.952,9.245651
1425342731.967,11.46373
1425342731.983,13.694656
1425342731.998,16.15625
1425342732.014,18.911255
1425342732.03,21.800095
1425342732.045,24.538513
1425342732.061,26.836044
1425342732.077,28.581161
1425342732.092,29.880234
1425342732.108,31.035034
1425342732.123,32.39563
1425342732.139,34.276245
1425342732.155,36.87764
1425342732.17,40.249207
1425342732.186,44.271774
1425342732.202,48.58441
1425342732.217,52.536316
1425342732.233,55.202377
1425342732.248,55.571564
1425342732.264,52.831543
1425342732.28,46.639008
1425342732.295,37.276505
1425342732.311,25.597443
1425342732.327,12.773529
1425342732.342,0.020980835
1425342732.358,-11.683212
1425342732.373,-21.70874
1425342732.389,-29.770279
1425342732.405,-35.859253
1425342732.42,-40.07498
1425342732.436,-42.554855
1425342732.452,-43.390427
1425342732.467,-42.717407
1425342732.483,-40.737442
1425342732.498,-37.779984
1425342732.514,-34.328598
1425342732.53,-30.891144
1425342732.545,-27.885742
1425342732.561,-25.533188
1425342732.577,-23.84262
1425342732.592,-22.653625
1425342732.608,-21.81601
1425342732.623,-21.240128
1425342732.639,-20.916748
1425342732.655,-20.787216
1425342732.67,-20.749252
1425342732.686,-20.587112
1425342732.702,-20.067917
1425342732.717,-19.04631
1425342732.733,-17.493774
1425342732.748,-15.474319
1425342732.764,-13.067703
1425342732.78,-10.333771
1425342732.795,-7.3054504
1425342732.811,-4.0405426
1425342732.827,-0.68504333
1425342732.842,2.564148
1425342732.858,5.530365
1425342732.873,8.159103
1425342732.889,10.552872
1425342732.905,12.900253
1425342732.92,15.36058
1425342732.936,17.96991
1425342732.952,20.614914
1425342732.967,23.09903
1425342732.983,25.2724
1425342732.998,27.142502
1425342733.014,28.827454
1425342733.03,30.584076
1425342733.045,32.67894
1425342733.061,35.3351
1425342733.077,38.669937
1425342733.092,42.67369
1425342733.108,47.155075
1425342733.123,51.679565
1425342733.139,55.54657
1425342733.155,57.85489
1425342733.17,57.671432
1425342733.186,54.24144
1425342733.202,47.267853
1425342733.217,37.048584
1425342733.233,24.417343
1425342733.248,10.639175
1425342733.264,-2.9168549
1425342733.28,-15.043533
1425342733.295,-24.959328
1425342733.311,-32.321205
1425342733.327,-37.241577
1425342733.342,-40.110703
1425342733.358,-41.434235
1425342733.373,-41.629906
1425342733.389,-40.956146
1425342733.405,-39.50461
1425342733.42,-37.28827
1425342733.436,-34.41343
1425342733.452,-31.10437
1425342733.467,-27.731293
1425342733.483,-24.691368
1425342733.498,-22.258987
1425342733.514,-20.542236
1425342733.53,-19.433464
1425342733.545,-18.762695
1425342733.561,-18.322044
1425342733.577,-17.967712
1425342733.592,-17.548836
1425342733.608,-16.950432
1425342733.623,-15.967804
1425342733.639,-14.440514
1425342733.655,-12.238716
1425342733.67,-9.393364
1425342733.686,-6.06691
1425342733.702,-2.5034332
1425342733.717,1.0790405
1425342733.733,4.559059
1425342733.748,7.9333725
1425342733.764,11.267082
1425342733.78,14.67778
1425342733.795,18.226204
1425342733.811,21.9161
1425342733.827,25.619293
1425342733.842,29.177551
1425342733.858,32.37107
1425342733.873,35.022263
1425342733.889,37.036674
1425342733.905,38.48091
1425342733.92,39.521736
1425342733.936,40.468773
1425342733.952,41.675552
1425342733.967,43.483215
1425342733.983,46.145638
1425342733.998,49.675667
1425342734.014,53.75759
1425342734.03,57.713776
1425342734.045,60.563248
1425342734.061,61.226494
1425342734.077,58.768715
1425342734.092,52.742874
1425342734.108,43.275223
1425342734.123,31.140991
1425342734.139,17.534569
1425342734.155,3.789917
1425342734.17,-8.914612
1425342734.186,-19.830639
1425342734.202,-28.64589
1425342734.217,-35.395386
1425342734.233,-40.27205
1425342734.248,-43.480854
1425342734.264,-45.157944
1425342734.28,-45.415993
1425342734.295,-44.420265
1425342734.311,-42.462837
1425342734.327,-39.936237
1425342734.342,-37.241077
1425342734.358,-34.690964
1425342734.374,-32.45664
1425342734.389,-30.583897
1425342734.405,-29.005854
1425342734.42,-27.688858
1425342734.436,-26.59487
1425342734.452,-25.737114
1425342734.467,-25.097532
1425342734.483,-24.598536
1425342734.498,-24.074226
1425342734.514,-23.296326
1425342734.53,-22.074226
1425342734.545,-20.334484
1425342734.561,-18.159248
1425342734.577,-15.787617
1425342734.592,-13.440797
1425342734.608,-11.255648
1425342734.624,-9.216656
1425342734.639,-7.172665
1425342734.655,-4.966218
1425342734.67,-2.5639648
1425342734.686,-0.060421303
1425342734.702,2.3298144
1425342734.717,4.4487767
1425342734.733,6.3037524
1425342734.749,8.072514
1425342734.764,10.099125
1425342734.78,12.750839
1425342734.795,16.272732
1425342734.811,20.675592
1425342734.827,25.613178
1425342734.842,30.388128
1425342734.858,34.04429
1425342734.874,35.533558
1425342734.889,34.004604
1425342734.905,29.0366
1425342734.92,20.784454
1425342734.936,9.988678
1425342734.952,-2.3151903
1425342734.967,-14.933482
1425342734.983,-26.824764
1425342734.999,-37.18651
1425342735.014,-45.48211
1425342735.03,-51.426537
1425342735.045,-54.975
1425342735.061,-56.282356
1425342735.077,-55.67286
1425342735.092,-53.582832
1425342735.108,-50.45508
1425342735.124,-46.696457
1425342735.139,-42.6287
1425342735.155,-38.49643
1425342735.17,-34.52564
1425342735.186,-30.914845
1425342735.202,-27.845371
1425342735.217,-25.373041
1425342735.233,-23.429289
1425342735.249,-21.81679
1425342735.264,-20.293766
1425342735.28,-18.631395
1425342735.295,-16.733418
1425342735.311,-14.57243
1425342735.327,-12.151352
1425342735.342,-9.43032
1425342735.358,-6.3060603
1425342735.374,-2.646633
1425342735.389,1.6354758
1425342735.405,6.4773793
1425342735.42,11.658082
1425342735.436,16.855425
1425342735.452,21.721863
1425342735.467,26.041767
1425342735.483,29.743752
1425342735.499,32.989197
1425342735.514,36.052807
1425342735.53,39.299328
1425342735.545,42.998875
1425342735.561,47.27995
1425342735.577,51.97239
1425342735.592,56.57637
1425342735.608,60.30931
1425342735.624,62.23706
1425342735.639,61.497314
1425342735.655,57.52665
1425342735.67,50.19714
1425342735.686,39.91705
1425342735.702,27.467
1425342735.717,13.905559
1425342735.733,0.31957626
1425342735.749,-12.301427
1425342735.764,-23.21268
1425342735.78,-31.942417
1425342735.795,-38.30564
1425342735.811,-42.349903
1425342735.827,-44.3094
1425342735.842,-44.506203
1425342735.858,-43.264816
1425342735.874,-40.87285
1425342735.889,-37.611526
1425342735.905,-33.735237
1425342735.92,-29.575756
1425342735.936,-25.47869
1425342735.952,-21.797731
1425342735.967,-18.773993
1425342735.983,-16.497704
1425342735.999,-14.871643
1425342736.014,-13.657923
1425342736.03,-12.591038
1425342736.045,-11.483999
1425342736.061,-10.269577
1425342736.077,-8.964746
1425342736.092,-7.567358
1425342736.108,-6.0253887
1425342736.124,-4.189436
1425342736.139,-1.8856907
1425342736.155,0.9745121
1425342736.17,4.344162
1425342736.186,8.058353
1425342736.202,11.89427
1425342736.217,15.684185
1425342736.233,19.333221
1425342736.249,22.839779
1425342736.264,26.239386
1425342736.28,29.604662
1425342736.295,33.036293
1425342736.311,36.697342
1425342736.327,40.732162
1425342736.342,45.17431
1425342736.358,49.745724
1425342736.374,53.838036
1425342736.389,56.526825
1425342736.405,56.815483
1425342736.42,53.861076
1425342736.436,47.32115
1425342736.452,37.420486
1425342736.467,24.99304
1425342736.483,11.284414
1425342736.499,-2.3612099
1425342736.514,-14.772299
1425342736.53,-25.204447
1425342736.545,-33.36331
1425342736.561,-39.317547
1425342736.577,-43.29162
1425342736.592,-45.476624
1425342736.608,-46.001633
1425342736.624,-44.978256
1425342736.639,-42.59449
1425342736.655,-39.163322
1425342736.67,-35.076534
1425342736.686,-30.679867
1425342736.702,-26.202608
1425342736.717,-21.722528
1425342736.733,-17.346506
1425342736.749,-13.221914
1425342736.764,-9.61322
1425342736.78,-6.726465
1425342736.795,-4.6170235
1425342736.811,-3.0424957
1425342736.827,-1.5891113
1425342736.842,0.2166462
1425342736.858,2.6672783
1425342736.874,5.7855167
1425342736.889,9.347254
1425342736.905,13.037506
1425342736.92,16.55741
1425342736.936,19.77353
1425342736.952,22.688326
1425342736.967,25.402842
1425342736.983,28.022242
1425342736.999,30.622013
1425342737.014,33.226917
1425342737.03,35.81344
1425342737.045,38.363403
1425342737.061,40.836143
1425342737.077,43.215317
1425342737.092,45.53842
1425342737.108,47.9504
1425342737.124,50.6401
1425342737.139,53.768448
1425342737.155,57.276558
1425342737.17,60.744415
1425342737.186,63.339256
1425342737.202,63.931038
1425342737.217,61.43288
1425342737.233,55.175194
1425342737.249,45.221146
1425342737.264,32.377888
1425342737.28,18.03302
1425342737.296,3.705762
1425342737.311,-9.33271
1425342737.327,-20.318686
1425342737.342,-29.010328
1425342737.358,-35.56339
1425342737.374,-40.247482
1425342737.389,-43.322823
1425342737.405,-44.93208
1425342737.421,-45.18546
1425342737.436,-44.226624
1425342737.452,-42.33074
1425342737.467,-39.883057
1425342737.483,-37.269615
1425342737.499,-34.79318
1425342737.514,-32.597965
1425342737.53,-30.69344
1425342737.546,-29.012016
1425342737.561,-27.51971
1425342737.577,-26.249985
1425342737.592,-25.268185
1425342737.608,-24.590446
1425342737.624,-24.140156
1425342737.639,-23.705795
1425342737.655,-22.985302
1425342737.671,-21.711044
1425342737.686,-19.684242
1425342737.702,-16.86943
1425342737.717,-13.371216
1425342737.733,-9.419762
1425342737.749,-5.2774124
1425342737.764,-1.2527771
1425342737.78,2.4275131
1425342737.796,5.6020966
1425342737.811,8.231834
1425342737.827,10.38118
1425342737.842,12.184456
1425342737.858,13.829414
1425342737.874,15.53257
1425342737.889,17.488571
1425342737.905,19.798927
1425342737.921,22.339424
1425342737.936,24.6884
1425342737.952,26.129967
1425342737.967,25.781906
1425342737.983,22.861122
1425342737.999,17.011757
1425342738.014,8.436653
1425342738.03,-2.1108246
1425342738.046,-13.548599
1425342738.061,-24.756767
1425342738.077,-34.838127
1425342738.092,-43.22457
1425342738.108,-49.631355
1425342738.124,-53.970146
1425342738.139,-56.28807
1425342738.155,-56.70024
1425342738.171,-55.353706
1425342738.186,-52.50573
1425342738.202,-48.506256
1425342738.217,-43.80803
1425342738.233,-38.93772
1425342738.249,-34.37507
1425342738.264,-30.49997
1425342738.28,-27.43158
1425342738.296,-25.079094
1425342738.311,-23.205688
1425342738.327,-21.586311
1425342738.342,-20.077827
1425342738.358,-18.66433
1425342738.374,-17.370926
1425342738.389,-16.180153
1425342738.405,-14.932434
1425342738.421,-13.418175
1425342738.436,-11.398384
1425342738.452,-8.720993
1425342738.467,-5.35495
1425342738.483,-1.3932953
1425342738.499,2.9911423
1425342738.514,7.561363
1425342738.53,12.07682
1425342738.546,16.337597
1425342738.561,20.281937
1425342738.577,24.007412
1425342738.592,27.71611
1425342738.608,31.597439
1425342738.624,35.70215
1425342738.639,39.843548
1425342738.655,43.551037
1425342738.671,46.130646
1425342738.686,46.869072
1425342738.702,45.102127
1425342738.717,40.467033
1425342738.733,32.976818
1425342738.749,23.122242
1425342738.764,11.763233
1425342738.78,7.4768066E-4
1425342738.796,-11.11845
1425342738.811,-20.753979
1425342738.827,-28.420582
1425342738.842,-33.979454
1425342738.858,-37.51442
1425342738.874,-39.26927
1425342738.889,-39.537758
1425342738.905,-38.647198
1425342738.921,-36.906456
1425342738.936,-34.579437
1425342738.952,-31.898232
1425342738.967,-29.026762
1425342738.983,-26.109522
1425342738.999,-23.309853
1425342739.014,-20.811
1425342739.03,-18.76318
1425342739.046,-17.246605
1425342739.061,-16.203558
1425342739.077,-15.4253235
1425342739.092,-14.614744
1425342739.108,-13.485029
1425342739.124,-11.877011
1425342739.139,-9.802577
1425342739.155,-7.388261
1425342739.171,-4.8389316
1425342739.186,-2.273449
1425342739.202,0.27839184
1425342739.217,2.9167376
1425342739.233,5.7725887
1425342739.249,8.940617
1425342739.264,12.398697
1425342739.28,15.99658
1425342739.296,19.506868
1425342739.311,22.71343
1425342739.327,25.494207
1425342739.342,27.887306
1425342739.358,30.099293
1425342739.374,32.452023
1425342739.389,35.259846
1425342739.405,38.72207
1425342739.421,42.783604
1425342739.436,47.097378
1425342739.452,50.997852
1425342739.467,53.628452
1425342739.483,54.085266
1425342739.499,51.62107
1425342739.514,45.91056
1425342739.53,37.1463
1425342739.546,26.091373
1425342739.561,13.871227
1425342739.577,1.7255859
1425342739.592,-9.343906
1425342739.608,-18.692005
1425342739.624,-26.102474
1425342739.639,-31.620602
1425342739.655,-35.388012
1425342739.671,-37.605152
1425342739.686,-38.44952
1425342739.702,-38.121048
1425342739.717,-36.863014
1425342739.733,-34.887306
1425342739.749,-32.363686
1425342739.764,-29.413712
1425342739.78,-26.138138
1425342739.796,-22.724648
1425342739.811,-19.42318
1425342739.827,-16.529022
1425342739.842,-14.231705
1425342739.858,-12.580185
1425342739.874,-11.417595
1425342739.889,-10.46833
1425342739.905,-9.457359
1425342739.921,-8.18042
1425342739.936,-6.5320587
1425342739.952,-4.524536
1425342739.968,-2.1912003
1425342739.983,0.37441254
1425342739.999,3.097931
1425342740.014,5.8438187
1425342740.03,8.470589
1425342740.046,10.88018
1425342740.061,13.059685
1425342740.077,15.121971
1425342740.093,17.237526
1425342740.108,19.586037
1425342740.124,22.223053
1425342740.139,25.072342
1425342740.155,27.950104
1425342740.171,30.690369
1425342740.186,33.257904
1425342740.202,35.776154
1425342740.218,38.527695
1425342740.233,41.80632
1425342740.249,45.715843
1425342740.264,50.040215
1425342740.28,54.204964
1425342740.296,57.330154
1425342740.311,58.479233
1425342740.327,56.82917
1425342740.343,52.009125
1425342740.358,44.187126
1425342740.374,34.10086
1425342740.389,22.864662
1425342740.405,11.684639
1425342740.421,1.5552826
1425342740.436,-6.9550476
1425342740.452,-13.741409
1425342740.468,-18.945694
1425342740.483,-22.74459
1425342740.499,-25.186699
1425342740.514,-26.197067
1425342740.53,-25.719078
1425342740.546,-23.89093
1425342740.561,-21.102386
1425342740.577,-17.930191
1425342740.593,-14.922798
1425342740.608,-12.44017
1425342740.624,-10.545448
1425342740.639,-9.154633
1425342740.655,-8.089874
1425342740.671,-7.2517166
1425342740.686,-6.5922165
1425342740.702,-6.0884323
1425342740.718,-5.6736298
1425342740.733,-5.195709
1425342740.749,-4.477478
1425342740.764,-3.3766174
1425342740.78,-1.8722687
1425342740.796,-0.051338196
1425342740.811,1.9349442
1425342740.827,3.9110565
1425342740.843,5.7874603
1425342740.858,7.6208115
1425342740.874,9.571884
1425342740.889,11.801437
1425342740.905,14.382744
1425342740.921,17.18898
1425342740.936,19.957542
1425342740.952,22.325882
1425342740.968,24.03231
1425342740.983,24.969223
1425342740.999,25.280945
1425342741.014,25.266808
1425342741.03,25.319244
1425342741.046,25.775032
1425342741.061,26.824196
1425342741.077,28.353508
1425342741.093,29.979568
1425342741.108,30.99392
1425342741.124,30.556969
1425342741.139,27.875458
1425342741.155,22.47219
1425342741.171,14.38546
1425342741.186,4.19236
1425342741.202,-7.1515884
1425342741.218,-18.556961
1425342741.233,-29.108284
1425342741.249,-38.20215
1425342741.264,-45.611763
1425342741.28,-51.368507
1425342741.296,-55.620193
1425342741.311,-58.529083
1425342741.327,-60.22503
1425342741.343,-60.792206
1425342741.358,-60.327904
1425342741.374,-58.973495
1425342741.389,-56.982513
1425342741.405,-54.664818
1425342741.421,-52.3842
1425342741.436,-50.445824
1425342741.452,-49.042732
1425342741.468,-48.19712
1425342741.483,-47.824646
1425342741.499,-47.76014
1425342741.514,-47.876038
1425342741.53,-48.071907
1425342741.546,-48.27204
1425342741.561,-48.34796
1425342741.577,-48.121307
1425342741.593,-47.39672
1425342741.608,-46.039932
1425342741.624,-44.03273
1425342741.639,-41.43608
1425342741.655,-38.32595
1425342741.671,-34.720963
1425342741.686,-30.533287
1425342741.702,-25.68811
1425342741.718,-20.230919
1425342741.733,-14.469032
1425342741.749,-8.978836
1425342741.764,-4.620041
1425342741.78,-2.2864685
1425342741.796,-2.69458
1425342741.811,-6.144638
1425342741.827,-12.444855
1425342741.843,-21.019165
1425342741.858,-31.170334
1425342741.874,-42.303528
1425342741.889,-54.119003
1425342741.905,-66.5067
1425342741.921,-79.40135
1425342741.936,-92.57007
1425342741.952,-105.59378
1425342741.968,-117.85057
1425342741.983,-128.66026
1425342741.999,-137.21782
1425342742.014,-142.60614
1425342742.03,-143.7821
1425342742.046,-139.83694
1425342742.061,-130.4166
1425342742.077,-116.01898
1425342742.093,-97.97507
1425342742.108,-78.059265
1425342742.124,-57.818573
1425342742.139,-38.09204
1425342742.155,-18.962097
1425342742.171,-0.0843811
1425342742.186,18.824615
1425342742.202,37.61972
1425342742.218,55.71872
1425342742.233,72.1828
1425342742.249,85.84195
1425342742.264,95.171875
1425342742.28,98.56824
1425342742.296,94.78967
1425342742.311,83.7363
1425342742.327,66.96658
1425342742.343,47.523743
1425342742.358,29.042236
1425342742.374,14.450287
1425342742.389,5.1882324
1425342742.405,1.2840271
1425342742.421,2.1230469
1425342742.436,7.230652
1425342742.452,16.516724
1425342742.468,29.836487
1425342742.483,46.176636
1425342742.499,63.391663
1425342742.514,78.56909
1425342742.53,89.02185
1425342742.546,93.294556
1425342742.561,91.55621
1425342742.577,85.328735
1425342742.593,76.73163
1425342742.608,67.68378
1425342742.624,59.411987
1425342742.64,52.349854
1425342742.655,46.36438
1425342742.671,41.02472
1425342742.686,35.973328
1425342742.702,30.982605
1425342742.718,25.960999
1425342742.733,20.853394
1425342742.749,15.585083
1425342742.765,10.11499
1425342742.78,4.684204
1425342742.796,-0.054870605
1425342742.811,-3.2680054
1425342742.827,-4.3633423
1425342742.843,-3.5339966
1425342742.858,-1.920105
1425342742.874,-1.1743164
1425342742.89,-2.6190796
1425342742.905,-6.5131836
1425342742.921,-11.784668
1425342742.936,-16.648315
1425342742.952,-19.551697
1425342742.968,-19.967957
1425342742.983,-18.55011
1425342742.999,-16.484192
1425342743.015,-14.5060425
1425342743.03,-12.255249
1425342743.046,-8.370789
1425342743.061,-1.3134155
1425342743.077,9.637146
1425342743.093,23.736145
1425342743.108,39.043335
1425342743.124,53.2547
1425342743.14,64.6355
1425342743.155,72.66339
1425342743.171,77.91077
1425342743.186,81.44263
1425342743.202,84.226135
1425342743.218,86.786804
1425342743.233,89.390564
1425342743.249,92.28345
1425342743.265,95.81854
1425342743.28,100.212524
1425342743.296,105.26727
1425342743.311,110.2063
1425342743.327,114.0213
1425342743.343,115.953674
1425342743.358,115.971375
1425342743.374,114.80707
1425342743.39,113.54755
1425342743.405,112.957275
1425342743.421,113.039734
1425342743.436,113.02283
1425342743.452,111.82489
1425342743.468,108.599915
1425342743.483,103.1781
1425342743.499,95.99432
1425342743.515,87.77997
1425342743.53,79.185974
1425342743.546,70.60364
1425342743.561,62.13434
1425342743.577,53.88379
1425342743.593,45.95111
1425342743.608,38.627075
1425342743.624,32.319153
1425342743.64,27.426697
1425342743.655,24.21759
1425342743.671,22.781433
1425342743.686,22.94629
1425342743.702,24.165283
1425342743.718,25.41681
1425342743.733,25.343811
1425342743.749,22.623718
1425342743.765,16.522095
1425342743.78,7.326721
1425342743.796,-3.5720215
1425342743.811,-14.183472
1425342743.827,-22.667358
1425342743.843,-28.17157
1425342743.858,-30.945251
1425342743.874,-32.097717
1425342743.89,-32.79944
1425342743.905,-33.570007
1425342743.921,-34.143433
1425342743.936,-33.8786
1425342743.952,-32.370056
1425342743.968,-29.766357
1425342743.983,-26.565186
1425342743.999,-23.063477
1425342744.015,-18.91333
1425342744.03,-13.277771
1425342744.046,-5.3256226
1425342744.061,5.0463867
1425342744.077,17.064087
1425342744.093,29.334106
1425342744.108,40.566345
1425342744.124,50.087097
1425342744.14,57.75067
1425342744.155,63.30298
1425342744.171,65.82434
1425342744.186,63.682068
1425342744.202,55.267456
1425342744.218,40.04596
1425342744.233,19.26709
1425342744.249,-4.2528687
1425342744.265,-27.17395
1425342744.28,-47.0058
1425342744.296,-62.900635
1425342744.311,-75.53992
1425342744.327,-86.21985
1425342744.343,-95.94165
1425342744.358,-104.64456
1425342744.374,-111.440186
1425342744.39,-115.255066
1425342744.405,-115.55896
1425342744.421,-112.65985
1425342744.436,-107.53192
1425342744.452,-101.30029
1425342744.468,-94.76849
1425342744.483,-88.21423
1425342744.499,-81.52252
1425342744.515,-74.441925
1425342744.53,-66.92459
1425342744.546,-59.17218
1425342744.561,-51.579742
1425342744.577,-44.511383
1425342744.593,-38.161224
1425342744.608,-32.492767
1425342744.624,-27.338562
1425342744.64,-22.513275
1425342744.655,-17.904358
1425342744.671,-13.469025
1425342744.686,-9.195099
1425342744.702,-5.053253
1425342744.718,-1.013794
1425342744.733,2.8977966
1425342744.749,6.5939636
1425342744.765,9.979065
1425342744.78,12.971436
1425342744.796,15.613586
1425342744.811,18.009735
1425342744.827,20.334045
1425342744.843,22.729828
1425342744.858,25.340271
1425342744.874,28.31668
1425342744.89,31.840454
1425342744.905,35.9769
1425342744.921,40.518036
1425342744.936,44.803467
1425342744.952,47.734375
1425342744.968,47.94223
1425342744.983,44.25177
1425342744.999,36.11151
1425342745.015,23.836731
1425342745.03,8.54068
1425342745.046,-8.153137
1425342745.061,-24.615692
1425342745.077,-39.505066
1425342745.093,-52.064972
1425342745.108,-62.002106
1425342745.124,-69.412506
1425342745.14,-74.550476
1425342745.155,-77.71527
1425342745.171,-79.135315
1425342745.186,-78.98001
1425342745.202,-77.37558
1425342745.218,-74.46399
1425342745.233,-70.48227
1425342745.249,-65.75296
1425342745.265,-60.663086
1425342745.28,-55.59903
1425342745.296,-50.873657
1425342745.312,-46.660217
1425342745.327,-42.967163
1425342745.343,-39.687256
1425342745.358,-36.61331
1425342745.374,-33.519073
1425342745.39,-30.208893
1425342745.405,-26.568085
1425342745.421,-22.541351
1425342745.436,-18.168884
1425342745.452,-13.466766
1425342745.468,-8.432068
1425342745.483,-3.0255127
1425342745.499,2.714447
1425342745.515,8.687408
1425342745.53,14.654663
1425342745.546,20.235413
1425342745.562,25.069763
1425342745.577,28.817719
1425342745.593,31.182098
1425342745.608,31.960754
1425342745.624,31.209137
1425342745.64,29.42575
1425342745.655,27.679901
1425342745.671,27.47461
1425342745.687,30.060242
1425342745.702,35.8031
1425342745.718,43.585815
1425342745.733,50.897705
1425342745.749,54.522034
1425342745.765,51.754547
1425342745.78,41.443024
1425342745.796,24.275238
1425342745.812,2.2543945
1425342745.827,-22.246033
1425342745.843,-47.28836
1425342745.858,-71.59909
1425342745.874,-94.14725
1425342745.89,-113.63495
1425342745.905,-128.55563
1425342745.921,-137.6235
1425342745.937,-140.41147
1425342745.952,-137.46765
1425342745.968,-129.79913
1425342745.983,-118.01044
1425342745.999,-101.984955
1425342746.015,-81.06668
1425342746.03,-55.074768
1425342746.046,-25.230255
1425342746.062,5.667053
1425342746.077,33.974335
1425342746.093,56.499878
1425342746.108,71.66559
1425342746.124,79.83423
1425342746.14,82.78522
1425342746.155,82.86951
1425342746.171,82.37167
1425342746.187,82.94675
1425342746.202,85.68222
1425342746.218,91.0166
1425342746.233,98.693634
1425342746.249,107.76422
1425342746.265,116.80975
1425342746.28,124.4046
1425342746.296,129.59186
1425342746.312,132.078
1425342746.327,132.20386
1425342746.343,130.70639
1425342746.358,128.40094
1425342746.374,125.9975
1425342746.39,124.035126
1425342746.405,122.88986
1425342746.421,122.76767
1425342746.437,123.7399
1425342746.452,125.74744
1425342746.468,128.6513
1425342746.483,132.19537
1425342746.499,135.88382
1425342746.515,138.86847
1425342746.53,139.83545
1425342746.546,137.26868
1425342746.562,129.83963
1425342746.577,116.96213
1425342746.593,99.16724
1425342746.608,78.03171
1425342746.624,55.711914
1425342746.64,34.19864
1425342746.655,14.72644
1425342746.671,-2.3510132
1425342746.687,-17.277954
1425342746.702,-30.372192
1425342746.718,-41.624207
1425342746.733,-50.67044
1425342746.749,-57.114685
1425342746.765,-60.93637
1425342746.78,-62.65857
1425342746.796,-63.165863
1425342746.812,-63.323914
1425342746.827,-63.5618
1425342746.843,-63.879303
1425342746.858,-64.074036
1425342746.874,-64.055695
1425342746.89,-63.87137
1425342746.905,-63.599213
1425342746.921,-63.22171
1425342746.937,-62.646667
1425342746.952,-61.937225
1425342746.968,-61.55693
1425342746.983,-62.176834
1425342746.999,-64.33966
1425342747.015,-67.85394
1425342747.03,-71.77278
1425342747.046,-74.61139
1425342747.062,-75.21762
1425342747.077,-73.33705
1425342747.093,-69.571106
1425342747.108,-64.68068
1425342747.124,-58.790115
1425342747.14,-51.23816
1425342747.155,-41.22647
1425342747.171,-28.877884
1425342747.187,-15.852005
1425342747.202,-4.8991394
1425342747.218,1.4575348
1425342747.233,2.3663025
1425342747.249,-0.86602783
1425342747.265,-5.389618
1425342747.28,-8.324585
1425342747.296,-8.046799
1425342747.312,-4.69471
1425342747.327,0.6043167
1425342747.343,6.6909866
1425342747.358,13.114288
1425342747.374,19.867592
1425342747.39,26.72509
1425342747.405,32.551514
1425342747.421,35.432747
1425342747.437,33.464897
1425342747.452,25.825409
1425342747.468,13.183815
1425342747.483,-2.406456
1425342747.499,-18.389824
1425342747.515,-32.59134
1425342747.53,-43.96782
1425342747.546,-52.541992
1425342747.562,-59.083046
1425342747.577,-64.532265
1425342747.593,-69.55034
1425342747.608,-74.253235
1425342747.624,-78.29414
1425342747.64,-81.00951
1425342747.655,-81.8091
1425342747.671,-80.47661
1425342747.687,-77.43393
1425342747.702,-73.67706
1425342747.718,-70.55824
1425342747.733,-69.28686
1425342747.749,-70.46395
1425342747.765,-73.81828
1425342747.78,-78.35601
1425342747.796,-82.86953
1425342747.812,-86.47352
1425342747.827,-88.97634
1425342747.843,-90.90348
1425342747.858,-93.25992
1425342747.874,-97.168755
1425342747.89,-103.53719
1425342747.905,-112.912544
1425342747.921,-125.13971
1425342747.937,-139.17532
1425342747.952,-152.78256
1425342747.968,-162.73116
1425342747.984,-165.46056
1425342747.999,-158.16446
1425342748.015,-139.84523
1425342748.03,-111.74955
1425342748.046,-76.786255
1425342748.062,-38.429016
1425342748.077,0.40579224
1425342748.093,37.898773
1425342748.108,73.02835
1425342748.124,104.98236
1425342748.14,132.71878
1425342748.155,155.14218
1425342748.171,171.67072
1425342748.187,182.7659
1425342748.202,190.0364
1425342748.218,195.57362
1425342748.234,201.07774
1425342748.249,207.07646
1425342748.265,212.76906
1425342748.28,216.47144
1425342748.296,216.36844
1425342748.312,211.16383
1425342748.327,200.4654
1425342748.343,184.77226
1425342748.359,165.2509
1425342748.374,143.42549
1425342748.39,120.88295
1425342748.405,99.01048
1425342748.421,78.90799
1425342748.437,61.292267
1425342748.452,46.50328
1425342748.468,34.51439
1425342748.484,25.02826
1425342748.499,17.60109
1425342748.515,11.808197
1425342748.53,7.3266754
1425342748.546,4.057678
1425342748.562,1.8706818
1425342748.577,0.5213318
1425342748.593,-0.55729675
1425342748.609,-2.2251892
1425342748.624,-5.375183
1425342748.64,-10.481842
1425342748.655,-17.278214
1425342748.671,-24.899963
1425342748.687,-32.345642
1425342748.702,-39.07727
1425342748.718,-45.271347
1425342748.734,-51.73317
1425342748.749,-59.444336
1425342748.765,-69.25864
1425342748.78,-81.961395
1425342748.796,-98.46704
1425342748.812,-119.91565
1425342748.827,-147.13548
1425342748.843,-179.78148
1425342748.859,-215.53148
1425342748.874,-250.16698
1425342748.89,-278.55676
1425342748.905,-296.4051
1425342748.921,-301.63953
1425342748.937,-294.9655
1425342748.952,-279.22174
1425342748.968,-257.90088
1425342748.984,-233.62648
1425342748.999,-207.42102
1425342749.015,-179.07762
1425342749.03,-148.39601
1425342749.046,-116.374466
1425342749.062,-85.82472
1425342749.077,-60.561783
1425342749.093,-43.702423
1425342749.109,-35.85916
1425342749.124,-34.485992
1425342749.14,-34.90988
1425342749.155,-32.610504
1425342749.171,-25.452148
1425342749.187,-14.547058
1425342749.202,-3.217163
1425342749.218,5.338562
1425342749.234,10.061432
1425342749.249,12.554749
1425342749.265,15.915436
1425342749.28,22.635468
1425342749.296,33.151855
1425342749.312,45.793274
1425342749.327,58.012726
1425342749.343,67.91104
1425342749.359,75.1221
1425342749.374,80.58624
1425342749.39,85.67572
1425342749.405,91.19812
1425342749.421,97.05914
1425342749.437,102.506744
1425342749.452,106.79852
1425342749.468,109.611206
1425342749.484,111.1806
1425342749.499,112.05426
1425342749.515,112.79736
1425342749.53,113.79199
1425342749.546,115.166626
1425342749.562,116.88721
1425342749.577,118.81787
1425342749.593,120.742676
1425342749.609,122.42468
1425342749.624,123.651245
1425342749.64,124.27582
1425342749.655,124.332825
1425342749.671,124.02295
1425342749.687,123.62152
1425342749.702,123.39685
1425342749.718,123.43475
1425342749.734,123.62714
1425342749.749,123.70947
1425342749.765,123.41693
1425342749.78,122.57233
1425342749.796,121.160645
1425342749.812,119.27515
1425342749.827,117.03009
1425342749.843,114.562744
1425342749.859,112.08893
1425342749.874,109.960144
1425342749.89,108.70587
1425342749.905,108.9057
1425342749.921,110.927185
1425342749.937,114.48334
1425342749.952,118.57898
1425342749.968,121.55823
1425342749.984,121.51605
1425342749.999,116.85382
1425342750.015,106.8858
1425342750.03,91.9256
1425342750.046,73.297424
1425342750.062,52.816162
1425342750.077,32.39911
1425342750.093,13.609802
1425342750.109,-2.5437622
1425342750.124,-15.662109
1425342750.14,-25.816345
1425342750.155,-33.335022
1425342750.171,-38.62207
1425342750.187,-42.063965
1425342750.202,-43.94098
1425342750.218,-44.58383
1425342750.234,-44.408356
1425342750.249,-43.901855
1425342750.265,-43.5903
1425342750.28,-43.853546
1425342750.296,-44.847168
1425342750.312,-46.54547
1425342750.327,-48.798218
1425342750.343,-51.49359
1425342750.359,-54.585754
1425342750.374,-58.032867
1425342750.39,-61.654022
1425342750.405,-65.10315
1425342750.421,-67.8479
1425342750.437,-69.36429
1425342750.452,-69.274994
1425342750.468,-67.43494
1425342750.484,-63.90164
1425342750.499,-58.96048
1425342750.515,-52.987946
1425342750.53,-46.407837
1425342750.546,-39.611908
1425342750.562,-32.87494
1425342750.577,-26.264435
1425342750.593,-19.631042
1425342750.609,-12.645447
1425342750.624,-5.04187
1425342750.64,3.2519226
1425342750.655,11.979858
1425342750.671,20.660522
1425342750.687,28.717072
1425342750.702,35.756744
1425342750.718,41.739746
1425342750.734,46.97403
1425342750.749,51.97525
1425342750.765,57.275543
1425342750.78,63.18579
1425342750.796,69.63791
1425342750.812,76.072205
1425342750.827,81.523895
1425342750.843,84.69339
1425342750.859,84.2753
1425342750.874,79.24199
1425342750.89,69.28102
1425342750.906,54.935196
1425342750.921,37.590637
1425342750.937,19.201996
1425342750.952,1.722168
1425342750.968,-13.373749
1425342750.984,-25.324677
1425342750.999,-34.0972
1425342751.015,-40.14995
1425342751.031,-44.054916
1425342751.046,-46.347763
1425342751.062,-47.44545
1425342751.077,-47.793823
1425342751.093,-47.907593
1425342751.109,-48.296204
1425342751.124,-49.393356
1425342751.14,-51.375946
1425342751.156,-54.265854
1425342751.171,-58.002403
1425342751.187,-62.602005
1425342751.202,-68.09656
1425342751.218,-74.39422
1425342751.234,-80.951004
1425342751.249,-86.72759
1425342751.265,-90.31138
1425342751.281,-90.35125
1425342751.296,-86.0486
1425342751.312,-77.50671
1425342751.327,-65.675064
1425342751.343,-52.06494
1425342751.359,-38.157784
1425342751.374,-25.113476
1425342751.39,-13.45607
1425342751.406,-3.2053375
1425342751.421,5.9045715
1425342751.437,14.150394
1425342751.452,21.680298
1425342751.468,28.409512
1425342751.484,34.181435
1425342751.499,38.861794
1425342751.515,42.480286
1425342751.531,45.25192
1425342751.546,47.53476
1425342751.562,49.77261
1425342751.577,52.409973
1425342751.593,55.85074
1425342751.609,60.379158
1425342751.624,66.00142
1425342751.64,72.324066
1425342751.656,78.39891
1425342751.671,82.86505
1425342751.687,84.180046
1425342751.702,81.1125
1425342751.718,73.09755
1425342751.734,60.51869
1425342751.749,44.522068
1425342751.765,26.730644
1425342751.781,8.81712
1425342751.796,-7.8156853
1425342751.812,-22.132912
1425342751.827,-33.456726
1425342751.843,-41.413086
1425342751.859,-45.939957
1425342751.874,-47.379723
1425342751.89,-46.426445
1425342751.906,-44.02221
1425342751.921,-41.089066
1425342751.937,-38.23783
1425342751.952,-35.605698
1425342751.968,-33.04474
1425342751.984,-30.358849
1425342751.999,-27.67324
1425342752.015,-25.44806
1425342752.031,-24.315155
1425342752.046,-24.666107
1425342752.062,-26.429474
1425342752.077,-28.995895
1425342752.093,-31.580536
1425342752.109,-33.564346
1425342752.124,-34.715607
1425342752.14,-35.05394
1425342752.156,-34.752075
1425342752.171,-33.938187
1425342752.187,-32.843674
1425342752.202,-32.124924
1425342752.218,-32.897507
1425342752.234,-36.3179
1425342752.249,-42.915787
1425342752.265,-52.05304
1425342752.281,-62.0773
1425342752.296,-71.059326
1425342752.312,-77.90892
1425342752.327,-82.76874
1425342752.343,-86.85344
1425342752.359,-91.3351
1425342752.374,-96.46504
1425342752.39,-101.204865
1425342752.406,-103.80969
1425342752.421,-102.88281
1425342752.437,-98.096954
1425342752.452,-90.232574
1425342752.468,-80.691956
1425342752.484,-70.80301
1425342752.499,-61.577927
1425342752.515,-53.778183
1425342752.531,-48.134766
1425342752.546,-45.31317
1425342752.562,-45.765778
1425342752.577,-49.243256
1425342752.593,-54.785812
1425342752.609,-61.016907
1425342752.624,-66.74968
1425342752.64,-71.37117
1425342752.656,-75.34335
1425342752.671,-79.89043
1425342752.687,-86.39544
1425342752.702,-95.45818
1425342752.718,-106.19778
1425342752.734,-116.153046
1425342752.749,-122.20691
1425342752.765,-121.93867
1425342752.781,-114.90403
1425342752.796,-102.97628
1425342752.812,-89.74392
1425342752.827,-78.89122
1425342752.843,-72.8931
1425342752.859,-72.221725
1425342752.874,-75.591125
1425342752.89,-80.61235
1425342752.906,-84.405525
1425342752.921,-83.95269
1425342752.937,-76.310486
1425342752.952,-59.007896
1425342752.968,-30.927795
1425342752.984,6.845661
1425342752.999,50.742046
1425342753.015,95.54738
1425342753.031,136.1014
1425342753.046,169.30647
1425342753.062,194.72635
1425342753.077,214.10977
1425342753.093,229.55225
1425342753.109,241.79301
1425342753.124,249.3902
1425342753.14,249.54105
1425342753.156,239.6864
1425342753.171,219.20164
1425342753.187,190.11899
1425342753.202,156.63109
1425342753.218,123.854935
1425342753.234,96.340805
1425342753.249,77.17682
1425342753.265,67.61278
1425342753.281,67.14508
1425342753.296,73.87343
1425342753.312,84.71988
1425342753.327,95.83974
1425342753.343,103.164154
1425342753.359,103.348785
1425342753.374,94.740005
1425342753.39,77.97102
1425342753.406,55.75589
1425342753.421,31.980835
1425342753.437,10.272827
1425342753.452,-7.294861
1425342753.468,-20.741714
1425342753.484,-31.907883
1425342753.499,-43.464188
1425342753.515,-57.69934
1425342753.531,-75.73605
1425342753.546,-97.12218
1425342753.562,-119.93689
1425342753.578,-140.9932
1425342753.593,-156.42815
1425342753.609,-162.50665
1425342753.624,-156.7972
1425342753.64,-139.15285
1425342753.656,-112.12276
1425342753.671,-80.33151
1425342753.687,-48.912857
1425342753.703,-21.846848
1425342753.718,-0.9389801
1425342753.734,14.005157
1425342753.749,24.235886
1425342753.765,31.134796
1425342753.781,35.62047
1425342753.796,38.37677
1425342753.812,40.272736
1425342753.828,42.602036
1425342753.843,46.760162
1425342753.859,53.62018
1425342753.874,63.127182
1425342753.89,74.23067
1425342753.906,85.40755
1425342753.921,95.28693
1425342753.937,103.22336
1425342753.953,109.41025
1425342753.968,114.71146
1425342753.984,120.21399
1425342753.999,126.77937
1425342754.015,134.77937
1425342754.031,143.88266
1425342754.046,153.04083
1425342754.062,160.68126
1425342754.078,164.938
1425342754.093,164.10323
1425342754.109,157.1793
1425342754.124,144.14363
1425342754.14,126.03165
1425342754.156,104.60878
1425342754.171,81.908005
1425342754.187,59.664658
1425342754.203,39.079437
1425342754.218,20.751099
1425342754.234,4.8872986
1425342754.249,-8.408783
1425342754.265,-19.034409
1425342754.281,-26.865234
1425342754.296,-31.878403
1425342754.312,-34.343292
1425342754.328,-34.79531
1425342754.343,-34.017914
1425342754.359,-32.8414
1425342754.374,-31.930115
1425342754.39,-31.647568
1425342754.406,-32.023567
1425342754.421,-32.84195
1425342754.437,-33.848053
1425342754.453,-34.842644
1425342754.468,-35.751457
1425342754.484,-36.581528
1425342754.499,-37.32139
1425342754.515,-37.92273
1425342754.531,-38.253845
1425342754.546,-38.196445
1425342754.562,-37.664024
1425342754.578,-36.601585
1425342754.593,-34.98586
1425342754.609,-32.76699
1425342754.624,-29.93136
1425342754.64,-26.502995
1425342754.656,-22.58731
1425342754.671,-18.337929
1425342754.687,-13.922894
1425342754.703,-9.389809
1425342754.718,-4.627243
1425342754.734,0.6695633
1425342754.749,6.988411
1425342754.765,14.905853
1425342754.781,24.876015
1425342754.796,36.934853
1425342754.812,50.419846
1425342754.828,63.8619
1425342754.843,75.153366
1425342754.859,82.099014
1425342754.874,83.05229
1425342754.89,77.562515
1425342754.906,66.55931
1425342754.921,52.092316
1425342754.937,36.661957
1425342754.953,22.458984
1425342754.968,10.77858
1425342754.984,1.8741608
1425342754.999,-4.737854
1425342755.015,-9.824432
1425342755.031,-13.922379
1425342755.046,-17.137619
1425342755.062,-19.183472
1425342755.078,-19.608383
1425342755.093,-18.138962
1425342755.109,-14.837494
1425342755.124,-10.184326
1425342755.14,-4.986023
1425342755.156,-0.418396
1425342755.171,2.229004
1425342755.187,1.6660156
1425342755.203,-2.9566345
1425342755.218,-11.625641
1425342755.234,-23.124786
1425342755.249,-35.27774
1425342755.265,-45.697113
1425342755.281,-52.903473
1425342755.296,-57.07251
1425342755.312,-59.979156
1425342755.328,-63.99582
1425342755.343,-70.6022
1425342755.359,-79.32999
1425342755.374,-87.80148
1425342755.39,-92.813354
1425342755.406,-91.95056
1425342755.421,-84.684265
1425342755.437,-72.53406
1425342755.453,-58.276306
1425342755.468,-45.000427
1425342755.484,-35.342926
1425342755.499,-31.358154
1425342755.515,-34.50641
1425342755.531,-45.464508
1425342755.546,-63.715576
1425342755.562,-87.05643
1425342755.578,-111.68271
1425342755.593,-132.96487
1425342755.609,-146.81674
1425342755.624,-150.93805
1425342755.64,-145.2962
1425342755.656,-131.8844
1425342755.671,-113.53516
1425342755.687,-92.87021
1425342755.703,-71.70187
1425342755.718,-51.445892
1425342755.734,-33.71637
1425342755.749,-20.980072
1425342755.765,-16.223633
1425342755.781,-21.884766
1425342755.796,-38.49344
1425342755.812,-63.729126
1425342755.828,-92.72543
1425342755.843,-119.335815
1425342755.859,-138.02704
1425342755.874,-145.43759
1425342755.89,-141.02359
1425342755.906,-126.713715
1425342755.921,-105.76959
1425342755.937,-81.67261
1425342755.953,-57.155304
1425342755.968,-34.014465
1425342755.984,-13.152435
1425342755.999,4.9953613
1425342756.015,20.201782
1425342756.031,32.259583
1425342756.046,41.14508
1425342756.062,47.22592
1425342756.078,51.232697
1425342756.093,53.938995
1425342756.109,55.754333
1425342756.124,56.552032
1425342756.14,56.038513
1425342756.156,54.371124
1425342756.171,52.584625
1425342756.187,52.443848
1425342756.203,55.620483
1425342756.218,62.615112
1425342756.234,72.44089
1425342756.25,82.89551
1425342756.265,91.71338
1425342756.281,97.56979
1425342756.296,100.57062
1425342756.312,101.86325
1425342756.328,102.821075
1425342756.343,104.43555
1425342756.359,107.02966
1425342756.374,110.47629
1425342756.39,114.447815
1425342756.406,118.41791
1425342756.421,121.50894
1425342756.437,122.41281
1425342756.453,119.723175
1425342756.468,112.2944
1425342756.484,99.83118
1425342756.5,82.93198
1425342756.515,63.039673
1425342756.531,41.962036
1425342756.546,21.44574
1425342756.562,2.8504944
1425342756.578,-12.932617
1425342756.593,-25.465042
1425342756.609,-34.685486
1425342756.625,-40.794373
1425342756.64,-44.10019
1425342756.656,-44.873627
1425342756.671,-43.464417
1425342756.687,-40.45752
1425342756.703,-36.908203
1425342756.718,-34.24942
1425342756.734,-33.876465
1425342756.75,-36.622803
1425342756.765,-42.200134
1425342756.781,-49.299652
1425342756.796,-56.032013
1425342756.812,-60.785034
1425342756.828,-62.86139
1425342756.843,-62.529938
1425342756.859,-60.638306
1425342756.875,-58.033844
1425342756.89,-55.138123
1425342756.906,-51.88687
1425342756.921,-48.083374
1425342756.937,-43.712494
1425342756.953,-39.09369
1425342756.968,-34.75418
1425342756.984,-31.042725
1425342757,-27.90335
1425342757.015,-24.802307
1425342757.031,-20.963318
1425342757.046,-15.6996765
1425342757.062,-8.93808
1425342757.078,-1.2834473
1425342757.093,6.130432
1425342757.109,12.231903
1425342757.125,16.523499
1425342757.14,19.43518
1425342757.156,22.165314
1425342757.171,26.15512
1425342757.187,32.47589
1425342757.203,41.331512
1425342757.218,51.930542
1425342757.234,62.692596
1425342757.25,71.71838
1425342757.265,77.222046
1425342757.281,77.94501
1425342757.296,73.39171
1425342757.312,63.90947
1425342757.328,50.563843
1425342757.343,34.850616
1425342757.359,18.440765
1425342757.375,2.789734
1425342757.39,-11.024811
1425342757.406,-22.372131
1425342757.421,-31.039886
1425342757.437,-37.102814
1425342757.453,-40.849457
1425342757.468,-42.645615
1425342757.484,-42.891266
1425342757.5,-41.955368
1425342757.515,-40.18753
1425342757.531,-37.941345
1425342757.546,-35.597916
1425342757.562,-33.49324
1425342757.578,-31.884506
1425342757.593,-30.868073
1425342757.609,-30.396896
1425342757.625,-30.386948
1425342757.64,-30.782959
1425342757.656,-31.59111
1425342757.671,-32.782608
1425342757.687,-34.196396
1425342757.703,-35.470886
1425342757.718,-36.093475
1425342757.734,-35.58423
1425342757.75,-33.702576
1425342757.765,-30.538788
1425342757.781,-26.477097
1425342757.796,-22.013885
1425342757.812,-17.555466
1425342757.828,-13.228149
1425342757.843,-8.932129
1425342757.859,-4.416565
1425342757.875,0.497406
1425342757.89,5.7935944
1425342757.906,11.248413
1425342757.921,16.546417
1425342757.937,21.440125
1425342757.953,25.905853
1425342757.968,30.150192
1425342757.984,34.566788
1425342758,39.589737
1425342758.015,45.573593
1425342758.031,52.68799
1425342758.046,60.78691
1425342758.062,69.33429
1425342758.078,77.35837
1425342758.093,83.476944
1425342758.109,86.22632
1425342758.125,84.44646
1425342758.14,77.734375
1425342758.156,66.62599
1425342758.171,52.51837
1425342758.187,37.188263
1425342758.203,22.32515
1425342758.218,9.066101
1425342758.234,-2.125183
1425342758.25,-11.325836
1425342758.265,-18.872498
1425342758.281,-25.083786
1425342758.296,-30.082794
1425342758.312,-33.861725
1425342758.328,-36.336105
1425342758.343,-37.47377
1425342758.359,-37.362366
1425342758.375,-36.327637
1425342758.39,-34.914566
1425342758.406,-33.874542
1425342758.421,-34.083603
1425342758.437,-36.257874
1425342758.453,-40.67894
1425342758.468,-47.02243
1425342758.484,-54.326508
1425342758.5,-61.238815
1425342758.515,-66.32588
1425342758.531,-68.46979
1425342758.546,-67.13068
1425342758.562,-62.435425
1425342758.578,-55.082382
1425342758.593,-46.154892
1425342758.609,-36.84439
1425342758.625,-28.2191
1425342758.64,-20.926239
1425342758.656,-15.104034
1425342758.671,-10.301743
1425342758.687,-5.755066
1425342758.703,-0.61460876
1425342758.718,5.649536
1425342758.734,13.091629
1425342758.75,21.226807
1425342758.765,29.29393
1425342758.781,36.493866
1425342758.796,42.309692
1425342758.812,46.64247
1425342758.828,49.842896
1425342758.843,52.56865
1425342758.859,55.630127
1425342758.875,59.70523
1425342758.89,65.13983
1425342758.906,71.70569
1425342758.922,78.47121
1425342758.937,83.94519
1425342758.953,86.31339
1425342758.968,84.02148
1425342758.984,76.22477
1425342759,63.130135
1425342759.015,46.042458
1425342759.031,26.982887
1425342759.046,8.212975
1425342759.062,-8.352882
1425342759.078,-21.471848
1425342759.093,-30.737503
1425342759.109,-36.34874
1425342759.125,-38.864494
1425342759.14,-38.9824
1425342759.156,-37.49153
1425342759.172,-35.369255
1425342759.187,-33.9106
1425342759.203,-34.664383
1425342759.218,-39.026352
1425342759.234,-47.639862
1425342759.25,-59.88507
1425342759.265,-73.75714
1425342759.281,-86.38217
1425342759.297,-94.94651
1425342759.312,-97.69917
1425342759.328,-94.42939
1425342759.343,-86.33294
1425342759.359,-75.28664
1425342759.375,-63.01233
1425342759.39,-50.454918
1425342759.406,-37.81321
1425342759.422,-24.87674
1425342759.437,-11.566315
1425342759.453,1.7351837
1425342759.468,14.18808
1425342759.484,24.739288
1425342759.5,32.58846
1425342759.515,37.42229
1425342759.531,39.583263
1425342759.547,39.933704
1425342759.562,39.541042
1425342759.578,39.32857
1425342759.593,39.70248
1425342759.609,40.44705
1425342759.625,40.765244
1425342759.64,39.61692
1425342759.656,35.90381
1425342759.672,28.823357
1425342759.687,17.917543
1425342759.703,3.2253149
1425342759.718,-14.739148
1425342759.734,-34.925644
1425342759.75,-56.006744
1425342759.765,-76.751434
1425342759.781,-96.508446
1425342759.797,-115.569954
1425342759.812,-135.10922
1425342759.828,-156.66342
1425342759.843,-181.2236
1425342759.859,-208.39769
1425342759.875,-236.03996
1425342759.89,-260.60577
1425342759.906,-278.1209
1425342759.922,-285.3697
1425342759.937,-280.8569
1425342759.953,-265.0075
1425342759.968,-239.77232
1425342759.984,-207.65494
1425342760,-170.72145
1425342760.015,-130.10318
1425342760.031,-86.27557
1425342760.047,-40.072647
1425342760.062,6.2794647
1425342760.078,48.851715
1425342760.093,82.82855
1425342760.109,104.211395
1425342760.125,111.65149
1425342760.14,107.29538
1425342760.156,96.09271
1425342760.172,83.98358
1425342760.187,75.728424
1425342760.203,73.55325
1425342760.218,77.0582
1425342760.234,84.2879
1425342760.25,93.10391
1425342760.265,102.15674
1425342760.281,111.00543
1425342760.297,119.68527
1425342760.312,128.06577
1425342760.328,135.60568
1425342760.343,141.54846
1425342760.359,145.3472
1425342760.375,147.06403
1425342760.39,147.41754
1425342760.406,147.54865
1425342760.422,148.46204
1425342760.437,150.64578
1425342760.453,153.85913
1425342760.468,157.34918
1425342760.484,160.25269
1425342760.5,161.96771
1425342760.515,162.28888
1425342760.531,161.2041
1425342760.547,158.5495
1425342760.562,153.79413
1425342760.578,146.16278
1425342760.593,135.05725
1425342760.609,120.48248
1425342760.625,103.244934
1425342760.64,84.798035
1425342760.656,66.78546
1425342760.672,50.64746
1425342760.687,37.298157
1425342760.703,27.039795
1425342760.718,19.69751
1425342760.734,14.743408
1425342760.75,11.492676
1425342760.765,9.283447
1425342760.781,7.638733
1425342760.797,6.3237305
1425342760.812,5.329956
1425342760.828,4.7036743
1425342760.843,4.3704224
1425342760.859,4.0700073
1425342760.875,3.4943237
1425342760.89,2.4519653
1425342760.906,0.9735718
1425342760.922,-0.6972046
1425342760.937,-2.3863525
1425342760.953,-4.0543823
1425342760.968,-5.824341
1425342760.984,-7.802124
1425342761,-9.9122925
1425342761.015,-11.791077
1425342761.031,-12.934998
1425342761.047,-12.952148
1425342761.062,-11.738342
1425342761.078,-9.522522
1425342761.093,-6.772766
1425342761.109,-3.9118042
1425342761.125,-1.1601563
1425342761.14,1.5289917
1425342761.156,4.401428
1425342761.172,7.737732
1425342761.187,11.706665
1425342761.203,16.253601
1425342761.218,21.110046
1425342761.234,25.914673
1425342761.25,30.361633
1425342761.265,34.349487
1425342761.281,37.912292
1425342761.297,41.29013
1425342761.312,44.75711
1425342761.328,48.661224
1425342761.343,53.356537
1425342761.359,59.14322
1425342761.375,66.09198
1425342761.39,73.83157
1425342761.406,81.3183
1425342761.422,86.96872
1425342761.437,88.986084
1425342761.453,85.97519
1425342761.468,77.411316
1425342761.484,63.94922
1425342761.5,47.210815
1425342761.515,29.277863
1425342761.531,12.104309
1425342761.547,-2.916504
1425342761.562,-15.169586
1425342761.578,-24.618805
1425342761.593,-31.598785
1425342761.609,-36.473694
1425342761.625,-39.524597
1425342761.64,-40.91638
1425342761.656,-40.813873
1425342761.672,-39.43631
1425342761.687,-37.19754
1425342761.703,-34.63678
1425342761.718,-32.368774
1425342761.734,-30.899567
1425342761.75,-30.563965
1425342761.765,-31.420013
1425342761.781,-33.35013
1425342761.797,-36.05536
1425342761.812,-39.248505
1425342761.828,-42.587128
1425342761.844,-45.776733
1425342761.859,-48.45337
1425342761.875,-50.356537
1425342761.89,-51.245636
1425342761.906,-50.98114
1425342761.922,-49.558258
1425342761.937,-47.091614
1425342761.953,-43.69159
1425342761.969,-39.5159
1425342761.984,-34.655487
1425342762,-29.22342
1425342762.015,-23.36441
1425342762.031,-17.335388
1425342762.047,-11.416641
1425342762.062,-5.843979
1425342762.078,-0.690979
1425342762.094,4.116989
1425342762.109,8.796219
1425342762.125,13.535599
1425342762.14,18.364517
1425342762.156,23.11148
1425342762.172,27.481506
1425342762.187,31.211487
1425342762.203,34.23526
1425342762.219,36.741974
1425342762.234,39.176468
1425342762.25,42.125
1425342762.265,46.146194
1425342762.281,51.574905
1425342762.297,58.361465
1425342762.312,65.87221
1425342762.328,72.90428
1425342762.344,77.87796
1425342762.359,79.237976
1425342762.375,75.851715
1425342762.39,67.3712
1425342762.406,54.37587
1425342762.422,38.19464
1425342762.437,20.54277
1425342762.453,3.119072
1425342762.469,-12.718185
1425342762.484,-26.09124
1425342762.5,-36.62648
1425342762.515,-44.31562
1425342762.531,-49.35974
1425342762.547,-52.095856
1425342762.562,-52.92193
1425342762.578,-52.294228
1425342762.594,-50.76423
1425342762.609,-48.983788
1425342762.625,-47.54284
1425342762.64,-46.86149
1425342762.656,-46.994835
1425342762.672,-47.68726
1425342762.687,-48.50634
1425342762.703,-49.10251
1425342762.719,-49.397488
1425342762.734,-49.57028
1425342762.75,-49.874416
1425342762.765,-50.388794
1425342762.781,-50.901997
1425342762.797,-50.942245
1425342762.812,-49.956978
1425342762.828,-47.522255
1425342762.844,-43.52536
1425342762.859,-38.123394
1425342762.875,-31.739754
1425342762.89,-24.98445
1425342762.906,-18.500948
1425342762.922,-12.859967
1425342762.937,-8.37747
1425342762.953,-4.9735336
1425342762.969,-2.18124
1425342762.984,0.68379784
1425342763,4.201248
1425342763.015,8.564135
1425342763.031,13.561329
1425342763.047,18.6525
1425342763.062,23.245789
1425342763.078,26.9856
1425342763.094,29.928223
1425342763.109,32.483772
1425342763.125,35.33847
1425342763.14,39.162357
1425342763.156,44.34428
1425342763.172,50.76363
1425342763.187,57.58171
1425342763.203,63.35656
1425342763.219,66.32636
1425342763.234,64.79844
1425342763.25,57.75019
1425342763.265,45.12185
1425342763.281,27.942955
1425342763.297,8.059517
1425342763.312,-12.28788
1425342763.328,-30.945389
1425342763.344,-46.30654
1425342763.359,-57.57258
1425342763.375,-64.768845
1425342763.39,-68.53489
1425342763.406,-69.74481
1425342763.422,-69.21148
1425342763.437,-67.49466
1425342763.453,-65.01779
1425342763.469,-62.303345
1425342763.484,-60.032875
1425342763.5,-58.986946
1425342763.515,-59.59668
1425342763.531,-61.596107
1425342763.547,-63.916817
1425342763.562,-65.11139
1425342763.578,-64.1062
1425342763.594,-60.91394
1425342763.609,-56.83342
1425342763.625,-53.88321
1425342763.64,-53.798424
1425342763.656,-57.0502
1425342763.672,-62.457794
1425342763.687,-67.69492
1425342763.703,-70.22313
1425342763.719,-68.36847
1425342763.734,-61.803192
1425342763.75,-51.49195
1425342763.765,-39.33204
1425342763.781,-27.806885
1425342763.797,-19.758423
1425342763.812,-17.941391
1425342763.828,-24.264229
1425342763.844,-38.707024
1425342763.859,-58.54312
1425342763.875,-78.66377
1425342763.89,-93.03422
1425342763.906,-96.88611
1425342763.922,-88.521126
1425342763.937,-69.73399
1425342763.953,-44.699074
1425342763.969,-17.988693
1425342763.984,7.2255936
1425342764,29.806114
1425342764.015,50.144325
1425342764.031,69.08145
1425342764.047,87.00093
1425342764.062,103.59497
1425342764.078,118.16199
1425342764.094,130.0007
1425342764.109,138.5643
1425342764.125,143.41814
1425342764.14,144.04718
1425342764.156,139.98123
1425342764.172,131.03403
1425342764.187,117.59975
1425342764.203,100.83325
1425342764.219,82.45213
1425342764.234,64.42335
1425342764.25,48.436493
1425342764.265,35.58564
1425342764.281,26.194695
1425342764.297,19.855705
1425342764.312,15.680794
1425342764.328,12.660442
1425342764.344,9.912109
1425342764.359,6.9052734
1425342764.375,3.4150429
1425342764.39,-0.51911545
1425342764.406,-4.713497
1425342764.422,-8.894081
1425342764.437,-12.774204
1425342764.453,-16.088982
1425342764.469,-18.78014
1425342764.484,-20.93983
1425342764.5,-22.850876
1425342764.516,-24.80885
1425342764.531,-26.89951
1425342764.547,-28.884632
1425342764.562,-30.193596
1425342764.578,-30.213974
1425342764.594,-28.531155
1425342764.609,-25.218056
1425342764.625,-20.811298
1425342764.641,-16.046757
1425342764.656,-11.501011
1425342764.672,-7.3400536
1425342764.687,-3.261917
1425342764.703,1.2784119
1425342764.719,6.7887115
1425342764.734,13.441666
1425342764.75,20.93335
1425342764.766,28.606155
1425342764.781,35.674965
1425342764.797,41.413345
1425342764.812,45.343796
1425342764.828,47.29207
1425342764.844,47.415466
1425342764.859,46.216614
1425342764.875,44.583687
1425342764.891,43.770348
1425342764.906,45.148598
1425342764.922,49.72972
1425342764.937,57.61055
1425342764.953,67.64075
1425342764.969,77.505714
1425342764.984,84.333824
1425342765,85.581215
1425342765.016,79.89124
1425342765.031,67.47438
1425342765.047,49.92713
1425342765.062,29.674103
1425342765.078,9.153152
1425342765.094,-9.690277
1425342765.109,-25.688004
1425342765.125,-38.388565
1425342765.141,-47.822144
1425342765.156,-54.23552
1425342765.172,-57.913895
1425342765.187,-59.10356
1425342765.203,-58.03131
1425342765.219,-55.066696
1425342765.234,-50.76471
1425342765.25,-45.920105
1425342765.266,-41.378693
1425342765.281,-37.746384
1425342765.297,-35.227478
1425342765.312,-33.60382
1425342765.328,-32.43808
1425342765.344,-31.365875
1425342765.359,-30.326553
1425342765.375,-29.614868
1425342765.391,-29.558212
1425342765.406,-30.26419
1425342765.422,-31.319733
1425342765.437,-31.979599
1425342765.453,-31.349823
1425342765.469,-28.852844
1425342765.484,-24.509796
1425342765.5,-18.940704
1425342765.516,-13.010376
1425342765.531,-7.409912
1425342765.547,-2.470398
1425342765.562,1.7671051
1425342765.578,5.2099457
1425342765.594,7.5485077
1425342765.609,8.249817
1425342765.625,6.907364
1425342765.641,3.5404968
1425342765.656,-1.3394623
1425342765.672,-7.067978
1425342765.687,-13.2973175
1425342765.703,-20.116394
1425342765.719,-28.007858
1425342765.734,-37.274002
1425342765.75,-47.68141
1425342765.766,-58.470856
1425342765.781,-68.78488
1425342765.797,-78.17143
1425342765.812,-86.656815
1425342765.828,-94.31818
1425342765.844,-100.63928
1425342765.859,-104.208374
1425342765.875,-103.117874
1425342765.891,-95.832855
1425342765.906,-82.07092
1425342765.922,-63.15445
1425342765.937,-42.023346
1425342765.953,-22.588913
1425342765.969,-8.941132
1425342765.984,-4.3402557
1425342766,-10.363037
1425342766.016,-26.185211
1425342766.031,-48.533768
1425342766.047,-72.33386
1425342766.062,-92.1467
1425342766.078,-103.768234
1425342766.094,-105.3875
1425342766.109,-97.76503
1425342766.125,-83.446625
1425342766.141,-65.47461
1425342766.156,-46.33403
1425342766.172,-27.541077
1425342766.187,-9.963196
1425342766.203,5.882477
1425342766.219,19.438171
1425342766.234,30.197647
1425342766.25,38.018494
1425342766.266,43.244064
1425342766.281,46.707565
1425342766.297,49.41523
1425342766.312,52.176018
1425342766.328,55.35544
1425342766.344,58.69496
1425342766.359,61.526726
1425342766.375,63.11461
1425342766.391,63.041336
1425342766.406,61.454575
1425342766.422,59.065132
1425342766.437,56.87171
1425342766.453,55.799316
1425342766.469,56.33687
1425342766.484,58.442543
1425342766.5,61.619568
1425342766.516,65.19041
1425342766.531,68.55554
1425342766.547,71.35426
1425342766.562,73.56387
