1427159036.339,0.0
1427159036.355,0.0
1427159036.371,0.0
1427159036.386,0.0
1427159036.402,0.0
1427159036.418,0.0
1427159036.433,0.0
1427159036.449,0.0
1427159036.464,0.0
1427159036.48,0.0022315353
1427159036.496,-0.0045169927
1427159036.511,-0.011265522
1427159036.527,-0.011383951
1427159036.543,0.0011864507
1427159036.558,0.025910312
1427159036.574,0.050634187
1427159036.589,0.051362894
1427159036.605,-0.0014929791
1427159036.621,-0.1302426
1427159036.636,-0.35562757
1427159036.652,-0.6591247
1427159036.668,-1.0095103
1427159036.683,-1.3709826
1427159036.699,-1.7197359
1427159036.714,-2.0551105
1427159036.73,-2.39945
1427159036.746,-2.7866635
1427159036.761,-3.2399073
1427159036.777,-3.796012
1427159036.793,-4.418684
1427159036.808,-5.0592937
1427159036.824,-5.6644096
1427159036.839,-6.2021537
1427159036.855,-6.6808796
1427159036.871,-7.149598
1427159036.886,-7.6782336
1427159036.902,-8.310739
1427159036.918,-9.143657
1427159036.933,-10.089731
1427159036.949,-11.041313
1427159036.964,-11.8842125
1427159036.98,-12.564316
1427159036.996,-13.13563
1427159037.011,-13.760044
1427159037.027,-14.65232
1427159037.043,-15.962056
1427159037.058,-17.914442
1427159037.074,-20.317299
1427159037.089,-22.903854
1427159037.105,-25.37947
1427159037.121,-27.578028
1427159037.136,-29.57246
1427159037.152,-31.675173
1427159037.168,-34.3178
1427159037.183,-37.813618
1427159037.199,-42.541233
1427159037.214,-48.1463
1427159037.23,-54.104755
1427159037.246,-59.83309
1427159037.261,-64.972374
1427159037.277,-69.58293
1427159037.293,-74.14353
1427159037.308,-79.344986
1427159037.324,-85.70726
1427159037.339,-93.76193
1427159037.355,-102.99779
1427159037.371,-112.61757
1427159037.386,-121.73034
1427159037.402,-129.76602
1427159037.418,-136.75102
1427159037.433,-143.30344
1427159037.449,-150.74623
1427159037.464,-157.77356
1427159037.48,-166.64323
1427159037.496,-177.94798
1427159037.511,-191.79102
1427159037.527,-206.96808
1427159037.543,-220.56592
1427159037.558,-228.24644
1427159037.574,-225.36154
1427159037.589,-208.53198
1427159037.605,-176.87024
1427159037.621,-132.76222
1427159037.636,-80.04997
1427159037.652,-23.069275
1427159037.668,34.94339
1427159037.683,92.43695
1427159037.699,149.15695
1427159037.714,205.22772
1427159037.73,260.36963
1427159037.746,313.74133
1427159037.761,363.87396
1427159037.777,409.83353
1427159037.793,450.90775
1427159037.808,486.50244
1427159037.824,515.73865
1427159037.839,537.2274
1427159037.855,549.22
1427159037.871,549.9613
1427159037.886,538.367
1427159037.902,514.2055
1427159037.918,478.674
1427159037.933,433.87952
1427159037.949,382.45126
1427159037.964,327.02106
1427159037.98,269.84186
1427159037.996,212.63379
1427159038.011,156.65945
1427159038.027,102.95221
1427159038.043,52.373047
1427159038.058,5.903595
1427159038.074,-35.581696
1427159038.089,-71.42645
1427159038.105,-101.35074
1427159038.121,-125.49811
1427159038.136,-144.37656
1427159038.152,-158.69472
1427159038.168,-169.15964
1427159038.183,-176.38939
1427159038.199,-180.77345
1427159038.214,-182.58644
1427159038.23,-182.05237
1427159038.246,-179.44434
1427159038.261,-175.11542
1427159038.277,-169.4816
1427159038.293,-162.96404
1427159038.308,-155.90623
1427159038.324,-148.55006
1427159038.34,-141.02109
1427159038.355,-133.38242
1427159038.371,-125.66356
1427159038.386,-117.915924
1427159038.402,-110.212036
1427159038.418,-102.635315
1427159038.433,-95.26592
1427159038.449,-88.152016
1427159038.465,-81.3109
1427159038.48,-74.73031
1427159038.496,-68.399574
1427159038.511,-62.30876
1427159038.527,-56.478542
1427159038.543,-50.94666
1427159038.558,-45.756332
1427159038.574,-40.939865
1427159038.59,-36.494694
1427159038.605,-32.382954
1427159038.621,-28.53184
1427159038.636,-24.878918
1427159038.652,-21.3781
1427159038.668,-18.047333
1427159038.683,-14.951187
1427159038.699,-12.177672
1427159038.715,-9.793113
1427159038.73,-7.793892
1427159038.746,-6.093394
1427159038.761,-4.5450153
1427159038.777,-3.0065699
1427159038.793,-1.3984945
1427159038.808,0.24778354
1427159038.824,1.8042352
1427159038.84,3.101993
1427159038.855,4.0324154
1427159038.871,4.608615
1427159038.886,4.9855556
1427159038.902,5.405488
1427159038.918,6.0881605
1427159038.933,7.1277614
1427159038.949,8.427603
1427159038.965,9.7508745
1427159038.98,10.820987
1427159038.996,11.499182
1427159039.011,11.808685
1427159039.027,11.96475
1427159039.043,12.2214575
1427159039.058,12.760469
1427159039.074,13.631681
1427159039.09,14.823356
1427159039.105,16.35906
1427159039.121,18.257534
1427159039.136,20.36054
1427159039.152,22.132177
1427159039.168,22.68712
1427159039.183,21.066286
1427159039.199,16.763697
1427159039.215,10.085791
1427159039.23,2.0987053
1427159039.246,-5.867403
1427159039.261,-12.845121
1427159039.277,-18.596153
1427159039.293,-23.46112
1427159039.308,-27.85175
1427159039.324,-31.741932
1427159039.34,-34.5765
1427159039.355,-35.56789
1427159039.371,-34.32149
1427159039.386,-31.136456
1427159039.402,-26.96884
1427159039.418,-22.950687
1427159039.433,-19.852812
1427159039.449,-17.8405
1427159039.465,-16.513985
1427159039.48,-15.313551
1427159039.496,-13.800774
1427159039.511,-11.919846
1427159039.527,-9.942078
1427159039.543,-8.2705
1427159039.558,-7.223217
1427159039.574,-6.8625183
1427159039.59,-6.9727554
1427159039.605,-7.131344
1427159039.621,-6.9555206
1427159039.636,-6.222431
1427159039.652,-5.002056
1427159039.668,-3.5448532
1427159039.683,-2.177494
1427159039.699,-1.119957
1427159039.715,-0.4464569
1427159039.73,-0.060123444
1427159039.746,0.2151146
1427159039.761,0.5740013
1427159039.777,1.1519737
1427159039.793,2.002861
1427159039.808,3.0477028
1427159039.824,4.112545
1427159039.84,4.950142
1427159039.855,5.3939705
1427159039.871,5.3410225
1427159039.886,4.8965645
1427159039.902,4.2829933
1427159039.918,3.8160248
1427159039.933,3.7192726
1427159039.949,4.074627
1427159039.965,4.741127
1427159039.98,5.444771
1427159039.996,5.8719177
1427159040.011,5.831421
1427159040.027,5.327862
1427159040.043,4.555357
1427159040.058,3.8145638
1427159040.074,3.393177
1427159040.09,3.4850044
1427159040.105,4.156708
1427159040.121,5.342396
1427159040.136,6.860203
1427159040.152,8.297527
1427159040.168,9.077351
1427159040.183,8.52496
1427159040.199,6.189211
1427159040.215,2.0936012
1427159040.23,-3.0563316
1427159040.246,-8.09931
1427159040.261,-11.810364
1427159040.277,-13.45315
1427159040.293,-13.026684
1427159040.308,-11.191246
1427159040.324,-8.87154
1427159040.34,-6.7879925
1427159040.355,-5.1661396
1427159040.371,-3.8269691
1427159040.386,-2.441557
1427159040.402,-0.8492298
1427159040.418,0.8125076
1427159040.433,2.2016392
1427159040.449,3.022768
1427159040.465,3.1866817
1427159040.48,2.9108677
1427159040.496,2.5399132
1427159040.511,2.4133053
1427159040.527,2.6385689
1427159040.543,3.0954666
1427159040.558,3.5668812
1427159040.574,3.8918247
1427159040.59,4.102543
1427159040.605,4.4296227
1427159040.621,5.118145
1427159040.636,6.278139
1427159040.652,7.7325573
1427159040.668,9.080723
1427159040.683,9.871456
1427159040.699,9.814121
1427159040.715,8.894842
1427159040.73,7.390114
1427159040.746,5.6917152
1427159040.761,4.1757164
1427159040.777,3.060831
1427159040.793,2.403139
1427159040.808,2.0324306
1427159040.824,1.6921787
1427159040.84,1.0823116
1427159040.855,-0.035280228
1427159040.871,-1.7292786
1427159040.886,-3.8562813
1427159040.902,-6.097845
1427159040.918,-8.023949
1427159040.933,-9.286839
1427159040.949,-9.722406
1427159040.965,-9.465691
1427159040.98,-8.913307
1427159040.996,-8.706631
1427159041.012,-9.507284
1427159041.027,-11.840786
1427159041.043,-15.767857
1427159041.058,-20.857023
1427159041.074,-26.125399
1427159041.09,-30.441069
1427159041.105,-32.809155
1427159041.121,-32.800835
1427159041.137,-30.630669
1427159041.152,-27.062326
1427159041.168,-22.96033
1427159041.183,-18.964096
1427159041.199,-15.356085
1427159041.215,-11.862673
1427159041.23,-8.216957
1427159041.246,-4.2924614
1427159041.262,-0.23061943
1427159041.277,3.5915623
1427159041.293,6.8084927
1427159041.308,9.169416
1427159041.324,10.712992
1427159041.34,11.616099
1427159041.355,12.199284
1427159041.371,12.649072
1427159041.387,13.052969
1427159041.402,13.346697
1427159041.418,13.461526
1427159041.433,13.325996
1427159041.449,13.00295
1427159041.465,12.611064
1427159041.48,12.289155
1427159041.496,12.133964
1427159041.512,12.119483
1427159041.527,12.135014
1427159041.543,12.07449
1427159041.558,11.823624
1427159041.574,11.389326
1427159041.59,10.804292
1427159041.605,10.173582
1427159041.621,9.565933
1427159041.637,9.070771
1427159041.652,8.708044
1427159041.668,8.503162
1427159041.683,8.480779
1427159041.699,8.608763
1427159041.715,8.776966
1427159041.73,8.820598
1427159041.746,8.589375
1427159041.762,8.029297
1427159041.777,7.2452006
1427159041.793,6.430118
1427159041.808,5.851626
1427159041.824,5.759768
1427159041.84,6.2816687
1427159041.855,7.407158
1427159041.871,8.915148
1427159041.887,10.378885
1427159041.902,11.132155
1427159041.918,10.474001
1427159041.933,7.8225255
1427159041.949,3.1345124
1427159041.965,-2.9805136
1427159041.98,-9.349282
1427159041.996,-14.637539
1427159042.012,-17.843832
1427159042.027,-18.675953
1427159042.043,-17.60832
1427159042.058,-15.56099
1427159042.074,-13.52363
1427159042.09,-12.094017
1427159042.105,-11.348548
1427159042.121,-11.049927
1427159042.137,-10.8902025
1427159042.152,-10.766412
1427159042.168,-10.798064
1427159042.183,-11.2444105
1427159042.199,-11.863449
1427159042.215,-12.594178
1427159042.23,-13.2865
1427159042.246,-13.776254
1427159042.262,-13.990829
1427159042.277,-13.98432
1427159042.293,-13.954998
1427159042.308,-14.130041
1427159042.324,-14.622451
1427159042.34,-15.337089
1427159042.355,-16.039446
1427159042.371,-16.380772
1427159042.387,-16.102367
1427159042.402,-15.160386
1427159042.418,-13.727097
1427159042.433,-12.107555
1427159042.449,-10.549137
1427159042.465,-9.159489
1427159042.48,-7.8892784
1427159042.496,-6.696203
1427159042.512,-5.491497
1427159042.527,-4.2421055
1427159042.543,-2.9494286
1427159042.558,-1.6122265
1427159042.574,-0.210495
1427159042.59,1.3474102
1427159042.605,3.2059383
1427159042.621,5.5418205
1427159042.637,8.481407
1427159042.652,12.048296
1427159042.668,16.100513
1427159042.683,20.31918
1427159042.699,24.353817
1427159042.715,27.939188
1427159042.73,31.087923
1427159042.746,34.086777
1427159042.762,37.36573
1427159042.777,41.29854
1427159042.793,46.067024
1427159042.808,51.549164
1427159042.824,57.312363
1427159042.84,62.611816
1427159042.855,66.445244
1427159042.871,67.700714
1427159042.887,65.43532
1427159042.902,59.227272
1427159042.918,49.451195
1427159042.933,37.249676
1427159042.949,24.2589
1427159042.965,12.0326805
1427159042.98,1.5677166
1427159042.996,-6.932369
1427159043.012,-13.878027
1427159043.027,-19.900923
1427159043.043,-25.433098
1427159043.058,-30.525457
1427159043.074,-34.92615
1427159043.09,-38.351105
1427159043.105,-40.728676
1427159043.121,-42.299355
1427159043.137,-43.49785
1427159043.152,-44.795868
1427159043.168,-46.47243
1427159043.183,-48.550735
1427159043.199,-50.817123
1427159043.215,-52.96215
1427159043.23,-54.715706
1427159043.246,-55.957832
1427159043.262,-56.70895
1427159043.277,-57.096138
1427159043.293,-57.208046
1427159043.308,-57.076443
1427159043.324,-56.638237
1427159043.34,-55.788708
1427159043.355,-54.45707
1427159043.371,-52.60895
1427159043.387,-50.237568
1427159043.402,-47.316208
1427159043.418,-43.743275
1427159043.433,-39.412052
1427159043.449,-34.255505
1427159043.465,-28.351131
1427159043.48,-21.918411
1427159043.496,-15.24398
1427159043.512,-8.491974
1427159043.527,-1.6196022
1427159043.543,5.651573
1427159043.558,13.681713
1427159043.574,22.73756
1427159043.59,32.803795
1427159043.605,43.466232
1427159043.621,53.889786
1427159043.637,62.972084
1427159043.652,69.53094
1427159043.668,72.63243
1427159043.684,71.82005
1427159043.699,67.25609
1427159043.715,59.679886
1427159043.73,50.22621
1427159043.746,40.108215
1427159043.762,30.365318
1427159043.777,21.65831
1427159043.793,14.273323
1427159043.809,8.167168
1427159043.824,3.1157837
1427159043.84,-1.1580734
1427159043.855,-4.8942337
1427159043.871,-8.265785
1427159043.887,-11.35601
1427159043.902,-14.208061
1427159043.918,-16.825493
1427159043.934,-19.215645
1427159043.949,-21.35427
1427159043.965,-23.161736
1427159043.98,-24.533356
1427159043.996,-25.375275
1427159044.012,-25.63536
1427159044.027,-25.376907
1427159044.043,-24.705276
1427159044.059,-23.734009
1427159044.074,-22.510803
1427159044.09,-21.03984
1427159044.105,-19.26976
1427159044.121,-17.186127
1427159044.137,-14.8124695
1427159044.152,-12.221146
1427159044.168,-9.481598
1427159044.184,-6.6427155
1427159044.199,-3.692047
1427159044.215,-0.5740051
1427159044.23,2.756607
1427159044.246,6.3028107
1427159044.262,9.9769745
1427159044.277,13.535202
1427159044.293,16.681839
1427159044.309,19.112854
1427159044.324,20.724655
1427159044.34,21.721375
1427159044.355,22.706009
1427159044.371,24.48552
1427159044.387,27.889511
1427159044.402,33.3463
1427159044.418,40.61508
1427159044.434,48.702896
1427159044.449,56.067947
1427159044.465,61.080627
1427159044.48,62.61081
1427159044.496,60.39653
1427159044.512,55.10788
1427159044.527,48.013718
1427159044.543,40.459503
1427159044.559,33.379013
1427159044.574,27.092743
1427159044.59,21.459213
1427159044.605,16.2184
1427159044.621,11.30394
1427159044.637,6.947586
1427159044.652,3.5021362
1427159044.668,1.1965942
1427159044.684,-0.10449219
1427159044.699,-0.87216187
1427159044.715,-1.7577515
1427159044.73,-3.2983093
1427159044.746,-5.753372
1427159044.762,-8.997009
1427159044.777,-12.644562
1427159044.793,-16.243484
1427159044.809,-19.423523
1427159044.824,-21.99057
1427159044.84,-23.91269
1427159044.855,-25.207962
1427159044.871,-25.84938
1427159044.887,-25.744827
1427159044.902,-24.80922
1427159044.918,-23.07785
1427159044.934,-20.786499
1427159044.949,-18.333542
1427159044.965,-16.172134
1427159044.98,-14.549988
1427159044.996,-13.426346
1427159045.012,-12.386337
1427159045.027,-10.861877
1427159045.043,-8.355942
1427159045.059,-4.721924
1427159045.074,-0.23138428
1427159045.09,4.5188446
1427159045.105,8.886948
1427159045.121,12.439865
1427159045.137,15.15593
1427159045.152,17.397171
1427159045.168,19.787445
1427159045.184,22.969086
1427159045.199,27.450165
1427159045.215,33.417496
1427159045.23,40.672653
1427159045.246,48.517334
1427159045.262,55.807114
1427159045.277,61.06752
1427159045.293,62.904144
1427159045.309,60.445053
1427159045.324,53.739426
1427159045.34,43.856873
1427159045.355,32.53151
1427159045.371,21.591644
1427159045.387,12.333984
1427159045.402,5.2075043
1427159045.418,-0.09963989
1427159045.434,-4.2643433
1427159045.449,-7.8368835
1427159045.465,-11.003799
1427159045.48,-13.583023
1427159045.496,-15.309982
1427159045.512,-16.059692
1427159045.527,-16.047134
1427159045.543,-15.689789
1427159045.559,-15.467163
1427159045.574,-15.670441
1427159045.59,-16.34195
1427159045.605,-17.275497
1427159045.621,-18.212448
1427159045.637,-18.939667
1427159045.652,-19.368927
1427159045.668,-19.503738
1427159045.684,-19.354416
1427159045.699,-18.876266
1427159045.715,-17.991882
1427159045.73,-16.616638
1427159045.746,-14.746536
1427159045.762,-12.494644
1427159045.777,-10.018158
1427159045.793,-7.434395
1427159045.809,-4.7469788
1427159045.824,-1.8334732
1427159045.84,1.4558563
1427159045.855,5.1966248
1427159045.871,9.284874
1427159045.887,13.483398
1427159045.902,17.507614
1427159045.918,21.17482
1427159045.934,24.476692
1427159045.949,27.622955
1427159045.965,30.955772
1427159045.98,34.86412
1427159045.996,39.643112
1427159046.012,45.34852
1427159046.027,51.63745
1427159046.043,57.710808
1427159046.059,62.378693
1427159046.074,64.316505
1427159046.09,62.4606
1427159046.105,56.435738
1427159046.121,46.73654
1427159046.137,34.61847
1427159046.152,21.68512
1427159046.168,9.394707
1427159046.184,-1.3598747
1427159046.199,-10.334866
1427159046.215,-17.755215
1427159046.23,-23.962486
1427159046.246,-29.153275
1427159046.262,-33.267918
1427159046.277,-36.15881
1427159046.293,-37.787243
1427159046.309,-38.390778
1427159046.324,-38.49163
1427159046.34,-38.691025
1427159046.356,-39.423134
1427159046.371,-40.779976
1427159046.387,-42.467648
1427159046.402,-43.975494
1427159046.418,-44.83232
1427159046.434,-44.867535
1427159046.449,-44.19584
1427159046.465,-43.168365
1427159046.48,-42.10997
1427159046.496,-41.126564
1427159046.512,-40.0569
1427159046.527,-38.571396
1427159046.543,-36.319626
1427159046.559,-33.16923
1427159046.574,-29.248222
1427159046.59,-24.93224
1427159046.606,-20.702744
1427159046.621,-16.972641
1427159046.637,-13.917776
1427159046.652,-11.456434
1427159046.668,-9.25069
1427159046.684,-6.856457
1427159046.699,-3.9004288
1427159046.715,-0.26301038
1427159046.731,3.8919985
1427159046.746,8.153954
1427159046.762,12.113005
1427159046.777,15.507954
1427159046.793,18.40992
1427159046.809,21.11816
1427159046.824,24.075615
1427159046.84,27.686695
1427159046.856,32.253895
1427159046.871,37.905804
1427159046.887,44.55193
1427159046.902,51.75617
1427159046.918,58.63767
1427159046.934,63.889458
1427159046.949,66.08627
1427159046.965,64.13338
1427159046.981,57.756504
1427159046.996,47.684216
1427159047.012,35.421295
1427159047.027,22.685112
1427159047.043,10.817455
1427159047.059,0.4484558
1427159047.074,-8.452215
1427159047.09,-16.210669
1427159047.106,-23.078377
1427159047.121,-29.02694
1427159047.137,-33.803516
1427159047.152,-37.203354
1427159047.168,-39.255733
1427159047.184,-40.328346
1427159047.199,-40.94242
1427159047.215,-41.569855
1427159047.231,-42.411674
1427159047.246,-43.377033
1427159047.262,-44.152416
1427159047.277,-44.449768
1427159047.293,-44.115334
1427159047.309,-43.263077
1427159047.324,-42.17409
1427159047.34,-41.155197
1427159047.356,-40.357418
1427159047.371,-39.68959
1427159047.387,-38.831703
1427159047.402,-37.42144
1427159047.418,-35.21686
1427159047.434,-32.2567
1427159047.449,-28.788239
1427159047.465,-25.220448
1427159047.481,-21.84262
1427159047.496,-18.715
1427159047.512,-15.675667
1427159047.527,-12.458561
1427159047.543,-8.904682
1427159047.559,-5.0991974
1427159047.574,-1.3473244
1427159047.59,1.9677582
1427159047.606,4.6368866
1427159047.621,6.7490044
1427159047.637,8.708599
1427159047.652,11.03207
1427159047.668,14.159676
1427159047.684,18.24773
1427159047.699,23.1474
1427159047.715,28.447872
1427159047.731,33.65172
1427159047.746,38.33446
1427159047.762,42.295586
1427159047.777,45.62434
1427159047.793,48.71751
1427159047.809,52.164852
1427159047.824,56.584892
1427159047.84,62.303356
1427159047.856,69.06093
1427159047.871,75.8712
1427159047.887,81.15294
1427159047.902,83.15665
1427159047.918,80.57405
1427159047.934,73.05804
1427159047.949,61.40973
1427159047.965,47.255806
1427159047.981,32.49404
1427159047.996,18.615616
1427159048.012,6.3983536
1427159048.027,-4.1227875
1427159048.043,-13.286171
1427159048.059,-21.420639
1427159048.074,-28.561264
1427159048.09,-34.526
1427159048.106,-39.07522
1427159048.121,-42.176193
1427159048.137,-44.093765
1427159048.152,-45.32451
1427159048.168,-46.394745
1427159048.184,-47.651497
1427159048.199,-49.145546
1427159048.215,-50.663063
1427159048.231,-51.876633
1427159048.246,-52.517487
1427159048.262,-52.506317
1427159048.277,-51.98626
1427159048.293,-51.184113
1427159048.309,-50.312485
1427159048.324,-49.372765
1427159048.34,-48.20716
1427159048.356,-46.52867
1427159048.371,-44.129845
1427159048.387,-40.95404
1427159048.402,-37.143875
1427159048.418,-32.971428
1427159048.434,-28.742096
1427159048.449,-24.67006
1427159048.465,-20.807716
1427159048.481,-17.07621
1427159048.496,-13.243744
1427159048.512,-9.054314
1427159048.527,-4.333809
1427159048.543,0.9174881
1427159048.559,6.4656067
1427159048.574,11.910706
1427159048.59,16.799904
1427159048.606,20.85836
1427159048.621,24.066566
1427159048.637,26.758034
1427159048.652,29.450691
1427159048.668,32.758186
1427159048.684,37.166443
1427159048.699,42.901955
1427159048.715,49.744118
1427159048.731,56.97731
1427159048.746,63.392456
1427159048.762,67.51449
1427159048.777,68.0021
1427159048.793,64.10436
1427159048.809,55.986076
1427159048.824,44.74417
1427159048.84,32.06263
1427159048.856,19.67485
1427159048.871,8.798447
1427159048.887,-0.038902283
1427159048.902,-7.005066
1427159048.918,-12.568474
1427159048.934,-17.178879
1427159048.949,-21.000862
1427159048.965,-23.95816
1427159048.981,-25.921265
1427159048.996,-26.923027
1427159049.012,-27.267052
1427159049.027,-27.470085
1427159049.043,-28.023773
1427159049.059,-29.201996
1427159049.074,-30.938164
1427159049.09,-32.922745
1427159049.106,-34.750214
1427159049.121,-36.128494
1427159049.137,-36.91719
1427159049.152,-37.10074
1427159049.168,-36.681915
1427159049.184,-35.616135
1427159049.199,-33.83603
1427159049.215,-31.32943
1427159049.231,-28.207794
1427159049.246,-24.677391
1427159049.262,-20.946625
1427159049.278,-17.120743
1427159049.293,-13.172005
1427159049.309,-8.995476
1427159049.324,-4.5038376
1427159049.34,0.2626953
1427159049.356,5.15271
1427159049.371,9.9212265
1427159049.387,14.368759
1427159049.403,18.36045
1427159049.418,21.922485
1427159049.434,25.245522
1427159049.449,28.672028
1427159049.465,32.64518
1427159049.481,37.569122
1427159049.496,43.581833
1427159049.512,50.34301
1427159049.528,56.898415
1427159049.543,61.82669
1427159049.559,63.644135
1427159049.574,61.345924
1427159049.59,54.818146
1427159049.606,44.934883
1427159049.621,33.211884
1427159049.637,21.275314
1427159049.653,10.281532
1427159049.668,0.7129822
1427159049.684,-7.5363693
1427159049.699,-14.771591
1427159049.715,-21.16307
1427159049.731,-26.600372
1427159049.746,-30.818665
1427159049.762,-33.632393
1427159049.778,-35.15651
1427159049.793,-35.822075
1427159049.809,-36.1978
1427159049.824,-36.754066
1427159049.84,-37.69182
1427159049.856,-38.908684
1427159049.871,-40.156944
1427159049.887,-41.13983
1427159049.903,-41.704224
1427159049.918,-41.824486
1427159049.934,-41.59768
1427159049.949,-41.11345
1427159049.965,-40.40341
1427159049.981,-39.390556
1427159049.996,-37.92688
1427159050.012,-35.87175
1427159050.028,-33.143417
1427159050.043,-29.770134
1427159050.059,-25.870667
1427159050.074,-21.639587
1427159050.09,-17.314735
1427159050.106,-13.122086
1427159050.121,-9.252998
1427159050.137,-5.7740173
1427159050.153,-2.6236343
1427159050.168,0.44734955
1427159050.184,3.7376251
1427159050.199,7.536743
1427159050.215,11.905113
1427159050.231,16.627396
1427159050.246,21.271194
1427159050.262,25.386795
1427159050.278,28.740242
1427159050.293,31.450974
1427159050.309,33.95871
1427159050.324,36.839363
1427159050.34,40.613632
1427159050.356,45.55123
1427159050.371,51.59651
1427159050.387,58.336075
1427159050.403,64.94971
1427159050.418,70.30365
1427159050.434,73.10277
1427159050.449,72.27844
1427159050.465,67.32901
1427159050.481,58.626877
1427159050.496,47.31158
1427159050.512,34.93809
1427159050.528,22.924404
1427159050.543,12.158157
1427159050.559,2.851738
1427159050.574,-5.237541
1427159050.59,-12.473244
1427159050.606,-19.01575
1427159050.621,-24.774689
1427159050.637,-29.502296
1427159050.653,-33.04039
1427159050.668,-35.45797
1427159050.684,-37.07522
1427159050.699,-38.308796
1427159050.715,-39.513897
1427159050.731,-40.870407
1427159050.746,-42.32012
1427159050.762,-43.64848
1427159050.778,-44.620674
1427159050.793,-45.086987
1427159050.809,-45.082386
1427159050.824,-44.74354
1427159050.84,-44.24798
1427159050.856,-43.684036
1427159050.871,-42.9936
1427159050.887,-41.975777
1427159050.903,-40.419827
1427159050.918,-38.186676
1427159050.934,-35.31405
1427159050.949,-32.00796
1427159050.965,-28.573158
1427159050.981,-25.29073
1427159050.996,-22.303291
1427159051.012,-19.568748
1427159051.028,-16.926708
1427159051.043,-14.155567
1427159051.059,-11.118502
1427159051.074,-7.8135395
1427159051.09,-4.4085445
1427159051.106,-1.1472588
1427159051.121,1.7865753
1427159051.137,4.386032
1427159051.153,6.862419
1427159051.168,9.603878
1427159051.184,12.977146
1427159051.199,17.145
1427159051.215,21.920666
1427159051.231,26.820633
1427159051.246,31.235231
1427159051.262,34.731766
1427159051.278,37.25197
1427159051.293,39.156994
1427159051.309,41.054745
1427159051.324,43.59267
1427159051.34,47.211536
1427159051.356,52.05836
1427159051.371,57.909332
1427159051.387,64.17615
1427159051.403,69.89169
1427159051.418,73.80948
1427159051.434,74.64732
1427159051.449,71.48937
1427159051.465,64.15186
1427159051.481,53.37608
1427159051.496,40.5988
1427159051.512,27.525982
1427159051.528,15.513912
1427159051.543,5.2462006
1427159051.559,-3.2999973
1427159051.574,-10.504971
1427159051.59,-16.734966
1427159051.606,-22.064924
1427159051.621,-26.31856
1427159051.637,-29.275042
1427159051.653,-30.937027
1427159051.668,-31.626131
1427159051.684,-31.926464
1427159051.699,-32.408836
1427159051.715,-33.42682
1427159051.731,-34.955635
1427159051.746,-36.684208
1427159051.762,-38.189514
1427159051.778,-39.161003
1427159051.793,-39.522083
1427159051.809,-39.437088
1427159051.824,-39.12275
1427159051.84,-38.72648
1427159051.856,-38.170425
1427159051.871,-37.22222
1427159051.887,-35.570107
1427159051.903,-33.028957
1427159051.918,-29.62297
1427159051.934,-25.617472
1427159051.95,-21.398508
1427159051.965,-17.362823
1427159051.981,-13.723955
1427159051.996,-10.45945
1427159052.012,-7.303093
1427159052.028,-3.8716106
1427159052.043,0.14769554
1427159052.059,4.822605
1427159052.075,9.901796
1427159052.09,14.909023
1427159052.106,19.348446
1427159052.121,22.92345
1427159052.137,25.683731
1427159052.153,27.962254
1427159052.168,30.273129
1427159052.184,33.07245
1427159052.2,36.686455
1427159052.215,41.236176
1427159052.231,46.678196
1427159052.246,52.749336
1427159052.262,58.887974
1427159052.278,64.17465
1427159052.293,67.44795
1427159052.309,67.60367
1427159052.325,63.98486
1427159052.34,56.72222
1427159052.356,46.786728
1427159052.371,35.637608
1427159052.387,24.774513
1427159052.403,15.179749
1427159052.418,7.1475277
1427159052.434,0.39196968
1427159052.45,-5.5619736
1427159052.465,-11.044466
1427159052.481,-16.017841
1427159052.496,-20.171825
1427159052.512,-23.183998
1427159052.528,-24.967787
1427159052.543,-25.739286
1427159052.559,-25.97539
1427159052.575,-26.168404
1427159052.59,-26.643507
1427159052.606,-27.456013
1427159052.621,-28.458319
1427159052.637,-29.408873
1427159052.653,-30.16148
1427159052.668,-30.66448
1427159052.684,-30.98161
1427159052.7,-31.167152
1427159052.715,-31.210514
1427159052.731,-31.013968
1427159052.746,-30.428135
1427159052.762,-29.3239
1427159052.778,-27.635519
1427159052.793,-25.40132
1427159052.809,-22.730505
1427159052.825,-19.771711
1427159052.84,-16.704535
1427159052.856,-13.680326
1427159052.871,-10.828371
1427159052.887,-8.190884
1427159052.903,-5.704233
1427159052.918,-3.1916695
1427159052.934,-0.41659355
1427159052.95,2.8425045
1427159052.965,6.650366
1427159052.981,10.879919
1427159052.996,15.200558
1427159053.012,19.198816
1427159053.028,22.574364
1427159053.043,25.274218
1427159053.059,27.51669
1427159053.075,29.749058
1427159053.09,32.488846
1427159053.106,36.161377
1427159053.121,40.966957
1427159053.137,46.77613
1427159053.153,53.06149
1427159053.168,58.92186
1427159053.184,63.18171
1427159053.2,64.68378
1427159053.215,62.608025
1427159053.231,56.798027
1427159053.246,47.849167
1427159053.262,36.97719
1427159053.278,25.593117
1427159053.293,14.886911
1427159053.309,5.521244
1427159053.325,-2.3919048
1427159053.34,-9.114513
1427159053.356,-14.940746
1427159053.371,-19.981384
1427159053.387,-24.156687
1427159053.403,-27.31388
1427159053.418,-29.40105
1427159053.434,-30.631617
1427159053.45,-31.387833
1427159053.465,-32.11905
1427159053.481,-33.129944
1427159053.496,-34.46164
1427159053.512,-35.95752
1427159053.528,-37.39078
1427159053.543,-38.58413
1427159053.559,-39.498215
1427159053.575,-40.162785
1427159053.59,-40.561005
1427159053.606,-40.584286
1427159053.621,-40.060417
1427159053.637,-38.84587
1427159053.653,-36.958916
1427159053.668,-34.53109
1427159053.684,-31.794376
1427159053.7,-28.941868
1427159053.715,-26.089092
1427159053.731,-23.27611
1427159053.746,-20.512724
1427159053.762,-17.823923
1427159053.778,-15.274607
1427159053.793,-12.938765
1427159053.809,-10.864487
1427159053.825,-9.0367985
1427159053.84,-7.383503
1427159053.856,-5.757017
1427159053.871,-3.9652882
1427159053.887,-1.8114758
1427159053.903,0.78469086
1427159053.918,3.7792988
1427159053.934,6.9312496
1427159053.95,9.964972
1427159053.965,12.656158
1427159053.981,14.983625
1427159053.996,17.14671
1427159054.012,19.516872
1427159054.028,22.535488
1427159054.043,26.567768
1427159054.059,31.809647
1427159054.075,38.110073
1427159054.09,44.901688
1427159054.106,51.148518
1427159054.121,55.532017
1427159054.137,56.839775
1427159054.153,54.380676
1427159054.168,48.33239
1427159054.184,39.709
1427159054.2,30.037586
1427159054.215,20.741867
1427159054.231,12.718796
1427159054.246,6.13266
1427159054.262,0.6249962
1427159054.278,-4.295334
1427159054.293,-8.875114
1427159054.309,-13.014839
1427159054.325,-16.406929
1427159054.34,-18.75726
1427159054.356,-20.01252
1427159054.371,-20.396156
1427159054.387,-20.28357
1427159054.403,-20.079262
1427159054.418,-20.103622
1427159054.434,-20.534992
1427159054.45,-21.44646
1427159054.465,-22.85704
1427159054.481,-24.668678
1427159054.496,-26.705452
1427159054.512,-28.667679
1427159054.528,-30.166164
1427159054.543,-30.814957
1427159054.559,-30.359756
1427159054.575,-28.749023
1427159054.59,-26.159206
1427159054.606,-22.924095
1427159054.622,-19.373657
1427159054.637,-15.74601
1427159054.653,-12.0959015
1427159054.668,-8.318741
1427159054.684,-4.2742615
1427159054.7,0.11005783
1427159054.715,4.7767715
1427159054.731,9.554142
1427159054.747,14.224842
1427159054.762,18.655834
1427159054.778,22.820004
1427159054.793,26.828022
1427159054.809,30.906273
1427159054.825,35.350246
1427159054.84,40.421864
1427159054.856,46.222717
1427159054.872,52.490837
1427159054.887,58.452435
1427159054.903,62.901684
1427159054.918,64.48481
1427159054.934,62.197323
1427159054.95,55.79139
1427159054.965,45.907383
1427159054.981,33.940975
1427159054.997,21.472034
1427159055.012,9.803566
1427159055.028,-0.3987503
1427159055.043,-9.052696
1427159055.059,-16.465569
1427159055.075,-22.964409
1427159055.09,-28.686295
1427159055.106,-33.542347
1427159055.122,-37.347633
1427159055.137,-39.99591
1427159055.153,-41.5441
1427159055.168,-42.24486
1427159055.184,-42.50068
1427159055.2,-42.71888
1427159055.215,-43.165077
1427159055.231,-43.85874
1427159055.247,-44.61196
1427159055.262,-45.075104
1427159055.278,-44.969894
1427159055.293,-44.18669
1427159055.309,-42.821312
1427159055.325,-41.086662
1427159055.34,-39.18521
1427159055.356,-37.14521
1427159055.372,-34.80777
1427159055.387,-31.891396
1427159055.403,-28.150848
1427159055.418,-23.511559
1427159055.434,-18.15738
1427159055.45,-12.465538
1427159055.465,-6.929756
1427159055.481,-1.9828644
1427159055.497,2.1295242
1427159055.512,5.38826
1427159055.528,7.9657135
1427159055.543,10.140587
1427159055.559,12.184143
1427159055.575,14.358574
1427159055.59,16.898949
1427159055.606,20.070335
1427159055.622,23.98748
1427159055.637,28.424469
1427159055.653,32.624603
1427159055.668,35.329033
1427159055.684,35.115578
1427159055.7,30.999252
1427159055.715,22.923088
1427159055.731,11.90435
1427159055.747,-0.35995483
1427159055.762,-12.1551895
1427159055.778,-22.436722
1427159055.793,-31.080612
1427159055.809,-38.66272
1427159055.825,-45.885315
1427159055.84,-53.14525
1427159055.856,-60.277405
1427159055.872,-66.81271
1427159055.887,-72.29579
1427159055.903,-76.60492
1427159055.918,-79.96527
1427159055.934,-82.84746
1427159055.95,-85.70247
1427159055.965,-88.807816
1427159055.981,-92.24629
1427159055.997,-95.91162
1427159056.012,-99.58313
1427159056.028,-102.98285
1427159056.043,-105.77518
1427159056.059,-107.61455
1427159056.075,-108.16348
1427159056.09,-107.1355
1427159056.106,-104.2265
1427159056.122,-99.1564
1427159056.137,-91.64259
1427159056.153,-81.42093
1427159056.168,-68.356415
1427159056.184,-52.468414
1427159056.2,-33.963013
1427159056.215,-13.244141
1427159056.231,9.131348
1427159056.247,32.478516
1427159056.262,55.975952
1427159056.278,78.726654
1427159056.293,99.815216
1427159056.309,118.494934
1427159056.325,134.29767
1427159056.34,147.1802
1427159056.356,157.4899
1427159056.372,165.80951
1427159056.387,172.6366
1427159056.403,178.08954
1427159056.418,181.71066
1427159056.434,182.58737
1427159056.45,179.70572
1427159056.465,172.45486
1427159056.481,161.00726
1427159056.497,146.38156
1427159056.512,130.17514
1427159056.528,114.01926
1427159056.543,99.06018
1427159056.559,85.759705
1427159056.575,73.946594
1427159056.59,63.222534
1427159056.606,53.28012
1427159056.622,44.128906
1427159056.637,36.018005
1427159056.653,29.207123
1427159056.668,23.683167
1427159056.684,19.142456
1427159056.7,15.074341
1427159056.715,11.035492
1427159056.731,6.8200684
1427159056.747,2.5706787
1427159056.762,-1.3798218
1427159056.778,-4.719818
1427159056.793,-7.334778
1427159056.809,-9.403809
1427159056.825,-11.2344055
1427159056.84,-13.098663
1427159056.856,-15.05011
1427159056.872,-16.793182
1427159056.887,-17.862274
1427159056.903,-17.76355
1427159056.918,-16.215454
1427159056.934,-13.256195
1427159056.95,-9.220947
1427159056.965,-4.6125183
1427159056.981,0.049316406
1427159056.997,4.3901367
1427159057.012,8.277618
1427159057.028,11.877686
1427159057.043,15.584259
1427159057.059,19.935486
1427159057.075,25.411255
1427159057.09,32.23175
1427159057.106,40.125793
1427159057.122,48.248413
1427159057.137,55.24823
1427159057.153,59.623047
1427159057.168,60.114655
1427159057.184,56.200806
1427159057.2,48.23282
1427159057.215,37.40036
1427159057.231,25.274261
1427159057.247,13.391418
1427159057.262,2.8503723
1427159057.278,-5.8565063
1427159057.294,-12.783752
1427159057.309,-18.246002
1427159057.325,-22.584259
1427159057.34,-26.003143
1427159057.356,-28.534363
1427159057.372,-30.148956
1427159057.387,-30.866669
1427159057.403,-30.878998
1427159057.418,-30.465942
1427159057.434,-29.924194
1427159057.45,-29.457031
1427159057.465,-29.064606
1427159057.481,-28.58783
1427159057.497,-27.791718
1427159057.512,-26.539795
1427159057.528,-24.872803
1427159057.544,-23.017868
1427159057.559,-21.268402
1427159057.575,-19.8564
1427159057.59,-18.813507
1427159057.606,-17.999802
1427159057.622,-17.151749
1427159057.637,-15.97934
1427159057.653,-14.238083
1427159057.669,-11.76059
1427159057.684,-8.481766
1427159057.7,-4.4776
1427159057.715,0.08621216
1427159057.731,4.943161
1427159057.747,9.826157
1427159057.762,14.538681
1427159057.778,19.019073
1427159057.794,23.29068
1427159057.809,27.542664
1427159057.825,32.000168
1427159057.84,36.90393
1427159057.856,42.382477
1427159057.872,48.289413
1427159057.887,54.067474
1427159057.903,58.68907
1427159057.919,60.84192
1427159057.934,59.325943
1427159057.95,53.48764
1427159057.965,43.5683
1427159057.981,30.639938
1427159057.997,16.304764
1427159058.012,2.1397247
1427159058.028,-10.74292
1427159058.044,-21.85521
1427159058.059,-31.211746
1427159058.075,-39.083923
1427159058.09,-45.66574
1427159058.106,-51.0226
1427159058.122,-55.085968
1427159058.137,-57.850212
1427159058.153,-59.460556
1427159058.169,-60.223045
1427159058.184,-60.526474
1427159058.2,-60.68907
1427159058.215,-60.85022
1427159058.231,-60.96364
1427159058.247,-60.860985
1427159058.262,-60.394585
1427159058.278,-59.508255
1427159058.294,-58.285774
1427159058.309,-56.857925
1427159058.325,-55.29496
1427159058.34,-53.51258
1427159058.356,-51.296013
1427159058.372,-48.346687
1427159058.387,-44.469162
1427159058.403,-39.661972
1427159058.419,-34.16181
1427159058.434,-28.332413
1427159058.45,-22.515564
1427159058.465,-16.875374
1427159058.481,-11.334816
1427159058.497,-5.6354904
1427159058.512,0.46463013
1427159058.528,7.0155334
1427159058.544,13.765961
1427159058.559,20.23391
1427159058.575,25.88417
1427159058.59,30.39405
1427159058.606,33.795784
1427159058.622,36.542885
1427159058.637,39.350586
1427159058.653,43.028145
1427159058.669,48.213264
1427159058.684,55.141834
1427159058.7,63.44366
1427159058.715,72.06907
1427159058.731,79.39938
1427159058.747,83.62266
1427159058.762,83.24701
1427159058.778,77.63535
1427159058.794,67.25075
1427159058.809,53.534595
1427159058.825,38.378517
1427159058.84,23.500084
1427159058.856,9.950264
1427159058.872,-1.9891548
1427159058.887,-12.605812
1427159058.903,-22.289436
1427159058.919,-31.228737
1427159058.934,-39.26354
1427159058.95,-46.030586
1427159058.965,-51.195976
1427159058.981,-54.68402
1427159058.997,-56.729935
1427159059.012,-57.79351
1427159059.028,-58.39303
1427159059.044,-58.9329
1427159059.059,-59.59187
1427159059.075,-60.36824
1427159059.09,-61.137543
1427159059.106,-61.816257
1427159059.122,-62.38778
1427159059.137,-62.88715
1427159059.153,-63.278065
1427159059.169,-63.38742
1427159059.184,-62.853104
1427159059.2,-61.300644
1427159059.215,-58.491272
1427159059.231,-54.491684
1427159059.247,-49.674194
1427159059.262,-44.59377
1427159059.278,-39.781433
1427159059.294,-35.55751
1427159059.309,-31.945156
1427159059.325,-28.720562
1427159059.34,-25.52906
1427159059.356,-22.079449
1427159059.372,-18.225101
1427159059.387,-14.03812
1427159059.403,-9.713333
1427159059.419,-5.5236206
1427159059.434,-1.6364822
1427159059.45,1.9261665
1427159059.465,5.3750343
1427159059.481,9.048279
1427159059.497,13.301903
1427159059.512,18.292595
1427159059.528,23.903706
1427159059.544,29.733757
1427159059.559,35.295677
1427159059.575,40.18707
1427159059.59,44.26387
1427159059.606,47.692963
1427159059.622,50.881065
1427159059.637,54.361885
1427159059.653,58.69603
1427159059.669,64.24843
1427159059.684,71.01895
1427159059.7,78.434746
1427159059.715,85.2963
1427159059.731,89.92481
1427159059.747,90.67367
1427159059.762,86.45007
1427159059.778,77.188866
1427159059.794,63.916412
1427159059.809,48.411804
1427159059.825,32.56848
1427159059.84,17.834793
1427159059.856,4.908882
1427159059.872,-6.181923
1427159059.887,-15.772682
1427159059.903,-24.207962
1427159059.919,-31.635498
1427159059.934,-37.995567
1427159059.95,-43.151917
1427159059.965,-47.03264
1427159059.981,-49.739532
1427159059.997,-51.500717
1427159060.012,-52.6429
1427159060.028,-53.43654
1427159060.044,-54.033722
1427159060.059,-54.40867
1427159060.075,-54.44068
1427159060.09,-54.02659
1427159060.106,-53.18656
1427159060.122,-52.10415
1427159060.137,-51.042114
1427159060.153,-50.17952
1427159060.169,-49.484146
1427159060.184,-48.65918
1427159060.2,-47.2716
1427159060.216,-44.915512
1427159060.231,-41.40696
1427159060.247,-36.827248
1427159060.262,-31.540047
1427159060.278,-25.981514
1427159060.294,-20.559746
1427159060.309,-15.478844
1427159060.325,-10.740593
1427159060.341,-6.14489
1427159060.356,-1.4563904
1427159060.372,3.5407104
1427159060.387,8.902527
1427159060.403,14.5351715
1427159060.419,20.226257
1427159060.434,25.752136
1427159060.45,30.995087
1427159060.466,35.991074
1427159060.481,40.90683
1427159060.497,45.944077
1427159060.512,51.245506
1427159060.528,56.869324
1427159060.544,62.741028
1427159060.559,68.70378
1427159060.575,74.36084
1427159060.591,79.017075
1427159060.606,81.62662
1427159060.622,80.97757
1427159060.637,76.04826
1427159060.653,66.49431
1427159060.669,52.901627
1427159060.684,36.73976
1427159060.7,19.915466
1427159060.716,4.1594696
1427159060.731,-9.435211
1427159060.747,-20.568695
1427159060.762,-29.544556
1427159060.778,-36.86989
1427159060.794,-42.937805
1427159060.809,-47.883743
1427159060.825,-51.681335
1427159060.841,-54.25406
1427159060.856,-55.658295
1427159060.872,-56.052933
1427159060.887,-55.675278
1427159060.903,-54.735596
1427159060.919,-53.370407
1427159060.934,-51.588074
1427159060.95,-49.367218
1427159060.966,-46.699326
1427159060.981,-43.709442
1427159060.997,-40.625214
1427159061.012,-37.738785
1427159061.028,-35.262527
1427159061.044,-33.21643
1427159061.059,-31.32759
1427159061.075,-29.1846
1427159061.091,-26.383484
1427159061.106,-22.750229
1427159061.122,-18.41571
1427159061.137,-13.760513
1427159061.153,-9.212463
1427159061.169,-5.0314026
1427159061.184,-1.1777649
1427159061.2,2.6208496
1427159061.216,6.7263336
1427159061.231,11.370819
1427159061.247,16.507706
1427159061.262,21.799911
1427159061.278,26.770157
1427159061.294,31.000565
1427159061.309,34.353928
1427159061.325,37.009583
1427159061.341,39.442932
1427159061.356,42.21312
1427159061.372,45.792786
1427159061.387,50.374756
1427159061.403,55.77643
1427159061.419,61.41693
1427159061.434,66.35547
1427159061.45,69.46231
1427159061.466,69.68361
1427159061.481,66.377106
1427159061.497,59.57074
1427159061.512,50.015472
1427159061.528,38.986816
1427159061.544,27.858124
1427159061.559,17.705063
1427159061.575,9.022598
1427159061.591,1.7989655
1427159061.606,-4.2681274
1427159061.622,-9.377502
1427159061.637,-13.533218
1427159061.653,-16.532013
1427159061.669,-18.190125
1427159061.684,-18.562622
1427159061.7,-17.985947
1427159061.716,-16.971512
1427159061.731,-15.992889
1427159061.747,-15.307983
1427159061.762,-14.8867035
1427159061.778,-14.5173645
1427159061.794,-13.952515
1427159061.809,-13.057907
1427159061.825,-11.911331
1427159061.841,-10.689178
1427159061.856,-9.5768585
1427159061.872,-8.610825
1427159061.887,-7.631195
1427159061.903,-6.3145294
1427159061.919,-4.3161774
1427159061.934,-1.3909149
1427159061.95,2.4614563
1427159061.966,6.970642
1427159061.981,11.656204
1427159061.997,16.001175
1427159062.012,19.629822
1427159062.028,22.44603
1427159062.044,24.665344
1427159062.059,26.694687
1427159062.075,28.995895
1427159062.091,31.931625
1427159062.106,35.635452
1427159062.122,39.983963
1427159062.137,44.536148
1427159062.153,48.55406
1427159062.169,51.087204
1427159062.184,51.193726
1427159062.2,48.202637
1427159062.216,42.04802
1427159062.231,33.313217
1427159062.247,23.160522
1427159062.262,12.932861
1427159062.278,3.7361145
1427159062.294,-3.8412476
1427159062.309,-9.750885
1427159062.325,-14.295212
1427159062.341,-17.78572
1427159062.356,-20.379715
1427159062.372,-22.051758
1427159062.387,-22.756607
1427159062.403,-22.559906
1427159062.419,-21.7173
1427159062.434,-20.53891
1427159062.45,-19.290573
1427159062.466,-18.021286
1427159062.481,-16.628372
1427159062.497,-14.937561
1427159062.512,-12.888718
1427159062.528,-10.59317
1427159062.544,-8.290787
1427159062.559,-6.208969
1427159062.575,-4.424164
1427159062.591,-2.7827911
1427159062.606,-0.9859009
1427159062.622,1.2414856
1427159062.637,4.017868
1427159062.653,7.2501984
1427159062.669,10.657547
1427159062.684,13.951721
1427159062.7,16.924606
1427159062.716,19.593918
1427159062.731,22.141464
1427159062.747,24.88092
1427159062.762,28.114975
1427159062.778,32.018295
1427159062.794,36.505905
1427159062.809,41.161118
1427159062.825,45.186707
1427159062.841,47.575256
1427159062.856,47.339737
1427159062.872,43.87523
1427159062.888,37.223984
1427159062.903,28.157211
1427159062.919,17.948318
1427159062.934,7.9671326
1427159062.95,-0.78170776
1427159062.966,-7.840042
1427159062.981,-13.305771
1427159062.997,-17.514526
1427159063.013,-20.76361
1427159063.028,-23.134735
1427159063.044,-24.57193
1427159063.059,-25.051651
1427159063.075,-24.739777
1427159063.091,-24.00058
1427159063.106,-23.254997
1427159063.122,-22.797104
1427159063.138,-22.693169
1427159063.153,-22.826736
1427159063.169,-23.0372
1427159063.184,-23.212173
1427159063.2,-23.341461
1427159063.216,-23.427383
1427159063.231,-23.407196
1427159063.247,-23.063713
1427159063.263,-22.119148
1427159063.278,-20.336723
1427159063.294,-17.653297
1427159063.309,-14.218857
1427159063.325,-10.359428
1427159063.341,-6.41774
1427159063.356,-2.6051025
1427159063.372,1.0685654
1427159063.388,4.8387756
1427159063.403,9.067009
1427159063.419,14.0923
1427159063.434,20.040417
1427159063.45,26.601612
1427159063.466,33.02713
1427159063.481,38.208736
1427159063.497,40.967194
1427159063.513,40.424175
1427159063.528,36.366932
1427159063.544,29.336216
1427159063.559,20.469624
1427159063.575,11.108479
1427159063.591,2.392376
1427159063.606,-5.070511
1427159063.622,-11.171886
1427159063.638,-16.110981
1427159063.653,-20.088428
1427159063.669,-23.197346
1427159063.684,-25.381525
1427159063.7,-26.643515
1427159063.716,-27.175198
1427159063.731,-27.382843
1427159063.747,-27.736593
1427159063.763,-28.58173
1427159063.778,-29.999523
1427159063.794,-31.821625
1427159063.809,-33.78381
1427159063.825,-35.707897
1427159063.841,-37.61255
1427159063.856,-39.719143
1427159063.872,-42.308918
1427159063.888,-45.54904
1427159063.903,-49.313473
1427159063.919,-53.14101
1427159063.934,-56.316925
1427159063.95,-58.074703
1427159063.966,-57.87867
1427159063.981,-55.617317
1427159063.997,-51.63226
1427159064.013,-46.649612
1427159064.028,-41.437477
1427159064.044,-36.540733
1427159064.059,-32.069508
1427159064.075,-27.723553
1427159064.091,-22.92901
1427159064.106,-17.120098
1427159064.122,-9.935848
1427159064.138,-1.4118166
1427159064.153,7.9718523
1427159064.169,17.267757
1427159064.184,25.270395
1427159064.2,30.775507
1427159064.216,32.99121
1427159064.231,31.803673
1427159064.247,27.877995
1427159064.263,22.382895
1427159064.278,16.571072
1427159064.294,11.346247
1427159064.309,7.0500717
1427159064.325,3.5319653
1427159064.341,0.49964523
1427159064.356,-2.201458
1427159064.372,-4.432045
1427159064.388,-5.850628
1427159064.403,-6.128895
1427159064.419,-5.2176895
1427159064.434,-3.362484
1427159064.45,-1.0194969
1427159064.466,1.3421059
1427159064.481,3.4324455
1427159064.497,5.252018
1427159064.513,6.9677315
1427159064.528,8.851631
1427159064.544,11.065464
1427159064.559,13.6274185
1427159064.575,16.361858
1427159064.591,18.990955
1427159064.606,21.218113
1427159064.622,22.86465
1427159064.638,23.918285
1427159064.653,24.558758
1427159064.669,25.111702
1427159064.684,25.952179
1427159064.7,27.38448
1427159064.716,29.526787
1427159064.731,32.256145
1427159064.747,35.242485
1427159064.763,38.070705
1427159064.778,40.386745
1427159064.794,42.008884
1427159064.809,42.967617
1427159064.825,43.46115
1427159064.841,43.833
1427159064.856,44.51032
1427159064.872,45.951958
1427159064.888,48.484035
1427159064.903,52.092026
1427159064.919,56.197388
1427159064.934,59.669174
1427159064.95,61.07723
1427159064.966,59.16904
1427159064.981,53.359825
1427159064.997,44.009537
1427159065.013,32.246765
1427159065.028,19.548422
1427159065.044,7.1919975
1427159065.059,-4.0327377
1427159065.075,-13.851283
1427159065.091,-22.232101
1427159065.106,-29.169476
1427159065.122,-34.556786
1427159065.138,-38.27535
1427159065.153,-40.340816
1427159065.169,-41.053986
1427159065.184,-40.8877
1427159065.2,-40.43029
1427159065.216,-40.165615
1427159065.231,-40.356876
1427159065.247,-40.971428
1427159065.263,-41.704018
1427159065.278,-42.055668
1427159065.294,-41.541832
1427159065.309,-39.841446
1427159065.325,-36.974552
1427159065.341,-33.28522
1427159065.356,-29.334137
1427159065.372,-25.667408
1427159065.388,-22.630033
1427159065.403,-20.265831
1427159065.419,-18.348494
1427159065.434,-16.509796
1427159065.45,-14.409569
1427159065.466,-11.824936
1427159065.481,-8.747189
1427159065.497,-5.3454514
1427159065.513,-1.9028015
1427159065.528,1.3423767
1427159065.544,4.29142
1427159065.56,7.083931
1427159065.575,10.061222
1427159065.591,13.6274185
1427159065.606,18.039368
1427159065.622,23.199654
1427159065.638,28.507607
1427159065.653,32.871407
1427159065.669,34.928596
1427159065.685,33.436935
1427159065.7,27.675682
1427159065.716,17.772614
1427159065.731,4.6924706
1427159065.747,-10.014084
1427159065.763,-24.738953
1427159065.778,-38.202263
1427159065.794,-49.667686
1427159065.81,-58.823597
1427159065.825,-65.54106
1427159065.841,-69.68089
1427159065.856,-71.11056
1427159065.872,-69.89109
1427159065.888,-66.479034
1427159065.903,-61.72468
1427159065.919,-56.646362
1427159065.935,-52.076633
1427159065.95,-48.38206
1427159065.966,-45.39688
1427159065.981,-42.60786
1427159065.997,-39.386623
1427159066.013,-35.31329
1427159066.028,-30.276173
1427159066.044,-24.511223
1427159066.06,-18.423298
1427159066.075,-12.416042
1427159066.091,-6.7046776
1427159066.106,-1.2552528
1427159066.122,4.175976
1427159066.138,9.867367
1427159066.153,15.932516
1427159066.169,22.19039
1427159066.185,28.229565
1427159066.2,33.565773
1427159066.216,37.907913
1427159066.231,41.28861
1427159066.247,44.118248
1427159066.263,46.998627
1427159066.278,50.522354
1427159066.294,55.000248
1427159066.31,60.330925
1427159066.325,65.90621
1427159066.341,70.72719
1427159066.356,73.59932
1427159066.372,73.460945
1427159066.388,69.7555
1427159066.403,62.598663
1427159066.419,52.80412
1427159066.435,41.595802
1427159066.45,30.224174
1427159066.466,19.659632
1427159066.481,10.419685
1427159066.497,2.6948261
1427159066.513,-3.4887314
1427159066.528,-8.077057
1427159066.544,-10.967829
1427159066.56,-12.083225
1427159066.575,-11.516153
1427159066.591,-9.568182
1427159066.606,-6.7305107
1427159066.622,-3.536148
1427159066.638,-0.46089745
1427159066.653,2.1870594
1427159066.669,4.2201195
1427159066.685,5.562401
1427159066.7,6.225689
1427159066.716,6.31155
1427159066.731,6.0347443
1427159066.747,5.75156
1427159066.763,5.8803368
1427159066.778,6.8111496
1427159066.794,8.726475
1427159066.81,11.519821
1427159066.825,14.819031
1427159066.841,18.144268
1427159066.856,21.076931
1427159066.872,23.442238
1427159066.888,25.346832
1427159066.903,27.112366
1427159066.919,29.148956
1427159066.935,31.872116
1427159066.95,35.569214
1427159066.966,40.2567
1427159066.981,45.505882
1427159066.997,50.4039
1427159067.013,53.63092
1427159067.028,53.84333
1427159067.044,50.130234
1427159067.06,42.402985
1427159067.075,31.450592
1427159067.091,18.66304
1427159067.106,5.5624924
1427159067.122,-6.70607
1427159067.138,-17.54918
1427159067.153,-26.831726
1427159067.169,-34.653732
1427159067.185,-41.11165
1427159067.2,-46.24031
1427159067.216,-50.065758
1427159067.231,-52.775238
1427159067.247,-54.71028
1427159067.263,-56.33033
1427159067.278,-58.028015
1427159067.294,-60.03891
1427159067.31,-62.362724
1427159067.325,-64.85575
1427159067.341,-67.358116
1427159067.356,-69.82856
1427159067.372,-72.3748
1427159067.388,-75.097786
1427159067.403,-77.97902
1427159067.419,-80.70819
1427159067.435,-82.71251
1427159067.45,-83.30895
1427159067.466,-81.92198
1427159067.481,-78.27315
1427159067.497,-72.42844
1427159067.513,-64.69977
1427159067.528,-55.495087
1427159067.544,-45.233185
1427159067.56,-34.279816
1427159067.575,-22.93203
1427159067.591,-11.39418
1427159067.606,0.21687317
1427159067.622,11.787178
1427159067.638,22.984932
1427159067.653,33.09379
1427159067.669,40.97316
1427159067.685,45.3433
1427159067.7,45.256966
1427159067.716,40.598335
1427159067.731,32.241882
1427159067.747,21.821434
1427159067.763,11.165627
1427159067.778,1.6759338
1427159067.794,-5.9917526
1427159067.81,-11.875603
1427159067.825,-16.33789
1427159067.841,-19.701752
1427159067.856,-22.03492
1427159067.872,-23.203812
1427159067.888,-23.05967
1427159067.903,-21.610916
1427159067.919,-19.081963
1427159067.935,-15.84948
1427159067.95,-12.272751
1427159067.966,-8.55703
1427159067.981,-4.774826
1427159067.997,-0.8590851
1427159068.013,3.193901
1427159068.028,7.278572
1427159068.044,11.140564
1427159068.06,14.519737
1427159068.075,17.305069
1427159068.091,19.684254
1427159068.106,22.050404
1427159068.122,24.85643
1427159068.138,28.31718
1427159068.153,32.306847
1427159068.169,36.35044
1427159068.185,39.88835
1427159068.2,42.525707
1427159068.216,44.25176
1427159068.232,45.425037
1427159068.247,46.624577
1427159068.263,48.466515
1427159068.278,51.364975
1427159068.294,55.399746
1427159068.31,60.152115
1427159068.325,64.6621
1427159068.341,67.52406
1427159068.356,67.160805
1427159068.372,62.343887
1427159068.388,52.659813
1427159068.403,38.81403
1427159068.419,22.460285
1427159068.435,5.710144
1427159068.45,-9.609135
1427159068.466,-22.427513
1427159068.482,-32.589325
1427159068.497,-40.535805
1427159068.513,-46.8451
1427159068.528,-51.796295
1427159068.544,-55.34138
1427159068.56,-57.257896
1427159068.575,-57.452698
1427159068.591,-56.176395
1427159068.607,-53.942467
1427159068.622,-51.334057
1427159068.638,-48.75865
1427159068.653,-46.302715
1427159068.669,-43.830505
1427159068.685,-41.136665
1427159068.7,-38.191742
1427159068.716,-35.19352
1427159068.732,-32.506855
1427159068.747,-30.429388
1427159068.763,-29.039404
1427159068.778,-28.071306
1427159068.794,-27.014633
1427159068.81,-25.294876
1427159068.825,-22.526525
1427159068.841,-18.66006
1427159068.857,-14.022783
1427159068.872,-9.143481
1427159068.888,-4.5431013
1427159068.903,-0.4999113
1427159068.919,3.0527725
1427159068.935,6.445285
1427159068.95,10.115653
1427159068.966,14.470732
1427159068.982,19.763506
1427159068.997,26.075628
1427159069.013,33.27183
1427159069.028,40.91724
1427159069.044,48.16444
1427159069.06,53.7751
1427159069.075,56.37967
1427159069.091,54.903236
1427159069.107,49.030437
1427159069.122,39.43811
1427159069.138,27.624466
1427159069.153,15.402164
1427159069.169,4.289318
1427159069.185,-4.858721
1427159069.2,-11.875341
1427159069.216,-16.999313
1427159069.232,-20.530363
1427159069.247,-22.603632
1427159069.263,-23.240007
1427159069.278,-22.498951
1427159069.294,-20.650478
1427159069.31,-18.177567
1427159069.325,-15.65094
1427159069.341,-13.5336075
1427159069.357,-12.023087
1427159069.372,-11.013889
1427159069.388,-10.196003
1427159069.403,-9.238834
1427159069.419,-7.9770546
1427159069.435,-6.5073853
1427159069.45,-5.1383514
1427159069.466,-4.2026443
1427159069.482,-3.8380737
1427159069.497,-3.8821945
1427159069.513,-3.8856964
1427159069.528,-3.3195915
1427159069.544,-1.8388138
1427159069.56,0.5387497
1427159069.575,3.4804192
1427159069.591,6.5182076
1427159069.607,9.276871
1427159069.622,11.6805725
1427159069.638,13.937775
1427159069.653,16.461433
1427159069.669,19.680466
1427159069.685,23.890198
1427159069.7,29.155083
1427159069.716,35.21485
1427159069.732,41.420807
1427159069.747,46.793083
1427159069.763,50.200104
1427159069.778,50.63797
1427159069.794,47.585953
1427159069.81,41.181503
1427159069.825,32.204338
1427159069.841,21.830002
1427159069.857,11.2736435
1427159069.872,1.5027008
1427159069.888,-6.9092407
1427159069.903,-13.707603
1427159069.919,-18.856644
1427159069.935,-22.385307
1427159069.95,-24.37056
1427159069.966,-24.998222
1427159069.982,-24.61177
1427159069.997,-23.686958
1427159070.013,-22.74765
1427159070.028,-22.19513
1427159070.044,-22.179344
1427159070.06,-22.58165
1427159070.075,-23.070961
1427159070.091,-23.298576
1427159070.107,-23.06366
1427159070.122,-22.451263
1427159070.138,-21.764824
1427159070.153,-21.37017
1427159070.169,-21.474861
1427159070.185,-21.945663
1427159070.2,-22.343391
1427159070.216,-22.019722
1427159070.232,-20.447418
1427159070.247,-17.403496
1427159070.263,-13.106621
1427159070.278,-8.107498
1427159070.294,-3.0786438
1427159070.31,1.4795685
1427159070.325,5.4321747
1427159070.341,9.014534
1427159070.357,12.704597
1427159070.372,16.95311
1427159070.388,21.997787
1427159070.403,27.71576
1427159070.419,33.54426
1427159070.435,38.581963
1427159070.45,41.70327
1427159070.466,41.88566
1427159070.482,38.5179
1427159070.497,31.733414
1427159070.513,22.425217
1427159070.528,12.056412
1427159070.544,2.145691
1427159070.56,-6.228409
1427159070.575,-12.692261
1427159070.591,-17.516891
1427159070.607,-21.251862
1427159070.622,-24.330109
1427159070.638,-26.82692
1427159070.653,-28.517258
1427159070.669,-29.149063
1427159070.685,-28.644958
1427159070.7,-27.25769
1427159070.716,-25.42868
1427159070.732,-23.640656
1427159070.747,-22.15921
1427159070.763,-21.005035
1427159070.778,-19.932022
1427159070.794,-18.646454
1427159070.81,-16.94574
1427159070.825,-14.84552
1427159070.841,-12.5859375
1427159070.857,-10.552734
1427159070.872,-9.094177
1427159070.888,-8.318817
1427159070.904,-8.088654
1427159070.919,-8.076111
1427159070.935,-7.9275055
1427159070.95,-7.4420013
1427159070.966,-6.6466827
1427159070.982,-5.740158
1427159070.997,-4.9039764
1427159071.013,-4.1984406
1427159071.028,-3.4332428
1427159071.044,-2.2646027
1427159071.06,-0.2725525
1427159071.075,2.9206848
1427159071.091,7.561432
1427159071.107,13.741562
1427159071.122,21.339981
1427159071.138,29.980637
1427159071.154,38.917236
1427159071.169,47.04045
1427159071.185,53.04146
1427159071.2,55.707397
1427159071.216,54.345566
1427159071.232,49.048798
1427159071.247,40.698883
1427159071.263,30.681229
1427159071.279,20.464355
1427159071.294,11.108673
1427159071.31,3.1279144
1427159071.325,-3.4884338
1427159071.341,-8.951508
1427159071.357,-13.466385
1427159071.372,-17.082108
1427159071.388,-19.720398
1427159071.404,-21.368881
1427159071.419,-22.121735
1427159071.435,-22.25232
1427159071.45,-22.05838
1427159071.466,-21.806107
1427159071.482,-21.612808
1427159071.497,-21.482574
1427159071.513,-21.299377
1427159071.529,-20.957764
1427159071.544,-20.36847
1427159071.56,-19.484558
1427159071.575,-18.322632
1427159071.591,-16.91867
1427159071.607,-15.334625
1427159071.622,-13.597626
1427159071.638,-11.7117
1427159071.654,-9.621521
1427159071.669,-7.281616
1427159071.685,-4.651703
1427159071.7,-1.6856079
1427159071.716,1.6191406
1427159071.732,5.2913513
1427159071.747,9.319702
1427159071.763,13.631653
1427159071.779,18.065948
1427159071.794,22.378784
1427159071.81,26.334381
1427159071.825,29.801453
1427159071.841,32.84958
1427159071.857,35.738586
1427159071.872,38.885284
1427159071.888,42.729218
1427159071.904,47.516754
1427159071.919,53.164307
1427159071.935,59.080505
1427159071.95,64.21689
1427159071.966,67.27042
1427159071.982,67.07062
1427159071.997,63.018494
1427159072.013,55.370605
1427159072.029,45.16986
1427159072.044,33.935455
1427159072.06,23.138947
1427159072.075,13.803741
1427159072.091,6.318329
1427159072.107,0.63931274
1427159072.122,-3.4953308
1427159072.138,-6.2598877
1427159072.154,-7.7136536
1427159072.169,-7.8442383
1427159072.185,-6.7473755
1427159072.2,-4.6611633
1427159072.216,-1.9645386
1427159072.232,0.9822998
1427159072.247,3.9138489
1427159072.263,6.697571
1427159072.279,9.300903
1427159072.294,11.677002
1427159072.31,13.747589
1427159072.325,15.415985
1427159072.341,16.589935
1427159072.357,17.251648
1427159072.372,17.456207
1427159072.388,17.302368
1427159072.404,16.87735
1427159072.419,16.298279
1427159072.435,15.663269
1427159072.45,15.14212
1427159072.466,14.889923
1427159072.482,15.019409
1427159072.497,15.503754
1427159072.513,16.186218
1427159072.529,16.789398
1427159072.544,17.090103
1427159072.56,17.01529
1427159072.575,16.673569
1427159072.591,16.31955
1427159072.607,16.245285
1427159072.622,16.70015
1427159072.638,17.88942
1427159072.654,19.998001
1427159072.669,23.182816
1427159072.685,27.452469
1427159072.7,32.462784
1427159072.716,37.344635
1427159072.732,40.8246
1427159072.747,41.509598
1427159072.763,38.4205
1427159072.779,31.40863
1427159072.794,21.267746
1427159072.81,9.435699
1427159072.825,-2.4734344
1427159072.841,-13.247437
1427159072.857,-22.312729
1427159072.872,-29.706924
1427159072.888,-35.746017
1427159072.904,-40.725327
1427159072.919,-44.689316
1427159072.935,-47.48787
1427159072.95,-48.96248
1427159072.966,-49.106567
1427159072.982,-48.18184
1427159072.997,-46.68251
1427159073.013,-45.13536
1427159073.029,-43.951035
1427159073.044,-43.300797
1427159073.06,-43.093185
1427159073.075,-43.05458
1427159073.091,-42.910385
1427159073.107,-42.444397
1427159073.122,-41.558914
1427159073.138,-40.220276
1427159073.154,-38.43721
1427159073.169,-36.206787
1427159073.185,-33.572433
1427159073.2,-30.594498
1427159073.216,-27.404129
1427159073.232,-24.11261
1427159073.247,-20.759384
1427159073.263,-17.267548
1427159073.279,-13.507294
1427159073.294,-9.33139
1427159073.31,-4.7073975
1427159073.325,0.27241516
1427159073.341,5.401985
1427159073.357,10.447121
1427159073.372,15.223846
1427159073.388,19.680176
1427159073.404,23.926994
1427159073.419,28.263893
1427159073.435,33.09356
1427159073.45,38.76236
1427159073.466,45.334656
1427159073.482,52.383705
1427159073.497,58.899857
1427159073.513,63.46894
1427159073.529,64.66684
1427159073.544,61.578056
1427159073.56,54.147125
1427159073.575,43.27266
1427159073.591,30.481369
1427159073.607,17.453125
1427159073.622,5.4791946
1427159073.638,-4.774338
1427159073.654,-13.255608
1427159073.669,-20.1978
1427159073.685,-25.841072
1427159073.7,-30.239487
1427159073.716,-33.34304
1427159073.732,-35.1243
1427159073.747,-35.777176
1427159073.763,-35.653282
1427159073.779,-35.190994
1427159073.794,-34.69178
1427159073.81,-34.259583
1427159073.826,-33.82686
1427159073.841,-33.304443
1427159073.857,-32.68676
1427159073.872,-32.091568
1427159073.888,-31.672165
1427159073.904,-31.49752
1427159073.919,-31.471703
1427159073.935,-31.384972
1427159073.951,-30.960396
1427159073.966,-29.98832
1427159073.982,-28.336037
1427159073.997,-26.012444
1427159074.013,-23.135323
1427159074.029,-19.947609
1427159074.044,-16.700699
1427159074.06,-13.596848
1427159074.076,-10.6731415
1427159074.091,-7.7440186
1427159074.107,-4.466324
1427159074.122,-0.52124023
1427159074.138,4.240204
1427159074.154,9.646038
1427159074.169,15.2753525
1427159074.185,20.616035
1427159074.201,25.304722
1427159074.216,29.273819
1427159074.232,32.78512
1427159074.247,36.30827
1427159074.263,40.407
1427159074.279,45.523067
1427159074.294,51.809948
1427159074.31,58.946026
1427159074.326,66.047775
1427159074.341,71.738846
1427159074.357,74.436935
1427159074.372,72.86784
1427159074.388,66.53851
1427159074.404,55.998672
1427159074.419,42.678825
1427159074.435,28.39386
1427159074.451,14.769791
1427159074.466,2.7681732
1427159074.482,-7.324486
1427159074.497,-15.739677
1427159074.513,-22.762505
1427159074.529,-28.561787
1427159074.544,-33.088722
1427159074.56,-36.26087
1427159074.576,-38.10099
1427159074.591,-38.878174
1427159074.607,-39.01941
1427159074.622,-38.97765
1427159074.638,-39.066162
1427159074.654,-39.380283
1427159074.669,-39.820824
1427159074.685,-40.190353
1427159074.701,-40.310646
1427159074.716,-40.121655
1427159074.732,-39.705048
1427159074.747,-39.220356
1427159074.763,-38.779476
1427159074.779,-38.36784
1427159074.794,-37.760963
1427159074.81,-36.626083
1427159074.826,-34.640762
1427159074.841,-31.650719
1427159074.857,-27.755455
1427159074.872,-23.329174
1427159074.888,-18.849472
1427159074.904,-14.742147
1427159074.919,-11.179197
1427159074.935,-8.0624275
1427159074.951,-5.053403
1427159074.966,-1.7559028
1427159074.982,2.1284356
1427159074.997,6.6476564
1427159075.013,11.610202
1427159075.029,16.659971
1427159075.044,21.407455
1427159075.06,25.582226
1427159075.076,29.167368
1427159075.091,32.356056
1427159075.107,35.538036
1427159075.122,39.197697
1427159075.138,43.79973
1427159075.154,49.576107
1427159075.169,56.408794
1427159075.185,63.622925
1427159075.201,70.04757
1427159075.216,74.18982
1427159075.232,74.65309
1427159075.247,70.55369
1427159075.263,61.913254
1427159075.279,49.655712
1427159075.294,35.374123
1427159075.31,20.82329
1427159075.326,7.441128
1427159075.341,-3.9592266
1427159075.357,-13.189247
1427159075.372,-20.44343
1427159075.388,-25.98374
1427159075.404,-29.954306
1427159075.419,-32.377266
1427159075.435,-33.334503
1427159075.451,-33.087032
1427159075.466,-32.148148
1427159075.482,-31.134527
1427159075.497,-30.544453
1427159075.513,-30.586761
1427159075.529,-31.138355
1427159075.544,-31.846405
1427159075.56,-32.379974
1427159075.576,-32.553215
1427159075.591,-32.397774
1427159075.607,-32.058266
1427159075.622,-31.671333
1427159075.638,-31.235348
1427159075.654,-30.621307
1427159075.669,-29.642315
1427159075.685,-28.132313
1427159075.701,-26.01968
1427159075.716,-23.335117
1427159075.732,-20.147282
1427159075.747,-16.554588
1427159075.763,-12.571568
1427159075.779,-8.180397
1427159075.794,-3.3789177
1427159075.81,1.7708015
1427159075.826,7.122078
1427159075.841,12.4620285
1427159075.857,17.599075
1427159075.872,22.457077
1427159075.888,27.112534
1427159075.904,31.809967
1427159075.919,36.93631
1427159075.935,42.799805
1427159075.951,49.48851
1427159075.966,56.613716
1427159075.982,63.227684
1427159075.997,67.92251
1427159076.013,69.22641
1427159076.029,66.0968
1427159076.044,58.38784
1427159076.06,46.93364
1427159076.076,33.298798
1427159076.091,19.247147
1427159076.107,6.1952057
1427159076.122,-5.1000214
1427159076.138,-14.4433975
1427159076.154,-21.981773
1427159076.169,-27.869125
1427159076.185,-32.164284
1427159076.201,-34.87497
1427159076.216,-36.154854
1427159076.232,-36.30143
1427159076.247,-35.78775
1427159076.263,-35.082764
1427159076.279,-34.523827
1427159076.294,-34.28762
1427159076.31,-34.422256
1427159076.326,-34.867607
1427159076.341,-35.52056
1427159076.357,-36.20044
1427159076.372,-36.685577
1427159076.388,-36.71245
1427159076.404,-36.102608
1427159076.419,-34.792816
1427159076.435,-32.85869
1427159076.451,-30.465637
1427159076.466,-27.779053
1427159076.482,-24.861443
1427159076.498,-21.66903
1427159076.513,-18.046623
1427159076.529,-13.847267
1427159076.544,-8.998108
1427159076.56,-3.5959396
1427159076.576,2.1256332
1427159076.591,7.8666306
1427159076.607,13.368835
1427159076.623,18.522583
1427159076.638,23.410263
1427159076.654,28.25827
1427159076.669,33.391083
1427159076.685,39.139618
1427159076.701,45.80693
1427159076.716,53.531555
1427159076.732,62.117905
1427159076.748,70.86578
1427159076.763,78.507385
1427159076.779,83.40039
1427159076.794,84.00238
1427159076.81,79.411514
1427159076.826,69.79686
1427159076.841,56.37941
1427159076.857,41.04419
1427159076.873,25.670029
1427159076.888,11.585648
1427159076.904,-0.64611816
1427159076.919,-11.070251
1427159076.935,-19.964233
1427159076.951,-27.500626
1427159076.966,-33.629364
1427159076.982,-38.202316
1427159076.998,-41.16127
1427159077.013,-42.71042
1427159077.029,-43.317444
1427159077.044,-43.5271
1427159077.06,-43.793915
1427159077.076,-44.304047
1427159077.091,-44.97386
1427159077.107,-45.579285
1427159077.123,-45.943604
1427159077.138,-46.027634
1427159077.154,-45.972397
1427159077.169,-45.93318
1427159077.185,-45.94203
1427159077.201,-45.814255
1427159077.216,-45.185486
1427159077.232,-43.662064
1427159077.248,-41.021805
1427159077.263,-37.317413
1427159077.279,-32.840637
1427159077.294,-28.05957
1427159077.31,-23.389114
1427159077.326,-19.027954
1427159077.341,-14.923569
1427159077.357,-10.74382
1427159077.373,-6.095291
1427159077.388,-0.6795044
1427159077.404,5.4882507
1427159077.419,12.102905
1427159077.435,18.639847
1427159077.451,24.60292
1427159077.466,29.757782
1427159077.482,34.18701
1427159077.498,38.327515
1427159077.513,42.76895
1427159077.529,48.118652
1427159077.544,54.798462
1427159077.56,62.842926
1427159077.576,71.725266
1427159077.591,80.28874
1427159077.607,86.90306
1427159077.623,89.80852
1427159077.638,87.68611
1427159077.654,80.112976
1427159077.669,67.783615
1427159077.685,52.29805
1427159077.701,35.64023
1427159077.716,19.551575
1427159077.732,5.11467
1427159077.748,-7.3361053
1427159077.763,-17.966019
1427159077.779,-27.067993
1427159077.794,-34.744614
1427159077.81,-40.909607
1427159077.826,-45.376633
1427159077.841,-48.13971
1427159077.857,-49.49768
1427159077.873,-50.011963
1427159077.888,-50.310974
1427159077.904,-50.84561
1427159077.919,-51.69272
1427159077.935,-52.629562
1427159077.951,-53.279434
1427159077.966,-53.397263
1427159077.982,-53.00238
1427159077.998,-52.37108
1427159078.013,-51.84163
1427159078.029,-51.592255
1427159078.044,-51.50952
1427159078.06,-51.19188
1427159078.076,-50.094498
1427159078.091,-47.787766
1427159078.107,-44.12607
1427159078.123,-39.34996
1427159078.138,-33.993378
1427159078.154,-28.694504
1427159078.169,-23.912766
1427159078.185,-19.76825
1427159078.201,-15.931442
1427159078.216,-11.8667755
1427159078.232,-7.0524597
1427159078.248,-1.2888184
1427159078.263,5.194458
1427159078.279,11.821838
1427159078.294,17.974762
1427159078.31,23.273193
1427159078.326,27.721848
1427159078.341,31.712097
1427159078.357,35.80139
1427159078.373,40.522644
1427159078.388,46.30136
1427159078.404,53.347427
1427159078.419,61.599854
1427159078.435,70.55888
1427159078.451,79.16614
1427159078.466,85.82901
1427159078.482,88.78844
1427159078.498,86.66
1427159078.513,79.02377
1427159078.529,66.64476
1427159078.544,51.258194
1427159078.56,34.930374
1427159078.576,19.40802
1427159078.591,5.674591
1427159078.607,-6.0382996
1427159078.623,-15.952545
1427159078.638,-24.292755
1427159078.654,-31.102112
1427159078.669,-36.239227
1427159078.685,-39.582764
1427159078.701,-41.209442
1427159078.716,-41.485138
1427159078.732,-40.967407
1427159078.748,-40.259857
1427159078.763,-39.831146
1427159078.779,-39.920807
1427159078.794,-40.49295
1427159078.81,-41.33191
1427159078.826,-42.122955
1427159078.841,-42.57007
1427159078.857,-42.470154
1427159078.873,-41.75186
1427159078.888,-40.4357
1427159078.904,-38.59903
1427159078.919,-36.331146
1427159078.935,-33.69754
1427159078.951,-30.68045
1427159078.966,-27.214447
1427159078.982,-23.185211
1427159078.998,-18.4906
1427159079.013,-13.10318
1427159079.029,-7.1562195
1427159079.044,-0.9225464
1427159079.06,5.2624817
1427159079.076,11.088776
1427159079.091,16.391296
1427159079.107,21.22055
1427159079.123,25.790161
1427159079.138,30.469177
1427159079.154,35.71524
1427159079.17,41.940155
1427159079.185,49.315796
1427159079.201,57.60315
1427159079.216,65.914
1427159079.232,72.80618
1427159079.248,76.549774
1427159079.263,75.67255
1427159079.279,69.5014
1427159079.294,58.500458
1427159079.31,44.17737
1427159079.326,28.636902
1427159079.341,13.877563
1427159079.357,1.1993408
1427159079.373,-9.050049
1427159079.388,-17.260132
1427159079.404,-24.140991
1427159079.42,-30.19693
1427159079.435,-35.5011
1427159079.451,-39.777954
1427159079.466,-42.674133
1427159079.482,-44.093323
1427159079.498,-44.335693
1427159079.513,-43.950867
1427159079.529,-43.54535
1427159079.545,-43.483887
1427159079.56,-43.8266
1427159079.576,-44.383575
1427159079.591,-44.89038
1427159079.607,-45.133118
1427159079.623,-44.99939
1427159079.638,-44.42633
1427159079.654,-43.346405
1427159079.67,-41.661835
1427159079.685,-39.30719
1427159079.701,-36.237
1427159079.716,-32.51056
1427159079.732,-28.212097
1427159079.748,-23.422516
1427159079.763,-18.153503
1427159079.779,-12.397095
1427159079.795,-6.1629333
1427159079.81,0.38967896
1427159079.826,6.9762573
1427159079.841,13.211273
1427159079.857,18.799835
1427159079.873,23.615631
1427159079.888,27.87616
1427159079.904,32.01529
1427159079.92,36.606873
1427159079.935,42.17459
1427159079.951,49.047546
1427159079.966,57.203064
1427159079.982,66.15756
1427159079.998,74.87366
1427159080.013,81.841034
1427159080.029,85.35712
1427159080.045,84.03372
1427159080.06,77.320984
1427159080.076,65.81491
1427159080.091,51.104004
1427159080.107,35.25351
1427159080.123,20.05957
1427159080.138,6.584442
1427159080.154,-5.0221863
1427159080.17,-15.150269
1427159080.185,-24.276917
1427159080.201,-32.51468
1427159080.216,-39.61612
1427159080.232,-45.15454
1427159080.248,-48.909424
1427159080.263,-51.03
1427159080.279,-52.01892
1427159080.295,-52.499207
1427159080.31,-52.951965
1427159080.326,-53.539215
1427159080.341,-54.144592
1427159080.357,-54.4942
1427159080.373,-54.39157
1427159080.388,-53.81952
1427159080.404,-52.955963
1427159080.42,-52.059204
1427159080.435,-51.28296
1427159080.451,-50.560394
1427159080.466,-49.591614
1427159080.482,-47.93666
1427159080.498,-45.191452
1427159080.513,-41.18805
1427159080.529,-36.108948
1427159080.545,-30.423904
1427159080.56,-24.75888
1427159080.576,-19.577286
1427159080.591,-15.008392
1427159080.607,-10.775879
1427159080.623,-6.3784027
1427159080.638,-1.3239746
1427159080.654,4.5369873
1427159080.67,10.9700775
1427159080.685,17.428543
1427159080.701,23.3508
1427159080.716,28.421463
1427159080.732,32.703476
1427159080.748,36.594208
1427159080.763,40.604736
1427159080.779,45.205017
1427159080.795,50.748077
1427159080.81,57.41655
1427159080.826,65.208176
1427159080.841,73.726654
1427159080.857,82.03992
1427159080.873,88.64349
1427159080.888,91.80412
1427159080.904,90.07864
1427159080.92,82.95021
1427159080.935,71.07617
1427159080.951,56.13324
1427159080.966,40.16214
1427159080.982,24.891174
1427159080.998,11.240524
1427159081.013,-0.6758728
1427159081.029,-11.213425
1427159081.045,-20.724869
1427159081.06,-29.283676
1427159081.076,-36.64894
1427159081.091,-42.510925
1427159081.107,-46.736816
1427159081.123,-49.499893
1427159081.138,-51.20012
1427159081.154,-52.313522
1427159081.17,-53.167816
1427159081.185,-53.91194
1427159081.201,-54.514557
1427159081.216,-54.870056
1427159081.232,-54.915115
1427159081.248,-54.671463
1427159081.263,-54.20546
1427159081.279,-53.595642
1427159081.295,-52.851852
1427159081.31,-51.89087
1427159081.326,-50.541946
1427159081.341,-48.64505
1427159081.357,-46.0394
1427159081.373,-42.66594
1427159081.388,-38.52841
1427159081.404,-33.751022
1427159081.42,-28.50357
1427159081.435,-23.077866
1427159081.451,-17.761658
1427159081.466,-12.854767
1427159081.482,-8.510941
1427159081.498,-4.721237
1427159081.513,-1.2716827
1427159081.529,2.1841125
1427159081.545,6.024704
1427159081.56,10.447296
1427159081.576,15.401642
1427159081.591,20.580246
1427159081.607,25.56192
1427159081.623,29.984726
1427159081.638,33.740326
1427159081.654,36.97856
1427159081.67,40.10518
1427159081.685,43.594086
1427159081.701,47.919724
1427159081.716,53.408356
1427159081.732,60.181183
1427159081.748,67.941986
1427159081.763,75.93767
1427159081.779,82.85423
1427159081.795,87.07876
1427159081.81,87.11416
1427159081.826,82.15002
1427159081.842,72.40981
1427159081.857,59.15625
1427159081.873,44.256264
1427159081.888,29.559235
1427159081.904,16.298218
1427159081.92,4.945999
1427159081.935,-4.6555405
1427159081.951,-12.828949
1427159081.966,-19.777061
1427159081.982,-25.441002
1427159081.998,-29.681664
1427159082.013,-32.515663
1427159082.029,-34.253685
1427159082.045,-35.432495
1427159082.06,-36.60698
1427159082.076,-38.079712
1427159082.092,-39.802505
1427159082.107,-41.434677
1427159082.123,-42.575676
1427159082.138,-42.979355
1427159082.154,-42.711967
1427159082.17,-42.093025
1427159082.185,-41.51728
1427159082.201,-41.152954
1427159082.217,-40.84413
1427159082.232,-40.098206
1427159082.248,-38.36737
1427159082.263,-35.30156
1427159082.279,-31.01355
1427159082.295,-26.03164
1427159082.31,-21.058746
1427159082.326,-16.614624
1427159082.342,-12.784676
1427159082.357,-9.204758
1427159082.373,-5.2998276
1427159082.388,-0.61520386
1427159082.404,4.9028397
1427159082.42,10.912308
1427159082.435,16.824669
1427159082.451,22.145103
1427159082.467,26.663208
1427159082.482,30.551666
1427159082.498,34.204266
1427159082.513,38.118053
1427159082.529,42.697296
1427159082.545,48.215813
1427159082.56,54.71122
1427159082.576,61.893696
1427159082.592,69.017624
1427159082.607,74.873924
1427159082.623,77.99939
1427159082.638,77.12567
1427159082.654,71.65027
1427159082.67,61.961414
1427159082.685,49.343315
1427159082.701,35.583244
1427159082.717,22.31348
1427159082.732,10.57016
1427159082.748,0.58556366
1427159082.763,-7.947117
1427159082.779,-15.530212
1427159082.795,-22.44291
1427159082.81,-28.62893
1427159082.826,-33.80437
1427159082.842,-37.686104
1427159082.857,-40.232258
1427159082.873,-41.69398
1427159082.888,-42.54987
1427159082.904,-43.269855
1427159082.92,-44.1598
1427159082.935,-45.26548
1427159082.951,-46.41336
1427159082.967,-47.35367
1427159082.982,-47.878838
1427159082.998,-47.91633
1427159083.013,-47.500275
1427159083.029,-46.694588
1427159083.045,-45.499542
1427159083.06,-43.86646
1427159083.076,-41.686558
1427159083.092,-38.90123
1427159083.107,-35.567577
1427159083.123,-31.842014
1427159083.138,-27.948685
1427159083.154,-24.046358
1427159083.17,-20.213253
1427159083.185,-16.418573
1427159083.201,-12.593538
1427159083.217,-8.700548
1427159083.232,-4.7615185
1427159083.248,-0.8110764
1427159083.263,3.155015
1427159083.279,7.2131724
1427159083.295,11.515648
1427159083.31,16.126053
1427159083.326,21.008667
1427159083.342,25.957436
1427159083.357,30.707836
1427159083.373,35.01958
1427159083.388,38.849728
1427159083.404,42.349434
1427159083.42,45.830444
1427159083.435,49.692215
1427159083.451,54.315994
1427159083.467,59.996613
1427159083.482,66.83512
1427159083.498,74.54631
1427159083.513,82.328926
1427159083.529,88.872284
1427159083.545,92.58723
1427159083.56,92.095146
1427159083.576,86.75525
1427159083.592,76.95857
1427159083.607,64.04384
1427159083.623,49.804176
1427159083.638,35.854645
1427159083.654,23.148373
1427159083.67,11.8991585
1427159083.685,1.8098907
1427159083.701,-7.4691696
1427159083.717,-16.036793
1427159083.732,-23.68584
1427159083.748,-30.061344
1427159083.763,-34.934853
1427159083.779,-38.359028
1427159083.795,-40.636696
1427159083.81,-42.19602
1427159083.826,-43.403934
1427159083.842,-44.475067
1427159083.857,-45.44535
1427159083.873,-46.28416
1427159083.888,-46.933445
1427159083.904,-47.418343
1427159083.92,-47.812504
1427159083.935,-48.184544
1427159083.951,-48.486984
1427159083.967,-48.556393
1427159083.982,-48.089504
1427159083.998,-46.823467
1427159084.013,-44.65255
1427159084.029,-41.687492
1427159084.045,-38.244385
1427159084.06,-34.693005
1427159084.076,-31.268463
1427159084.092,-28.008854
1427159084.107,-24.77853
1427159084.123,-21.401356
1427159084.138,-17.77689
1427159084.154,-13.962875
1427159084.17,-10.0914955
1427159084.185,-6.2760696
1427159084.201,-2.4970436
1427159084.217,1.4050484
1427159084.232,5.6363335
1427159084.248,10.309547
1427159084.263,15.374496
1427159084.279,20.576847
1427159084.295,25.586731
1427159084.31,30.122162
1427159084.326,34.075638
1427159084.342,37.56572
1427159084.357,40.886246
1427159084.373,44.42105
1427159084.388,48.61856
1427159084.404,53.847878
1427159084.42,60.28968
1427159084.435,67.74847
1427159084.451,75.465866
1427159084.467,82.103836
1427159084.482,86.02184
1427159084.498,85.778175
1427159084.513,80.68779
1427159084.529,71.147255
1427159084.545,58.53295
1427159084.56,44.66507
1427159084.576,31.197876
1427159084.592,19.0876
1427159084.607,8.552002
1427159084.623,-0.7229309
1427159084.638,-9.094704
1427159084.654,-16.654999
1427159084.67,-23.199501
1427159084.685,-28.369934
1427159084.701,-31.95636
1427159084.717,-34.065163
1427159084.732,-35.11908
1427159084.748,-35.712555
1427159084.764,-36.36447
1427159084.779,-37.374825
1427159084.795,-38.709198
1427159084.81,-40.122597
1427159084.826,-41.27968
1427159084.842,-41.95198
1427159084.857,-42.11386
1427159084.873,-41.91204
1427159084.889,-41.518997
1427159084.904,-40.973656
1427159084.92,-40.107605
1427159084.935,-38.59732
1427159084.951,-36.149117
1427159084.967,-32.71099
1427159084.982,-28.52024
1427159084.998,-24.049889
1427159085.014,-19.79747
1427159085.029,-16.095299
1427159085.045,-12.937569
1427159085.06,-10.053543
1427159085.076,-7.0215073
1427159085.092,-3.4727554
1427159085.107,0.77856445
1427159085.123,5.65773
1427159085.139,10.897575
1427159085.154,16.125412
1427159085.17,20.995628
1427159085.185,25.298485
1427159085.201,29.054688
1427159085.217,32.504417
1427159085.232,36.06067
1427159085.248,40.18653
1427159085.264,45.289886
1427159085.279,51.546326
1427159085.295,58.776108
1427159085.31,66.27632
1427159085.326,72.87549
1427159085.342,77.11391
1427159085.357,77.66181
1427159085.373,73.77382
1427159085.389,65.60546
1427159085.404,54.206665
1427159085.42,41.1821
1427159085.435,28.10624
1427159085.451,16.058846
1427159085.467,5.4190216
1427159085.482,-3.955803
1427159085.498,-12.401352
1427159085.514,-20.058533
1427159085.529,-26.787148
1427159085.545,-32.269783
1427159085.56,-36.284557
1427159085.576,-38.87646
1427159085.592,-40.4107
1427159085.607,-41.379066
1427159085.623,-42.232407
1427159085.639,-43.203537
1427159085.654,-44.277206
1427159085.67,-45.26099
1427159085.685,-45.945892
1427159085.701,-46.201473
1427159085.717,-46.02771
1427159085.732,-45.525146
1427159085.748,-44.830532
1427159085.764,-44.014126
1427159085.779,-43.073425
1427159085.795,-41.900536
1427159085.81,-40.36808
1427159085.826,-38.3259
1427159085.842,-35.699806
1427159085.857,-32.460674
1427159085.873,-28.658253
1427159085.889,-24.409725
1427159085.904,-19.882748
1427159085.92,-15.283836
1427159085.935,-10.828648
1427159085.951,-6.641842
1427159085.967,-2.7385292
1427159085.982,1.0585327
1427159085.998,4.9876175
1427159086.014,9.262016
1427159086.029,13.914238
1427159086.045,18.764877
1427159086.06,23.497017
1427159086.076,27.870987
1427159086.092,31.81443
1427159086.107,35.468704
1427159086.123,39.10942
1427159086.139,43.01571
1427159086.154,47.42788
1427159086.17,52.599113
1427159086.185,58.743713
1427159086.201,65.9376
1427159086.217,73.86311
1427159086.232,81.60292
1427159086.248,87.65427
1427159086.264,90.28114
1427159086.279,88.13369
1427159086.295,80.82935
1427159086.31,69.15076
1427159086.326,54.79908
1427159086.342,39.74114
1427159086.357,25.542164
1427159086.373,12.9865265
1427159086.389,2.1153564
1427159086.404,-7.453083
1427159086.42,-16.068813
1427159086.435,-23.825462
1427159086.451,-30.536335
1427159086.467,-35.950172
1427159086.482,-39.930893
1427159086.498,-42.618378
1427159086.514,-44.365444
1427159086.529,-45.631588
1427159086.545,-46.782364
1427159086.56,-48.01028
1427159086.576,-49.289852
1427159086.592,-50.48565
1427159086.607,-51.430367
1427159086.623,-52.04631
1427159086.639,-52.351265
1427159086.654,-52.401318
1427159086.67,-52.184998
1427159086.685,-51.587906
1427159086.701,-50.3942
1427159086.717,-48.424255
1427159086.732,-45.628067
1427159086.748,-42.15831
1427159086.764,-38.316166
1427159086.779,-34.403477
1427159086.795,-30.575832
1427159086.81,-26.833279
1427159086.826,-23.030483
1427159086.842,-19.041481
1427159086.857,-14.86153
1427159086.873,-10.634499
1427159086.889,-6.513954
1427159086.904,-2.5697365
1427159086.92,1.3163605
1427159086.935,5.404171
1427159086.951,9.942066
1427159086.967,14.981186
1427159086.982,20.336185
1427159086.998,25.62259
1427159087.014,30.489204
1427159087.029,34.761597
1427159087.045,38.545807
1427159087.06,42.193535
1427159087.076,46.17247
1427159087.092,50.93866
1427159087.107,56.812744
1427159087.123,63.813976
1427159087.139,71.52739
1427159087.154,78.98062
1427159087.17,84.763535
1427159087.185,87.339355
1427159087.201,85.56468
1427159087.217,79.12594
1427159087.232,68.73888
1427159087.248,55.86269
1427159087.264,42.19382
1427159087.279,29.056389
1427159087.295,17.11486
1427159087.31,6.4408226
1427159087.326,-3.1790848
1427159087.342,-11.880283
1427159087.357,-19.563896
1427159087.373,-25.948647
1427159087.389,-30.771858
1427159087.404,-33.994205
1427159087.42,-35.84792
1427159087.436,-36.79369
1427159087.451,-37.336823
1427159087.467,-37.906364
1427159087.482,-38.688347
1427159087.498,-39.67621
1427159087.514,-40.687237
1427159087.529,-41.54829
1427159087.545,-42.19523
1427159087.561,-42.701447
1427159087.576,-43.167294
1427159087.592,-43.61363
1427159087.607,-43.85177
1427159087.623,-43.51099
1427159087.639,-42.182396
1427159087.654,-39.64357
1427159087.67,-35.980904
1427159087.686,-31.614426
1427159087.701,-27.097063
1427159087.717,-22.927404
1427159087.732,-19.272697
1427159087.748,-15.958712
1427159087.764,-12.500332
1427159087.779,-8.379889
1427159087.795,-3.2663307
1427159087.811,2.800786
1427159087.826,9.397587
1427159087.842,15.86412
1427159087.857,21.599003
1427159087.873,26.284428
1427159087.889,30.032228
1427159087.904,33.310024
1427159087.92,36.770905
1427159087.936,41.034264
1427159087.951,46.535866
1427159087.967,53.344917
1427159087.982,61.095993
1427159087.998,68.898895
1427159088.014,75.41014
1427159088.029,79.10532
1427159088.045,78.71801
1427159088.061,73.64835
1427159088.076,64.26046
1427159088.092,51.780983
1427159088.107,37.875736
1427159088.123,24.080679
1427159088.139,11.392226
1427159088.154,0.1052866
1427159088.17,-9.928937
1427159088.186,-18.976574
1427159088.201,-27.063343
1427159088.217,-33.93594
1427159088.232,-39.187153
1427159088.248,-42.574432
1427159088.264,-44.227024
1427159088.279,-44.675243
1427159088.295,-44.670628
1427159088.311,-44.87632
1427159088.326,-45.614845
1427159088.342,-46.79326
1427159088.357,-48.05468
1427159088.373,-49.03511
1427159088.389,-49.53315
1427159088.404,-49.59968
1427159088.42,-49.364143
1427159088.436,-48.938755
1427159088.451,-48.274567
1427159088.467,-47.214455
1427159088.482,-45.568527
1427159088.498,-43.21552
1427159088.514,-40.135406
1427159088.529,-36.384537
1427159088.545,-32.03589
1427159088.561,-27.232721
1427159088.576,-22.19934
1427159088.592,-17.22834
1427159088.607,-12.563173
1427159088.623,-8.28112
1427159088.639,-4.1810837
1427159088.654,0.08490944
1427159088.67,4.8651657
1427159088.686,10.271042
1427159088.701,16.098112
1427159088.717,21.901913
1427159088.732,27.232592
1427159088.748,31.829952
1427159088.764,35.764046
1427159088.779,39.340294
1427159088.795,43.004635
1427159088.811,47.166203
1427159088.826,52.173534
1427159088.842,58.21521
1427159088.857,65.27088
1427159088.873,72.92314
1427159088.889,80.23983
1427159088.904,85.8413
1427159088.92,88.21536
1427159088.936,86.19881
1427159088.951,79.48221
1427159088.967,68.714386
1427159088.982,55.343117
1427159088.998,41.0617
1427159089.014,27.250408
1427159089.029,14.645782
1427159089.045,3.357071
1427159089.061,-6.8659515
1427159089.076,-16.26186
1427159089.092,-24.845448
1427159089.107,-32.3898
1427159089.123,-38.600723
1427159089.139,-43.290516
1427159089.154,-46.521107
1427159089.17,-48.58507
1427159089.186,-49.932735
1427159089.201,-50.992504
1427159089.217,-52.052204
1427159089.232,-53.171112
1427159089.248,-54.23079
1427159089.264,-55.0253
1427159089.279,-55.41982
1427159089.295,-55.389656
1427159089.311,-55.05074
1427159089.326,-54.51773
1427159089.342,-53.80407
1427159089.357,-52.783115
1427159089.373,-51.230907
1427159089.389,-48.970013
1427159089.404,-45.97181
1427159089.42,-42.386967
1427159089.436,-38.448624
1427159089.451,-34.34582
1427159089.467,-30.162788
1427159089.482,-25.864536
1427159089.498,-21.420471
1427159089.514,-16.834568
1427159089.529,-12.195957
1427159089.545,-7.610565
1427159089.561,-3.1204605
1427159089.576,1.363102
1427159089.592,5.9748726
1427159089.607,10.844658
1427159089.623,15.985878
1427159089.639,21.249603
1427159089.654,26.375923
1427159089.67,31.073406
1427159089.686,35.17244
1427159089.701,38.70859
1427159089.717,41.959526
1427159089.732,45.441048
1427159089.748,49.795235
1427159089.764,55.60134
1427159089.779,63.07645
1427159089.795,71.83647
1427159089.811,80.74205
1427159089.826,88.085495
1427159089.842,91.98201
1427159089.857,91.02002
1427159089.873,84.7225
1427159089.889,73.77823
1427159089.904,59.763
1427159089.92,44.583817
1427159089.936,29.885704
1427159089.951,16.61164
1427159089.967,4.9758224
1427159089.982,-5.272091
1427159089.998,-14.4574585
1427159090.014,-22.690773
1427159090.029,-29.804237
1427159090.045,-35.512646
1427159090.061,-39.65288
1427159090.076,-42.326492
1427159090.092,-43.937447
1427159090.108,-44.984074
1427159090.123,-45.918858
1427159090.139,-46.93336
1427159090.154,-47.976147
1427159090.17,-48.86294
1427159090.186,-49.404705
1427159090.201,-49.52062
1427159090.217,-49.289196
1427159090.233,-48.833824
1427159090.248,-48.242588
1427159090.264,-47.482327
1427159090.279,-46.381477
1427159090.295,-44.666294
1427159090.311,-42.089867
1427159090.326,-38.482838
1427159090.342,-33.938206
1427159090.358,-28.778885
1427159090.373,-23.5415
1427159090.389,-18.740276
1427159090.404,-14.6899185
1427159090.42,-11.310215
1427159090.436,-8.184662
1427159090.451,-4.7294693
1427159090.467,-0.5031891
1427159090.483,4.5843315
1427159090.498,10.21027
1427159090.514,15.801456
1427159090.529,20.802029
1427159090.545,24.914417
1427159090.561,28.226109
1427159090.576,31.153263
1427159090.592,34.256557
1427159090.608,38.099854
1427159090.623,43.070274
1427159090.639,49.344814
1427159090.654,56.756397
1427159090.67,64.74896
1427159090.686,72.295
1427159090.701,78.03812
1427159090.717,80.52877
1427159090.733,78.69538
1427159090.748,72.21167
1427159090.764,61.688187
1427159090.779,48.500996
1427159090.795,34.351288
1427159090.811,20.709503
1427159090.826,8.468174
1427159090.842,-2.1664772
1427159090.858,-11.407486
1427159090.873,-19.559258
1427159090.889,-26.725224
1427159090.904,-32.747456
1427159090.92,-37.34581
1427159090.936,-40.393414
1427159090.951,-42.05722
1427159090.967,-42.825294
1427159090.983,-43.310337
1427159090.998,-43.987694
1427159091.014,-44.979004
1427159091.029,-46.087025
1427159091.045,-46.945194
1427159091.061,-47.270374
1427159091.076,-47.04609
1427159091.092,-46.495445
1427159091.108,-45.891644
1427159091.123,-45.33668
1427159091.139,-44.618443
1427159091.154,-43.310555
1427159091.17,-40.982323
1427159091.186,-37.46603
1427159091.201,-32.94291
1427159091.217,-27.91066
1427159091.233,-22.921783
1427159091.248,-18.365944
1427159091.264,-14.29525
1427159091.279,-10.470203
1427159091.295,-6.45195
1427159091.311,-1.8695068
1427159091.326,3.4706345
1427159091.342,9.455433
1427159091.358,15.718025
1427159091.373,21.771526
1427159091.389,27.182327
1427159091.404,31.755913
1427159091.42,35.57458
1427159091.436,38.98469
1427159091.451,42.489613
1427159091.467,46.626457
1427159091.483,51.846508
1427159091.498,58.339016
1427159091.514,65.907974
1427159091.529,73.7759
1427159091.545,80.61991
1427159091.561,84.77948
1427159091.576,84.79048
1427159091.592,79.86269
1427159091.608,70.2767
1427159091.623,57.287357
1427159091.639,42.700367
1427159091.654,28.210754
1427159091.67,14.89542
1427159091.686,3.0950394
1427159091.701,-7.3635635
1427159091.717,-16.753246
1427159091.733,-25.167885
1427159091.748,-32.4788
1427159091.764,-38.43897
1427159091.779,-42.941154
1427159091.795,-46.06872
1427159091.811,-48.100464
1427159091.826,-49.3907
1427159091.842,-50.26824
1427159091.858,-50.93095
1427159091.873,-51.46885
1427159091.889,-51.83099
1427159091.904,-51.90662
1427159091.92,-51.613953
1427159091.936,-50.96688
1427159091.951,-50.110035
1427159091.967,-49.238968
1427159091.983,-48.50228
1427159091.998,-47.864006
1427159092.014,-47.059566
1427159092.029,-45.69402
1427159092.045,-43.378906
1427159092.061,-39.9388
1427159092.076,-35.44984
1427159092.092,-30.25172
1427159092.108,-24.786362
1427159092.123,-19.466183
1427159092.139,-14.538113
1427159092.154,-10.085442
1427159092.17,-5.993229
1427159092.186,-2.0514145
1427159092.201,1.9604168
1427159092.217,6.2420654
1427159092.233,10.879301
1427159092.248,15.820404
1427159092.264,20.92054
1427159092.279,25.94984
1427159092.295,30.678017
1427159092.311,34.958485
1427159092.326,38.80282
1427159092.342,42.397472
1427159092.358,46.128807
1427159092.373,50.49371
1427159092.389,55.971905
1427159092.404,62.82005
1427159092.42,70.79688
1427159092.436,79.02286
1427159092.451,86.02069
1427159092.467,90.05551
1427159092.483,89.655014
1427159092.498,84.16734
1427159092.514,74.03007
1427159092.529,60.61969
1427159092.545,45.790405
1427159092.561,31.203371
1427159092.576,17.901108
1427159092.592,6.1485767
1427159092.608,-4.2903633
1427159092.623,-13.7871895
1427159092.639,-22.495005
1427159092.654,-30.271404
1427159092.67,-36.811096
1427159092.686,-41.86566
1427159092.701,-45.405193
1427159092.717,-47.701385
1427159092.733,-49.13731
1427159092.748,-50.12263
1427159092.764,-50.922977
1427159092.78,-51.59327
1427159092.795,-52.085724
1427159092.811,-52.327972
1427159092.826,-52.327423
1427159092.842,-52.18536
1427159092.858,-52.03301
1427159092.873,-51.9218
1427159092.889,-51.721195
1427159092.904,-51.173874
1427159092.92,-49.964878
1427159092.936,-47.89366
1427159092.951,-44.985027
1427159092.967,-41.48752
1427159092.983,-37.721115
1427159092.998,-33.981785
1427159093.014,-30.331064
1427159093.03,-26.681454
1427159093.045,-22.825731
1427159093.061,-18.648464
1427159093.076,-14.21337
1427159093.092,-9.756497
1427159093.108,-5.5539503
1427159093.123,-1.7489638
1427159093.139,1.7616444
1427159093.155,5.3215055
1427159093.17,9.352412
1427159093.186,14.107661
1427159093.201,19.527222
1427159093.217,25.219658
1427159093.233,30.638088
1427159093.248,35.33538
1427159093.264,39.22176
1427159093.28,42.578163
1427159093.295,45.985348
1427159093.311,50.07947
1427159093.326,55.341045
1427159093.342,61.871178
1427159093.358,69.32606
1427159093.373,76.85334
1427159093.389,83.22113
1427159093.405,86.99702
1427159093.42,86.91243
1427159093.436,82.24989
1427159093.451,73.16136
1427159093.467,60.673443
1427159093.483,46.420307
1427159093.498,32.088326
1427159093.514,18.925936
1427159093.53,7.461153
1427159093.545,-2.3811255
1427159093.561,-10.925991
1427159093.576,-18.325497
1427159093.592,-24.456583
1427159093.608,-29.026733
1427159093.623,-31.892296
1427159093.639,-33.27318
1427159093.655,-33.794544
1427159093.67,-34.213425
1427159093.686,-35.10601
1427159093.701,-36.615643
1427159093.717,-38.483055
1427159093.733,-40.221863
1427159093.748,-41.412075
1427159093.764,-41.849045
1427159093.78,-41.62259
1427159093.795,-41.011063
1427159093.811,-40.321712
1427159093.826,-39.68112
1427159093.842,-39.04095
1427159093.858,-38.130524
1427159093.873,-36.607452
1427159093.889,-34.203274
1427159093.905,-30.911785
1427159093.92,-26.967113
1427159093.936,-22.796606
1427159093.951,-18.74357
1427159093.967,-14.905493
1427159093.983,-11.081387
1427159093.998,-6.8947573
1427159094.014,-2.076107
1427159094.03,3.3404245
1427159094.045,8.977862
1427159094.061,14.276494
1427159094.076,18.776596
1427159094.092,22.332733
1427159094.108,25.17914
1427159094.123,27.788086
1427159094.139,30.736753
1427159094.155,34.49163
1427159094.17,39.371803
1427159094.186,45.492516
1427159094.201,52.737816
1427159094.217,60.600136
1427159094.233,68.136406
1427159094.248,74.00274
1427159094.264,76.76221
1427159094.28,75.34343
1427159094.295,69.458984
1427159094.311,59.73335
1427159094.326,47.572056
1427159094.342,34.575317
1427159094.358,22.045391
1427159094.373,10.640343
1427159094.389,0.40490055
1427159094.405,-8.957472
1427159094.42,-17.646162
1427159094.436,-25.597721
1427159094.451,-32.456173
1427159094.467,-37.799595
1427159094.483,-41.4007
1427159094.498,-43.383675
1427159094.514,-44.19911
1427159094.53,-44.447998
1427159094.545,-44.674004
1427159094.561,-45.157322
1427159094.576,-45.91326
1427159094.592,-46.746315
1427159094.608,-47.444767
1427159094.623,-47.892452
1427159094.639,-48.06344
1427159094.655,-47.983418
1427159094.67,-47.59295
1427159094.686,-46.762695
1427159094.701,-45.311108
1427159094.717,-43.163826
1427159094.733,-40.382202
1427159094.748,-37.153595
1427159094.764,-33.66287
1427159094.78,-30.009335
1427159094.795,-26.16895
1427159094.811,-22.091625
1427159094.826,-17.79211
1427159094.842,-13.380442
1427159094.858,-9.035809
1427159094.873,-4.8890343
1427159094.889,-0.9265251
1427159094.905,2.9741077
1427159094.92,7.01799
1427159094.936,11.325216
1427159094.951,15.895504
1427159094.967,20.592564
1427159094.983,25.258074
1427159094.998,29.726604
1427159095.014,33.917213
1427159095.03,37.828865
1427159095.045,41.54648
1427159095.061,45.23762
1427159095.076,49.199604
1427159095.092,53.80431
1427159095.108,59.435577
1427159095.123,66.21576
1427159095.139,73.78664
1427159095.155,81.119385
1427159095.17,86.671524
1427159095.186,88.7652
1427159095.201,86.20705
1427159095.217,78.77182
1427159095.233,67.323105
1427159095.248,53.481827
1427159095.264,39.04332
1427159095.28,25.353888
1427159095.295,13.049936
1427159095.311,2.1133099
1427159095.326,-7.7071266
1427159095.342,-16.587536
1427159095.358,-24.413868
1427159095.373,-30.906975
1427159095.389,-35.85282
1427159095.405,-39.31056
1427159095.42,-41.61611
1427159095.436,-43.237465
1427159095.451,-44.533005
1427159095.467,-45.662632
1427159095.483,-46.559814
1427159095.498,-47.126785
1427159095.514,-47.342255
1427159095.53,-47.339912
1427159095.545,-47.335377
1427159095.561,-47.50609
1427159095.576,-47.858616
1427159095.592,-48.24203
1427159095.608,-48.400375
1427159095.623,-48.061073
1427159095.639,-47.034378
1427159095.655,-45.219955
1427159095.67,-42.614212
1427159095.686,-39.31755
1427159095.702,-35.487595
1427159095.717,-31.334127
1427159095.733,-27.050638
1427159095.748,-22.79351
1427159095.764,-18.616995
1427159095.78,-14.539297
1427159095.795,-10.529104
1427159095.811,-6.5692825
1427159095.827,-2.5824013
1427159095.842,1.5243263
1427159095.858,5.8975487
1427159095.873,10.614922
1427159095.889,15.5947
1427159095.905,20.59132
1427159095.92,25.240028
1427159095.936,29.272594
1427159095.952,32.639866
1427159095.967,35.57431
1427159095.983,38.506542
1427159095.998,41.8874
1427159096.014,46.103718
1427159096.03,51.41393
1427159096.045,57.91996
1427159096.061,65.46094
1427159096.077,73.47708
1427159096.092,80.87273
1427159096.108,86.15042
1427159096.123,87.7361
1427159096.139,84.57628
1427159096.155,76.56778
1427159096.17,64.65934
1427159096.186,50.510323
1427159096.202,35.90795
1427159096.217,22.175327
1427159096.233,9.920349
1427159096.248,-0.85565567
1427159096.264,-10.388241
1427159096.28,-18.799759
1427159096.295,-25.934006
1427159096.311,-31.513634
1427159096.327,-35.3307
1427159096.342,-37.498585
1427159096.358,-38.45023
1427159096.373,-38.810104
1427159096.389,-39.1382
1427159096.405,-39.76986
1427159096.42,-40.71888
1427159096.436,-41.771782
1427159096.452,-42.65519
1427159096.467,-43.21791
1427159096.483,-43.48021
1427159096.498,-43.599148
1427159096.514,-43.732273
1427159096.53,-43.866386
1427159096.545,-43.78755
1427159096.561,-43.12411
1427159096.577,-41.504486
1427159096.592,-38.751804
1427159096.608,-34.95195
1427159096.623,-30.47371
1427159096.639,-25.771877
1427159096.655,-21.255383
1427159096.67,-17.095795
1427159096.686,-13.208368
1427159096.702,-9.301413
1427159096.717,-5.0506554
1427159096.733,-0.23957825
1427159096.748,5.131098
1427159096.764,10.84107
1427159096.78,16.508078
1427159096.795,21.733566
1427159096.811,26.236368
1427159096.827,29.996872
1427159096.842,33.22711
1427159096.858,36.377365
1427159096.873,39.96978
1427159096.889,44.525345
1427159096.905,50.33414
1427159096.92,57.33583
1427159096.936,64.939316
1427159096.952,72.04973
1427159096.967,77.21998
1427159096.983,79.02136
1427159096.998,76.49202
1427159097.014,69.504005
1427159097.03,58.817757
1427159097.045,45.85589
1427159097.061,32.179916
1427159097.077,19.061472
1427159097.092,7.15755
1427159097.108,-3.4068546
1427159097.123,-12.811796
1427159097.139,-21.191347
1427159097.155,-28.469328
1427159097.17,-34.394527
1427159097.186,-38.7396
1427159097.202,-41.458687
1427159097.217,-42.828354
1427159097.233,-43.3526
1427159097.248,-43.60401
1427159097.264,-44.031834
1427159097.28,-44.870293
1427159097.295,-46.086876
1427159097.311,-47.484303
1427159097.327,-48.755943
1427159097.342,-49.62224
1427159097.358,-49.89563
1427159097.373,-49.56254
1427159097.389,-48.697067
1427159097.405,-47.443707
1427159097.42,-45.915108
1427159097.436,-44.08625
1427159097.452,-41.84452
1427159097.467,-39.03051
1427159097.483,-35.53618
1427159097.498,-31.364674
1427159097.514,-26.6199
1427159097.53,-21.481098
1427159097.545,-16.128576
1427159097.561,-10.805161
1427159097.577,-5.714054
1427159097.592,-1.0136948
1427159097.608,3.2636166
1427159097.623,7.2706575
1427159097.639,11.284343
1427159097.655,15.552943
1427159097.67,20.17643
1427159097.686,25.031672
1427159097.702,29.895287
1427159097.717,34.594498
1427159097.733,39.103096
1427159097.748,43.528587
1427159097.764,48.073307
1427159097.78,52.91574
1427159097.795,58.252678
1427159097.811,64.25545
1427159097.827,70.98778
1427159097.842,78.16601
1427159097.858,84.97069
1427159097.873,90.028564
1427159097.889,91.811676
1427159097.905,89.15523
1427159097.92,81.79068
1427159097.936,70.46979
1427159097.952,56.69946
1427159097.967,42.137302
1427159097.983,28.048498
1427159097.998,15.077548
1427159098.014,3.3272185
1427159098.03,-7.344327
1427159098.045,-16.998594
1427159098.061,-25.502487
1427159098.077,-32.549458
1427159098.092,-37.878143
1427159098.108,-41.42498
1427159098.123,-43.47016
1427159098.139,-44.552185
1427159098.155,-45.344627
1427159098.17,-46.36279
1427159098.186,-47.83467
1427159098.202,-49.598743
1427159098.217,-51.292717
1427159098.233,-52.58094
1427159098.248,-53.340496
1427159098.264,-53.67075
1427159098.28,-53.78349
1427159098.295,-53.776527
1427159098.311,-53.55078
1427159098.327,-52.834538
1427159098.342,-51.372116
1427159098.358,-49.04139
1427159098.374,-45.929893
1427159098.389,-42.215153
1427159098.405,-38.0915
1427159098.42,-33.645176
1427159098.436,-28.943306
1427159098.452,-24.023352
1427159098.467,-19.010197
1427159098.483,-14.053982
1427159098.499,-9.259154
1427159098.514,-4.616969
1427159098.53,1.7166138E-4
1427159098.545,4.746893
1427159098.561,9.690436
1427159098.577,14.7632885
1427159098.592,19.783386
1427159098.608,24.561455
1427159098.624,29.008226
1427159098.639,33.20424
1427159098.655,37.36397
1427159098.67,41.771606
1427159098.686,46.69214
1427159098.702,52.37203
1427159098.717,58.97577
1427159098.733,66.49536
1427159098.749,74.561325
1427159098.764,82.30812
1427159098.78,88.411354
1427159098.795,91.347786
1427159098.811,89.89139
1427159098.827,83.586365
1427159098.842,72.95138
1427159098.858,59.34429
1427159098.874,44.46033
1427159098.889,29.820044
1427159098.905,16.360594
1427159098.92,4.398651
1427159098.936,-6.1747723
1427159098.952,-15.567736
1427159098.967,-23.851732
1427159098.983,-30.890411
1427159098.999,-36.44957
1427159099.014,-40.411484
1427159099.03,-42.90452
1427159099.045,-44.351448
1427159099.061,-45.31036
1427159099.077,-46.27388
1427159099.092,-47.5026
1427159099.108,-48.907265
1427159099.124,-50.172874
1427159099.139,-50.972004
1427159099.155,-51.137165
1427159099.17,-50.77077
1427159099.186,-50.165794
1427159099.202,-49.552155
1427159099.217,-48.956272
1427159099.233,-48.08677
1427159099.249,-46.47842
1427159099.264,-43.70068
1427159099.28,-39.643497
1427159099.295,-34.582554
1427159099.311,-29.143818
1427159099.327,-24.047836
1427159099.342,-19.78395
1427159099.358,-16.40062
1427159099.374,-13.454548
1427159099.389,-10.204582
1427159099.405,-5.9524384
1427159099.42,-0.3848877
1427159099.436,6.2449913
1427159099.452,13.268173
1427159099.467,19.836193
1427159099.483,25.331749
1427159099.499,29.600124
1427159099.514,32.951046
1427159099.53,35.97995
1427159099.545,39.338856
1427159099.561,43.546623
1427159099.577,48.944683
1427159099.592,55.622585
1427159099.608,63.3311
1427159099.624,71.32173
1427159099.639,78.327896
1427159099.655,82.69888
1427159099.67,82.92111
1427159099.686,78.15518
1427159099.702,68.61919
1427159099.717,55.575157
1427159099.733,40.887047
1427159099.749,26.330063
1427159099.764,13.101273
1427159099.78,1.5950317
1427159099.795,-8.408119
1427159099.811,-17.304974
1427159099.827,-25.310802
1427159099.842,-32.342545
1427159099.858,-38.10373
1427159099.874,-42.354057
1427159099.889,-45.102337
1427159099.905,-46.675354
1427159099.92,-47.582684
1427159099.936,-48.339695
1427159099.952,-49.188656
1427159099.967,-50.07007
1427159099.983,-50.7115
1427159099.999,-50.855392
1427159100.014,-50.44477
1427159100.03,-49.70214
1427159100.045,-48.954403
1427159100.061,-48.44635
1427159100.077,-48.15154
1427159100.092,-47.797466
1427159100.108,-46.95627
1427159100.124,-45.25484
1427159100.139,-42.435818
1427159100.155,-38.480278
1427159100.17,-33.573563
1427159100.186,-28.090908
1427159100.202,-22.489914
1427159100.217,-17.235302
1427159100.233,-12.591351
1427159100.249,-8.576092
1427159100.264,-4.913456
1427159100.28,-1.1735535
1427159100.295,3.0448494
1427159100.311,7.9240456
1427159100.327,13.363754
1427159100.342,19.036243
1427159100.358,24.553787
1427159100.374,29.632507
1427159100.389,34.16615
1427159100.405,38.24068
1427159100.42,42.083687
1427159100.436,45.999413
1427159100.452,50.345814
1427159100.467,55.494835
1427159100.483,61.74771
1427159100.499,69.173615
1427159100.514,77.41237
1427159100.53,85.498795
1427159100.545,91.925255
1427159100.561,94.968796
1427159100.577,93.23952
1427159100.592,86.21353
1427159100.608,74.52083
1427159100.624,59.71323
1427159100.639,43.731983
1427159100.655,28.218735
1427159100.67,14.092224
1427159100.686,1.5307846
1427159100.702,-9.741577
1427159100.717,-19.990955
1427159100.733,-29.22974
1427159100.749,-37.21924
1427159100.764,-43.63641
1427159100.78,-48.327644
1427159100.795,-51.39025
1427159100.811,-53.18686
1427159100.827,-54.169403
1427159100.842,-54.76973
1427159100.858,-55.274696
1427159100.874,-55.822945
1427159100.889,-56.39167
1427159100.905,-56.894012
1427159100.92,-57.218224
1427159100.936,-57.311264
1427159100.952,-57.14467
1427159100.967,-56.71682
1427159100.983,-55.96073
1427159100.999,-54.750443
1427159101.014,-52.910484
1427159101.03,-50.296227
1427159101.046,-46.863968
1427159101.061,-42.709198
1427159101.077,-38.022675
1427159101.092,-33.038765
1427159101.108,-27.968376
1427159101.124,-23.008469
1427159101.139,-18.276703
1427159101.155,-13.845589
1427159101.171,-9.662601
1427159101.186,-5.562664
1427159101.202,-1.267868
1427159101.217,3.4731636
1427159101.233,8.7685585
1427159101.249,14.463387
1427159101.264,20.200626
1427159101.28,25.530487
1427159101.296,30.150288
1427159101.311,34.013653
1427159101.327,37.39974
1427159101.342,40.81553
1427159101.358,44.82329
1427159101.374,49.9132
1427159101.389,56.394352
1427159101.405,64.24405
1427159101.421,73.00917
1427159101.436,81.69596
1427159101.452,88.84507
1427159101.467,92.7822
1427159101.483,92.09929
1427159101.499,86.17525
1427159101.514,75.45595
1427159101.53,61.34105
1427159101.546,45.743652
1427159101.561,30.446106
1427159101.577,16.594837
1427159101.592,4.5291023
1427159101.608,-5.9772987
1427159101.624,-15.354866
1427159101.639,-23.843266
1427159101.655,-31.385372
1427159101.671,-37.676846
1427159101.686,-42.450737
1427159101.702,-45.634705
1427159101.717,-47.48125
1427159101.733,-48.444386
1427159101.749,-49.04795
1427159101.764,-49.655895
1427159101.78,-50.39671
1427159101.796,-51.1431
1427159101.811,-51.680943
1427159101.827,-51.848343
1427159101.842,-51.649174
1427159101.858,-51.24471
1427159101.874,-50.8121
1427159101.889,-50.35246
1427159101.905,-49.602425
1427159101.921,-48.108837
1427159101.936,-45.466732
1427159101.952,-41.525547
1427159101.967,-36.541958
1427159101.983,-31.067547
1427159101.999,-25.72987
1427159102.014,-20.936321
1427159102.03,-16.76767
1427159102.046,-12.981827
1427159102.061,-9.190659
1427159102.077,-5.022583
1427159102.092,-0.2665367
1427159102.108,5.073044
1427159102.124,10.799736
1427159102.139,16.578392
1427159102.155,22.006657
1427159102.171,26.763008
1427159102.186,30.723186
1427159102.202,34.065533
1427159102.217,37.242836
1427159102.233,40.899338
1427159102.249,45.63095
1427159102.264,51.817005
1427159102.28,59.391457
1427159102.296,67.71152
1427159102.311,75.60657
1427159102.327,81.54814
1427159102.342,84.01269
1427159102.358,81.94815
1427159102.374,75.12499
1427159102.389,64.23138
1427159102.405,50.671238
1427159102.421,36.11081
1427159102.436,21.95543
1427159102.452,9.088009
1427159102.467,-2.228962
1427159102.483,-12.101662
1427159102.499,-20.73602
1427159102.514,-28.201477
1427159102.53,-34.413048
1427159102.546,-39.1863
1427159102.561,-42.456104
1427159102.577,-44.330868
1427159102.592,-45.16807
1427159102.608,-45.4404
1427159102.624,-45.610023
1427159102.639,-45.949654
1427159102.655,-46.49159
1427159102.671,-47.04756
1427159102.686,-47.345093
1427159102.702,-47.186043
1427159102.717,-46.563065
1427159102.733,-45.604645
1427159102.749,-44.493202
1427159102.764,-43.315353
1427159102.78,-41.96358
1427159102.796,-40.164593
1427159102.811,-37.659782
1427159102.827,-34.267036
1427159102.842,-30.06613
1427159102.858,-25.339973
1427159102.874,-20.48836
1427159102.889,-15.8376255
1427159102.905,-11.527927
1427159102.921,-7.421295
1427159102.936,-3.1636314
1427159102.952,1.656826
1427159102.967,7.3221416
1427159102.983,13.792955
1427159102.999,20.679628
1427159103.014,27.367533
1427159103.03,33.205704
1427159103.046,37.82724
1427159103.061,41.27767
1427159103.077,44.048622
1427159103.092,46.86473
1427159103.108,50.49972
1427159103.124,55.512775
1427159103.139,62.119003
1427159103.155,70.006096
1427159103.171,78.30747
1427159103.186,85.61463
1427159103.202,90.225426
1427159103.217,90.5869
1427159103.233,85.82864
1427159103.249,76.1042
1427159103.264,62.611954
1427159103.28,47.18584
1427159103.296,31.682467
1427159103.311,17.389824
1427159103.327,4.860881
1427159103.342,-6.019972
1427159103.358,-15.609865
1427159103.374,-24.195145
1427159103.389,-31.785614
1427159103.405,-38.185223
1427159103.421,-43.18391
1427159103.436,-46.7301
1427159103.452,-49.00245
1427159103.467,-50.38182
1427159103.483,-51.292892
1427159103.499,-52.076633
1427159103.514,-52.854385
1427159103.53,-53.566433
1427159103.546,-54.06038
1427159103.561,-54.210594
1427159103.577,-54.00106
1427159103.592,-53.51794
1427159103.608,-52.85221
1427159103.624,-52.025627
1427159103.639,-50.91996
1427159103.655,-49.354187
1427159103.671,-47.116875
1427159103.686,-44.074944
1427159103.702,-40.21355
1427159103.718,-35.6581
1427159103.733,-30.645325
1427159103.749,-25.466179
1427159103.764,-20.41077
1427159103.78,-15.670843
1427159103.796,-11.277828
1427159103.811,-7.1258383
1427159103.827,-2.9883542
1427159103.842,1.3851457
1427159103.858,6.1804767
1427159103.874,11.416441
1427159103.889,16.9624
1427159103.905,22.52337
1427159103.921,27.800234
1427159103.936,32.569466
1427159103.952,36.80801
1427159103.968,40.68519
1427159103.983,44.523827
1427159103.999,48.705948
1427159104.014,53.627335
1427159104.03,59.59283
1427159104.046,66.73238
1427159104.061,74.78188
1427159104.077,82.94485
1427159104.093,89.8086
1427159104.108,93.627304
1427159104.124,92.82451
1427159104.139,86.64993
1427159104.155,75.49964
1427159104.171,60.881126
1427159104.186,44.8126
1427159104.202,29.151525
1427159104.218,15.009373
1427159104.233,2.6580276
1427159104.249,-8.181112
1427159104.264,-17.869915
1427159104.28,-26.550165
1427159104.296,-34.078564
1427159104.311,-40.214127
1427159104.327,-44.84688
1427159104.343,-48.111473
1427159104.358,-50.32866
1427159104.374,-51.929764
1427159104.389,-53.228294
1427159104.405,-54.39199
1427159104.421,-55.400047
1427159104.436,-56.14808
1427159104.452,-56.52732
1427159104.468,-56.524315
1427159104.483,-56.219563
1427159104.499,-55.75599
1427159104.514,-55.217827
1427159104.53,-54.57024
1427159104.546,-53.615906
1427159104.561,-52.103127
1427159104.577,-49.793785
1427159104.593,-46.575806
1427159104.608,-42.5092
1427159104.624,-37.76337
1427159104.639,-32.574085
1427159104.655,-27.198692
1427159104.671,-21.860395
1427159104.686,-16.768661
1427159104.702,-12.048143
1427159104.718,-7.72806
1427159104.733,-3.6971989
1427159104.749,0.2850685
1427159104.764,4.495947
1427159104.78,9.134081
1427159104.796,14.230438
1427159104.811,19.600506
1427159104.827,24.952934
1427159104.843,29.943916
1427159104.858,34.359238
1427159104.874,38.180717
1427159104.889,41.605915
1427159104.905,45.01093
1427159104.921,48.861538
1427159104.936,53.628803
1427159104.952,59.64001
1427159104.968,66.90976
1427159104.983,74.94802
1427159104.999,82.67727
1427159105.014,88.55168
1427159105.03,90.93794
1427159105.046,88.61911
1427159105.061,81.277565
1427159105.077,69.61393
1427159105.093,55.149593
1427159105.108,39.73206
1427159105.124,24.934055
1427159105.139,11.722698
1427159105.155,0.40421677
1427159105.171,-9.143654
1427159105.186,-17.16352
1427159105.202,-23.816658
1427159105.218,-29.130615
1427159105.233,-33.11352
1427159105.249,-35.87413
1427159105.264,-37.644283
1427159105.28,-38.760628
1427159105.296,-39.55052
1427159105.311,-40.223255
1427159105.327,-40.82012
1427159105.343,-41.278698
1427159105.358,-41.509953
1427159105.374,-41.51188
1427159105.389,-41.380962
1427159105.405,-41.283886
1427159105.421,-41.30495
1427159105.436,-41.33901
1427159105.452,-41.05829
1427159105.468,-40.032196
1427159105.483,-37.868713
1427159105.499,-34.453793
1427159105.514,-30.0001
1427159105.53,-24.974407
1427159105.546,-19.894829
1427159105.561,-15.116215
1427159105.577,-10.703114
1427159105.593,-6.42638
1427159105.608,-1.9556885
1427159105.624,2.9441414
1427159105.639,8.285213
1427159105.655,13.807461
1427159105.671,19.131855
1427159105.686,23.913563
1427159105.702,28.028763
1427159105.718,31.64267
1427159105.733,35.202305
1427159105.749,39.267742
1427159105.764,44.387974
1427159105.78,50.85047
1427159105.796,58.472095
1427159105.811,66.464195
1427159105.827,73.45483
1427159105.843,77.77521
1427159105.858,77.97855
1427159105.874,73.31619
1427159105.889,64.09355
1427159105.905,51.54347
1427159105.921,37.422176
1427159105.936,23.366753
1427159105.952,10.461079
1427159105.968,-0.94127274
1427159105.983,-10.964348
1427159105.999,-19.860847
1427159106.014,-27.659256
1427159106.03,-34.17194
1427159106.046,-39.100468
1427159106.061,-42.343784
1427159106.077,-44.10748
1427159106.093,-44.905457
1427159106.108,-45.311543
1427159106.124,-45.74425
1427159106.139,-46.285393
1427159106.155,-46.73535
1427159106.171,-46.774864
1427159106.186,-46.248405
1427159106.202,-45.235588
1427159106.218,-44.096596
1427159106.233,-43.19631
1427159106.249,-42.717434
1427159106.264,-42.48915
1427159106.28,-42.03886
1427159106.296,-40.803688
1427159106.311,-38.387947
1427159106.327,-34.706253
1427159106.343,-30.040287
1427159106.358,-24.892605
1427159106.374,-19.799812
1427159106.389,-15.110874
1427159106.405,-10.901062
1427159106.421,-6.9472237
1427159106.436,-2.8621178
1427159106.452,1.7505875
1427159106.468,7.1025963
1427159106.483,13.130379
1427159106.499,19.462643
1427159106.514,25.614151
1427159106.53,31.124146
1427159106.546,35.804455
1427159106.561,39.775494
1427159106.577,43.452477
1427159106.593,47.389248
1427159106.608,52.143227
1427159106.624,58.080627
1427159106.64,65.24902
1427159106.655,73.225204
1427159106.671,81.00839
1427159106.686,87.11264
1427159106.702,89.94936
1427159106.718,88.258
1427159106.733,81.61264
1427159106.749,70.60092
1427159106.765,56.660286
1427159106.78,41.55723
1427159106.796,26.824642
1427159106.811,13.354275
1427159106.827,1.3599739
1427159106.843,-9.325214
1427159106.858,-18.915974
1427159106.874,-27.408031
1427159106.89,-34.59099
1427159106.905,-40.19882
1427159106.921,-44.142323
1427159106.936,-46.59179
1427159106.952,-47.970932
1427159106.968,-48.783543
1427159106.983,-49.455517
1427159106.999,-50.240814
1427159107.015,-51.13066
1427159107.03,-51.970146
1427159107.046,-52.510025
1427159107.061,-52.565243
1427159107.077,-52.077484
1427159107.093,-51.173027
1427159107.108,-50.051292
1427159107.124,-48.894527
1427159107.14,-47.72204
1427159107.155,-46.353283
1427159107.171,-44.451374
1427159107.186,-41.68082
1427159107.202,-37.865337
1427159107.218,-33.08288
1427159107.233,-27.668743
1427159107.249,-22.075848
1427159107.265,-16.704468
1427159107.28,-11.748077
1427159107.296,-7.135044
1427159107.311,-2.5983658
1427159107.327,2.202301
1427159107.343,7.4741364
1427159107.358,13.200611
1427159107.374,19.11967
1427159107.39,24.81913
1427159107.405,29.922005
1427159107.421,34.276405
1427159107.436,38.027077
1427159107.452,41.555523
1427159107.468,45.383797
1427159107.483,49.992596
1427159107.499,55.718773
1427159107.515,62.648376
1427159107.53,70.530304
1427159107.546,78.65028
1427159107.561,85.79552
1427159107.577,90.45755
1427159107.593,91.18275
1427159107.608,87.09438
1427159107.624,78.23925
1427159107.64,65.61714
1427159107.655,50.835632
1427159107.671,35.582325
1427159107.686,21.102531
1427159107.702,8.037785
1427159107.718,-3.503193
1427159107.733,-13.622959
1427159107.749,-22.410393
1427159107.765,-29.801422
1427159107.78,-35.702015
1427159107.796,-40.064392
1427159107.811,-43.029095
1427159107.827,-44.876377
1427159107.843,-45.98168
1427159107.858,-46.68234
1427159107.874,-47.19469
1427159107.89,-47.567577
1427159107.905,-47.72449
1427159107.921,-47.564465
1427159107.936,-47.08443
1427159107.952,-46.431213
1427159107.968,-45.854706
1427159107.983,-45.526188
1427159107.999,-45.405396
1427159108.015,-45.159172
1427159108.03,-44.27542
1427159108.046,-42.27526
1427159108.061,-38.94592
1427159108.077,-34.447765
1427159108.093,-29.27356
1427159108.108,-24.077957
1427159108.124,-19.394485
1427159108.14,-15.437202
1427159108.155,-12.027313
1427159108.171,-8.671173
1427159108.186,-4.778351
1427159108.202,0.07175064
1427159108.218,5.9095154
1427159108.233,12.359127
1427159108.249,18.76049
1427159108.265,24.496643
1427159108.28,29.20879
1427159108.296,32.99947
1427159108.311,36.33614
1427159108.327,39.90024
1427159108.343,44.308594
1427159108.358,49.966877
1427159108.374,56.854694
1427159108.39,64.466
1427159108.405,71.75316
1427159108.421,77.267624
1427159108.436,79.482864
1427159108.452,77.243095
1427159108.468,70.214554
1427159108.483,59.050285
1427159108.499,45.219822
1427159108.515,30.502316
1427159108.53,16.421303
1427159108.546,3.8426895
1427159108.561,-7.041836
1427159108.577,-16.43188
1427159108.593,-24.570686
1427159108.608,-31.454609
1427159108.624,-36.869293
1427159108.64,-40.56205
1427159108.655,-42.54775
1427159108.671,-43.151264
1427159108.686,-42.98885
1427159108.702,-42.692112
1427159108.718,-42.69253
1427159108.733,-43.053524
1427159108.749,-43.579002
1427159108.765,-43.946117
1427159108.78,-43.972034
1427159108.796,-43.706978
1427159108.811,-43.34501
1427159108.827,-43.069275
1427159108.843,-42.842262
1427159108.858,-42.36568
1427159108.874,-41.17626
1427159108.89,-38.869343
1427159108.905,-35.334732
1427159108.921,-30.81276
1427159108.936,-25.847267
1427159108.952,-20.99826
1427159108.968,-16.630821
1427159108.983,-12.726524
1427159108.999,-8.925491
1427159109.015,-4.685089
1427159109.03,0.41482544
1427159109.046,6.445656
1427159109.061,13.067165
1427159109.077,19.657494
1427159109.093,25.566849
1427159109.108,30.383728
1427159109.124,34.13467
1427159109.14,37.282867
1427159109.155,40.55079
1427159109.171,44.69724
1427159109.186,50.29409
1427159109.202,57.556473
1427159109.218,66.17601
1427159109.233,75.28926
1427159109.249,83.46621
1427159109.265,89.022095
1427159109.28,90.40321
1427159109.296,86.742294
1427159109.312,78.15492
1427159109.327,65.74156
1427159109.343,51.19904
1427159109.358,36.239548
1427159109.374,22.088524
1427159109.39,9.296246
1427159109.405,-2.1398392
1427159109.421,-12.414726
1427159109.437,-21.64545
1427159109.452,-29.690578
1427159109.468,-36.280647
1427159109.483,-41.18317
1427159109.499,-44.430626
1427159109.515,-46.30172
1427159109.53,-47.301865
1427159109.546,-47.934032
1427159109.562,-48.56713
1427159109.577,-49.32836
1427159109.593,-50.102966
1427159109.608,-50.672874
1427159109.624,-50.86361
1427159109.64,-50.631897
1427159109.655,-50.091194
1427159109.671,-49.399124
1427159109.687,-48.640648
1427159109.702,-47.704643
1427159109.718,-46.337093
1427159109.733,-44.189472
1427159109.749,-41.01808
1427159109.765,-36.81158
1427159109.78,-31.837479
1427159109.796,-26.560276
1427159109.812,-21.475628
1427159109.827,-16.894367
1427159109.843,-12.839428
1427159109.858,-9.019911
1427159109.874,-4.9929256
1427159109.89,-0.3498211
1427159109.905,5.070072
1427159109.921,11.1178
1427159109.937,17.367123
1427159109.952,23.320665
1427159109.968,28.592293
1427159109.983,33.0628
1427159109.999,36.900436
1427159110.015,40.479977
1427159110.03,44.250404
1427159110.046,48.65741
1427159110.062,54.063034
1427159110.077,60.665367
1427159110.093,68.35428
1427159110.108,76.51754
1427159110.124,83.94221
1427159110.14,89.01047
1427159110.155,90.11281
1427159110.171,86.25122
1427159110.187,77.42404
1427159110.202,64.68898
1427159110.218,49.772854
1427159110.233,34.44364
1427159110.249,19.957596
1427159110.265,6.8788967
1427159110.28,-4.782812
1427159110.296,-15.187313
1427159110.312,-24.391327
1427159110.327,-32.238724
1427159110.343,-38.51511
1427159110.358,-43.121437
1427159110.374,-46.212776
1427159110.39,-48.17273
1427159110.405,-49.50253
1427159110.421,-50.630024
1427159110.437,-51.81161
1427159110.452,-53.022488
1427159110.468,-54.056446
1427159110.483,-54.653957
1427159110.499,-54.670624
1427159110.515,-54.173065
1427159110.53,-53.432526
1427159110.546,-52.730755
1427159110.562,-52.174892
1427159110.577,-51.592125
1427159110.593,-50.57232
1427159110.608,-48.625923
1427159110.624,-45.473526
1427159110.64,-41.120697
1427159110.655,-35.918446
1427159110.671,-30.38424
1427159110.687,-25.045952
1427159110.702,-20.1874
1427159110.718,-15.839253
1427159110.733,-11.754589
1427159110.749,-7.568865
1427159110.765,-2.9435978
1427159110.78,2.2932987
1427159110.796,8.064754
1427159110.812,14.076232
1427159110.827,19.921232
1427159110.843,25.246975
1427159110.858,29.860018
1427159110.874,33.787945
1427159110.89,37.288395
1427159110.905,40.742416
1427159110.921,44.610973
1427159110.937,49.344933
1427159110.952,55.31338
1427159110.968,62.588844
1427159110.983,70.78967
1427159110.999,78.87582
1427159111.015,85.26287
1427159111.03,88.19549
1427159111.046,86.30012
1427159111.062,79.14031
1427159111.077,67.42778
1427159111.093,52.80522
1427159111.108,37.258286
