1435103126.344,0.0
1435103126.36,0.0
1435103126.376,0.0
1435103126.391,0.0
1435103126.407,0.0
1435103126.423,0.0
1435103126.438,0.0
1435103126.454,0.0
1435103126.47,0.0
1435103126.485,0.0012172782
1435103126.501,-0.0065882956
1435103126.516,-0.014098417
1435103126.532,-0.01363576
1435103126.548,0.0017685952
1435103126.563,0.030974835
1435103126.579,0.058830045
1435103126.594,0.057055824
1435103126.61,-0.0065026777
1435103126.626,-0.15226781
1435103126.641,-0.38992876
1435103126.657,-0.6854817
1435103126.673,-0.99229926
1435103126.688,-1.2667305
1435103126.704,-1.4902236
1435103126.72,-1.6801629
1435103126.735,-1.8829224
1435103126.751,-2.1519315
1435103126.766,-2.5187902
1435103126.782,-3.007539
1435103126.798,-3.5593305
1435103126.813,-4.1002812
1435103126.829,-4.5613313
1435103126.845,-4.913583
1435103126.86,-5.187622
1435103126.876,-5.464699
1435103126.891,-5.842264
1435103126.907,-6.379356
1435103126.923,-7.1492357
1435103126.938,-8.026795
1435103126.954,-8.858912
1435103126.97,-9.501905
1435103126.985,-9.908396
1435103127.001,-10.178924
1435103127.016,-10.542235
1435103127.032,-11.264786
1435103127.048,-12.510168
1435103127.063,-14.424501
1435103127.079,-16.699024
1435103127.095,-18.941206
1435103127.11,-20.784414
1435103127.126,-22.093615
1435103127.141,-23.079233
1435103127.157,-24.243193
1435103127.173,-26.168753
1435103127.188,-29.218908
1435103127.204,-33.62366
1435103127.22,-38.785057
1435103127.235,-43.915115
1435103127.251,-48.275307
1435103127.266,-51.554417
1435103127.282,-54.064323
1435103127.298,-56.635952
1435103127.313,-60.251907
1435103127.329,-65.54219
1435103127.345,-72.82895
1435103127.36,-81.22123
1435103127.376,-89.50208
1435103127.391,-96.524796
1435103127.407,-101.76982
1435103127.423,-105.61863
1435103127.438,-109.19705
1435103127.454,-114.07678
1435103127.47,-119.30182
1435103127.485,-126.94513
1435103127.501,-137.3025
1435103127.516,-150.09586
1435103127.532,-163.6706
1435103127.548,-174.61089
1435103127.563,-178.21481
1435103127.579,-169.96504
1435103127.595,-147.51665
1435103127.61,-112.014244
1435103127.626,-68.33187
1435103127.641,-22.389297
1435103127.657,20.80481
1435103127.673,59.21855
1435103127.688,93.993805
1435103127.704,128.05066
1435103127.72,164.00658
1435103127.735,202.6905
1435103127.751,242.99097
1435103127.766,282.44604
1435103127.782,319.0506
1435103127.798,351.41962
1435103127.813,378.7044
1435103127.829,400.00073
1435103127.845,413.99908
1435103127.86,419.3116
1435103127.876,414.992
1435103127.891,401.2882
1435103127.907,379.53656
1435103127.923,352.11108
1435103127.938,321.4416
1435103127.954,289.346
1435103127.97,256.60663
1435103127.985,223.11668
1435103128.001,188.35345
1435103128.016,151.8567
1435103128.032,113.6678
1435103128.048,74.36586
1435103128.063,35.169983
1435103128.079,-2.3968048
1435103128.095,-36.79489
1435103128.11,-66.781845
1435103128.126,-91.68219
1435103128.141,-111.49626
1435103128.157,-126.80998
1435103128.173,-138.4048
1435103128.188,-146.9425
1435103128.204,-152.7333
1435103128.22,-155.90207
1435103128.235,-156.71368
1435103128.251,-155.76587
1435103128.266,-153.95554
1435103128.282,-152.12273
1435103128.298,-150.67796
1435103128.313,-149.39409
1435103128.329,-147.57956
1435103128.345,-144.53542
1435103128.36,-139.88739
1435103128.376,-133.78925
1435103128.391,-126.72385
1435103128.407,-119.217926
1435103128.423,-111.588104
1435103128.438,-103.914566
1435103128.454,-96.12225
1435103128.47,-88.12271
1435103128.485,-79.92969
1435103128.501,-71.65358
1435103128.516,-63.473293
1435103128.532,-55.582256
1435103128.548,-48.152733
1435103128.563,-41.315773
1435103128.579,-35.154537
1435103128.595,-29.704498
1435103128.61,-25.008493
1435103128.626,-20.977732
1435103128.641,-17.461195
1435103128.657,-14.289568
1435103128.673,-11.283991
1435103128.688,-8.275074
1435103128.704,-5.203375
1435103128.72,-2.1615047
1435103128.735,0.6106491
1435103128.751,2.8704205
1435103128.766,4.4709473
1435103128.782,5.483305
1435103128.798,6.198204
1435103128.813,6.9639435
1435103128.829,8.007069
1435103128.845,9.263599
1435103128.86,10.3558655
1435103128.876,10.758911
1435103128.891,10.048567
1435103128.907,8.0882
1435103128.923,5.126915
1435103128.938,1.6877022
1435103128.954,-1.6227913
1435103128.97,-4.2846794
1435103128.985,-5.967552
1435103129.001,-6.6021595
1435103129.016,-6.289009
1435103129.032,-5.2704353
1435103129.048,-3.8613434
1435103129.063,-2.3952408
1435103129.079,-1.0848656
1435103129.095,-0.0418396
1435103129.11,0.8060913
1435103129.126,1.5873795
1435103129.141,2.4059772
1435103129.157,3.2259045
1435103129.173,3.9022675
1435103129.188,4.261751
1435103129.204,4.2444115
1435103129.22,3.9275017
1435103129.235,3.5082512
1435103129.251,3.189951
1435103129.266,3.094019
1435103129.282,3.2157135
1435103129.298,3.508871
1435103129.313,3.8888092
1435103129.329,4.2897034
1435103129.345,4.645918
1435103129.36,4.8801193
1435103129.376,4.921816
1435103129.392,4.7637615
1435103129.407,4.462595
1435103129.423,4.1485615
1435103129.438,3.992447
1435103129.454,4.0781097
1435103129.47,4.396925
1435103129.485,4.786724
1435103129.501,4.965603
1435103129.517,4.626848
1435103129.532,3.5669727
1435103129.548,1.7867775
1435103129.563,-0.45232582
1435103129.579,-2.6196861
1435103129.595,-4.1642704
1435103129.61,-4.718849
1435103129.626,-4.300268
1435103129.642,-3.2816849
1435103129.657,-2.2463512
1435103129.673,-1.6281052
1435103129.688,-1.5611668
1435103129.704,-1.8223934
1435103129.72,-2.0362663
1435103129.735,-1.8831959
1435103129.751,-1.2812347
1435103129.767,-0.37104416
1435103129.782,0.57936287
1435103129.798,1.3551102
1435103129.813,1.8419952
1435103129.829,2.035162
1435103129.845,1.9777317
1435103129.86,1.7232018
1435103129.876,1.2875404
1435103129.892,0.68040466
1435103129.907,-0.07983589
1435103129.923,-0.9570675
1435103129.938,-1.8835316
1435103129.954,-2.7958012
1435103129.97,-3.5817146
1435103129.985,-4.1398354
1435103130.001,-4.392412
1435103130.017,-4.327877
1435103130.032,-4.0157413
1435103130.048,-3.562582
1435103130.063,-3.0629387
1435103130.079,-2.5225658
1435103130.095,-1.8911171
1435103130.11,-1.0907001
1435103130.126,-0.14222336
1435103130.142,0.809906
1435103130.157,1.4798107
1435103130.173,1.566967
1435103130.188,0.8691673
1435103130.204,-0.57032776
1435103130.22,-2.5167484
1435103130.235,-4.5830803
1435103130.251,-6.3185024
1435103130.267,-7.4460564
1435103130.282,-7.8628864
1435103130.298,-7.6176434
1435103130.313,-6.9182987
1435103130.329,-5.971428
1435103130.345,-4.8742714
1435103130.36,-3.5521278
1435103130.376,-1.8020401
1435103130.392,0.5572071
1435103130.407,3.4987965
1435103130.423,6.6849556
1435103130.438,9.504564
1435103130.454,11.276773
1435103130.47,11.523937
1435103130.485,10.193024
1435103130.501,7.691313
1435103130.517,4.761154
1435103130.532,2.178234
1435103130.548,0.52563
1435103130.563,0.011369705
1435103130.579,0.5077648
1435103130.595,1.6509275
1435103130.61,3.032895
1435103130.626,4.3055496
1435103130.642,5.2643538
1435103130.657,5.8431664
1435103130.673,6.076823
1435103130.688,6.08282
1435103130.704,6.0006695
1435103130.72,5.9630823
1435103130.735,6.0291805
1435103130.751,6.2189703
1435103130.767,6.351372
1435103130.782,6.11858
1435103130.798,5.209194
1435103130.813,3.3566914
1435103130.829,0.5345297
1435103130.845,-3.0354795
1435103130.86,-6.9402323
1435103130.876,-10.717738
1435103130.892,-13.980665
1435103130.907,-16.49311
1435103130.923,-18.126875
1435103130.938,-18.81263
1435103130.954,-18.500202
1435103130.97,-17.188234
1435103130.985,-14.960719
1435103131.001,-12.085795
1435103131.017,-8.960608
1435103131.032,-6.058651
1435103131.048,-3.7924461
1435103131.063,-2.3171577
1435103131.079,-1.5493264
1435103131.095,-1.2232957
1435103131.11,-0.953249
1435103131.126,-0.40530205
1435103131.142,0.6171708
1435103131.157,2.115497
1435103131.173,3.9224677
1435103131.188,5.812648
1435103131.204,7.512602
1435103131.22,8.801397
1435103131.235,9.584068
1435103131.251,9.880611
1435103131.267,9.820116
1435103131.282,9.600409
1435103131.298,9.3906975
1435103131.313,9.279196
1435103131.329,9.274387
1435103131.345,9.294136
1435103131.36,9.210859
1435103131.376,8.88607
1435103131.392,8.157577
1435103131.407,6.8273716
1435103131.423,4.6993303
1435103131.438,1.6753192
1435103131.454,-2.062873
1435103131.47,-5.9746614
1435103131.485,-9.226048
1435103131.501,-10.981781
1435103131.517,-10.7282295
1435103131.532,-8.59419
1435103131.548,-5.281233
1435103131.563,-1.7927514
1435103131.579,1.0218207
1435103131.595,2.7649376
1435103131.61,3.5919557
1435103131.626,3.988443
1435103131.642,4.429569
1435103131.657,5.118598
1435103131.673,5.9061527
1435103131.688,6.459083
1435103131.704,6.482861
1435103131.72,5.8920183
1435103131.735,4.883776
1435103131.751,3.77957
1435103131.767,2.8850293
1435103131.782,2.352009
1435103131.798,2.1748056
1435103131.813,2.1968012
1435103131.829,2.282872
1435103131.845,2.3655202
1435103131.86,2.508107
1435103131.876,2.8116095
1435103131.892,3.2988102
1435103131.907,3.8441803
1435103131.923,4.2039785
1435103131.938,4.16525
1435103131.954,3.7139163
1435103131.97,3.074792
1435103131.985,2.5953918
1435103132.001,2.5200813
1435103132.017,2.8225024
1435103132.032,3.1119533
1435103132.048,2.7047822
1435103132.064,0.91586196
1435103132.079,-2.6306272
1435103132.095,-7.8021674
1435103132.11,-13.978596
1435103132.126,-20.26567
1435103132.142,-25.798388
1435103132.157,-29.972342
1435103132.173,-32.54011
1435103132.189,-33.550278
1435103132.204,-33.208466
1435103132.22,-31.783892
1435103132.235,-29.549425
1435103132.251,-26.769535
1435103132.267,-23.694752
1435103132.282,-20.576725
1435103132.298,-17.597828
1435103132.314,-14.877786
1435103132.329,-12.415749
1435103132.345,-10.118866
1435103132.36,-7.8170686
1435103132.376,-5.335623
1435103132.392,-2.5708332
1435103132.407,0.49898052
1435103132.423,3.7675133
1435103132.439,7.0238256
1435103132.454,10.014027
1435103132.47,12.523273
1435103132.485,14.469305
1435103132.501,15.93973
1435103132.517,17.19918
1435103132.532,18.60901
1435103132.548,20.556973
1435103132.564,23.335087
1435103132.579,27.07482
1435103132.595,31.619326
1435103132.61,36.490814
1435103132.626,40.89176
1435103132.642,43.8761
1435103132.657,44.572876
1435103132.673,42.46055
1435103132.689,37.556732
1435103132.704,30.444231
1435103132.72,22.116732
1435103132.735,13.7150135
1435103132.751,6.225376
1435103132.767,0.28238297
1435103132.782,-3.9304142
1435103132.798,-6.59054
1435103132.814,-8.095858
1435103132.829,-8.840155
1435103132.845,-9.038069
1435103132.86,-8.63768
1435103132.876,-7.427265
1435103132.892,-5.217703
1435103132.907,-2.0485659
1435103132.923,1.7422123
1435103132.939,5.583226
1435103132.954,8.836243
1435103132.97,10.986703
1435103132.985,11.755427
1435103133.001,11.115982
1435103133.017,9.27806
1435103133.032,6.6334753
1435103133.048,3.6873188
1435103133.064,0.9213028
1435103133.079,-1.3038425
1435103133.095,-2.8745031
1435103133.11,-3.9078045
1435103133.126,-4.6400433
1435103133.142,-5.244276
1435103133.157,-5.7357492
1435103133.173,-5.9939823
1435103133.189,-5.927693
1435103133.204,-5.6498313
1435103133.22,-5.572241
1435103133.235,-6.239362
1435103133.251,-8.128738
1435103133.267,-11.403654
1435103133.282,-15.846764
1435103133.298,-20.96632
1435103133.314,-26.214222
1435103133.329,-31.154377
1435103133.345,-35.551304
1435103133.36,-39.28624
1435103133.376,-42.23239
1435103133.392,-44.14596
1435103133.407,-44.709995
1435103133.423,-43.647526
1435103133.439,-40.917442
1435103133.454,-36.830708
1435103133.47,-32.018814
1435103133.485,-27.259285
1435103133.501,-23.233212
1435103133.517,-20.2852
1435103133.532,-18.35889
1435103133.548,-17.065186
1435103133.564,-15.887865
1435103133.579,-14.384573
1435103133.595,-12.359777
1435103133.61,-9.867504
1435103133.626,-7.0878696
1435103133.642,-4.173647
1435103133.657,-1.1515293
1435103133.673,2.064602
1435103133.689,5.5792065
1435103133.704,9.411072
1435103133.72,13.455839
1435103133.735,17.546532
1435103133.751,21.533241
1435103133.767,25.309967
1435103133.782,28.767914
1435103133.798,31.69862
1435103133.814,33.721176
1435103133.829,34.376274
1435103133.845,33.27897
1435103133.86,30.32965
1435103133.876,25.806335
1435103133.892,20.301006
1435103133.907,14.516537
1435103133.923,9.049492
1435103133.939,4.219635
1435103133.954,0.102321625
1435103133.97,-3.3763466
1435103133.985,-6.276306
1435103134.001,-8.559849
1435103134.017,-10.078442
1435103134.032,-10.696964
1435103134.048,-10.387241
1435103134.064,-9.28754
1435103134.079,-7.665798
1435103134.095,-5.8619614
1435103134.11,-4.1524963
1435103134.126,-2.6899033
1435103134.142,-1.4821777
1435103134.157,-0.43486023
1435103134.173,0.5549774
1435103134.189,1.5452042
1435103134.204,2.5315247
1435103134.22,3.4847717
1435103134.235,4.4216156
1435103134.251,5.447998
1435103134.267,6.73967
1435103134.282,8.469551
1435103134.298,10.753212
1435103134.314,13.592049
1435103134.329,16.889656
1435103134.345,20.51168
1435103134.36,24.283127
1435103134.376,27.986122
1435103134.392,31.309158
1435103134.407,33.832077
1435103134.423,35.05641
1435103134.439,34.52186
1435103134.454,32.01803
1435103134.47,27.687012
1435103134.485,22.047592
1435103134.501,15.8257675
1435103134.517,9.770142
1435103134.532,4.4328537
1435103134.548,0.11972046
1435103134.564,-3.066864
1435103134.579,-5.098549
1435103134.595,-5.9336166
1435103134.61,-5.519455
1435103134.626,-3.8572693
1435103134.642,-1.090622
1435103134.657,2.4375
1435103134.673,6.228676
1435103134.689,9.72683
1435103134.704,12.44944
1435103134.72,14.094322
1435103134.736,14.602776
1435103134.751,14.090416
1435103134.767,12.762573
1435103134.782,10.79982
1435103134.798,8.317749
1435103134.814,5.3753586
1435103134.829,2.0680618
1435103134.845,-1.3653717
1435103134.861,-4.574379
1435103134.876,-7.207321
1435103134.892,-9.0867
1435103134.907,-10.283257
1435103134.923,-11.03495
1435103134.939,-11.558403
1435103134.954,-11.84639
1435103134.97,-11.665337
1435103134.986,-10.745556
1435103135.001,-9.088596
1435103135.017,-7.1407585
1435103135.032,-5.726856
1435103135.048,-5.7136
1435103135.064,-7.620178
1435103135.079,-11.345131
1435103135.095,-16.215843
1435103135.111,-21.28481
1435103135.126,-25.688004
1435103135.142,-28.896805
1435103135.157,-30.759277
1435103135.173,-31.33155
1435103135.189,-30.72924
1435103135.204,-29.034737
1435103135.22,-26.320599
1435103135.236,-22.72371
1435103135.251,-18.532269
1435103135.267,-14.149273
1435103135.282,-10.017178
1435103135.298,-6.488312
1435103135.314,-3.7606773
1435103135.329,-1.8647423
1435103135.345,-0.7215347
1435103135.361,-0.20339203
1435103135.376,-0.1762085
1435103135.392,-0.49380493
1435103135.407,-0.9850693
1435103135.423,-1.436409
1435103135.439,-1.6309357
1435103135.454,-1.3816833
1435103135.47,-0.6056824
1435103135.486,0.66913605
1435103135.501,2.2900925
1435103135.517,4.042694
1435103135.532,5.691452
1435103135.548,7.037445
1435103135.564,7.942131
1435103135.579,8.373817
1435103135.595,8.427109
1435103135.611,8.356918
1435103135.626,8.535751
1435103135.642,9.35334
1435103135.657,11.055901
1435103135.673,13.603241
1435103135.689,16.592735
1435103135.704,19.30362
1435103135.72,20.90406
1435103135.736,20.705215
1435103135.751,18.371834
1435103135.767,14.055519
1435103135.782,8.310921
1435103135.798,1.9358368
1435103135.814,-4.264427
1435103135.829,-9.635681
1435103135.845,-13.806046
1435103135.861,-16.66774
1435103135.876,-18.306091
1435103135.892,-18.890572
1435103135.907,-18.604568
1435103135.923,-17.619827
1435103135.939,-16.090775
1435103135.954,-14.152649
1435103135.97,-11.940056
1435103135.986,-9.610779
1435103136.001,-7.349579
1435103136.017,-5.350998
1435103136.032,-3.764328
1435103136.048,-2.640808
1435103136.064,-1.9351807
1435103136.079,-1.509407
1435103136.095,-1.1974716
1435103136.111,-0.7824402
1435103136.126,-0.14749908
1435103136.142,0.72904205
1435103136.157,1.7752533
1435103136.173,2.9329987
1435103136.189,4.1954727
1435103136.204,5.598999
1435103136.22,7.203331
1435103136.236,9.051659
1435103136.251,11.250809
1435103136.267,13.769188
1435103136.282,16.401192
1435103136.298,18.876083
1435103136.314,21.002869
1435103136.329,22.742874
1435103136.345,24.20456
1435103136.361,25.596817
1435103136.376,27.16111
1435103136.392,29.397095
1435103136.407,32.51606
1435103136.423,36.284424
1435103136.439,40.055557
1435103136.454,43.062637
1435103136.47,44.63492
1435103136.486,44.37371
1435103136.501,42.2902
1435103136.517,38.78929
1435103136.532,34.912987
1435103136.548,31.475456
1435103136.564,28.698044
1435103136.579,26.348862
1435103136.595,24.174644
1435103136.611,22.145233
1435103136.626,20.438583
1435103136.642,19.310532
1435103136.657,18.86174
1435103136.673,19.439667
1435103136.689,20.801132
1435103136.704,22.093689
1435103136.72,22.323029
1435103136.736,20.9935
1435103136.751,18.215187
1435103136.767,14.415836
1435103136.782,10.035828
1435103136.798,2.1548653
1435103136.814,-9.578835
1435103136.829,-22.583607
1435103136.845,-33.071697
1435103136.861,-38.85539
1435103136.876,-40.04219
1435103136.892,-38.14539
1435103136.907,-35.126205
1435103136.923,-32.592365
1435103136.939,-31.371555
1435103136.954,-30.870308
1435103136.97,-30.25644
1435103136.986,-29.15073
1435103137.001,-27.818056
1435103137.017,-26.775713
1435103137.032,-26.420256
1435103137.048,-26.813404
1435103137.064,-27.66463
1435103137.079,-28.435896
1435103137.095,-28.208897
1435103137.111,-26.59444
1435103137.126,-23.942883
1435103137.142,-21.06564
1435103137.157,-18.684784
1435103137.173,-17.123985
1435103137.189,-16.438004
1435103137.204,-16.5585
1435103137.22,-17.406332
1435103137.236,-18.597273
1435103137.251,-19.8695
1435103137.267,-20.965975
1435103137.282,-21.656286
1435103137.298,-21.660965
1435103137.314,-20.69854
1435103137.329,-18.714262
1435103137.345,-15.945961
1435103137.361,-12.786934
1435103137.376,-9.487194
1435103137.392,-6.232926
1435103137.408,-3.2222447
1435103137.423,-0.660871
1435103137.439,1.2640057
1435103137.454,2.5621982
1435103137.47,3.2493849
1435103137.486,3.34338
1435103137.501,2.9206076
1435103137.517,2.2177906
1435103137.532,1.4394045
1435103137.548,0.66360664
1435103137.564,-0.192626
1435103137.579,-1.237915
1435103137.595,-2.3016882
1435103137.611,-3.2903423
1435103137.626,-4.2970333
1435103137.642,-5.4437037
1435103137.658,-6.700803
1435103137.673,-7.804652
1435103137.689,-8.371363
1435103137.704,-8.231615
1435103137.72,-7.2115803
1435103137.736,-4.927185
1435103137.751,-1.5131817
1435103137.767,2.3468904
1435103137.783,5.7577734
1435103137.798,8.159548
1435103137.814,9.499422
1435103137.829,10.110699
1435103137.845,10.498743
1435103137.861,11.228455
1435103137.876,13.276257
1435103137.892,17.069855
1435103137.908,22.28363
1435103137.923,28.073622
1435103137.939,33.53582
1435103137.954,37.899242
1435103137.97,40.49974
1435103137.986,40.872364
1435103138.001,35.584515
1435103138.017,24.336775
1435103138.033,10.405935
1435103138.048,-1.8260651
1435103138.064,-10.018509
1435103138.079,-14.082277
1435103138.095,-15.076612
1435103138.111,-14.251396
1435103138.126,-12.665171
1435103138.142,-11.005894
1435103138.158,-8.861151
1435103138.173,-6.332939
1435103138.189,-3.9712334
1435103138.204,-2.4768581
1435103138.22,-2.1480255
1435103138.236,-2.7884827
1435103138.251,-3.9357357
1435103138.267,-5.1277103
1435103138.283,-6.025923
1435103138.298,-6.0229187
1435103138.314,-5.3983364
1435103138.329,-4.5240135
1435103138.345,-3.8605366
1435103138.361,-3.5657864
1435103138.376,-3.4852962
1435103138.392,-3.3068447
1435103138.408,-2.7776432
1435103138.423,-1.7582893
1435103138.439,-0.018592834
1435103138.454,2.326294
1435103138.47,4.8890734
1435103138.486,7.1386003
1435103138.501,8.80133
1435103138.517,9.98913
1435103138.533,11.080337
1435103138.548,12.503057
1435103138.564,14.477783
1435103138.579,16.983196
1435103138.595,19.514484
1435103138.611,21.33503
1435103138.626,21.705126
1435103138.642,20.231628
1435103138.658,16.943968
1435103138.673,12.188826
1435103138.689,6.446347
1435103138.704,0.2222147
1435103138.72,-5.9621725
1435103138.736,-11.635301
1435103138.751,-16.34652
1435103138.767,-19.768332
1435103138.783,-21.725252
1435103138.798,-22.249554
1435103138.814,-21.616646
1435103138.829,-20.180893
1435103138.845,-18.29463
1435103138.861,-16.200436
1435103138.876,-14.04295
1435103138.892,-11.879293
1435103138.908,-9.812857
1435103138.923,-7.9760585
1435103138.939,-6.501801
1435103138.954,-5.445179
1435103138.97,-4.7657967
1435103138.986,-4.3512278
1435103139.001,-4.093052
1435103139.017,-3.9116423
1435103139.033,-3.775269
1435103139.048,-3.6616383
1435103139.064,-3.5276563
1435103139.079,-3.2830472
1435103139.095,-2.861289
1435103139.111,-2.2419388
1435103139.126,-1.4629925
1435103139.142,-0.5360167
1435103139.158,0.61024123
1435103139.173,2.1764393
1435103139.189,4.4066906
1435103139.204,7.4444985
1435103139.22,11.22461
1435103139.236,15.385333
1435103139.251,19.32888
1435103139.267,22.361954
1435103139.283,23.840073
1435103139.298,23.351845
1435103139.314,20.784464
1435103139.329,16.428656
1435103139.345,10.90172
1435103139.361,5.022843
1435103139.376,-0.4048698
1435103139.392,-4.8012667
1435103139.408,-7.9516973
1435103139.423,-9.9612255
1435103139.439,-11.115486
1435103139.454,-11.682446
1435103139.47,-11.785967
1435103139.486,-11.407305
1435103139.501,-10.486268
1435103139.517,-9.042386
1435103139.533,-7.272006
1435103139.548,-5.5006313
1435103139.564,-4.119891
1435103139.579,-3.4207416
1435103139.595,-3.514512
1435103139.611,-4.2627454
1435103139.626,-5.363152
1435103139.642,-6.421806
1435103139.658,-7.105612
1435103139.673,-7.2135396
1435103139.689,-6.715452
1435103139.704,-5.712541
1435103139.72,-4.310887
1435103139.736,-2.5791783
1435103139.751,-0.5450034
1435103139.767,1.7500029
1435103139.783,4.1841297
1435103139.798,6.55797
1435103139.814,8.684506
1435103139.829,10.531097
1435103139.845,12.28631
1435103139.861,14.303846
1435103139.876,16.885927
1435103139.892,20.051304
1435103139.908,23.36282
1435103139.923,26.025871
1435103139.939,27.123241
1435103139.954,25.999931
1435103139.97,22.494476
1435103139.986,17.00124
1435103140.001,10.294846
1435103140.017,3.2716656
1435103140.033,-3.3297634
1435103140.048,-9.005204
1435103140.064,-13.506889
1435103140.079,-16.742245
1435103140.095,-18.724623
1435103140.111,-19.5037
1435103140.126,-19.19767
1435103140.142,-17.984625
1435103140.158,-16.111486
1435103140.173,-13.851313
1435103140.189,-11.476984
1435103140.204,-9.233349
1435103140.22,-7.307785
1435103140.236,-5.8094273
1435103140.251,-4.7704678
1435103140.267,-4.153631
1435103140.283,-3.8798313
1435103140.298,-3.8331013
1435103140.314,-3.8834953
1435103140.33,-3.885126
1435103140.345,-3.6827335
1435103140.361,-3.1292248
1435103140.376,-2.1101494
1435103140.392,-0.5861702
1435103140.408,1.373272
1435103140.423,3.6050415
1435103140.439,5.9106426
1435103140.455,8.141336
1435103140.47,10.26141
1435103140.486,12.389061
1435103140.501,14.706869
1435103140.517,17.352343
1435103140.533,20.248022
1435103140.548,23.073273
1435103140.564,25.269947
1435103140.58,26.221054
1435103140.595,25.414063
1435103140.611,22.617683
1435103140.626,17.9361
1435103140.642,11.8003235
1435103140.658,4.840172
1435103140.673,-2.2381058
1435103140.689,-8.808903
1435103140.705,-14.389832
1435103140.72,-18.692127
1435103140.736,-21.600468
1435103140.751,-23.13498
1435103140.767,-23.403618
1435103140.783,-22.597752
1435103140.798,-20.97852
1435103140.814,-18.881264
1435103140.83,-16.64029
1435103140.845,-14.5561905
1435103140.861,-12.814953
1435103140.876,-11.456181
1435103140.892,-10.430077
1435103140.908,-9.680088
1435103140.923,-9.169933
1435103140.939,-8.853989
1435103140.955,-8.6225395
1435103140.97,-8.301014
1435103140.986,-7.676998
1435103141.001,-6.633812
1435103141.017,-5.207714
1435103141.033,-3.608467
1435103141.048,-2.0821266
1435103141.064,-0.8044243
1435103141.08,0.22856522
1435103141.095,1.1530342
1435103141.111,2.1513596
1435103141.126,3.3389282
1435103141.142,4.7510147
1435103141.158,6.4008484
1435103141.173,8.372154
1435103141.189,10.803558
1435103141.205,13.790619
1435103141.22,17.200901
1435103141.236,20.569801
1435103141.251,23.111519
1435103141.267,23.958607
1435103141.283,22.440609
1435103141.298,18.365902
1435103141.314,12.085743
1435103141.33,4.4504433
1435103141.345,-3.4953423
1435103141.361,-10.801754
1435103141.376,-16.810772
1435103141.392,-21.216755
1435103141.408,-23.995289
1435103141.423,-25.268066
1435103141.439,-25.21014
1435103141.455,-24.011013
1435103141.47,-21.928852
1435103141.486,-19.295605
1435103141.501,-16.528225
1435103141.517,-14.017338
1435103141.533,-12.057587
1435103141.548,-10.735508
1435103141.564,-9.946552
1435103141.58,-9.447567
1435103141.595,-8.99799
1435103141.611,-8.46138
1435103141.626,-7.847866
1435103141.642,-7.2757072
1435103141.658,-6.831661
1435103141.673,-6.489887
1435103141.689,-6.0570145
1435103141.705,-5.2507477
1435103141.72,-3.8340645
1435103141.736,-1.7528343
1435103141.751,0.82569885
1435103141.767,3.6456223
1435103141.783,6.455826
1435103141.798,9.142212
1435103141.814,11.68034
1435103141.83,14.090206
1435103141.845,16.33957
1435103141.861,18.36351
1435103141.876,20.138733
1435103141.892,21.75544
1435103141.908,23.370918
1435103141.923,25.068928
1435103141.939,26.689
1435103141.955,27.756653
1435103141.97,27.61641
1435103141.986,25.685501
1435103142.001,21.732075
1435103142.017,15.997009
1435103142.033,9.093632
1435103142.048,1.8195572
1435103142.064,-5.124138
1435103142.08,-11.257473
1435103142.095,-16.330338
1435103142.111,-20.229645
1435103142.126,-22.905384
1435103142.142,-24.329735
1435103142.158,-24.499256
1435103142.173,-23.51339
1435103142.189,-21.60458
1435103142.205,-19.122414
1435103142.22,-16.494007
1435103142.236,-14.117649
1435103142.251,-12.262142
1435103142.267,-11.01033
1435103142.283,-10.262581
1435103142.298,-9.79953
1435103142.314,-9.430187
1435103142.33,-9.050423
1435103142.345,-8.678711
1435103142.361,-8.391205
1435103142.376,-8.234386
1435103142.392,-8.119728
1435103142.408,-7.848404
1435103142.423,-7.1851234
1435103142.439,-5.901539
1435103142.455,-3.941887
1435103142.47,-1.414566
1435103142.486,1.4445763
1435103142.501,4.305027
1435103142.517,6.8796616
1435103142.533,8.969059
1435103142.548,10.598602
1435103142.564,11.987511
1435103142.58,13.503414
1435103142.595,15.494629
1435103142.611,18.143509
1435103142.626,21.356129
1435103142.642,24.780384
1435103142.658,27.871227
1435103142.673,30.04279
1435103142.689,30.77422
1435103142.705,29.690102
1435103142.72,26.628742
1435103142.736,21.675209
1435103142.751,15.19817
1435103142.767,7.8001213
1435103142.783,0.21820068
1435103142.798,-6.8043404
1435103142.814,-12.689892
1435103142.83,-17.073566
1435103142.845,-19.8447
1435103142.861,-21.103668
1435103142.876,-21.086945
1435103142.892,-20.117176
1435103142.908,-18.544674
1435103142.923,-16.71965
1435103142.939,-14.88208
1435103142.955,-13.2033
1435103142.97,-11.786945
1435103142.986,-10.642319
1435103143.002,-9.763412
1435103143.017,-9.098423
1435103143.033,-8.5982895
1435103143.048,-8.226425
1435103143.064,-8.001167
1435103143.08,-7.9625607
1435103143.095,-8.155966
1435103143.111,-8.554663
1435103143.127,-8.990986
1435103143.142,-9.147696
1435103143.158,-8.6702
1435103143.173,-7.286066
1435103143.189,-4.9547615
1435103143.205,-1.9152565
1435103143.22,1.3986111
1435103143.236,4.523634
1435103143.252,7.1334915
1435103143.267,9.181389
1435103143.283,10.836199
1435103143.298,12.400112
1435103143.314,14.170496
1435103143.33,16.34776
1435103143.345,18.982594
1435103143.361,21.971617
1435103143.377,25.072315
1435103143.392,27.88165
1435103143.408,29.838554
1435103143.423,30.32208
1435103143.439,28.826408
1435103143.455,25.173609
1435103143.47,19.624989
1435103143.486,12.877804
1435103143.502,5.8410244
1435103143.517,-0.5881462
1435103143.533,-5.7950535
1435103143.548,-9.515469
1435103143.564,-11.852142
1435103143.58,-13.123886
1435103143.595,-13.743307
1435103143.611,-14.097002
1435103143.627,-14.4567375
1435103143.642,-14.948872
1435103143.658,-15.545776
1435103143.673,-16.138361
1435103143.689,-16.602701
1435103143.705,-16.847986
1435103143.72,-16.913532
1435103143.736,-16.908813
1435103143.752,-17.000748
1435103143.767,-17.288515
1435103143.783,-17.800907
1435103143.798,-18.449148
1435103143.814,-19.03241
1435103143.83,-19.268002
1435103143.845,-18.855722
1435103143.861,-17.545332
1435103143.877,-15.242905
1435103143.892,-12.045082
1435103143.908,-8.229198
1435103143.923,-4.187111
1435103143.939,-0.30565262
1435103143.955,3.1453514
1435103143.97,6.0597134
1435103143.986,8.474474
1435103144.002,10.503252
1435103144.017,12.306681
1435103144.033,14.017641
1435103144.048,15.769348
1435103144.064,17.61193
1435103144.08,19.461079
1435103144.095,21.058475
1435103144.111,21.95055
1435103144.127,21.584309
1435103144.142,19.494003
1435103144.158,15.50488
1435103144.173,9.835547
1435103144.189,3.076479
1435103144.205,-3.9129276
1435103144.22,-10.248162
1435103144.236,-15.22684
1435103144.252,-18.445625
1435103144.267,-19.806763
1435103144.283,-19.447453
1435103144.298,-17.645893
1435103144.314,-14.806129
1435103144.33,-11.437717
1435103144.345,-8.131929
1435103144.361,-5.441349
1435103144.377,-3.738684
1435103144.392,-3.0681818
1435103144.408,-3.135057
1435103144.423,-3.4382412
1435103144.439,-3.4948802
1435103144.455,-3.0604506
1435103144.47,-2.2016087
1435103144.486,-1.1793892
1435103144.502,-0.2937032
1435103144.517,0.31856346
1435103144.533,0.7247586
1435103144.548,1.1445837
1435103144.564,1.81495
1435103144.58,2.8881264
1435103144.595,4.399575
1435103144.611,6.283496
1435103144.627,8.391021
1435103144.642,10.540067
1435103144.658,12.554028
1435103144.673,14.345479
1435103144.689,15.922029
1435103144.705,17.401863
1435103144.72,18.940931
1435103144.736,20.61913
1435103144.752,22.342218
1435103144.767,23.795311
1435103144.783,24.49744
1435103144.798,23.936466
1435103144.814,21.75718
1435103144.83,17.899416
1435103144.845,12.649047
1435103144.861,6.576314
1435103144.877,0.37426567
1435103144.892,-5.2934113
1435103144.908,-9.94227
1435103144.923,-13.321644
1435103144.939,-15.4055805
1435103144.955,-16.322979
1435103144.97,-16.31242
1435103144.986,-15.612782
1435103145.002,-14.455763
1435103145.017,-13.027116
1435103145.033,-11.46416
1435103145.048,-9.878426
1435103145.064,-8.370187
1435103145.08,-7.0327272
1435103145.095,-5.970664
1435103145.111,-5.279356
1435103145.127,-5.0132904
1435103145.142,-5.1556606
1435103145.158,-5.606188
1435103145.173,-6.172842
1435103145.189,-6.6335297
1435103145.205,-6.778164
1435103145.22,-6.47402
1435103145.236,-5.680565
1435103145.252,-4.4597607
1435103145.267,-2.8885345
1435103145.283,-1.0695553
1435103145.298,0.9242935
1435103145.314,3.058382
1435103145.33,5.3109913
1435103145.345,7.677883
1435103145.361,10.160316
1435103145.377,12.739845
1435103145.392,15.32128
1435103145.408,17.666735
1435103145.423,19.408949
1435103145.439,20.09313
1435103145.455,19.321821
1435103145.47,16.887012
1435103145.486,12.8948345
1435103145.502,7.7555256
1435103145.517,2.1004372
1435103145.533,-3.373705
1435103145.548,-8.059965
1435103145.564,-11.545372
1435103145.58,-13.606346
1435103145.595,-14.2110405
1435103145.611,-13.457342
1435103145.627,-11.530731
1435103145.642,-8.710489
1435103145.658,-5.3488235
1435103145.674,-1.8552608
1435103145.689,1.3337955
1435103145.705,3.856041
1435103145.72,5.487955
1435103145.736,6.1901073
1435103145.752,6.0779247
1435103145.767,5.416067
1435103145.783,4.485466
1435103145.799,3.5312119
1435103145.814,2.762064
1435103145.83,2.3140373
1435103145.845,2.2886467
1435103145.861,2.727951
1435103145.877,3.5952911
1435103145.892,4.799692
1435103145.908,6.1989174
1435103145.924,7.675724
1435103145.939,9.180824
1435103145.955,10.751219
1435103145.97,12.467306
1435103145.986,14.3615265
1435103146.002,16.318634
1435103146.017,18.046932
1435103146.033,19.12835
1435103146.049,19.150877
1435103146.064,17.828604
1435103146.08,15.098764
1435103146.095,11.135151
1435103146.111,6.3127213
1435103146.127,1.1000977
1435103146.142,-4.0295258
1435103146.158,-8.668314
1435103146.174,-12.466005
1435103146.189,-15.149677
1435103146.205,-16.481997
1435103146.22,-16.352036
1435103146.236,-14.760039
1435103146.252,-11.87386
1435103146.267,-8.059764
1435103146.283,-3.8763838
1435103146.299,0.04081154
1435103146.314,3.1573305
1435103146.33,5.167345
1435103146.345,6.072686
1435103146.361,6.0342674
1435103146.377,5.36621
1435103146.392,4.5010033
1435103146.408,3.8052335
1435103146.424,3.461955
1435103146.439,3.4554882
1435103146.455,3.6806917
1435103146.47,4.045043
1435103146.486,4.5615835
1435103146.502,5.1102867
1435103146.517,5.667903
1435103146.533,6.4252987
1435103146.549,7.662842
1435103146.564,9.51801
1435103146.58,11.88311
1435103146.595,14.419706
1435103146.611,16.610947
1435103146.627,17.835852
1435103146.642,17.232048
1435103146.658,14.323612
1435103146.674,9.404078
1435103146.689,3.3937783
1435103146.705,-2.6809053
1435103146.72,-8.102978
1435103146.736,-12.554756
1435103146.752,-16.066114
1435103146.767,-18.854044
1435103146.783,-21.593716
1435103146.799,-24.756626
1435103146.814,-28.320324
1435103146.83,-31.90896
1435103146.845,-35.196957
1435103146.861,-37.97394
1435103146.877,-39.9866
1435103146.892,-40.895115
1435103146.908,-37.808968
1435103146.924,-29.621101
1435103146.939,-18.31179
1435103146.955,-7.5443316
1435103146.97,0.2416172
1435103146.986,4.7239437
1435103147.002,6.7980394
1435103147.017,7.58972
1435103147.033,7.918477
1435103147.049,8.13461
1435103147.064,7.861307
1435103147.08,6.806609
1435103147.095,5.06166
1435103147.111,3.3895092
1435103147.127,2.4593716
1435103147.142,2.6038952
1435103147.158,3.8017712
1435103147.174,5.7615023
1435103147.189,7.9180164
1435103147.205,9.241047
1435103147.22,8.82045
1435103147.236,6.3402715
1435103147.252,2.0854683
1435103147.267,-3.4897838
1435103147.283,-9.86492
1435103147.299,-16.507994
1435103147.314,-22.963657
1435103147.33,-28.898102
1435103147.345,-34.2454
1435103147.361,-38.82138
1435103147.377,-42.130882
1435103147.392,-43.459587
1435103147.408,-42.281033
1435103147.424,-38.45819
1435103147.439,-32.347572
1435103147.455,-24.670982
1435103147.47,-16.345222
1435103147.486,-8.331623
1435103147.502,-1.3385406
1435103147.517,4.329685
1435103147.533,8.699066
1435103147.549,11.924809
1435103147.564,14.169275
1435103147.58,15.592082
1435103147.595,16.360718
1435103147.611,16.715246
1435103147.627,16.90522
1435103147.642,17.21324
1435103147.658,17.865425
1435103147.674,19.000422
1435103147.689,20.601538
1435103147.705,22.592646
1435103147.72,24.87284
1435103147.736,27.354298
1435103147.752,29.916948
1435103147.767,32.324768
1435103147.783,34.193665
1435103147.799,35.018276
1435103147.814,34.322517
1435103147.83,31.797623
1435103147.845,27.418634
1435103147.861,21.533445
1435103147.877,14.75922
1435103147.892,7.855465
1435103147.908,1.5112495
1435103147.924,-3.7696514
1435103147.939,-7.7648335
1435103147.955,-10.45623
1435103147.97,-11.958611
1435103147.986,-12.383221
1435103148.002,-11.836248
1435103148.017,-10.430225
1435103148.033,-8.344473
1435103148.049,-5.8664474
1435103148.064,-3.3560143
1435103148.08,-1.167223
1435103148.095,0.43198586
1435103148.111,1.3340874
1435103148.127,1.5925465
1435103148.142,1.4139977
1435103148.158,1.0669174
1435103148.174,0.860569
1435103148.189,1.0528107
1435103148.205,1.8236542
1435103148.22,3.2209415
1435103148.236,5.1834126
1435103148.252,7.5751705
1435103148.267,10.250977
1435103148.283,13.090385
1435103148.299,16.019869
1435103148.314,19.0125
1435103148.33,22.052301
1435103148.346,25.049839
1435103148.361,27.800713
1435103148.377,29.976479
1435103148.392,31.140497
1435103148.408,30.832947
1435103148.424,28.666462
1435103148.439,24.395727
1435103148.455,18.008808
1435103148.47,9.771421
1435103148.486,0.28444672
1435103148.502,-9.577883
1435103148.517,-18.766268
1435103148.533,-26.311642
1435103148.549,-31.563639
1435103148.564,-34.36522
1435103148.58,-35.05769
1435103148.596,-34.30361
1435103148.611,-32.805084
1435103148.627,-31.10293
1435103148.642,-29.48891
1435103148.658,-28.05466
1435103148.674,-26.7287
1435103148.689,-25.3676
1435103148.705,-23.764431
1435103148.721,-21.680664
1435103148.736,-18.908056
1435103148.752,-15.37531
1435103148.767,-11.245872
1435103148.783,-6.9201775
1435103148.799,-2.8494978
1435103148.814,0.65293217
1435103148.83,3.5693665
1435103148.846,6.1313725
1435103148.861,8.708436
1435103148.877,11.63301
1435103148.892,15.067932
1435103148.908,18.941263
1435103148.924,22.983812
1435103148.939,26.899252
1435103148.955,30.53127
1435103148.971,33.90069
1435103148.986,37.134037
1435103149.002,40.23842
1435103149.017,42.95485
1435103149.033,44.670876
1435103149.049,44.527103
1435103149.064,41.577423
1435103149.08,35.333736
1435103149.096,26.112614
1435103149.111,15.009251
1435103149.127,3.4702506
1435103149.142,-7.1604424
1435103149.158,-15.979546
1435103149.174,-22.546547
1435103149.189,-26.83094
1435103149.205,-29.279064
1435103149.221,-30.270004
1435103149.236,-29.845959
1435103149.252,-27.832497
1435103149.267,-24.232742
1435103149.283,-19.399515
1435103149.299,-13.9616375
1435103149.314,-8.577128
1435103149.33,-3.8758793
1435103149.346,-0.8518865
1435103149.361,-0.18893385
1435103149.377,-1.9253433
1435103149.392,-5.524563
1435103149.408,-10.31586
1435103149.424,-15.6819315
1435103149.439,-21.063257
1435103149.455,-25.90853
1435103149.471,-29.960157
1435103149.486,-33.960495
1435103149.502,-38.809853
1435103149.517,-44.98365
1435103149.533,-52.38873
1435103149.549,-60.724926
1435103149.564,-69.76233
1435103149.58,-79.30644
1435103149.596,-89.04842
1435103149.611,-94.3977
1435103149.627,-92.08228
1435103149.642,-82.3333
1435103149.658,-68.31415
1435103149.674,-53.00487
1435103149.689,-38.292755
1435103149.705,-25.746416
1435103149.721,-16.92331
1435103149.736,-12.225712
1435103149.752,-11.22781
1435103149.767,-13.677074
1435103149.783,-18.636826
1435103149.799,-24.412384
1435103149.814,-29.047363
1435103149.83,-31.08788
1435103149.846,-29.734657
1435103149.861,-25.477291
1435103149.877,-18.783848
1435103149.892,-10.319679
1435103149.908,-1.2263947
1435103149.924,7.7731247
1435103149.939,16.68731
1435103149.955,26.126595
1435103149.971,36.70134
1435103149.986,48.65925
1435103150.002,61.920258
1435103150.017,76.29758
1435103150.033,91.35213
1435103150.049,106.128815
1435103150.064,119.51452
1435103150.08,130.42232
1435103150.096,137.86041
1435103150.111,141.01224
1435103150.127,139.44797
1435103150.142,133.4412
1435103150.158,124.09674
1435103150.174,112.941925
1435103150.189,101.36816
1435103150.205,90.46412
1435103150.221,80.82954
1435103150.236,72.6046
1435103150.252,65.48689
1435103150.267,58.966553
1435103150.283,52.574585
1435103150.299,46.14183
1435103150.314,39.69429
1435103150.33,33.376625
1435103150.346,27.381447
1435103150.361,21.877998
1435103150.377,16.947723
1435103150.392,12.582672
1435103150.408,8.698502
1435103150.424,5.1987305
1435103150.439,2.0088959
1435103150.455,-0.985939
1435103150.471,-3.956112
1435103150.486,-7.105736
1435103150.502,-10.615711
1435103150.517,-14.527744
1435103150.533,-18.697208
1435103150.549,-22.804623
1435103150.564,-26.496666
1435103150.58,-29.514214
1435103150.596,-31.84097
1435103150.611,-33.668808
1435103150.627,-35.275917
1435103150.642,-36.86084
1435103150.658,-38.452675
1435103150.674,-39.959023
1435103150.689,-41.30552
1435103150.705,-42.458992
1435103150.721,-43.422394
1435103150.736,-44.074776
1435103150.752,-44.127003
1435103150.767,-43.204357
1435103150.783,-41.052456
1435103150.799,-37.75316
1435103150.814,-33.751637
1435103150.83,-29.677326
1435103150.846,-26.046803
1435103150.861,-23.038067
1435103150.877,-20.493624
1435103150.892,-18.090553
1435103150.908,-15.599823
1435103150.924,-12.99081
1435103150.939,-10.402584
1435103150.955,-7.9760303
1435103150.971,-5.7468796
1435103150.986,-3.625103
1435103151.002,-1.5127449
1435103151.018,0.5922508
1435103151.033,2.5699768
1435103151.049,4.269081
1435103151.064,5.6482086
1435103151.08,6.8759804
1435103151.096,8.274662
1435103151.111,10.161694
1435103151.127,12.632507
1435103151.142,15.435234
1435103151.158,17.966824
1435103151.174,19.46682
1435103151.189,19.236649
1435103151.205,16.917912
1435103151.221,12.594425
1435103151.236,6.790764
1435103151.252,0.2650833
1435103151.268,-6.195923
1435103151.283,-12.014809
1435103151.299,-16.886406
1435103151.314,-20.731827
1435103151.33,-23.556732
1435103151.346,-25.351265
1435103151.361,-26.044891
1435103151.377,-25.593391
1435103151.393,-24.08815
1435103151.408,-21.841942
1435103151.424,-19.3339
1435103151.439,-17.057236
1435103151.455,-15.309998
1435103151.471,-14.101715
1435103151.486,-13.173836
1435103151.502,-12.160881
1435103151.518,-10.801979
1435103151.533,-9.0853195
1435103151.549,-7.2473526
1435103151.564,-5.6554794
1435103151.58,-4.600334
1435103151.596,-4.188843
1435103151.611,-4.303192
1435103151.627,-4.769104
1435103151.643,-5.4723816
1435103151.658,-6.445923
1435103151.674,-7.7332687
1435103151.689,-9.240616
1435103151.705,-10.579498
1435103151.721,-11.113731
1435103151.736,-10.203377
1435103151.752,-7.524269
1435103151.768,-3.2573013
1435103151.783,1.9221344
1435103151.799,7.126297
1435103151.814,11.555191
1435103151.83,14.730598
1435103151.846,16.483437
1435103151.861,16.849052
1435103151.877,15.862694
1435103151.893,13.560249
1435103151.908,10.020706
1435103151.924,5.49601
1435103151.939,0.40563965
1435103151.955,-4.738411
1435103151.971,-9.545769
1435103151.986,-13.865807
1435103152.002,-17.814117
1435103152.018,-21.659157
1435103152.033,-25.60817
1435103152.049,-29.629234
1435103152.064,-33.380844
1435103152.08,-36.312584
1435103152.096,-37.92241
1435103152.111,-37.96843
1435103152.127,-36.61422
1435103152.143,-34.36184
1435103152.158,-31.853096
1435103152.174,-29.574402
1435103152.189,-27.695
1435103152.205,-26.04638
1435103152.221,-24.27604
1435103152.236,-22.052917
1435103152.252,-19.20494
1435103152.268,-15.740616
1435103152.283,-11.771912
1435103152.299,-7.4164734
1435103152.314,-2.7300491
1435103152.33,2.2584305
1435103152.346,7.4811554
1435103152.361,12.826775
1435103152.377,18.117786
1435103152.393,23.215767
1435103152.408,28.040657
1435103152.424,32.657402
1435103152.439,37.24301
1435103152.455,42.00294
1435103152.471,46.990322
1435103152.486,51.92956
1435103152.502,56.154163
1435103152.518,58.721455
1435103152.533,58.69816
1435103152.549,55.53011
1435103152.564,49.279396
1435103152.58,40.647705
1435103152.596,30.70478
1435103152.611,20.575657
1435103152.627,11.129227
1435103152.643,2.8823776
1435103152.658,-3.9762611
1435103152.674,-9.455669
1435103152.689,-13.630196
1435103152.705,-16.564835
1435103152.721,-18.288994
1435103152.736,-18.804932
1435103152.752,-18.150734
1435103152.768,-16.467953
1435103152.783,-14.082153
1435103152.799,-11.475872
1435103152.814,-9.194275
1435103152.83,-7.685848
1435103152.846,-7.152931
1435103152.861,-7.501274
1435103152.877,-8.413845
1435103152.893,-9.444828
1435103152.908,-10.196758
1435103152.924,-10.368191
1435103152.939,-9.840706
1435103152.955,-8.673107
1435103152.971,-7.0897827
1435103152.986,-5.4060936
1435103153.002,-3.8892212
1435103153.018,-2.6398811
1435103153.033,-1.5486488
1435103153.049,-0.36941147
1435103153.064,1.1492615
1435103153.08,3.1094131
1435103153.096,5.39719
1435103153.111,7.7668495
1435103153.127,9.918648
1435103153.143,11.602619
1435103153.158,12.626312
1435103153.174,12.846874
1435103153.189,12.132034
1435103153.205,10.366756
1435103153.221,7.4838715
1435103153.236,3.510086
1435103153.252,-1.4068947
1435103153.268,-6.9886475
1435103153.283,-12.874165
1435103153.299,-18.663006
1435103153.314,-23.982574
1435103153.33,-28.540604
1435103153.346,-32.134945
1435103153.361,-34.666336
1435103153.377,-36.127796
1435103153.393,-36.589996
1435103153.408,-36.229816
1435103153.424,-35.277676
1435103153.439,-33.97829
1435103153.455,-32.454853
1435103153.471,-30.688683
1435103153.486,-28.527275
1435103153.502,-25.847034
1435103153.518,-22.739712
1435103153.533,-19.616022
1435103153.549,-17.109756
1435103153.564,-15.77516
1435103153.58,-15.779039
1435103153.596,-16.706213
1435103153.611,-17.670704
1435103153.627,-17.657629
1435103153.643,-15.921383
1435103153.658,-12.2481
1435103153.674,-6.9220047
1435103153.689,-0.5403242
1435103153.705,6.288288
1435103153.721,13.0680895
1435103153.736,19.50875
1435103153.752,25.371065
1435103153.768,30.394121
1435103153.783,34.257637
1435103153.799,36.621758
1435103153.814,37.248833
1435103153.83,36.093945
1435103153.846,33.373135
1435103153.861,29.49628
1435103153.877,24.948975
1435103153.893,20.168467
1435103153.908,15.438044
1435103153.924,10.909501
1435103153.94,6.6695137
1435103153.955,2.8718033
1435103153.971,-0.2050724
1435103153.986,-2.1695137
1435103154.002,-2.659069
1435103154.018,-1.4794216
1435103154.033,1.2873993
1435103154.049,5.298067
1435103154.065,10.000637
1435103154.08,14.762514
1435103154.096,18.953924
1435103154.111,22.056225
1435103154.127,23.768356
1435103154.143,24.074583
1435103154.158,23.269848
1435103154.174,21.897758
1435103154.19,20.587633
1435103154.205,19.89406
1435103154.221,20.095764
1435103154.236,21.175688
1435103154.252,22.830788
1435103154.268,24.63298
1435103154.283,26.192575
1435103154.299,27.302261
1435103154.315,27.991554
1435103154.33,28.474838
1435103154.346,29.065886
1435103154.361,30.029757
1435103154.377,31.463722
1435103154.393,33.197823
1435103154.408,34.785423
1435103154.424,35.61371
1435103154.44,35.031235
1435103154.455,32.540817
1435103154.471,27.906752
1435103154.486,21.240229
1435103154.502,12.966793
1435103154.518,3.7403374
1435103154.533,-5.6888304
1435103154.549,-14.595348
1435103154.565,-22.34395
1435103154.58,-28.433311
1435103154.596,-32.50683
1435103154.611,-34.407635
1435103154.627,-34.236336
1435103154.643,-32.399498
1435103154.658,-29.54621
1435103154.674,-26.406738
1435103154.69,-23.608074
1435103154.705,-21.512375
1435103154.721,-20.22155
1435103154.736,-19.656626
1435103154.752,-19.676968
1435103154.768,-20.182907
1435103154.783,-21.115957
1435103154.799,-22.364655
1435103154.815,-23.710386
1435103154.83,-24.828617
1435103154.846,-25.362541
1435103154.861,-25.023598
1435103154.877,-23.648281
1435103154.893,-21.192696
1435103154.908,-17.71863
1435103154.924,-13.352433
1435103154.94,-8.338289
1435103154.955,-3.0548863
1435103154.971,1.9572468
1435103154.986,6.0875645
1435103155.002,8.753201
1435103155.018,9.541594
1435103155.033,8.287915
1435103155.049,5.099623
1435103155.065,0.36486316
1435103155.08,-5.338774
1435103155.096,-11.337812
1435103155.111,-16.978985
1435103155.127,-21.70029
1435103155.143,-25.079641
1435103155.158,-26.86047
1435103155.174,-26.936234
1435103155.19,-25.396006
1435103155.205,-22.522694
1435103155.221,-18.818325
1435103155.236,-14.919048
1435103155.252,-11.443686
1435103155.268,-8.8252735
1435103155.283,-7.1729198
1435103155.299,-6.249111
1435103155.315,-5.574522
1435103155.33,-4.612857
1435103155.346,-2.9617176
1435103155.361,-0.44915867
1435103155.377,2.838316
1435103155.393,6.642131
1435103155.408,10.625806
1435103155.424,14.491715
1435103155.44,18.051994
1435103155.455,21.269764
1435103155.471,24.23363
1435103155.486,27.105421
1435103155.502,30.030472
1435103155.518,33.07395
1435103155.533,36.165623
1435103155.549,39.103577
1435103155.565,41.583405
1435103155.58,43.242546
1435103155.596,43.72886
1435103155.611,42.78402
1435103155.627,40.277626
1435103155.643,36.285095
1435103155.658,31.061968
1435103155.674,25.01492
1435103155.69,18.589588
1435103155.705,12.196371
1435103155.721,6.137003
1435103155.736,0.63721657
1435103155.752,-4.1403522
1435103155.768,-8.076252
1435103155.783,-11.074238
1435103155.799,-13.088348
1435103155.815,-14.168419
1435103155.83,-14.471306
1435103155.846,-14.252947
1435103155.861,-13.838877
1435103155.877,-13.570673
1435103155.893,-13.721426
1435103155.908,-14.451424
1435103155.924,-15.728775
1435103155.94,-17.376188
1435103155.955,-19.10757
1435103155.971,-20.617844
1435103155.986,-21.66925
1435103156.002,-22.166258
1435103156.018,-22.157053
1435103156.033,-21.767738
1435103156.049,-21.111967
1435103156.065,-20.202244
1435103156.08,-18.966352
1435103156.096,-17.285862
1435103156.111,-15.010233
1435103156.127,-12.023092
1435103156.143,-8.24165
1435103156.158,-3.6815825
1435103156.174,1.5292892
1435103156.19,7.054802
1435103156.205,12.364194
1435103156.221,16.686655
1435103156.236,19.163706
1435103156.252,19.038128
1435103156.268,15.90584
1435103156.283,9.869633
1435103156.299,1.6356602
1435103156.315,-7.5882072
1435103156.33,-16.342213
1435103156.346,-23.189146
1435103156.361,-27.145325
1435103156.377,-27.85731
1435103156.393,-25.569675
1435103156.408,-20.945839
1435103156.424,-14.815149
1435103156.44,-7.9822617
1435103156.455,-1.0863838
1435103156.471,5.4019012
1435103156.486,11.232004
1435103156.502,16.0598
1435103156.518,19.44873
1435103156.533,21.050957
1435103156.549,20.845583
1435103156.565,19.218058
1435103156.58,16.894836
1435103156.596,14.7376
1435103156.612,13.517391
1435103156.627,13.839291
1435103156.643,15.7373295
1435103156.658,18.693438
1435103156.674,22.021763
1435103156.69,25.162104
1435103156.705,27.798216
1435103156.721,29.740654
1435103156.737,30.859743
1435103156.752,31.034887
1435103156.768,30.432135
1435103156.783,29.098658
1435103156.799,26.975363
1435103156.815,24.02583
1435103156.83,20.290527
1435103156.846,15.723572
1435103156.862,10.104664
1435103156.877,3.134863
1435103156.893,-6.443266
1435103156.908,-17.775671
1435103156.924,-28.331074
1435103156.94,-35.65078
1435103156.955,-38.8002
1435103156.971,-38.30562
1435103156.987,-35.444374
1435103157.002,-31.651186
1435103157.018,-28.07737
1435103157.033,-25.278479
1435103157.049,-22.95617
1435103157.065,-20.659342
1435103157.08,-18.15086
1435103157.096,-15.579912
1435103157.112,-13.326822
1435103157.127,-11.923219
1435103157.143,-11.860164
1435103157.158,-13.355786
1435103157.174,-16.204552
1435103157.19,-19.682383
1435103157.205,-23.01875
1435103157.221,-25.465185
1435103157.237,-26.109364
1435103157.252,-23.763363
1435103157.268,-17.280302
1435103157.283,-6.387824
1435103157.299,8.144787
1435103157.315,24.081219
1435103157.33,38.27689
1435103157.346,47.529167
1435103157.362,49.827324
1435103157.377,45.2189
1435103157.393,35.8707
1435103157.408,24.930714
1435103157.424,15.020093
1435103157.44,7.456562
1435103157.455,2.2456274
1435103157.471,-1.2518797
1435103157.487,-3.5706463
1435103157.502,-4.6110687
1435103157.518,-3.8269863
1435103157.533,-0.73295975
1435103157.549,4.293627
1435103157.565,9.797497
1435103157.58,14.159442
1435103157.596,16.50099
1435103157.612,17.17437
1435103157.627,17.517376
1435103157.643,19.227324
1435103157.658,23.660263
1435103157.674,30.000925
1435103157.69,36.675488
1435103157.705,41.427055
1435103157.721,42.43694
1435103157.737,39.012222
1435103157.752,31.455057
1435103157.768,20.50551
1435103157.783,6.6945515
1435103157.799,-10.825901
1435103157.815,-30.109419
1435103157.83,-47.509254
1435103157.846,-60.057762
1435103157.862,-66.36286
1435103157.877,-66.34741
1435103157.893,-60.955887
1435103157.908,-51.94724
1435103157.924,-41.43508
1435103157.94,-31.168068
1435103157.955,-21.910147
1435103157.971,-13.8280325
1435103157.987,-6.8876147
1435103158.002,-0.99236965
1435103158.018,3.9094076
1435103158.033,7.7288747
1435103158.049,10.426718
1435103158.065,12.196474
1435103158.08,13.453014
1435103158.096,14.80288
1435103158.112,16.364233
1435103158.127,17.685053
1435103158.143,18.19833
1435103158.158,17.644712
1435103158.174,16.20218
1435103158.19,14.363999
1435103158.205,12.788586
1435103158.221,11.59372
1435103158.237,10.732473
1435103158.252,9.713058
1435103158.268,7.8967533
1435103158.283,4.895802
1435103158.299,0.83856726
1435103158.315,-3.761558
1435103158.33,-8.228905
1435103158.346,-11.949828
1435103158.362,-14.485462
1435103158.377,-15.519722
1435103158.393,-15.026218
1435103158.408,-13.25513
1435103158.424,-10.623157
1435103158.44,-7.543021
1435103158.455,-4.4318967
1435103158.471,-1.6208882
1435103158.487,0.6757288
1435103158.502,2.3550348
1435103158.518,3.4814467
1435103158.533,4.133224
1435103158.549,4.39141
1435103158.565,4.327828
1435103158.58,4.0160713
1435103158.596,3.492262
1435103158.612,2.8609672
1435103158.627,2.2073364
1435103158.643,1.6235924
1435103158.658,1.2227345
1435103158.674,1.1104937
1435103158.69,1.3619938
1435103158.705,2.011423
1435103158.721,3.0541
1435103158.737,4.431505
1435103158.752,6.033679
1435103158.768,7.691331
1435103158.783,9.221369
1435103158.799,10.510084
1435103158.815,11.558038
1435103158.83,12.508355
1435103158.846,13.603151
1435103158.862,15.075327
1435103158.877,17.015833
1435103158.893,19.303694
1435103158.908,21.54813
1435103158.924,23.19917
1435103158.94,23.659124
1435103158.955,22.435003
1435103158.971,19.258568
1435103158.987,14.161577
1435103159.002,7.5061665
1435103159.018,-0.061296463
1435103159.033,-7.719816
1435103159.049,-14.657499
1435103159.065,-20.234507
1435103159.08,-24.13464
1435103159.096,-26.379477
1435103159.112,-27.22891
1435103159.127,-27.037117
1435103159.143,-26.070473
1435103159.158,-24.478256
1435103159.174,-22.30266
1435103159.19,-19.61277
1435103159.205,-16.590345
1435103159.221,-13.564011
1435103159.237,-10.93442
1435103159.252,-9.026833
1435103159.268,-7.9980736
1435103159.284,-7.762867
1435103159.299,-8.031181
1435103159.315,-8.442215
1435103159.33,-8.670734
1435103159.346,-8.502338
1435103159.362,-7.816139
1435103159.377,-6.551754
1435103159.393,-4.669842
1435103159.408,-2.2028427
1435103159.424,0.7287369
1435103159.44,3.8723679
1435103159.455,6.9100037
1435103159.471,9.587883
1435103159.487,11.837246
1435103159.502,13.81369
1435103159.518,15.850269
1435103159.534,18.273888
1435103159.549,21.216805
1435103159.565,24.507229
1435103159.58,27.656944
1435103159.596,29.979149
1435103159.612,30.78003
1435103159.627,29.553082
1435103159.643,26.11414
1435103159.659,20.637035
1435103159.674,13.634865
1435103159.69,5.816784
1435103159.705,-2.052372
1435103159.721,-9.3004265
1435103159.737,-15.428043
1435103159.752,-20.097546
1435103159.768,-23.144135
1435103159.784,-24.5555
1435103159.799,-24.458138
1435103159.815,-23.138264
1435103159.83,-21.011345
1435103159.846,-18.562096
1435103159.862,-16.212723
1435103159.877,-14.25259
1435103159.893,-12.767757
1435103159.909,-11.708984
1435103159.924,-10.935974
1435103159.94,-10.332474
1435103159.955,-9.8465
1435103159.971,-9.500397
1435103159.987,-9.322422
1435103160.002,-9.299763
1435103160.018,-9.324165
1435103160.034,-9.187962
1435103160.049,-8.640293
1435103160.065,-7.4714737
1435103160.08,-5.6057625
1435103160.096,-3.13274
1435103160.112,-0.30538177
1435103160.127,2.5583916
1435103160.143,5.1915665
1435103160.159,7.451412
1435103160.174,9.378983
1435103160.19,11.161163
1435103160.205,13.061142
1435103160.221,15.310989
1435103160.237,18.033405
1435103160.252,21.136719
1435103160.268,24.275478
1435103160.284,26.858677
1435103160.299,28.166199
1435103160.315,27.545307
1435103160.33,24.621841
1435103160.346,19.46254
1435103160.362,12.591671
1435103160.377,4.8593254
1435103160.393,-2.8028069
1435103160.409,-9.620682
1435103160.424,-15.11314
1435103160.44,-19.132046
1435103160.455,-21.745972
1435103160.471,-23.142963
1435103160.487,-23.499195
1435103160.502,-22.968292
1435103160.518,-21.68903
1435103160.534,-19.867615
1435103160.549,-17.776798
1435103160.565,-15.7435
1435103160.58,-14.072922
1435103160.596,-12.944759
1435103160.612,-12.351658
1435103160.627,-12.14349
1435103160.643,-12.09877
1435103160.659,-12.040894
1435103160.674,-11.887985
1435103160.69,-11.624149
1435103160.705,-11.238792
1435103160.721,-10.681644
1435103160.737,-9.834099
1435103160.752,-8.56551
1435103160.768,-6.8002434
1435103160.784,-4.5722046
1435103160.799,-2.0284843
1435103160.815,0.59274673
1435103160.83,3.0526543
1435103160.846,5.1751328
1435103160.862,6.901928
1435103160.877,8.314095
1435103160.893,9.599133
1435103160.909,10.97427
1435103160.924,12.625294
1435103160.94,14.687584
1435103160.955,17.199608
1435103160.971,20.102604
1435103160.987,23.220161
1435103161.002,26.180588
1435103161.018,28.434166
1435103161.034,29.33453
1435103161.049,28.34945
1435103161.065,25.296883
1435103161.08,20.440907
1435103161.096,14.377529
1435103161.112,7.8193474
1435103161.127,1.3204956
1435103161.143,-4.818203
1435103161.159,-10.456306
1435103161.174,-15.428535
1435103161.19,-19.454685
1435103161.205,-22.164764
1435103161.221,-23.306927
1435103161.237,-22.907848
1435103161.252,-21.300236
1435103161.268,-19.007267
1435103161.284,-16.540993
1435103161.299,-14.237244
1435103161.315,-12.259617
1435103161.33,-10.6647415
1435103161.346,-9.50626
1435103161.362,-8.840218
1435103161.377,-8.695709
1435103161.393,-8.981979
1435103161.409,-9.496658
1435103161.424,-9.981392
1435103161.44,-10.151478
1435103161.455,-9.832237
1435103161.471,-8.991798
1435103161.487,-7.7190857
1435103161.502,-6.1937256
1435103161.518,-4.5641785
1435103161.534,-2.883461
1435103161.549,-1.0971336
1435103161.565,0.88282394
1435103161.58,3.1005096
1435103161.596,5.4735107
1435103161.612,7.817421
1435103161.627,9.949112
1435103161.643,11.776157
1435103161.659,13.35416
1435103161.674,14.864216
1435103161.69,16.513874
1435103161.705,18.456226
1435103161.721,20.72266
1435103161.737,23.181625
1435103161.752,25.550873
1435103161.768,27.396996
1435103161.784,28.173397
1435103161.799,27.343094
1435103161.815,24.548424
1435103161.83,19.783867
1435103161.846,13.44735
1435103161.862,6.2561874
1435103161.877,-0.98233414
1435103161.893,-7.565689
1435103161.909,-13.042343
1435103161.924,-17.180176
1435103161.94,-19.91687
1435103161.956,-21.282898
1435103161.971,-21.385155
1435103161.987,-20.41484
1435103162.002,-18.664948
1435103162.018,-16.47665
1435103162.034,-14.182316
1435103162.049,-12.051884
1435103162.065,-10.266331
1435103162.08,-8.92588
1435103162.096,-8.085354
1435103162.112,-7.75309
1435103162.127,-7.877945
1435103162.143,-8.324821
1435103162.159,-8.901188
1435103162.174,-9.37925
1435103162.19,-9.5663185
1435103162.206,-9.35099
1435103162.221,-8.705677
1435103162.237,-7.658661
1435103162.252,-6.2607574
1435103162.268,-4.55196
1435103162.284,-2.5724945
1435103162.299,-0.37475586
1435103162.315,1.9425278
1435103162.331,4.252842
1435103162.346,6.421829
1435103162.362,8.345875
1435103162.377,9.986721
1435103162.393,11.401489
1435103162.409,12.712475
1435103162.424,14.093452
1435103162.44,15.725777
1435103162.456,17.747452
1435103162.471,20.189117
1435103162.487,22.930191
1435103162.502,25.627216
1435103162.518,27.744888
1435103162.534,28.660423
1435103162.549,27.827782
1435103162.565,24.982494
1435103162.581,20.255459
1435103162.596,14.132381
1435103162.612,7.3331604
1435103162.627,0.6004677
1435103162.643,-5.470394
1435103162.659,-10.528786
1435103162.674,-14.423458
1435103162.69,-17.12667
1435103162.706,-18.625797
1435103162.721,-18.922947
1435103162.737,-18.052769
1435103162.752,-16.191055
1435103162.768,-13.699642
1435103162.784,-11.124599
1435103162.799,-9.060448
1435103162.815,-7.996544
1435103162.831,-8.172375
1435103162.846,-9.490372
1435103162.862,-11.570347
1435103162.877,-13.904449
1435103162.893,-16.017048
1435103162.909,-17.61345
1435103162.924,-18.623623
1435103162.94,-19.117043
1435103162.956,-19.165474
1435103162.971,-18.772522
1435103162.987,-17.832664
1435103163.002,-16.237957
1435103163.018,-13.984417
1435103163.034,-11.236057
1435103163.049,-8.283226
1435103163.065,-5.4384613
1435103163.081,-2.882763
1435103163.096,-0.62316513
1435103163.112,1.4975128
1435103163.127,3.7035599
1435103163.143,6.2002563
1435103163.159,9.11372
1435103163.174,12.456726
1435103163.19,16.14426
1435103163.206,19.952461
1435103163.221,23.510998
1435103163.237,26.328953
1435103163.252,27.842781
1435103163.268,27.568077
1435103163.284,25.240307
1435103163.299,20.939754
1435103163.315,15.119545
1435103163.331,8.500099
1435103163.346,1.8733749
1435103163.362,-4.0999107
1435103163.377,-9.031387
1435103163.393,-12.788017
1435103163.409,-15.39502
1435103163.424,-16.88733
1435103163.44,-17.243896
1435103163.456,-16.440353
1435103163.471,-14.570499
1435103163.487,-11.925365
1435103163.502,-8.972958
1435103163.518,-6.2183075
1435103163.534,-4.036396
1435103163.549,-2.5667229
1435103163.565,-1.7508011
1435103163.581,-1.433239
1435103163.596,-1.493145
1435103163.612,-1.8675117
1435103163.627,-2.494915
1435103163.643,-3.2279816
1435103163.659,-3.794384
1435103163.674,-3.8629074
1435103163.69,-3.14423
1435103163.706,-1.5237656
1435103163.721,0.8738861
1435103163.737,3.722313
1435103163.752,6.6195755
1435103163.768,9.212238
1435103163.784,11.328663
1435103163.799,13.00692
1435103163.815,14.426777
1435103163.831,15.834599
1435103163.846,17.425049
1435103163.862,19.29985
1435103163.877,21.448608
1435103163.893,23.79169
1435103163.909,26.157581
1435103163.924,28.305843
1435103163.94,29.90297
1435103163.956,30.537277
1435103163.971,29.791729
1435103163.987,27.363216
1435103164.002,23.183651
1435103164.018,17.509785
1435103164.034,10.895828
1435103164.049,4.057476
1435103164.065,-2.3033981
1435103164.081,-7.65279
1435103164.096,-11.703869
1435103164.112,-14.389355
1435103164.127,-15.812702
1435103164.143,-16.171257
1435103164.159,-15.753674
1435103164.174,-14.907238
1435103164.19,-14.034325
1435103164.206,-13.499939
1435103164.221,-13.551128
1435103164.237,-14.224819
1435103164.252,-15.345764
1435103164.268,-16.62857
1435103164.284,-17.80006
1435103164.299,-18.726475
1435103164.315,-19.439106
1435103164.331,-20.0512
1435103164.346,-20.641998
1435103164.362,-21.135529
1435103164.377,-21.2952
1435103164.393,-20.790413
1435103164.409,-19.357048
1435103164.424,-16.898388
1435103164.44,-13.549488
1435103164.456,-9.628052
1435103164.471,-5.515892
1435103164.487,-1.5410614
1435103164.502,2.079483
1435103164.518,5.2704887
1435103164.534,8.056068
1435103164.549,10.544704
1435103164.565,12.874622
1435103164.581,15.186169
1435103164.596,17.518509
1435103164.612,19.760368
1435103164.627,21.597286
1435103164.643,22.575325
1435103164.659,22.23476
1435103164.674,20.288658
1435103164.69,16.755653
1435103164.706,11.966381
1435103164.721,6.4841156
1435103164.737,0.9458275
1435103164.752,-4.106659
1435103164.768,-8.308613
1435103164.784,-11.482414
1435103164.799,-13.57589
1435103164.815,-14.591053
1435103164.831,-14.543648
1435103164.846,-13.489487
1435103164.862,-11.557602
1435103164.878,-9.006889
1435103164.893,-6.2122154
1435103164.909,-3.6138
1435103164.924,-1.5850639
1435103164.94,-0.33909225
1435103164.956,0.12588882
1435103164.971,-0.006504059
1435103164.987,-0.48349
1435103165.003,-1.0810814
1435103165.018,-1.6779938
1435103165.034,-2.2511368
1435103165.049,-2.7949562
1435103165.065,-3.2540817
1435103165.081,-3.4891891
1435103165.096,-3.3270454
1435103165.112,-2.6195488
1435103165.128,-1.3361893
1435103165.143,0.44729233
1435103165.159,2.623066
1435103165.174,5.1564255
1435103165.19,8.189472
1435103165.206,11.963596
1435103165.221,16.63446
1435103165.237,22.023842
1435103165.253,27.522266
1435103165.268,32.12076
1435103165.284,34.720356
1435103165.299,34.52946
1435103165.315,31.332443
1435103165.331,25.584984
1435103165.346,18.244411
1435103165.362,10.467579
1435103165.378,3.3008842
1435103165.393,-2.5245514
1435103165.409,-6.705559
1435103165.424,-9.32048
1435103165.44,-10.722248
1435103165.456,-11.398705
1435103165.471,-11.78841
1435103165.487,-12.14571
1435103165.503,-12.498108
1435103165.518,-12.696327
1435103165.534,-12.548836
1435103165.549,-11.980106
1435103165.565,-11.077423
1435103165.581,-10.062881
1435103165.596,-9.222057
1435103165.612,-8.786957
1435103165.628,-8.90778
1435103165.643,-9.620541
1435103165.659,-10.861252
1435103165.674,-12.444466
1435103165.69,-14.108124
1435103165.706,-15.525085
1435103165.721,-16.40321
1435103165.737,-16.587605
1435103165.753,-16.059715
1435103165.768,-14.950462
1435103165.784,-13.424786
1435103165.799,-11.551945
1435103165.815,-9.272713
1435103165.831,-6.498596
1435103165.846,-3.2585716
1435103165.862,0.15831375
1435103165.878,3.160965
1435103165.893,5.0161934
1435103165.909,5.0315857
1435103165.924,2.8922043
1435103165.94,-1.1608505
1435103165.956,-6.389023
1435103165.971,-11.831028
1435103165.987,-16.576702
1435103166.003,-19.982006
1435103166.018,-21.721443
1435103166.034,-21.739784
1435103166.049,-20.289562
1435103166.065,-17.809612
1435103166.081,-14.815016
1435103166.096,-11.810921
1435103166.112,-9.168449
1435103166.128,-7.0216713
1435103166.143,-5.1726418
1435103166.159,-3.220911
1435103166.174,-0.7462368
1435103166.19,2.3272781
1435103166.206,5.8197765
1435103166.221,9.477882
1435103166.237,13.157665
1435103166.253,16.772964
1435103166.268,20.177393
1435103166.284,23.032724
1435103166.299,24.789612
1435103166.315,24.87818
1435103166.331,22.841982
1435103166.346,18.76107
1435103166.362,13.363205
1435103166.378,7.714422
1435103166.393,2.6691084
1435103166.409,-1.4553232
1435103166.424,-4.729556
1435103166.44,-7.3473396
1435103166.456,-8.273606
1435103166.471,-6.5401106
1435103166.487,-2.0499716
1435103166.503,4.2551155
1435103166.518,11.0933075
1435103166.534,17.320381
1435103166.549,22.046722
1435103166.565,24.683739
1435103166.581,24.941515
1435103166.596,22.84346
1435103166.612,18.568449
1435103166.628,12.56174
1435103166.643,5.703806
1435103166.659,-0.85945034
1435103166.674,-6.116015
1435103166.69,-9.413927
1435103166.706,-10.575811
1435103166.721,-10.024152
1435103166.737,-8.540473
1435103166.753,-7.1442547
1435103166.768,-6.629854
1435103166.784,-7.1767387
1435103166.799,-8.426252
1435103166.815,-9.917951
1435103166.831,-11.287382
1435103166.846,-12.081698
1435103166.862,-12.202579
1435103166.878,-11.812184
1435103166.893,-11.246859
1435103166.909,-10.8294735
1435103166.924,-10.475103
1435103166.94,-9.929941
1435103166.956,-9.31525
1435103166.971,-8.764536
1435103166.987,-8.190099
1435103167.003,-7.6721
1435103167.018,-7.3403664
1435103167.034,-7.37689
1435103167.049,-7.937847
1435103167.065,-8.854833
1435103167.081,-9.937267
1435103167.096,-11.722012
1435103167.112,-14.566332
1435103167.128,-18.181194
1435103167.143,-22.160944
1435103167.159,-25.965822
1435103167.174,-29.076902
1435103167.19,-31.175825
1435103167.206,-31.443964
1435103167.221,-29.42939
1435103167.237,-25.86433
1435103167.253,-21.370548
1435103167.268,-15.803442
1435103167.284,-8.947638
1435103167.299,-0.6093674
1435103167.315,9.183517
1435103167.331,17.779995
1435103167.346,22.401024
1435103167.362,26.43533
1435103167.378,31.584343
1435103167.393,36.295757
1435103167.409,40.27215
1435103167.424,43.40114
1435103167.44,45.603836
1435103167.456,46.803936
1435103167.471,46.96495
1435103167.487,46.53248
1435103167.503,46.065517
1435103167.518,45.170315
1435103167.534,43.51946
1435103167.55,41.28766
1435103167.565,38.47772
1435103167.581,35.078777
1435103167.596,31.19754
1435103167.612,27.067295
1435103167.628,23.351074
1435103167.643,20.730083
1435103167.659,19.008686
1435103167.675,17.923107
1435103167.69,17.453033
1435103167.706,17.350986
1435103167.721,17.198784
1435103167.737,16.467827
1435103167.753,14.565002
1435103167.768,11.138935
1435103167.784,6.056801
1435103167.8,-0.9341583
1435103167.815,-9.589756
1435103167.831,-19.031132
1435103167.846,-28.305893
1435103167.862,-36.58955
1435103167.878,-43.333275
1435103167.893,-48.325317
1435103167.909,-51.516388
1435103167.925,-53.023457
1435103167.94,-53.348194
1435103167.956,-53.077118
1435103167.971,-52.73973
1435103167.987,-52.82906
1435103168.003,-53.64149
1435103168.018,-55.22987
1435103168.034,-57.45961
1435103168.05,-60.037342
1435103168.065,-62.720905
1435103168.081,-65.38107
1435103168.096,-67.8962
1435103168.112,-70.03467
1435103168.128,-71.53647
1435103168.143,-72.15582
1435103168.159,-71.81529
1435103168.175,-70.63001
1435103168.19,-68.88761
1435103168.206,-66.93821
1435103168.221,-65.03882
1435103168.237,-63.254845
1435103168.253,-61.39672
1435103168.268,-59.040497
1435103168.284,-55.618584
1435103168.3,-50.611473
1435103168.315,-43.831146
1435103168.331,-35.5794
1435103168.346,-26.675179
1435103168.362,-18.179169
1435103168.378,-10.976395
1435103168.393,-5.4230804
1435103168.409,-1.2204132
1435103168.425,2.3944397
1435103168.44,6.285965
1435103168.456,11.076981
1435103168.471,17.01413
1435103168.487,24.070175
1435103168.503,32.143738
1435103168.518,41.174118
1435103168.534,51.138367
1435103168.55,61.90068
1435103168.565,73.03322
1435103168.581,83.81416
1435103168.596,93.298325
1435103168.612,100.56448
1435103168.628,104.94389
1435103168.643,106.23628
1435103168.659,104.74664
1435103168.675,101.26277
1435103168.69,96.82779
1435103168.706,92.49173
1435103168.721,89.04698
1435103168.737,86.91472
1435103168.753,86.15674
1435103168.768,86.578384
1435103168.784,87.83893
1435103168.8,89.54468
1435103168.815,91.24042
1435103168.831,92.41914
1435103168.846,92.578094
1435103168.862,91.362305
1435103168.878,88.670746
1435103168.893,84.743774
1435103168.909,80.00171
1435103168.925,74.833984
1435103168.94,69.34123
1435103168.956,63.231873
1435103168.971,55.95862
1435103168.987,46.992493
1435103169.003,36.150803
1435103169.018,23.773941
1435103169.034,10.646606
1435103169.05,-2.2386322
1435103169.065,-14.023193
1435103169.081,-24.169998
1435103169.096,-32.499268
1435103169.112,-39.050858
1435103169.128,-43.882355
1435103169.143,-46.96811
1435103169.159,-48.24971
1435103169.175,-47.745377
1435103169.19,-45.68036
1435103169.206,-42.53984
1435103169.221,-38.98456
1435103169.237,-35.67296
1435103169.253,-33.089233
1435103169.268,-31.38472
1435103169.284,-30.399597
1435103169.3,-29.7415
1435103169.315,-28.950043
1435103169.331,-27.672958
1435103169.346,-25.788025
1435103169.362,-23.39888
1435103169.378,-20.761597
1435103169.393,-18.12056
1435103169.409,-15.593185
1435103169.425,-13.087448
1435103169.44,-10.362839
1435103169.456,-7.118973
1435103169.471,-3.1026154
1435103169.487,1.7771835
1435103169.503,7.391884
1435103169.518,13.359215
1435103169.534,19.01561
1435103169.55,23.486252
1435103169.565,25.860344
1435103169.581,25.402039
1435103169.596,21.806442
1435103169.612,15.328957
1435103169.628,6.711586
1435103169.643,-2.9588013
1435103169.659,-12.555214
1435103169.675,-21.118942
1435103169.69,-27.978416
1435103169.706,-32.76808
1435103169.721,-35.4457
1435103169.737,-36.221626
1435103169.753,-35.522987
1435103169.768,-33.89151
1435103169.784,-31.834846
1435103169.8,-29.698906
1435103169.815,-27.610245
1435103169.831,-25.515953
1435103169.846,-23.342606
1435103169.862,-21.12046
1435103169.878,-19.0056
1435103169.893,-17.222641
1435103169.909,-15.931122
1435103169.925,-15.081612
1435103169.94,-14.452202
1435103169.956,-13.709824
1435103169.971,-12.562164
1435103169.987,-10.857376
1435103170.003,-8.639938
1435103170.018,-6.0569305
1435103170.034,-3.302826
1435103170.05,-0.5237961
1435103170.065,2.2304
1435103170.081,4.9813156
1435103170.096,7.8087006
1435103170.112,10.859554
1435103170.128,14.325058
1435103170.143,18.394566
1435103170.159,23.121208
1435103170.175,28.270535
1435103170.19,33.172398
1435103170.206,36.814938
1435103170.222,38.085037
1435103170.237,36.157997
1435103170.253,30.855713
1435103170.268,22.732471
1435103170.284,12.892399
1435103170.3,2.608204
1435103170.315,-7.062153
1435103170.331,-15.43261
1435103170.347,-22.218334
1435103170.362,-27.348907
1435103170.378,-30.824749
1435103170.393,-32.659443
1435103170.409,-32.969658
1435103170.425,-31.987072
1435103170.44,-30.117916
1435103170.456,-27.833122
1435103170.472,-25.552914
1435103170.487,-23.541164
1435103170.503,-21.863213
1435103170.518,-20.436394
1435103170.534,-19.124733
1435103170.55,-17.814663
1435103170.565,-16.513
1435103170.581,-15.324173
1435103170.597,-14.415001
1435103170.612,-13.885422
1435103170.628,-13.643093
1435103170.643,-13.37862
1435103170.659,-12.659485
1435103170.675,-11.064873
1435103170.69,-8.391014
1435103170.706,-4.727173
1435103170.722,-0.43840027
1435103170.737,3.9761696
1435103170.753,8.059486
1435103170.768,11.558968
1435103170.784,14.469406
1435103170.8,16.995876
1435103170.815,19.475998
1435103170.831,22.28315
1435103170.847,25.68032
1435103170.862,29.712582
1435103170.878,34.09538
1435103170.893,38.16744
1435103170.909,40.949913
1435103170.925,41.437294
1435103170.94,38.879303
1435103170.956,33.07905
1435103170.972,24.518303
1435103170.987,14.23877
1435103171.003,3.5776596
1435103171.018,-6.2250366
1435103171.034,-14.319191
1435103171.05,-20.356056
1435103171.065,-24.414886
1435103171.081,-26.80584
1435103171.097,-27.8765
1435103171.112,-27.904835
1435103171.128,-27.116837
1435103171.143,-25.720554
1435103171.159,-23.972782
1435103171.175,-22.1279
1435103171.19,-20.386501
1435103171.206,-18.83331
1435103171.222,-17.466755
1435103171.237,-16.251163
1435103171.253,-15.163513
1435103171.268,-14.268253
1435103171.284,-13.654858
1435103171.3,-13.374908
1435103171.315,-13.411194
1435103171.331,-13.62965
1435103171.347,-13.796883
1435103171.362,-13.571011
1435103171.378,-12.528175
1435103171.393,-10.285114
1435103171.409,-6.7149277
1435103171.425,-2.074047
1435103171.44,2.9810753
1435103171.456,7.5913086
1435103171.472,11.069397
1435103171.487,13.225147
1435103171.503,14.443878
1435103171.518,15.527397
1435103171.534,17.280544
1435103171.55,20.179142
1435103171.565,24.200428
1435103171.581,28.825287
1435103171.597,33.201317
1435103171.612,36.35193
1435103171.628,37.350994
1435103171.643,35.53271
1435103171.659,30.651192
1435103171.675,23.026077
1435103171.69,13.507282
1435103171.706,3.319538
1435103171.722,-6.2974663
1435103171.737,-14.377018
1435103171.753,-20.34872
1435103171.768,-24.081131
1435103171.784,-25.743797
1435103171.8,-25.649616
1435103171.815,-24.211048
1435103171.831,-21.868435
1435103171.847,-19.084656
1435103171.862,-16.307766
1435103171.878,-13.905418
1435103171.893,-12.101433
1435103171.909,-10.992607
1435103171.925,-10.552071
1435103171.94,-10.614002
1435103171.956,-10.956577
1435103171.972,-11.345188
1435103171.987,-11.587643
1435103172.003,-11.580124
1435103172.018,-11.285961
1435103172.034,-10.689865
1435103172.05,-9.740604
1435103172.065,-8.336563
1435103172.081,-6.3640213
1435103172.097,-3.782978
1435103172.112,-0.6833954
1435103172.128,2.7172203
1435103172.143,6.1367607
1435103172.159,9.314102
1435103172.175,12.123314
1435103172.19,14.581615
1435103172.206,16.87635
1435103172.222,19.297905
1435103172.237,22.187946
1435103172.253,25.77819
1435103172.268,30.049358
1435103172.284,34.5724
1435103172.3,38.543953
1435103172.315,40.959354
1435103172.331,40.901665
1435103172.347,37.846573
1435103172.362,31.844498
1435103172.378,23.498596
1435103172.393,13.789135
1435103172.409,3.8150482
1435103172.425,-5.4649963
1435103172.44,-13.357952
1435103172.456,-19.480125
1435103172.472,-23.705482
1435103172.487,-26.08424
1435103172.503,-26.77335
1435103172.518,-25.986954
1435103172.534,-24.003136
1435103172.55,-21.180298
1435103172.565,-17.956268
1435103172.581,-14.832855
1435103172.597,-12.297962
1435103172.612,-10.675144
1435103172.628,-10.036667
1435103172.643,-10.159142
1435103172.659,-10.651924
1435103172.675,-11.098885
1435103172.69,-11.227669
1435103172.706,-10.950565
1435103172.722,-10.328423
1435103172.737,-9.434208
1435103172.753,-8.269283
1435103172.768,-6.727558
1435103172.784,-4.6796074
1435103172.8,-2.0875893
1435103172.815,0.93569946
1435103172.831,4.1301537
1435103172.847,7.2053566
1435103172.862,9.955849
1435103172.878,12.349083
1435103172.894,14.551537
1435103172.909,16.866802
1435103172.925,19.654396
1435103172.94,23.193096
1435103172.956,27.578808
1435103172.972,32.561478
1435103172.987,37.522278
1435103173.003,41.525192
1435103173.018,43.549404
1435103173.034,42.76745
1435103173.05,38.799507
1435103173.065,31.841541
1435103173.081,22.60601
1435103173.097,12.111904
1435103173.112,1.4418144
1435103173.128,-8.473978
1435103173.144,-16.946863
1435103173.159,-23.5934
1435103173.175,-28.254005
1435103173.19,-30.964552
1435103173.206,-31.897257
1435103173.222,-31.331009
1435103173.237,-29.606936
1435103173.253,-27.110914
1435103173.269,-24.256998
1435103173.284,-21.473696
1435103173.3,-19.168175
1435103173.315,-17.619858
1435103173.331,-16.931873
1435103173.347,-16.991476
1435103173.362,-17.500278
1435103173.378,-18.101877
1435103173.394,-18.484974
1435103173.409,-18.489489
1435103173.425,-18.062813
1435103173.44,-17.212343
1435103173.456,-15.916845
1435103173.472,-14.090748
1435103173.487,-11.636681
1435103173.503,-8.515505
1435103173.519,-4.8239136
1435103173.534,-0.80171967
1435103173.55,3.2414532
1435103173.565,7.0091343
1435103173.581,10.318369
1435103173.597,13.15093
1435103173.612,15.667221
1435103173.628,18.160057
1435103173.644,20.987345
1435103173.659,24.435349
1435103173.675,28.64354
1435103173.69,33.519913
1435103173.706,38.679527
1435103173.722,43.473137
1435103173.737,47.058434
1435103173.753,48.543854
1435103173.769,47.18493
1435103173.784,42.595013
1435103173.8,34.886223
1435103173.815,24.766058
1435103173.831,13.380798
1435103173.847,2.0358276
1435103173.862,-8.141281
1435103173.878,-16.466503
1435103173.894,-22.732712
1435103173.909,-27.101631
1435103173.925,-29.83555
1435103173.94,-31.153826
1435103173.956,-31.148052
1435103173.972,-29.922432
1435103173.987,-27.687408
1435103174.003,-24.796017
1435103174.019,-21.723824
1435103174.034,-18.940784
1435103174.05,-16.790462
1435103174.065,-15.42878
1435103174.081,-14.827926
1435103174.097,-14.819662
1435103174.112,-15.155804
1435103174.128,-15.599207
1435103174.144,-15.947256
1435103174.159,-16.09271
1435103174.175,-15.984277
1435103174.19,-15.549962
1435103174.206,-14.653885
1435103174.222,-13.116764
1435103174.237,-10.767114
1435103174.253,-7.567732
1435103174.269,-3.6979094
1435103174.284,0.49417973
1435103174.3,4.571563
1435103174.315,8.184162
1435103174.331,11.195051
1435103174.347,13.681856
1435103174.362,15.912071
1435103174.378,18.2057
1435103174.394,20.878986
1435103174.409,24.154106
1435103174.425,28.133728
1435103174.44,32.69773
1435103174.456,37.45059
1435103174.472,41.665
1435103174.487,44.388203
1435103174.503,44.672012
1435103174.519,41.84617
1435103174.534,35.772583
1435103174.55,26.948511
1435103174.565,16.37901
1435103174.581,5.2878356
1435103174.597,-5.191427
1435103174.612,-14.245354
1435103174.628,-21.454134
1435103174.644,-26.675117
1435103174.659,-29.938087
1435103174.675,-31.333902
1435103174.69,-31.032063
1435103174.706,-29.293518
1435103174.722,-26.54336
1435103174.737,-23.30302
1435103174.753,-20.139004
1435103174.769,-17.534678
1435103174.784,-15.766959
1435103174.8,-14.86753
1435103174.815,-14.648435
1435103174.831,-14.75211
1435103174.847,-14.845247
1435103174.862,-14.702515
1435103174.878,-14.315922
1435103174.894,-13.822873
1435103174.909,-13.401848
1435103174.925,-13.082923
1435103174.94,-12.675931
1435103174.956,-11.796672
1435103174.972,-10.050058
1435103174.987,-7.2370386
1435103175.003,-3.4911566
1435103175.019,0.77292156
1435103175.034,5.0184555
1435103175.05,8.826966
1435103175.065,12.033794
1435103175.081,14.752281
1435103175.097,17.273932
1435103175.112,19.96534
1435103175.128,23.134499
1435103175.144,26.982513
1435103175.159,31.484991
1435103175.175,36.338116
1435103175.19,40.846283
1435103175.206,44.011555
1435103175.222,44.723083
1435103175.237,42.13166
1435103175.253,35.974945
1435103175.269,26.7539
1435103175.284,15.617355
1435103175.3,4.0288296
1435103175.315,-6.6818943
1435103175.331,-15.605108
1435103175.347,-22.371733
1435103175.362,-26.977724
1435103175.378,-29.608204
1435103175.394,-30.459352
1435103175.409,-29.733116
1435103175.425,-27.690722
1435103175.44,-24.76057
1435103175.456,-21.507475
1435103175.472,-18.531452
1435103175.487,-16.255095
1435103175.503,-14.813416
1435103175.519,-14.009499
1435103175.534,-13.498474
1435103175.55,-12.983801
1435103175.565,-12.374365
1435103175.581,-11.832224
1435103175.597,-11.626549
1435103175.612,-11.896856
1435103175.628,-12.51585
1435103175.644,-13.070635
1435103175.659,-13.010876
1435103175.675,-11.857592
1435103175.69,-9.391169
1435103175.706,-5.7192764
1435103175.722,-1.2334957
1435103175.737,3.5301437
1435103175.753,8.055609
1435103175.769,11.977812
1435103175.784,15.167217
1435103175.8,17.76643
1435103175.816,20.118036
1435103175.831,22.660847
1435103175.847,25.764372
1435103175.862,29.603603
1435103175.878,34.06891
1435103175.894,38.725155
1435103175.909,42.789543
1435103175.925,45.25232
1435103175.941,45.066036
1435103175.956,41.457714
1435103175.972,34.256935
1435103175.987,24.069359
1435103176.003,12.176979
1435103176.019,0.17462158
1435103176.034,-10.513027
1435103176.05,-19.00917
1435103176.066,-25.038952
1435103176.081,-28.761295
1435103176.097,-30.502571
1435103176.112,-30.557144
1435103176.128,-29.155144
1435103176.144,-26.618023
1435103176.159,-23.433876
1435103176.175,-20.220322
1435103176.191,-17.598072
1435103176.206,-15.951088
1435103176.222,-15.321915
1435103176.237,-15.431931
1435103176.253,-15.810986
1435103176.269,-16.040432
1435103176.284,-15.899677
1435103176.3,-15.435543
1435103176.316,-14.876778
1435103176.331,-14.445404
1435103176.347,-14.200962
1435103176.362,-13.938675
1435103176.378,-13.275341
1435103176.394,-11.796539
1435103176.409,-9.29068
1435103176.425,-5.852688
1435103176.441,-1.8473549
1435103176.456,2.246235
1435103176.472,6.0411377
1435103176.487,9.383434
1435103176.503,12.35677
1435103176.519,15.18309
1435103176.534,18.121906
1435103176.55,21.394775
1435103176.566,25.120865
1435103176.581,29.317032
1435103176.597,33.805153
1435103176.612,38.13016
1435103176.628,41.562527
1435103176.644,43.17617
1435103176.659,42.071762
1435103176.675,37.73052
1435103176.691,30.225937
1435103176.706,20.278187
1435103176.722,9.095894
1435103176.737,-1.992878
1435103176.753,-11.863209
1435103176.769,-19.824017
1435103176.784,-25.611225
1435103176.8,-29.256683
1435103176.816,-30.907204
1435103176.831,-30.740334
1435103176.847,-29.007996
1435103176.862,-26.110817
1435103176.878,-22.657352
1435103176.894,-19.362473
1435103176.909,-16.866398
1435103176.925,-15.506508
1435103176.941,-15.2438965
1435103176.956,-15.703354
1435103176.972,-16.405582
1435103176.987,-16.958427
1435103177.003,-17.172897
1435103177.019,-17.064705
1435103177.034,-16.736115
1435103177.05,-16.273521
1435103177.066,-15.67421
1435103177.081,-14.848511
1435103177.097,-13.648705
1435103177.112,-11.905914
1435103177.128,-9.513321
1435103177.144,-6.452675
1435103177.159,-2.87249
1435103177.175,0.94207
1435103177.191,4.6426544
1435103177.206,7.9541016
1435103177.222,10.789345
1435103177.237,13.292992
1435103177.253,15.771339
1435103177.269,18.556313
1435103177.284,21.902748
1435103177.3,25.877007
1435103177.316,30.332245
1435103177.331,34.86091
1435103177.347,38.796448
1435103177.362,41.28325
1435103177.378,41.428795
1435103177.394,38.580605
1435103177.409,32.57672
1435103177.425,23.893135
1435103177.441,13.553688
1435103177.456,2.843933
1435103177.472,-7.0542984
1435103177.487,-15.331863
1435103177.503,-21.6865
1435103177.519,-26.182968
1435103177.534,-29.048172
1435103177.55,-30.487213
1435103177.566,-30.578865
1435103177.581,-29.341957
1435103177.597,-26.91745
1435103177.612,-23.672478
1435103177.628,-20.202911
1435103177.644,-17.211807
1435103177.659,-15.260445
1435103177.675,-14.56118
1435103177.691,-14.948296
1435103177.706,-15.956848
1435103177.722,-17.053917
1435103177.737,-17.795822
1435103177.753,-17.950165
1435103177.769,-17.464455
1435103177.784,-16.449875
1435103177.8,-15.082268
1435103177.816,-13.539902
1435103177.831,-11.963539
1435103177.847,-10.386841
1435103177.862,-8.698753
1435103177.878,-6.70105
1435103177.894,-4.205597
1435103177.909,-1.1379471
1435103177.925,2.3931427
1435103177.941,6.179413
1435103177.956,9.979286
1435103177.972,13.618446
1435103177.987,17.04638
1435103178.003,20.268867
1435103178.019,23.358429
1435103178.034,26.420204
1435103178.05,29.587334
1435103178.066,32.89508
1435103178.081,36.201263
1435103178.097,39.02941
1435103178.112,40.579437
1435103178.128,39.9702
1435103178.144,36.5308
1435103178.159,30.134628
1435103178.175,21.303429
1435103178.191,11.063911
1435103178.206,0.62306213
1435103178.222,-8.956291
1435103178.237,-16.964417
1435103178.253,-23.082603
1435103178.269,-27.225647
1435103178.284,-29.461624
1435103178.3,-29.913284
1435103178.316,-28.72789
1435103178.331,-26.18267
1435103178.347,-22.74115
1435103178.362,-19.043953
1435103178.378,-15.816071
1435103178.394,-13.677109
1435103178.409,-12.936867
1435103178.425,-13.463089
1435103178.441,-14.744652
1435103178.456,-16.117722
1435103178.472,-17.038567
1435103178.488,-17.268692
1435103178.503,-16.916428
1435103178.519,-16.263588
1435103178.534,-15.559914
1435103178.55,-14.832489
1435103178.566,-13.892426
1435103178.581,-12.436279
1435103178.597,-10.221603
1435103178.613,-7.203602
1435103178.628,-3.57901
1435103178.644,0.30818558
1435103178.659,4.074898
1435103178.675,7.467022
1435103178.691,10.432003
1435103178.706,13.095169
1435103178.722,15.679726
1435103178.738,18.41623
1435103178.753,21.444134
1435103178.769,24.82545
1435103178.784,28.531857
1435103178.8,32.437183
1435103178.816,36.26319
1435103178.831,39.501602
1435103178.847,41.40431
1435103178.863,41.128178
1435103178.878,38.003498
1435103178.894,31.860577
1435103178.909,23.153439
1435103178.925,12.939522
1435103178.941,2.5514755
1435103178.956,-6.794178
1435103178.972,-14.305504
1435103178.988,-19.71043
1435103179.003,-23.17495
1435103179.019,-25.027962
1435103179.034,-25.598011
1435103179.05,-25.082542
1435103179.066,-23.610939
1435103179.081,-21.373627
1435103179.097,-18.748993
1435103179.113,-16.303474
1435103179.128,-14.579319
1435103179.144,-13.877514
1435103179.159,-14.090382
1435103179.175,-14.719357
1435103179.191,-15.16721
1435103179.206,-15.030594
1435103179.222,-14.33073
1435103179.238,-13.402557
1435103179.253,-12.644012
1435103179.269,-12.178047
1435103179.284,-11.765587
1435103179.3,-10.937183
1435103179.316,-9.289051
1435103179.331,-6.7531815
1435103179.347,-3.6151009
1435103179.363,-0.3577919
1435103179.378,2.6217613
1435103179.394,5.204445
1435103179.409,7.526222
1435103179.425,9.835091
1435103179.441,12.3474045
1435103179.456,15.179333
1435103179.472,18.360611
1435103179.488,21.950874
1435103179.503,26.013248
1435103179.519,30.549637
1435103179.534,35.298298
1435103179.55,39.648914
1435103179.566,42.633266
1435103179.581,43.198757
1435103179.597,40.584225
1435103179.613,34.621964
1435103179.628,25.943363
1435103179.644,15.780457
1435103179.659,5.5498047
1435103179.675,-3.612629
1435103179.691,-11.09977
1435103179.706,-16.839928
1435103179.722,-21.051483
1435103179.738,-23.93312
1435103179.753,-25.5555
1435103179.769,-25.864544
1435103179.784,-24.909248
1435103179.8,-22.911133
1435103179.816,-20.276089
1435103179.831,-17.475872
1435103179.847,-14.927158
1435103179.863,-12.905716
1435103179.878,-11.542889
1435103179.894,-10.870968
1435103179.909,-10.828331
1435103179.925,-11.248222
1435103179.941,-11.85088
1435103179.956,-12.278305
1435103179.972,-12.186604
1435103179.988,-11.3446045
1435103180.003,-9.663712
1435103180.019,-7.2094765
1435103180.034,-4.1480713
1435103180.05,-0.68899536
1435103180.066,2.9154282
1435103180.081,6.40802
1435103180.097,9.588924
1435103180.113,12.373695
1435103180.128,14.867378
1435103180.144,17.371689
1435103180.159,20.264015
1435103180.175,23.778893
1435103180.191,27.8451
1435103180.206,31.95538
1435103180.222,35.226444
1435103180.238,36.641617
1435103180.253,35.368164
1435103180.269,31.079071
1435103180.284,24.061497
1435103180.3,15.175838
1435103180.316,5.5638237
1435103180.331,-3.6463623
1435103180.347,-11.610069
1435103180.363,-17.870842
1435103180.378,-22.285229
1435103180.394,-24.917194
1435103180.409,-25.928402
1435103180.425,-25.53889
1435103180.441,-24.013218
1435103180.456,-21.68338
1435103180.472,-18.927227
1435103180.488,-16.123764
1435103180.503,-13.604736
1435103180.519,-11.605537
1435103180.534,-10.276958
1435103180.55,-9.656124
1435103180.566,-9.678524
1435103180.581,-10.16114
1435103180.597,-10.831718
1435103180.613,-11.349239
1435103180.628,-11.397125
1435103180.644,-10.751602
1435103180.659,-9.3537445
1435103180.675,-7.2834625
1435103180.691,-4.73349
1435103180.706,-1.9165306
1435103180.722,0.9923096
1435103180.738,3.8999405
1435103180.753,6.8110275
1435103180.769,9.813602
1435103180.784,13.043655
1435103180.8,16.647316
1435103180.816,20.679348
1435103180.831,25.031822
1435103180.847,29.319347
1435103180.863,32.879078
1435103180.878,34.854504
1435103180.894,34.438732
1435103180.909,31.154861
1435103180.925,25.057915
1435103180.941,16.779305
1435103180.956,7.3545494
1435103180.972,-2.05764
1435103180.988,-10.4789505
1435103181.003,-17.256138
1435103181.019,-22.101841
1435103181.034,-25.012836
1435103181.05,-26.115639
1435103181.066,-25.63211
1435103181.081,-23.841518
1435103181.097,-21.133286
1435103181.113,-18.004688
1435103181.128,-14.979435
1435103181.144,-12.508945
1435103181.16,-10.866138
1435103181.175,-10.0671425
1435103181.191,-9.928116
1435103181.206,-10.160328
1435103181.222,-10.513176
1435103181.238,-10.845634
1435103181.253,-11.104328
1435103181.269,-11.261906
1435103181.285,-11.199654
1435103181.3,-10.68755
1435103181.316,-9.475323
1435103181.331,-7.3952637
1435103181.347,-4.5066185
1435103181.363,-1.0728073
1435103181.378,2.5235634
1435103181.394,5.94804
1435103181.41,9.03437
1435103181.425,11.818089
1435103181.441,14.45858
1435103181.456,17.141457
1435103181.472,20.02161
1435103181.488,23.198868
1435103181.503,26.722137
1435103181.519,30.498344
1435103181.535,34.18312
1435103181.55,37.144894
1435103181.566,38.510647
1435103181.581,37.422676
1435103181.597,33.362568
1435103181.613,26.414787
1435103181.628,17.278908
1435103181.644,7.1106415
1435103181.66,-2.8568764
1435103181.675,-11.603405
1435103181.691,-18.498783
1435103181.706,-23.281776
1435103181.722,-25.965939
1435103181.738,-26.72435
1435103181.753,-25.809807
1435103181.769,-23.623669
1435103181.785,-20.69965
1435103181.8,-17.66893
1435103181.816,-15.190491
1435103181.831,-13.766327
1435103181.847,-13.629482
1435103181.863,-14.608875
1435103181.878,-16.191864
1435103181.894,-17.672459
1435103181.91,-18.46682
1435103181.925,-18.30534
1435103181.941,-17.331242
1435103181.956,-16.000885
1435103181.972,-14.7878
1435103181.988,-13.897907
1435103182.003,-13.178982
1435103182.019,-12.230476
1435103182.035,-10.641388
1435103182.05,-8.182407
1435103182.066,-4.8840103
1435103182.081,-0.9652443
1435103182.097,3.2671585
1435103182.113,7.5337753
1435103182.128,11.563507
1435103182.144,15.138252
1435103182.16,18.095966
1435103182.175,20.424728
1435103182.191,22.325043
1435103182.206,24.233887
1435103182.222,26.637455
1435103182.238,29.84848
1435103182.253,33.775257
1435103182.269,37.798008
1435103182.285,40.873882
1435103182.3,41.84297
1435103182.316,39.807873
1435103182.331,34.46803
1435103182.347,26.220524
1435103182.363,16.089188
1435103182.378,5.399021
1435103182.394,-4.5593147
1435103182.41,-12.880489
1435103182.425,-19.118832
1435103182.441,-23.207527
1435103182.456,-25.334965
1435103182.472,-25.820194
1435103182.488,-25.022972
1435103182.503,-23.355587
1435103182.519,-21.267258
1435103182.535,-19.219963
1435103182.55,-17.595066
1435103182.566,-16.620804
1435103182.581,-16.342163
1435103182.597,-16.658978
1435103182.613,-17.360996
1435103182.628,-18.21051
1435103182.644,-18.990784
1435103182.66,-19.528778
1435103182.675,-19.691826
1435103182.691,-19.40464
1435103182.706,-18.629742
1435103182.722,-17.39455
1435103182.738,-15.738014
1435103182.753,-13.7225685
1435103182.769,-11.386917
1435103182.785,-8.758568
1435103182.8,-5.8277016
1435103182.816,-2.5916634
1435103182.831,0.92150116
1435103182.847,4.574463
1435103182.863,8.135826
1435103182.878,11.334339
1435103182.894,13.971485
1435103182.91,16.000015
1435103182.925,17.592625
1435103182.941,19.105701
1435103182.956,20.981312
1435103182.972,23.605392
1435103182.988,27.169338
1435103183.003,31.55122
1435103183.019,36.275738
1435103183.035,40.516
1435103183.05,43.248283
1435103183.066,43.479496
1435103183.081,40.546417
1435103183.097,34.331657
1435103183.113,25.379715
1435103183.128,14.734894
1435103183.144,3.7203636
1435103183.16,-6.4124794
1435103183.175,-14.747383
1435103183.191,-20.808456
1435103183.206,-24.551727
1435103183.222,-26.283985
1435103183.238,-26.497578
1435103183.253,-25.744404
1435103183.269,-24.508762
1435103183.285,-23.164528
1435103183.3,-21.925575
1435103183.316,-20.918743
1435103183.331,-20.200443
1435103183.347,-19.793522
1435103183.363,-19.691322
1435103183.378,-19.87218
1435103183.394,-20.270077
1435103183.41,-20.813667
1435103183.425,-21.407078
1435103183.441,-21.934128
1435103183.456,-22.21925
1435103183.472,-22.054157
1435103183.488,-21.212261
1435103183.503,-19.568382
1435103183.519,-17.143959
1435103183.535,-14.14455
1435103183.55,-10.904327
1435103183.566,-7.7763405
1435103183.581,-4.9776764
1435103183.597,-2.5309258
1435103183.613,-0.2585907
1435103183.628,2.1011963
1435103183.644,4.760296
1435103183.66,7.753025
1435103183.675,10.939796
1435103183.691,14.045776
1435103183.706,16.816578
1435103183.722,19.141335
1435103183.738,21.130981
1435103183.753,23.092632
1435103183.769,25.450539
1435103183.785,28.536842
1435103183.8,32.43985
1435103183.816,36.901096
1435103183.832,41.2464
1435103183.847,44.513607
1435103183.863,45.668552
1435103183.878,43.85168
1435103183.894,38.684395
1435103183.91,30.41994
1435103183.925,19.982948
1435103183.941,8.734669
1435103183.956,-1.852253
1435103183.972,-10.647873
1435103183.988,-17.117592
1435103184.003,-21.33199
1435103184.019,-23.80862
1435103184.035,-25.139154
1435103184.05,-25.735668
1435103184.066,-25.770102
1435103184.082,-25.279837
1435103184.097,-24.342281
1435103184.113,-23.156887
1435103184.128,-21.976768
1435103184.144,-20.969809
1435103184.16,-20.162214
1435103184.175,-19.487429
1435103184.191,-18.919447
1435103184.207,-18.577229
1435103184.222,-18.661207
1435103184.238,-19.274214
1435103184.253,-20.253683
1435103184.269,-21.142626
1435103184.285,-21.389544
1435103184.3,-20.620375
1435103184.316,-18.75211
1435103184.332,-16.029312
1435103184.347,-12.853252
1435103184.363,-9.570696
1435103184.378,-6.392357
1435103184.394,-3.3772755
1435103184.41,-0.52041435
1435103184.425,2.2137394
1435103184.441,4.836973
1435103184.457,7.4060783
1435103184.472,9.968674
1435103184.488,12.527031
1435103184.503,15.02256
1435103184.519,17.32329
1435103184.535,19.315105
1435103184.55,20.997692
1435103184.566,22.58884
1435103184.582,24.453487
1435103184.597,26.973444
1435103184.613,30.334759
1435103184.628,34.29241
1435103184.644,38.163994
1435103184.66,40.94465
1435103184.675,41.637188
1435103184.691,39.612293
1435103184.707,34.81855
1435103184.722,27.738956
1435103184.738,19.191792
1435103184.753,10.039069
1435103184.769,0.9872427
1435103184.785,-7.4355736
1435103184.8,-14.81326
1435103184.816,-20.751839
1435103184.832,-24.890831
1435103184.847,-27.023256
1435103184.863,-27.221498
1435103184.878,-25.894146
1435103184.894,-23.69782
1435103184.91,-21.351425
1435103184.925,-19.409004
1435103184.941,-18.1632
1435103184.957,-17.63005
1435103184.972,-17.670752
1435103184.988,-18.07295
1435103185.003,-18.672411
1435103185.019,-19.35346
1435103185.035,-20.021812
1435103185.05,-20.617514
1435103185.066,-21.008873
1435103185.082,-21.037544
1435103185.097,-20.53527
1435103185.113,-19.354141
1435103185.128,-17.45909
1435103185.144,-14.928887
1435103185.16,-11.968901
1435103185.175,-8.816485
1435103185.191,-5.700446
1435103185.207,-2.7062626
1435103185.222,0.17607498
1435103185.238,3.046224
1435103185.253,5.9963093
1435103185.269,9.04058
1435103185.285,12.092375
1435103185.3,14.984565
1435103185.316,17.589888
1435103185.332,19.881542
1435103185.347,21.98681
1435103185.363,24.133715
1435103185.378,26.563675
1435103185.394,29.404049
1435103185.41,32.599625
1435103185.425,35.900352
1435103185.441,38.87375
1435103185.457,40.94648
1435103185.472,41.417236
1435103185.488,39.612976
1435103185.503,35.094986
1435103185.519,27.848188
1435103185.535,18.421019
1435103185.55,7.8769855
1435103185.566,-2.5152721
1435103185.582,-11.606459
1435103185.597,-18.68308
1435103185.613,-23.511915
1435103185.628,-26.213858
1435103185.644,-27.0381
1435103185.66,-26.252592
1435103185.675,-24.154943
1435103185.691,-21.157156
1435103185.707,-17.856405
1435103185.722,-14.935328
1435103185.738,-12.939949
1435103185.753,-12.142984
1435103185.769,-12.470869
1435103185.785,-13.613276
1435103185.8,-15.140121
1435103185.816,-16.592176
1435103185.832,-17.564684
1435103185.847,-17.783949
1435103185.863,-17.181145
1435103185.878,-15.927235
1435103185.894,-14.363424
1435103185.91,-12.86278
1435103185.925,-11.625593
1435103185.941,-10.601688
1435103185.957,-9.506493
1435103185.972,-8.006805
1435103185.988,-5.898361
1435103186.003,-3.1569767
1435103186.019,0.083358765
1435103186.035,3.6010933
1435103186.05,7.1653748
1435103186.066,10.566925
1435103186.082,13.592495
1435103186.097,16.08789
1435103186.113,18.021461
1435103186.128,19.512516
1435103186.144,20.872871
1435103186.16,22.496567
1435103186.175,24.765156
1435103186.191,27.94936
1435103186.207,32.04716
1435103186.222,36.624367
1435103186.238,40.83215
1435103186.253,43.49372
1435103186.269,43.444893
1435103186.285,39.9253
1435103186.3,32.933643
1435103186.316,23.27433
1435103186.332,12.342178
1435103186.347,1.6466179
1435103186.363,-7.651539
1435103186.378,-14.948406
1435103186.394,-20.181408
1435103186.41,-23.573792
1435103186.425,-25.375534
1435103186.441,-25.74316
1435103186.457,-24.801346
1435103186.472,-22.7454
1435103186.488,-19.961998
1435103186.503,-17.019585
1435103186.519,-14.520134
1435103186.535,-12.922741
1435103186.55,-12.411606
1435103186.566,-12.796993
1435103186.582,-13.676933
1435103186.597,-14.640205
1435103186.613,-15.400227
1435103186.628,-15.907276
1435103186.644,-16.229637
1435103186.66,-16.41446
1435103186.675,-16.390266
1435103186.691,-15.971485
1435103186.707,-14.944702
1435103186.722,-13.218842
1435103186.738,-10.858204
1435103186.754,-8.057762
1435103186.769,-5.0303726
1435103186.785,-1.9221344
1435103186.8,1.2380295
1435103186.816,4.468239
1435103186.832,7.7444267
1435103186.847,10.945084
1435103186.863,13.885773
1435103186.879,16.37553
1435103186.894,18.34602
1435103186.91,19.901615
1435103186.925,21.350735
1435103186.941,23.154644
1435103186.957,25.767517
1435103186.972,29.423748
1435103186.988,33.955994
1435103187.004,38.647957
1435103187.019,42.38086
1435103187.035,43.908455
1435103187.05,42.271557
1435103187.066,37.147472
1435103187.082,29.007069
1435103187.097,18.933125
1435103187.113,8.278744
1435103187.129,-1.7335434
1435103187.144,-10.263321
1435103187.16,-16.89505
1435103187.175,-21.507805
1435103187.191,-24.158108
1435103187.207,-24.976036
1435103187.222,-24.199993
1435103187.238,-22.210648
1435103187.254,-19.531055
1435103187.269,-16.739819
1435103187.285,-14.342857
1435103187.3,-12.653763
1435103187.316,-11.757736
1435103187.332,-11.557884
1435103187.347,-11.882816
1435103187.363,-12.5453
1435103187.379,-13.386082
1435103187.394,-14.245018
1435103187.41,-14.944302
1435103187.425,-15.307922
1435103187.441,-15.21793
1435103187.457,-14.629784
1435103187.472,-13.602703
1435103187.488,-12.1964
1435103187.504,-10.461445
1435103187.519,-8.362793
1435103187.535,-5.87294
1435103187.55,-3.018818
1435103187.566,0.07716751
1435103187.582,3.19664
1435103187.597,6.1273155
1435103187.613,8.74678
1435103187.629,11.028965
1435103187.644,13.037308
1435103187.66,14.890762
1435103187.675,16.758568
1435103187.691,18.917168
1435103187.707,21.721657
1435103187.722,25.468128
1435103187.738,30.18887
1435103187.754,35.494884
1435103187.769,40.48496
1435103187.785,43.978764
1435103187.8,44.878937
1435103187.816,42.462692
1435103187.832,36.66561
1435103187.847,28.06945
1435103187.863,17.769241
1435103187.879,7.109394
1435103187.894,-2.627018
1435103187.91,-10.525532
1435103187.925,-16.229652
1435103187.941,-19.885712
1435103187.957,-21.99541
1435103187.972,-23.083477
1435103187.988,-23.459003
1435103188.004,-23.186619
1435103188.019,-22.21938
1435103188.035,-20.636036
1435103188.05,-18.736397
1435103188.066,-16.884491
1435103188.082,-15.3664875
1435103188.097,-14.281286
1435103188.113,-13.52961
1435103188.129,-12.997913
1435103188.144,-12.6974945
1435103188.16,-12.742449
1435103188.175,-13.219322
1435103188.191,-14.050751
1435103188.207,-14.923174
1435103188.222,-15.407223
1435103188.238,-15.1295395
1435103188.254,-13.825573
1435103188.269,-11.453812
1435103188.285,-8.151693
1435103188.3,-4.174362
1435103188.316,0.10411453
1435103188.332,4.2717094
1435103188.347,7.9563427
1435103188.363,10.9300785
1435103188.379,13.18557
1435103188.394,14.985012
1435103188.41,16.740808
1435103188.425,18.851986
1435103188.441,21.661718
1435103188.457,25.285168
1435103188.472,29.588865
1435103188.488,34.14656
1435103188.504,38.25981
1435103188.519,41.016983
1435103188.535,41.497932
1435103188.55,39.020267
1435103188.566,33.403656
1435103188.582,25.104492
1435103188.597,15.077898
1435103188.613,4.5632706
1435103188.629,-5.2204046
1435103188.644,-13.387962
1435103188.66,-19.4868
1435103188.675,-23.466663
1435103188.691,-25.54133
1435103188.707,-26.037518
1435103188.722,-25.273281
1435103188.738,-23.556345
1435103188.754,-21.238773
1435103188.769,-18.730663
1435103188.785,-16.470028
1435103188.8,-14.818346
1435103188.816,-13.939363
1435103188.832,-13.759258
1435103188.847,-14.001019
1435103188.863,-14.315424
1435103188.879,-14.442024
1435103188.894,-14.292976
1435103188.91,-13.945241
1435103188.925,-13.534093
1435103188.941,-13.122017
1435103188.957,-12.601319
1435103188.972,-11.717754
1435103188.988,-10.174132
1435103189.004,-7.77988
1435103189.019,-4.5664067
1435103189.035,-0.8045025
1435103189.05,3.0942473
1435103189.066,6.7265854
1435103189.082,9.853054
1435103189.097,12.483313
1435103189.113,14.874479
1435103189.129,17.415249
1435103189.144,20.465984
1435103189.16,24.194904
1435103189.175,28.468344
1435103189.191,32.85839
1435103189.207,36.659218
1435103189.222,39.03052
1435103189.238,39.1818
1435103189.254,36.54429
1435103189.269,30.970873
1435103189.285,22.8124
1435103189.3,12.912168
1435103189.316,2.4126215
1435103189.332,-7.4904823
1435103189.347,-15.829599
1435103189.363,-22.019478
1435103189.379,-25.899982
1435103189.394,-27.620363
1435103189.41,-27.538248
1435103189.426,-26.067068
1435103189.441,-23.634052
1435103189.457,-20.694666
1435103189.472,-17.732079
1435103189.488,-15.179747
1435103189.504,-13.372782
1435103189.519,-12.429483
1435103189.535,-12.237696
1435103189.551,-12.516726
1435103189.566,-12.935862
1435103189.582,-13.232147
1435103189.597,-13.284437
1435103189.613,-13.079105
1435103189.629,-12.627289
1435103189.644,-11.88275
1435103189.66,-10.716276
1435103189.676,-8.943296
1435103189.691,-6.467945
1435103189.707,-3.3150501
1435103189.722,0.28044128
1435103189.738,3.9657173
1435103189.754,7.367794
1435103189.769,10.258839
1435103189.785,12.620892
1435103189.801,14.684265
1435103189.816,16.903473
1435103189.832,19.757492
1435103189.847,23.566471
1435103189.863,28.244045
1435103189.879,33.143414
1435103189.894,37.16095
1435103189.91,39.029465
1435103189.926,37.79692
1435103189.941,33.22311
1435103189.957,25.894833
1435103189.972,16.945621
1435103189.988,7.6204834
1435103190.004,-1.131607
1435103190.019,-8.8527565
1435103190.035,-15.426216
1435103190.051,-20.801014
1435103190.066,-24.850407
1435103190.082,-27.3558
1435103190.097,-28.171825
1435103190.113,-27.373775
1435103190.129,-25.283913
1435103190.144,-22.392143
1435103190.16,-19.252605
1435103190.176,-16.357506
1435103190.191,-14.107742
1435103190.207,-12.749733
1435103190.222,-12.362461
1435103190.238,-12.78149
1435103190.254,-13.69339
1435103190.269,-14.723869
1435103190.285,-15.549454
1435103190.301,-15.981598
1435103190.316,-15.842712
1435103190.332,-14.959377
1435103190.347,-13.159554
1435103190.363,-10.370373
1435103190.379,-6.768936
1435103190.394,-2.7910004
1435103190.41,1.0012054
1435103190.426,4.1599197
1435103190.441,6.5469894
1435103190.457,8.39254
1435103190.472,10.098953
1435103190.488,12.067051
1435103190.504,14.588566
1435103190.519,17.796677
1435103190.535,21.722073
1435103190.551,26.253868
1435103190.566,31.05217
1435103190.582,35.437935
1435103190.597,38.414436
1435103190.613,38.926353
1435103190.629,36.202187
1435103190.644,30.12828
1435103190.66,21.312645
1435103190.676,10.953369
1435103190.691,0.4797516
1435103190.707,-8.860985
1435103190.722,-16.286224
1435103190.738,-21.513245
1435103190.754,-24.682686
1435103190.769,-26.129051
1435103190.785,-26.215172
1435103190.801,-25.264832
1435103190.816,-23.551094
1435103190.832,-21.360909
1435103190.847,-19.03331
1435103190.863,-16.91996
1435103190.879,-15.33622
1435103190.894,-14.451927
1435103190.91,-14.253983
1435103190.926,-14.557938
1435103190.941,-15.088043
1435103190.957,-15.563438
1435103190.972,-15.81778
1435103190.988,-15.762062
1435103191.004,-15.372635
1435103191.019,-14.607155
1435103191.035,-13.372612
1435103191.051,-11.545235
1435103191.066,-9.033394
1435103191.082,-5.8936157
1435103191.097,-2.373375
1435103191.113,1.111702
1435103191.129,4.180084
1435103191.144,6.672714
1435103191.16,8.774788
1435103191.176,11.005119
1435103191.191,13.962036
1435103191.207,18.037384
1435103191.222,23.17212
1435103191.238,28.823776
1435103191.254,34.116165
1435103191.269,38.0903
1435103191.285,39.959335
1435103191.301,39.213173
1435103191.316,35.707146
1435103191.332,29.61364
1435103191.347,21.438545
1435103191.363,11.973648
1435103191.379,2.1829147
1435103191.394,-6.9554825
1435103191.41,-14.638451
1435103191.426,-20.371803
1435103191.441,-23.954987
1435103191.457,-25.446426
1435103191.472,-25.101608
1435103191.488,-23.325035
1435103191.504,-20.668625
1435103191.519,-17.759224
1435103191.535,-15.216827
1435103191.551,-13.488396
1435103191.566,-12.785294
1435103191.582,-13.0121155
1435103191.597,-13.869545
1435103191.613,-14.980621
1435103191.629,-16.00431
1435103191.644,-16.703445
1435103191.66,-16.961555
1435103191.676,-16.752243
1435103191.691,-16.02472
1435103191.707,-14.723015
1435103191.722,-12.756439
1435103191.738,-10.062416
1435103191.754,-6.709732
1435103191.769,-2.9470901
1435103191.785,0.8542557
1435103191.801,4.3620834
1435103191.816,7.457672
1435103191.832,10.301369
1435103191.847,13.201714
1435103191.863,16.450699
1435103191.879,20.157974
1435103191.894,24.20578
1435103191.91,28.351402
1435103191.926,32.30146
1435103191.941,35.689857
1435103191.957,38.002663
1435103191.972,38.57081
1435103191.988,36.738434
1435103192.004,32.192238
1435103192.019,25.208496
1435103192.035,16.639671
1435103192.051,7.6278
1435103192.066,-0.809227
1435103192.082,-8.115669
1435103192.098,-14.2030945
1435103192.113,-19.192322
1435103192.129,-23.192627
1435103192.144,-26.106392
1435103192.16,-27.743835
1435103192.176,-27.976807
1435103192.191,-26.84655
1435103192.207,-24.628716
1435103192.223,-21.80465
1435103192.238,-18.965538
1435103192.254,-16.67749
1435103192.269,-15.392967
1435103192.285,-15.26519
1435103192.301,-16.068596
1435103192.316,-17.303398
1435103192.332,-18.368591
1435103192.348,-18.856384
1435103192.363,-18.654968
1435103192.379,-17.828842
1435103192.394,-16.466774
1435103192.41,-14.529762
1435103192.426,-11.874611
1435103192.441,-8.4357605
1435103192.457,-4.359497
1435103192.473,-0.04790497
1435103192.488,4.0017242
1435103192.504,7.397148
1435103192.519,10.040443
1435103192.535,12.094452
1435103192.551,13.870895
1435103192.566,15.758255
1435103192.582,18.08339
1435103192.598,21.069054
1435103192.613,24.799545
1435103192.629,29.101913
1435103192.644,33.48938
1435103192.66,37.14229
1435103192.676,39.10884
1435103192.691,38.53132
1435103192.707,34.977737
1435103192.723,28.592262
1435103192.738,20.091736
1435103192.754,10.623489
1435103192.769,1.391365
1435103192.785,-6.656967
1435103192.801,-13.0206375
1435103192.816,-17.714752
1435103192.832,-21.049278
1435103192.848,-23.386658
1435103192.863,-24.928673
1435103192.879,-25.673615
1435103192.894,-25.520447
1435103192.91,-24.49025
1435103192.926,-22.83767
1435103192.941,-21.069206
1435103192.957,-19.716515
1435103192.973,-19.127518
1435103192.988,-19.306618
1435103193.004,-19.926758
1435103193.019,-20.517197
1435103193.035,-20.683868
1435103193.051,-20.271568
1435103193.066,-19.378311
1435103193.082,-18.231567
1435103193.098,-17.034386
1435103193.113,-15.815224
1435103193.129,-14.392181
1435103193.144,-12.462654
1435103193.16,-9.781746
1435103193.176,-6.2923965
1435103193.191,-2.2128296
1435103193.207,2.0583572
1435103193.223,6.0904465
1435103193.238,9.603378
1435103193.254,12.53949
1435103193.269,15.042625
1435103193.285,17.335915
1435103193.301,19.628845
1435103193.316,22.077164
1435103193.332,24.82476
1435103193.348,28.00531
1435103193.363,31.675446
1435103193.379,35.625633
1435103193.394,39.296715
1435103193.41,41.78283
1435103193.426,42.117737
1435103193.441,39.5943
1435103193.457,34.092537
1435103193.473,26.122574
1435103193.488,16.680862
1435103193.504,6.9248123
1435103193.519,-2.1526184
1435103193.535,-9.915695
1435103193.551,-16.102585
1435103193.566,-20.722778
1435103193.582,-23.916405
1435103193.598,-25.854797
1435103193.613,-26.702995
1435103193.629,-26.669617
1435103193.644,-26.02835
1435103193.66,-25.09829
1435103193.676,-24.180275
1435103193.691,-23.488022
1435103193.707,-23.07634
1435103193.723,-22.875671
1435103193.738,-22.748322
1435103193.754,-22.59169
1435103193.769,-22.374908
1435103193.785,-22.129448
1435103193.801,-21.864311
1435103193.816,-21.517448
1435103193.832,-20.945549
1435103193.848,-19.969955
1435103193.863,-18.463715
1435103193.879,-16.418953
1435103193.894,-13.924698
1435103193.91,-11.134598
1435103193.926,-8.204346
1435103193.941,-5.2259827
1435103193.957,-2.2422104
1435103193.973,0.7389984
1435103193.988,3.7346573
1435103194.004,6.712158
1435103194.019,9.606033
1435103194.035,12.303123
1435103194.051,14.6898
1435103194.066,16.714924
1435103194.082,18.443947
1435103194.098,20.034733
1435103194.113,21.72625
1435103194.129,23.795826
1435103194.144,26.448769
1435103194.16,29.77895
1435103194.176,33.668488
1435103194.191,37.7077
1435103194.207,41.192184
1435103194.223,43.217358
1435103194.238,42.953228
1435103194.254,39.913273
1435103194.269,34.17125
1435103194.285,26.314484
1435103194.301,17.253193
1435103194.316,7.931858
1435103194.332,-0.9440384
1435103194.348,-8.924355
1435103194.363,-15.750893
1435103194.379,-21.245018
1435103194.394,-25.240566
1435103194.41,-27.623852
1435103194.426,-28.420734
1435103194.441,-27.809494
1435103194.457,-26.13697
1435103194.473,-23.878674
1435103194.488,-21.54013
1435103194.504,-19.607899
1435103194.519,-18.439621
1435103194.535,-18.179611
1435103194.551,-18.702717
1435103194.566,-19.686485
1435103194.582,-20.71714
1435103194.598,-21.485226
1435103194.613,-21.886936
1435103194.629,-21.934948
1435103194.644,-21.66463
1435103194.66,-21.00003
1435103194.676,-19.758026
1435103194.691,-17.752941
1435103194.707,-14.9639435
1435103194.723,-11.610683
1435103194.738,-8.079788
1435103194.754,-4.789631
1435103194.77,-1.9803696
1435103194.785,0.34973526
1435103194.801,2.41325
1435103194.816,4.5302544
1435103194.832,6.9166946
1435103194.848,9.582367
1435103194.863,12.314547
1435103194.879,14.76475
1435103194.894,16.654543
1435103194.91,17.935043
1435103194.926,18.85317
1435103194.941,19.866726
1435103194.957,21.513191
1435103194.973,24.187702
1435103194.988,27.982231
1435103195.004,32.59013
1435103195.02,37.33255
1435103195.035,41.246613
1435103195.051,43.296318
1435103195.066,42.637764
1435103195.082,38.85314
1435103195.098,32.09703
1435103195.113,23.09268
1435103195.129,12.923771
1435103195.145,2.774805
1435103195.16,-6.322201
1435103195.176,-13.67544
1435103195.191,-18.922459
1435103195.207,-22.027487
1435103195.223,-23.228626
1435103195.238,-22.955269
1435103195.254,-21.78838
1435103195.27,-20.321993
1435103195.285,-19.05226
1435103195.301,-18.231697
1435103195.316,-17.909996
1435103195.332,-17.962708
1435103195.348,-18.225594
1435103195.363,-18.582172
1435103195.379,-18.99718
1435103195.395,-19.47104
1435103195.41,-19.990099
1435103195.426,-20.466578
1435103195.441,-20.751266
1435103195.457,-20.669884
1435103195.473,-20.055904
1435103195.488,-18.804062
1435103195.504,-16.916487
1435103195.52,-14.480604
1435103195.535,-11.670731
1435103195.551,-8.703989
1435103195.566,-5.817831
1435103195.582,-3.1821375
1435103195.598,-0.89405036
1435103195.613,1.0852356
1435103195.629,2.904265
1435103195.645,4.77339
1435103195.66,6.8886995
1435103195.676,9.34038
1435103195.691,12.046222
1435103195.707,14.7819
1435103195.723,17.268806
1435103195.738,19.311766
1435103195.754,20.926884
1435103195.77,22.35823
1435103195.785,23.987871
1435103195.801,26.227877
1435103195.816,29.321247
1435103195.832,33.208534
1435103195.848,37.43292
1435103195.863,41.18677
1435103195.879,43.40425
1435103195.895,43.085167
1435103195.91,39.603592
1435103195.926,32.970955
1435103195.941,23.88051
1435103195.957,13.520338
1435103195.973,3.2085361
1435103195.988,-5.9934807
1435103196.004,-13.456076
1435103196.02,-19.025755
1435103196.035,-22.84011
1435103196.051,-25.098234
1435103196.066,-26.03056
1435103196.082,-25.846762
1435103196.098,-24.819748
1435103196.113,-23.26024
1435103196.129,-21.465113
1435103196.145,-19.657974
1435103196.16,-17.987448
1435103196.176,-16.588125
1435103196.191,-15.578751
1435103196.207,-15.115978
1435103196.223,-15.285233
1435103196.238,-16.010042
1435103196.254,-17.088882
1435103196.27,-18.228827
1435103196.285,-19.151817
1435103196.301,-19.616915
1435103196.316,-19.409256
1435103196.332,-18.325623
1435103196.348,-16.260864
1435103196.363,-13.277191
1435103196.379,-9.702095
1435103196.395,-6.0792313
1435103196.41,-2.9641533
1435103196.426,-0.67033005
1435103196.441,0.88645935
1435103196.457,2.1130562
1435103196.473,3.52211
1435103196.488,5.4563446
1435103196.504,8.014225
1435103196.52,11.018097
1435103196.535,14.145363
1435103196.551,17.106369
1435103196.566,19.68509
1435103196.582,21.808002
1435103196.598,23.512264
1435103196.613,24.981785
1435103196.629,26.507366
1435103196.645,28.460762
1435103196.66,31.130215
1435103196.676,34.536495
1435103196.691,38.373066
1435103196.707,41.9306
1435103196.723,44.24228
1435103196.738,44.339287
1435103196.754,41.56265
1435103196.77,35.761417
1435103196.785,27.391449
1435103196.801,17.415062
1435103196.816,6.999672
1435103196.832,-2.7633743
1435103196.848,-11.112186
1435103196.863,-17.6566
1435103196.879,-22.282368
1435103196.895,-25.03904
1435103196.91,-26.089397
1435103196.926,-25.688103
1435103196.941,-24.229443
1435103196.957,-22.236862
1435103196.973,-20.278282
1435103196.988,-18.812729
1435103197.004,-18.077621
1435103197.02,-18.02732
1435103197.035,-18.412628
1435103197.051,-18.927818
1435103197.066,-19.362625
1435103197.082,-19.658333
1435103197.098,-19.887383
1435103197.113,-20.125587
1435103197.129,-20.342426
1435103197.145,-20.351532
1435103197.16,-19.873169
1435103197.176,-18.686153
1435103197.191,-16.745369
1435103197.207,-14.229507
1435103197.223,-11.442085
1435103197.238,-8.671623
1435103197.254,-5.9885902
1435103197.27,-3.2551117
1435103197.285,-0.28001404
1435103197.301,3.0412369
1435103197.316,6.592003
1435103197.332,10.065105
1435103197.348,13.1201515
1435103197.363,15.556938
1435103197.379,17.374706
1435103197.395,18.800518
1435103197.41,20.132141
1435103197.426,21.687218
1435103197.442,23.74327
1435103197.457,26.514336
1435103197.473,30.07193
1435103197.488,34.252052
1435103197.504,38.553406
1435103197.52,42.120487
1435103197.535,43.912544
1435103197.551,42.993805
1435103197.566,38.828754
1435103197.582,31.523922
1435103197.598,21.82064
1435103197.613,10.916462
1435103197.629,0.1727562
1435103197.645,-9.221405
1435103197.66,-16.501575
1435103197.676,-21.41758
1435103197.692,-24.166962
1435103197.707,-25.228996
1435103197.723,-25.117706
1435103197.738,-24.25378
1435103197.754,-22.915405
1435103197.77,-21.28553
1435103197.785,-19.545372
1435103197.801,-17.928314
1435103197.817,-16.672108
1435103197.832,-15.929237
1435103197.848,-15.712601
1435103197.863,-15.89592
1435103197.879,-16.253891
1435103197.895,-16.599518
1435103197.91,-16.8219
1435103197.926,-16.865807
1435103197.942,-16.72271
1435103197.957,-16.362038
1435103197.973,-15.7472
1435103197.988,-14.783127
1435103198.004,-13.319405
1435103198.02,-11.193726
1435103198.035,-8.332909
1435103198.051,-4.822075
1435103198.067,-0.9317627
1435103198.082,2.9044266
1435103198.098,6.292679
1435103198.113,9.015068
1435103198.129,11.079567
1435103198.145,12.713921
1435103198.16,14.205902
1435103198.176,15.82431
1435103198.192,17.79438
1435103198.207,20.321854
1435103198.223,23.588943
1435103198.238,27.698929
1435103198.254,32.549423
1435103198.27,37.660034
1435103198.285,42.20791
1435103198.301,45.160324
1435103198.317,45.541107
1435103198.332,42.738045
1435103198.348,36.686653
1435103198.363,27.941086
1435103198.379,17.620605
1435103198.395,7.100731
1435103198.41,-2.3683472
1435103198.426,-9.973549
1435103198.442,-15.497879
1435103198.457,-19.228317
1435103198.473,-21.659378
1435103198.488,-23.178879
1435103198.504,-23.907562
1435103198.52,-23.765594
1435103198.535,-22.72126
1435103198.551,-20.973953
1435103198.567,-18.911705
1435103198.582,-17.0224
1435103198.598,-15.668388
1435103198.613,-14.953461
1435103198.629,-14.762634
1435103198.645,-14.877998
1435103198.66,-15.114784
1435103198.676,-15.373383
1435103198.692,-15.625816
1435103198.707,-15.818184
1435103198.723,-15.852341
1435103198.738,-15.579742
1435103198.754,-14.795013
1435103198.77,-13.354538
1435103198.785,-11.1992035
1435103198.801,-8.405327
1435103198.817,-5.1308517
1435103198.832,-1.6080055
1435103198.848,1.935646
1435103198.863,5.333355
1435103198.879,8.468098
1435103198.895,11.288925
1435103198.91,13.785835
1435103198.926,16.026524
1435103198.942,18.234638
1435103198.957,20.75539
1435103198.973,23.943192
1435103198.988,27.991856
1435103199.004,32.72118
1435103199.02,37.549637
1435103199.035,41.573395
1435103199.051,43.82621
1435103199.067,43.546436
1435103199.082,40.40709
1435103199.098,34.54578
1435103199.113,26.494987
1435103199.129,17.035702
1435103199.145,7.0744743
1435103199.16,-2.4722443
1435103199.176,-10.763641
1435103199.192,-17.132317
1435103199.207,-21.221104
1435103199.223,-23.044567
1435103199.238,-22.974884
1435103199.254,-21.632645
1435103199.27,-19.693817
1435103199.285,-17.712505
1435103199.301,-16.035984
1435103199.317,-14.734913
1435103199.332,-13.731155
1435103199.348,-12.934093
1435103199.363,-12.298595
1435103199.379,-11.894791
1435103199.395,-11.803692
1435103199.41,-12.050907
1435103199.426,-12.53352
1435103199.442,-13.02433
1435103199.457,-13.232269
1435103199.473,-12.894867
1435103199.488,-11.847588
1435103199.504,-10.043304
1435103199.52,-7.5278244
1435103199.535,-4.4009705
1435103199.551,-0.8060379
1435103199.567,3.045807
1435103199.582,6.9065514
1435103199.598,10.498573
1435103199.613,13.621059
1435103199.629,16.19453
1435103199.645,18.397182
1435103199.66,20.559284
1435103199.676,23.103798
1435103199.692,26.400753
1435103199.707,30.53492
1435103199.723,35.162415
1435103199.738,39.484184
1435103199.754,42.456497
1435103199.77,43.043777
1435103199.785,40.60103
1435103199.801,35.062767
1435103199.817,26.931402
1435103199.832,17.108335
1435103199.848,6.6287937
1435103199.863,-3.489931
1435103199.879,-12.371323
1435103199.895,-19.29766
1435103199.91,-23.822596
1435103199.926,-25.867716
1435103199.942,-25.76372
1435103199.957,-24.22965
1435103199.973,-22.092964
1435103199.988,-20.039513
1435103200.004,-18.43598
1435103200.02,-17.347065
1435103200.035,-16.65143
1435103200.051,-16.2136
1435103200.067,-15.93428
1435103200.082,-15.710884
1435103200.098,-15.450547
1435103200.113,-15.085114
1435103200.129,-14.605363
1435103200.145,-14.071205
1435103200.16,-13.547474
1435103200.176,-12.986729
1435103200.192,-12.190487
1435103200.207,-10.869027
1435103200.223,-8.771574
1435103200.238,-5.8518972
1435103200.254,-2.203961
1435103200.27,1.9444764
1435103200.285,6.329034
1435103200.301,10.707903
1435103200.317,14.900037
1435103200.332,18.765339
1435103200.348,22.288525
1435103200.364,25.626219
1435103200.379,28.99567
1435103200.395,32.55747
1435103200.41,36.138977
1435103200.426,39.14786
1435103200.442,40.741047
1435103200.457,40.06408
1435103200.473,36.58698
1435103200.489,30.308731
1435103200.504,21.778372
1435103200.52,11.867561
1435103200.535,1.5978355
1435103200.551,-8.057898
1435103200.567,-16.338577
1435103200.582,-22.720615
1435103200.598,-26.970139
1435103200.614,-29.13708
1435103200.629,-29.434835
1435103200.645,-28.22021
1435103200.66,-25.951962
1435103200.676,-23.148426
1435103200.692,-20.370895
1435103200.707,-18.158468
1435103200.723,-16.878456
1435103200.739,-16.622398
1435103200.754,-17.176857
1435103200.77,-18.116726
1435103200.785,-19.000355
1435103200.801,-19.557766
1435103200.817,-19.686699
1435103200.832,-19.396961
1435103200.848,-18.69167
1435103200.864,-17.469257
1435103200.879,-15.558262
1435103200.895,-12.868816
