1430940314.588,0.0
1430940314.604,0.0
1430940314.619,0.0
1430940314.635,0.0
1430940314.651,0.0
1430940314.666,0.0
1430940314.682,0.0
1430940314.698,0.0
1430940314.713,0.0
1430940314.729,0.0022315353
1430940314.744,-0.0045169927
1430940314.76,-0.011265522
1430940314.776,-0.011383951
1430940314.791,0.0011864507
1430940314.807,0.025910312
1430940314.823,0.050634187
1430940314.838,0.051362894
1430940314.854,-0.0014929791
1430940314.869,-0.1302426
1430940314.885,-0.35562757
1430940314.901,-0.6591247
1430940314.916,-1.0095103
1430940314.932,-1.3709826
1430940314.948,-1.7197359
1430940314.963,-2.0551105
1430940314.979,-2.39945
1430940314.994,-2.7866635
1430940315.01,-3.2399073
1430940315.026,-3.796012
1430940315.041,-4.418684
1430940315.057,-5.0592937
1430940315.073,-5.6644096
1430940315.088,-6.2021537
1430940315.104,-6.6808796
1430940315.119,-7.149598
1430940315.135,-7.6782336
1430940315.151,-8.310739
1430940315.166,-9.143657
1430940315.182,-10.089731
1430940315.198,-11.041313
1430940315.213,-11.8842125
1430940315.229,-12.564316
1430940315.244,-13.13563
1430940315.26,-13.760044
1430940315.276,-14.65232
1430940315.291,-15.962056
1430940315.307,-17.914442
1430940315.323,-20.317299
1430940315.338,-22.903854
1430940315.354,-25.37947
1430940315.369,-27.578028
1430940315.385,-29.57246
1430940315.401,-31.675173
1430940315.416,-34.3178
1430940315.432,-37.813618
1430940315.448,-42.541233
1430940315.463,-48.1463
1430940315.479,-54.104755
1430940315.494,-59.83309
1430940315.51,-64.972374
1430940315.526,-69.58293
1430940315.541,-74.14353
1430940315.557,-79.344986
1430940315.573,-85.70726
1430940315.588,-93.76193
1430940315.604,-102.99779
1430940315.62,-112.61757
1430940315.635,-121.73034
1430940315.651,-129.76602
1430940315.666,-136.75102
1430940315.682,-143.30344
1430940315.698,-150.74623
1430940315.713,-157.77356
1430940315.729,-166.64323
1430940315.744,-177.94798
1430940315.76,-191.79102
1430940315.776,-206.96808
1430940315.791,-220.56592
1430940315.807,-228.24644
1430940315.823,-225.36154
1430940315.838,-208.53198
1430940315.854,-176.87024
1430940315.87,-132.76222
1430940315.885,-80.04997
1430940315.901,-23.069275
1430940315.916,34.94339
1430940315.932,92.43695
1430940315.948,149.15695
1430940315.963,205.22772
1430940315.979,260.36963
1430940315.995,313.74133
1430940316.01,363.87396
1430940316.026,409.83353
1430940316.041,450.90775
1430940316.057,486.50244
1430940316.073,515.73865
1430940316.088,537.2274
1430940316.104,549.22
1430940316.12,549.9613
1430940316.135,538.367
1430940316.151,514.2055
1430940316.166,478.674
1430940316.182,433.87952
1430940316.198,382.45126
1430940316.213,327.02106
1430940316.229,269.84186
1430940316.245,212.63379
1430940316.26,156.6594
1430940316.276,102.95233
1430940316.291,52.373596
1430940316.307,5.9046936
1430940316.323,-35.580414
1430940316.338,-71.42584
1430940316.354,-101.35184
1430940316.37,-125.50113
1430940316.385,-144.37967
1430940316.401,-158.694
1430940316.416,-169.1507
1430940316.432,-176.3713
1430940316.448,-180.75206
1430940316.463,-182.57535
1430940316.479,-182.06989
1430940316.495,-179.50708
1430940316.51,-175.23193
1430940316.526,-169.6497
1430940316.541,-163.17393
1430940316.557,-156.14694
1430940316.573,-148.81657
1430940316.588,-141.31595
1430940316.604,-133.71211
1430940316.62,-126.03079
1430940316.635,-118.312836
1430940316.651,-110.61833
1430940316.666,-103.02308
1430940316.682,-95.61022
1430940316.698,-88.44115
1430940316.713,-81.5557
1430940316.729,-74.96329
1430940316.745,-68.66681
1430940316.76,-62.654537
1430940316.776,-56.928177
1430940316.791,-51.494907
1430940316.807,-46.36702
1430940316.823,-41.56243
1430940316.838,-37.088432
1430940316.854,-32.948074
1430940316.87,-29.119774
1430940316.885,-25.582394
1430940316.901,-22.296087
1430940316.916,-19.240269
1430940316.932,-16.408592
1430940316.948,-13.815885
1430940316.963,-11.49553
1430940316.979,-9.470462
1430940316.995,-7.745969
1430940317.01,-6.2826924
1430940317.026,-5.0123496
1430940317.041,-3.8479376
1430940317.057,-2.7231433
1430940317.073,-1.6184454
1430940317.088,-0.5739962
1430940317.104,0.33392572
1430940317.12,1.032409
1430940317.135,1.4899117
1430940317.151,1.7636319
1430940317.166,1.9800322
1430940317.182,2.2949903
1430940317.198,2.8164117
1430940317.213,3.5580788
1430940317.229,4.423018
1430940317.245,5.2302203
1430940317.26,5.818029
1430940317.276,6.1079054
1430940317.291,6.17145
1430940317.307,6.20117
1430940317.323,6.4313407
1430940317.338,7.031789
1430940317.354,8.007682
1430940317.37,9.200089
1430940317.385,10.343584
1430940317.401,11.220181
1430940317.416,11.720845
1430940317.432,11.906607
1430940317.448,11.961636
1430940317.463,12.093474
1430940317.479,12.503043
1430940317.495,13.364663
1430940317.51,14.851066
1430940317.526,16.990652
1430940317.541,19.505262
1430940317.557,21.640879
1430940317.573,22.28982
1430940317.588,20.341845
1430940317.604,15.206469
1430940317.62,7.193865
1430940317.635,-2.506258
1430940317.651,-12.223654
1430940317.666,-20.428417
1430940317.682,-26.22023
1430940317.698,-29.464434
1430940317.713,-30.566648
1430940317.729,-30.07794
1430940317.745,-28.456717
1430940317.76,-25.985239
1430940317.776,-22.931286
1430940317.791,-19.655407
1430940317.807,-16.644268
1430940317.823,-14.318724
1430940317.838,-12.892557
1430940317.854,-12.2621765
1430940317.87,-12.06456
1430940317.885,-11.8426285
1430940317.901,-11.226114
1430940317.916,-10.08613
1430940317.932,-8.59198
1430940317.948,-7.10532
1430940317.963,-5.997978
1430940317.979,-5.463539
1430940317.995,-5.422493
1430940318.01,-5.545738
1430940318.026,-5.4757195
1430940318.041,-5.009369
1430940318.057,-4.194771
1430940318.073,-3.2751007
1430940318.088,-2.5302963
1430940318.104,-2.0616875
1430940318.12,-1.7941437
1430940318.135,-1.4717026
1430940318.151,-0.886631
1430940318.166,0.041217804
1430940318.182,1.1669922
1430940318.198,2.2630577
1430940318.213,3.10318
1430940318.229,3.58152
1430940318.245,3.7117195
1430940318.26,3.5922356
1430940318.276,3.3398285
1430940318.291,3.071495
1430940318.307,2.8278503
1430940318.323,2.6586113
1430940318.338,2.5585747
1430940318.354,2.503807
1430940318.37,2.4740295
1430940318.385,2.4966812
1430940318.401,2.6414108
1430940318.416,3.012207
1430940318.432,3.6513672
1430940318.448,4.456608
1430940318.463,5.138069
1430940318.479,5.282551
1430940318.495,4.4874153
1430940318.51,2.609558
1430940318.526,-0.1629982
1430940318.542,-3.2496948
1430940318.557,-5.887394
1430940318.573,-7.41555
1430940318.588,-7.5522804
1430940318.604,-6.4588165
1430940318.62,-4.680912
1430940318.635,-2.8117027
1430940318.651,-1.2573605
1430940318.667,-0.12620735
1430940318.682,0.8020153
1430940318.698,1.7493649
1430940318.713,2.8074722
1430940318.729,3.8490791
1430940318.745,4.626747
1430940318.76,4.9976196
1430940318.776,5.0023994
1430940318.792,4.9185333
1430940318.807,4.9972115
1430940318.823,5.3817673
1430940318.838,5.9315796
1430940318.854,6.4058876
1430940318.87,6.5480614
1430940318.885,6.2576675
1430940318.901,5.615093
1430940318.917,4.821991
1430940318.932,4.0594254
1430940318.948,3.461872
1430940318.963,3.0921173
1430940318.979,2.9761925
1430940318.995,3.1182709
1430940319.01,3.468605
1430940319.026,3.8148613
1430940319.042,3.8669548
1430940319.057,3.27697
1430940319.073,1.902111
1430940319.088,-0.16709518
1430940319.104,-2.5368195
1430940319.12,-4.748356
1430940319.135,-6.450794
1430940319.151,-7.528061
1430940319.167,-8.172161
1430940319.182,-8.703331
1430940319.198,-9.378304
1430940319.213,-10.285915
1430940319.229,-11.302532
1430940319.245,-12.224503
1430940319.26,-12.859945
1430940319.276,-13.152855
1430940319.292,-13.135998
1430940319.307,-12.956383
1430940319.323,-12.77459
1430940319.338,-12.822231
1430940319.354,-13.292854
1430940319.37,-14.397129
1430940319.385,-16.149992
1430940319.401,-18.417362
1430940319.417,-20.823189
1430940319.432,-22.824724
1430940319.448,-23.894367
1430940319.463,-23.654364
1430940319.479,-21.997139
1430940319.495,-19.14101
1430940319.51,-15.501646
1430940319.526,-11.409876
1430940319.542,-7.1285267
1430940319.557,-2.8370686
1430940319.573,1.4131279
1430940319.588,5.49909
1430940319.604,9.247362
1430940319.62,12.380762
1430940319.635,14.660267
1430940319.651,15.9666
1430940319.667,16.383703
1430940319.682,16.144
1430940319.698,15.535521
1430940319.713,14.817353
1430940319.729,14.146053
1430940319.745,13.533705
1430940319.76,12.941201
1430940319.776,12.305353
1430940319.792,11.612447
1430940319.807,10.871434
1430940319.823,10.157679
1430940319.838,9.544226
1430940319.854,9.128006
1430940319.87,8.938229
1430940319.885,8.961174
1430940319.901,9.078552
1430940319.917,9.14741
1430940319.932,9.046129
1430940319.948,8.723482
1430940319.963,8.2130375
1430940319.979,7.656781
1430940319.995,7.203876
1430940320.01,6.9726753
1430940320.026,6.9946456
1430940320.042,7.2587996
1430940320.057,7.689801
1430940320.073,8.167681
1430940320.088,8.4915285
1430940320.104,8.421334
1430940320.12,7.634166
1430940320.135,5.877859
1430940320.151,3.0682473
1430940320.167,-0.569649
1430940320.182,-4.560682
1430940320.198,-8.238197
1430940320.213,-10.966088
1430940320.229,-12.335987
1430940320.245,-12.281894
1430940320.26,-11.119884
1430940320.276,-9.346262
1430940320.292,-7.424475
1430940320.307,-5.664346
1430940320.323,-4.1201587
1430940320.338,-2.706541
1430940320.354,-1.3350059
1430940320.37,-0.031682134
1430940320.385,1.0835497
1430940320.401,1.8245741
1430940320.417,2.123883
1430940320.432,2.0447845
1430940320.448,1.8367572
1430940320.463,1.7080393
1430940320.479,1.7738363
1430940320.495,1.9336503
1430940320.51,1.9094058
1430940320.526,1.4583254
1430940320.542,0.5359856
1430940320.557,-0.6314001
1430940320.573,-1.592467
1430940320.588,-1.8742213
1430940320.604,-1.1502087
1430940320.62,0.5793153
1430940320.635,3.0265548
1430940320.651,5.7536
1430940320.667,8.372993
1430940320.682,10.649767
1430940320.698,12.584545
1430940320.713,14.324569
1430940320.729,16.11517
1430940320.745,18.226015
1430940320.76,20.89692
1430940320.776,24.258066
1430940320.792,28.26498
1430940320.807,32.543304
1430940320.823,36.396812
1430940320.838,38.876945
1430940320.854,39.052948
1430940320.87,36.27908
1430940320.885,30.488258
1430940320.901,22.222904
1430940320.917,12.514326
1430940320.932,2.5683498
1430940320.948,-6.514305
1430940320.963,-14.021177
1430940320.979,-19.678429
1430940320.995,-23.573572
1430940321.01,-25.973127
1430940321.026,-27.15504
1430940321.042,-27.31497
1430940321.057,-26.587793
1430940321.073,-25.108622
1430940321.088,-23.09555
1430940321.104,-20.83494
1430940321.12,-18.671766
1430940321.135,-16.866493
1430940321.151,-15.569292
1430940321.167,-14.76598
1430940321.182,-14.332701
1430940321.198,-14.08342
1430940321.214,-13.851295
1430940321.229,-13.498486
1430940321.245,-12.958246
1430940321.26,-12.225746
1430940321.276,-11.344381
1430940321.292,-10.341274
1430940321.307,-9.221603
1430940321.323,-7.923174
1430940321.339,-6.355715
1430940321.354,-4.442871
1430940321.37,-2.167984
1430940321.385,0.41361237
1430940321.401,3.2088966
1430940321.417,6.1426544
1430940321.432,9.201412
1430940321.448,12.440941
1430940321.464,15.92038
1430940321.479,19.713985
1430940321.495,23.884281
1430940321.51,28.478844
1430940321.526,33.50202
1430940321.542,38.83438
1430940321.557,44.107246
1430940321.573,48.68144
1430940321.589,51.681843
1430940321.604,52.202316
1430940321.62,49.58728
1430940321.635,43.688828
1430940321.651,34.969826
1430940321.667,24.445263
1430940321.682,13.382797
1430940321.698,2.9879189
1430940321.714,-5.8851395
1430940321.729,-12.856167
1430940321.745,-17.982353
1430940321.76,-21.535507
1430940321.776,-23.86253
1430940321.792,-25.224228
1430940321.807,-25.776665
1430940321.823,-25.615814
1430940321.839,-24.883099
1430940321.854,-23.766205
1430940321.87,-22.510223
1430940321.885,-21.346405
1430940321.901,-20.437218
1430940321.917,-19.838509
1430940321.932,-19.503868
1430940321.948,-19.324188
1430940321.964,-19.174034
1430940321.979,-18.93026
1430940321.995,-18.517807
1430940322.01,-17.888031
1430940322.026,-17.028694
1430940322.042,-15.899162
1430940322.057,-14.449715
1430940322.073,-12.602768
1430940322.089,-10.275459
1430940322.104,-7.422615
1430940322.12,-4.103882
1430940322.135,-0.4624176
1430940322.151,3.2557755
1430940322.167,6.7814636
1430940322.182,9.888741
1430940322.198,12.466347
1430940322.214,14.605637
1430940322.229,16.552322
1430940322.245,18.675552
1430940322.26,21.34066
1430940322.276,24.781517
1430940322.292,29.051804
1430940322.307,33.909508
1430940322.323,38.82437
1430940322.339,42.965813
1430940322.354,45.370453
1430940322.37,45.125237
1430940322.385,41.662888
1430940322.401,34.951042
1430940322.417,25.583504
1430940322.432,14.623283
1430940322.448,3.3425598
1430940322.464,-7.132576
1430940322.479,-16.023628
1430940322.495,-22.99556
1430940322.51,-28.034607
1430940322.526,-31.291756
1430940322.542,-32.942238
1430940322.557,-33.167114
1430940322.573,-32.183212
1430940322.589,-30.32415
1430940322.604,-28.01007
1430940322.62,-25.699036
1430940322.635,-23.769058
1430940322.651,-22.380363
1430940322.667,-21.462952
1430940322.682,-20.73108
1430940322.698,-19.849579
1430940322.714,-18.61827
1430940322.729,-17.03505
1430940322.745,-15.32132
1430940322.76,-13.721619
1430940322.776,-12.341049
1430940322.792,-11.025299
1430940322.807,-9.426041
1430940322.823,-7.1676483
1430940322.839,-4.0939636
1430940322.854,-0.3695984
1430940322.87,3.5715027
1430940322.885,7.2441864
1430940322.901,10.337097
1430940322.917,12.85141
1430940322.932,15.089264
1430940322.948,17.473892
1430940322.964,20.448578
1430940322.979,24.319183
1430940322.995,29.19548
1430940323.01,34.95958
1430940323.026,41.14505
1430940323.042,46.973053
1430940323.057,51.373657
1430940323.073,53.23358
1430940323.089,51.695923
1430940323.104,46.501465
1430940323.12,38.03714
1430940323.135,27.308975
1430940323.151,15.606934
1430940323.167,4.175293
1430940323.182,-6.0585938
1430940323.198,-14.579956
1430940323.214,-21.247726
1430940323.229,-26.139465
1430940323.245,-29.442505
1430940323.26,-31.361084
1430940323.276,-32.13159
1430940323.292,-31.994034
1430940323.307,-31.21637
1430940323.323,-30.057617
1430940323.339,-28.772064
1430940323.354,-27.54602
1430940323.37,-26.496689
1430940323.385,-25.62532
1430940323.401,-24.860855
1430940323.417,-24.080505
1430940323.432,-23.211288
1430940323.448,-22.25206
1430940323.464,-21.250443
1430940323.479,-20.271317
1430940323.495,-19.258759
1430940323.51,-18.025635
1430940323.526,-16.29744
1430940323.542,-13.8059845
1430940323.557,-10.495316
1430940323.573,-6.5626526
1430940323.589,-2.4493256
1430940323.604,1.407196
1430940323.62,4.711029
1430940323.635,7.523758
1430940323.651,10.176956
1430940323.667,13.164703
1430940323.682,16.882904
1430940323.698,21.410294
1430940323.714,26.393494
1430940323.729,31.08287
1430940323.745,34.461426
1430940323.76,35.502136
1430940323.776,33.447372
1430940323.792,28.06073
1430940323.807,19.72876
1430940323.823,9.415878
1430940323.839,-1.6055298
1430940323.854,-12.074509
1430940323.87,-21.069077
1430940323.886,-28.14238
1430940323.901,-33.346405
1430940323.917,-36.98294
1430940323.932,-39.424194
1430940323.948,-40.881042
1430940323.964,-41.414978
1430940323.979,-40.988754
1430940323.995,-39.64943
1430940324.01,-37.60399
1430940324.026,-35.23761
1430940324.042,-32.983047
1430940324.057,-31.185394
1430940324.073,-29.970352
1430940324.089,-29.282898
1430940324.104,-28.908783
1430940324.12,-28.633804
1430940324.136,-28.295288
1430940324.151,-27.798431
1430940324.167,-27.078964
1430940324.182,-26.078049
1430940324.198,-24.717346
1430940324.214,-22.945694
1430940324.229,-20.755173
1430940324.245,-18.183426
1430940324.261,-15.2721405
1430940324.276,-12.043976
1430940324.292,-8.488693
1430940324.307,-4.606415
1430940324.323,-0.44656372
1430940324.339,3.8810425
1430940324.354,8.24086
1430940324.37,12.506805
1430940324.386,16.657166
1430940324.401,20.718079
1430940324.417,24.769669
1430940324.432,28.9496
1430940324.448,33.42894
1430940324.464,38.39093
1430940324.479,43.91568
1430940324.495,49.784225
1430940324.511,55.33409
1430940324.526,59.45877
1430940324.542,60.875458
1430940324.557,58.563553
1430940324.573,52.204453
1430940324.589,42.345978
1430940324.604,30.270782
1430940324.62,17.56282
1430940324.636,5.619995
1430940324.651,-4.652008
1430940324.667,-12.889053
1430940324.682,-19.131073
1430940324.698,-23.579575
1430940324.714,-26.476654
1430940324.729,-28.03038
1430940324.745,-28.481293
1430940324.761,-28.09822
1430940324.776,-27.174911
1430940324.792,-26.01767
1430940324.807,-24.89122
1430940324.823,-24.024017
1430940324.839,-23.580078
1430940324.854,-23.5905
1430940324.87,-23.965973
1430940324.886,-24.504196
1430940324.901,-24.945007
1430940324.917,-25.058441
1430940324.932,-24.709183
1430940324.948,-23.852173
1430940324.964,-22.55214
1430940324.979,-20.901352
1430940324.995,-19.04039
1430940325.011,-17.089066
1430940325.026,-15.122803
1430940325.042,-13.085541
1430940325.057,-10.850159
1430940325.073,-8.245346
1430940325.089,-5.1667175
1430940325.104,-1.6707306
1430940325.12,1.9806824
1430940325.136,5.3938904
1430940325.151,8.141937
1430940325.167,9.921707
1430940325.182,10.6577
1430940325.198,10.603699
1430940325.214,10.30098
1430940325.229,10.548355
1430940325.245,12.187881
1430940325.261,15.856201
1430940325.276,21.685822
1430940325.292,29.106125
1430940325.307,36.828934
1430940325.323,43.19133
1430940325.339,46.610992
1430940325.354,46.15088
1430940325.37,41.790024
1430940325.386,34.41925
1430940325.401,25.472961
1430940325.417,16.43985
1430940325.432,8.401764
1430940325.448,1.876297
1430940325.464,-3.138504
1430940325.479,-6.8880463
1430940325.495,-9.606766
1430940325.511,-11.428307
1430940325.526,-12.419815
1430940325.542,-12.718338
1430940325.557,-12.61058
1430940325.573,-12.4346695
1430940325.589,-12.435905
1430940325.604,-12.618202
1430940325.62,-12.785942
1430940325.636,-12.644424
1430940325.651,-12.049347
1430940325.667,-11.1231
1430940325.682,-10.213074
1430940325.698,-9.725601
1430940325.714,-9.887878
1430940325.729,-10.595444
1430940325.745,-11.471756
1430940325.761,-12.01416
1430940325.776,-11.802109
1430940325.792,-10.649216
1430940325.807,-8.629471
1430940325.823,-5.961113
1430940325.839,-2.926384
1430940325.854,0.24640656
1430940325.87,3.4190216
1430940325.886,6.5202637
1430940325.901,9.507957
1430940325.917,12.348244
1430940325.932,15.00248
1430940325.948,17.432999
1430940325.964,19.644585
1430940325.979,21.668839
1430940325.995,23.57637
1430940326.011,25.51419
1430940326.026,27.698837
1430940326.042,30.417854
1430940326.057,33.97657
1430940326.073,38.561363
1430940326.089,44.055458
1430940326.104,49.931267
1430940326.12,55.220543
1430940326.136,58.676064
1430940326.151,59.14721
1430940326.167,55.91188
1430940326.182,48.96849
1430940326.198,39.10427
1430940326.214,27.603905
1430940326.229,15.915863
1430940326.245,5.201172
1430940326.261,-3.8570557
1430940326.276,-11.095543
1430940326.292,-16.715538
1430940326.307,-21.065346
1430940326.323,-24.46511
1430940326.339,-27.154518
1430940326.354,-29.27826
1430940326.37,-30.920319
1430940326.386,-32.15088
1430940326.401,-33.000168
1430940326.417,-33.496803
1430940326.432,-33.653023
1430940326.448,-33.49656
1430940326.464,-33.103943
1430940326.479,-32.586403
1430940326.495,-32.08908
1430940326.511,-31.744057
1430940326.526,-31.655014
1430940326.542,-31.846115
1430940326.558,-32.248215
1430940326.573,-32.642776
1430940326.589,-32.723236
1430940326.604,-32.141304
1430940326.62,-30.619873
1430940326.636,-28.078346
1430940326.651,-24.667366
1430940326.667,-20.729744
1430940326.682,-16.711235
1430940326.698,-12.949066
1430940326.714,-9.580063
1430940326.729,-6.495758
1430940326.745,-3.4383392
1430940326.761,-0.13925171
1430940326.776,3.476448
1430940326.792,7.2771606
1430940326.808,10.97744
1430940326.823,14.310677
1430940326.839,17.176964
1430940326.854,19.744713
1430940326.87,22.354286
1430940326.886,25.407059
1430940326.901,29.206276
1430940326.917,33.85354
1430940326.933,39.17195
1430940326.948,44.721283
1430940326.964,49.769455
1430940326.979,53.440582
1430940326.995,54.80339
1430940327.011,53.14456
1430940327.026,48.172928
1430940327.042,40.20514
1430940327.058,30.083153
1430940327.073,18.988495
1430940327.089,8.129318
1430940327.104,-1.5801315
1430940327.12,-9.646591
1430940327.136,-16.018806
1430940327.151,-20.943558
1430940327.167,-24.75019
1430940327.183,-27.722061
1430940327.198,-29.999733
1430940327.214,-31.607864
1430940327.229,-32.497055
1430940327.245,-32.68863
1430940327.261,-32.289726
1430940327.276,-31.552917
1430940327.292,-30.771301
1430940327.308,-30.214256
1430940327.323,-30.03267
1430940327.339,-30.223671
1430940327.354,-30.661606
1430940327.37,-31.166069
1430940327.386,-31.5345
1430940327.401,-31.63807
1430940327.417,-31.374222
1430940327.433,-30.714233
1430940327.448,-29.63121
1430940327.464,-28.123001
1430940327.479,-26.154327
1430940327.495,-23.712631
1430940327.511,-20.831177
1430940327.526,-17.653915
1430940327.542,-14.398537
1430940327.558,-11.333878
1430940327.573,-8.660553
1430940327.589,-6.411682
1430940327.604,-4.4046707
1430940327.62,-2.301773
1430940327.636,0.2602539
1430940327.651,3.474739
1430940327.667,7.2908554
1430940327.683,11.403023
1430940327.698,15.3899765
1430940327.714,18.91079
1430940327.729,21.864723
1430940327.745,24.423546
1430940327.761,26.958588
1430940327.776,29.874107
1430940327.792,33.452766
1430940327.808,37.741768
1430940327.823,42.522034
1430940327.839,47.30262
1430940327.854,51.404854
1430940327.87,54.002556
1430940327.886,54.285812
1430940327.901,51.65969
1430940327.917,45.95669
1430940327.933,37.546665
1430940327.948,27.297386
1430940327.964,16.399296
1430940327.979,6.0357056
1430940327.995,-2.891468
1430940328.011,-9.92028
1430940328.026,-15.042641
1430940328.042,-18.520695
1430940328.058,-20.730862
1430940328.073,-21.996288
1430940328.089,-22.55333
1430940328.104,-22.554615
1430940328.12,-22.174381
1430940328.136,-21.589523
1430940328.151,-20.984005
1430940328.167,-20.505074
1430940328.183,-20.215446
1430940328.198,-20.07648
1430940328.214,-20.045773
1430940328.229,-20.076042
1430940328.245,-20.149956
1430940328.261,-20.263878
1430940328.276,-20.409737
1430940328.292,-20.466755
1430940328.308,-20.258945
1430940328.323,-19.557293
1430940328.339,-18.201931
1430940328.354,-16.185486
1430940328.37,-13.679096
1430940328.386,-10.989208
1430940328.401,-8.435596
1430940328.417,-6.2049637
1430940328.433,-4.275383
1430940328.448,-2.4314728
1430940328.464,-0.38275528
1430940328.479,2.1066322
1430940328.495,5.080843
1430940328.511,8.398968
1430940328.526,11.787334
1430940328.542,14.99155
1430940328.558,17.854004
1430940328.573,20.383749
1430940328.589,22.741678
1430940328.604,25.202589
1430940328.62,28.082333
1430940328.636,31.655191
1430940328.651,35.996323
1430940328.667,40.813286
1430940328.683,45.382957
1430940328.698,48.638767
1430940328.714,49.445255
1430940328.729,46.989616
1430940328.745,41.122208
1430940328.761,32.48262
1430940328.776,22.289751
1430940328.792,11.991627
1430940328.808,2.7787647
1430940328.823,-4.6939964
1430940328.839,-10.370029
1430940328.854,-14.5857315
1430940328.87,-17.800846
1430940328.886,-20.304482
1430940328.901,-22.197186
1430940328.917,-23.394106
1430940328.933,-23.80598
1430940328.948,-23.404703
1430940328.964,-22.331501
1430940328.979,-20.802858
1430940328.995,-19.12273
1430940329.011,-17.560741
1430940329.026,-16.360151
1430940329.042,-15.679275
1430940329.058,-15.622379
1430940329.073,-16.16904
1430940329.089,-17.169113
1430940329.104,-18.32664
1430940329.12,-19.26969
1430940329.136,-19.618513
1430940329.151,-19.137299
1430940329.167,-17.765612
1430940329.183,-15.662619
1430940329.198,-13.095037
1430940329.214,-10.341966
1430940329.229,-7.5979066
1430940329.245,-4.9284735
1430940329.261,-2.2718859
1430940329.276,0.47026205
1430940329.292,3.3516817
1430940329.308,6.3471646
1430940329.323,9.349253
1430940329.339,12.22157
1430940329.354,14.886375
1430940329.37,17.367058
1430940329.386,19.839037
1430940329.401,22.55772
1430940329.417,25.848413
1430940329.433,29.932684
1430940329.448,34.849163
1430940329.464,40.26072
1430940329.48,45.44423
1430940329.495,49.37357
1430940329.511,50.96565
1430940329.526,49.37842
1430940329.542,44.35378
1430940329.558,36.29844
1430940329.573,26.2226
1430940329.589,15.44298
1430940329.605,5.24993
1430940329.62,-3.4102757
1430940329.636,-10.104755
1430940329.651,-14.878154
1430940329.667,-18.11253
1430940329.683,-20.305565
1430940329.698,-21.87327
1430940329.714,-23.084717
1430940329.73,-24.02885
1430940329.745,-24.70473
1430940329.761,-25.10942
1430940329.776,-25.282753
1430940329.792,-25.315409
1430940329.808,-25.270124
1430940329.823,-25.160116
1430940329.839,-24.937881
1430940329.855,-24.56938
1430940329.87,-24.088667
1430940329.886,-23.612673
1430940329.901,-23.297266
1430940329.917,-23.20319
1430940329.933,-23.238075
1430940329.948,-23.121021
1430940329.964,-22.512712
1430940329.98,-21.122242
1430940329.995,-18.864735
1430940330.011,-15.875732
1430940330.026,-12.503443
1430940330.042,-9.151049
1430940330.058,-6.1518784
1430940330.073,-3.6351328
1430940330.089,-1.5021553
1430940330.105,0.5255966
1430940330.12,2.786233
1430940330.136,5.503145
1430940330.151,8.7163515
1430940330.167,12.251188
1430940330.183,15.813505
1430940330.198,19.149302
1430940330.214,22.115646
1430940330.23,24.787117
1430940330.245,27.373495
1430940330.261,30.176527
1430940330.276,33.48526
1430940330.292,37.480083
1430940330.308,42.182983
1430940330.323,47.339638
1430940330.339,52.318962
1430940330.355,56.18721
1430940330.37,57.871674
1430940330.386,56.447903
1430940330.401,51.50922
1430940330.417,43.33035
1430940330.433,32.81175
1430940330.448,21.253063
1430940330.464,9.926725
1430940330.48,-0.17629814
1430940330.495,-8.51547
1430940330.511,-14.977511
1430940330.526,-19.732561
1430940330.542,-23.08379
1430940330.558,-25.380344
1430940330.573,-26.919529
1430940330.589,-27.917875
1430940330.605,-28.505554
1430940330.62,-28.729744
1430940330.636,-28.628088
1430940330.651,-28.293556
1430940330.667,-27.878157
1430940330.683,-27.55775
1430940330.698,-27.445107
1430940330.714,-27.567299
1430940330.73,-27.841219
1430940330.745,-28.155472
1430940330.761,-28.392809
1430940330.776,-28.473934
1430940330.792,-28.342453
1430940330.808,-27.97031
1430940330.823,-27.297386
1430940330.839,-26.299292
1430940330.855,-24.94929
1430940330.87,-23.259007
1430940330.886,-21.23885
1430940330.901,-18.90926
1430940330.917,-16.287117
1430940330.933,-13.454842
1430940330.948,-10.522034
1430940330.964,-7.6359158
1430940330.98,-4.894025
1430940330.995,-2.288107
1430940331.011,0.30302048
1430940331.026,3.0518618
1430940331.042,6.0893726
1430940331.058,9.421714
1430940331.073,12.933873
1430940331.089,16.423685
1430940331.105,19.723454
1430940331.12,22.721813
1430940331.136,25.431644
1430940331.151,27.945843
1430940331.167,30.467108
1430940331.183,33.269558
1430940331.198,36.67733
1430940331.214,40.917297
1430940331.23,45.988907
1430940331.245,51.442226
1430940331.261,56.38673
1430940331.276,59.614906
1430940331.292,59.975273
1430940331.308,56.75068
1430940331.323,49.932175
1430940331.339,40.25139
1430940331.355,28.92948
1430940331.37,17.327353
1430940331.386,6.601469
1430940331.401,-2.5364256
1430940331.417,-9.769537
1430940331.433,-15.157154
1430940331.448,-18.94716
1430940331.464,-21.464928
1430940331.48,-23.053452
1430940331.495,-24.031038
1430940331.511,-24.649292
1430940331.526,-25.074444
1430940331.542,-25.383503
1430940331.558,-25.574112
1430940331.573,-25.629051
1430940331.589,-25.553596
1430940331.605,-25.403011
1430940331.62,-25.278826
1430940331.636,-25.275425
1430940331.651,-25.465298
1430940331.667,-25.823322
1430940331.683,-26.250181
1430940331.698,-26.558578
1430940331.714,-26.554903
1430940331.73,-26.06343
1430940331.745,-25.011879
1430940331.761,-23.416914
1430940331.776,-21.409527
1430940331.792,-19.167925
1430940331.808,-16.868355
1430940331.823,-14.633463
1430940331.839,-12.464943
1430940331.855,-10.23683
1430940331.87,-7.7430973
1430940331.886,-4.7724276
1430940331.901,-1.2276297
1430940331.917,2.8547215
1430940331.933,7.283861
1430940331.948,11.842637
1430940331.964,16.352451
1430940331.98,20.753363
1430940331.995,25.016626
1430940332.011,29.068405
1430940332.026,32.674572
1430940332.042,35.46839
1430940332.058,37.0336
1430940332.073,37.111393
1430940332.089,35.68194
1430940332.105,33.073032
1430940332.12,29.887623
1430940332.136,26.94077
1430940332.152,25.155193
1430940332.167,25.399746
1430940332.183,28.232033
1430940332.198,33.547306
1430940332.214,40.25186
1430940332.23,46.23035
1430940332.245,48.737606
1430940332.261,45.247124
1430940332.277,34.31003
1430940332.292,16.112883
1430940332.308,-7.601407
1430940332.323,-34.118076
1430940332.339,-60.53425
1430940332.355,-84.3266
1430940332.37,-103.6048
1430940332.386,-117.07645
1430940332.402,-124.03578
1430940332.417,-124.43707
1430940332.433,-119.07945
1430940332.448,-109.60758
1430940332.464,-98.20332
1430940332.48,-86.94954
1430940332.495,-77.18739
1430940332.511,-69.20371
1430940332.527,-62.36605
1430940332.542,-55.672913
1430940332.558,-48.40863
1430940332.573,-40.445137
1430940332.589,-32.28372
1430940332.605,-24.668308
1430940332.62,-18.196041
1430940332.636,-13.040703
1430940332.652,-8.947712
1430940332.667,-5.4532013
1430940332.683,-2.128769
1430940332.698,1.2111893
1430940332.714,4.5254517
1430940332.73,7.696022
1430940332.745,10.665726
1430940332.761,13.500839
1430940332.777,16.303185
1430940332.792,19.08899
1430940332.808,21.67772
1430940332.823,23.782646
1430940332.839,25.17073
1430940332.855,25.902504
1430940332.87,26.342178
1430940332.886,27.078476
1430940332.902,28.651108
1430940332.917,31.31076
1430940332.933,34.90052
1430940332.948,38.93995
1430940332.964,42.84819
1430940332.98,46.193024
1430940332.995,48.846306
1430940333.011,50.98472
1430940333.027,52.972855
1430940333.042,55.237564
1430940333.058,58.091873
1430940333.073,61.671402
1430940333.089,65.7762
1430940333.105,69.839386
1430940333.12,72.92384
1430940333.136,73.95563
1430940333.152,71.9888
1430940333.167,66.65791
1430940333.183,58.34674
1430940333.198,48.127853
1430940333.214,37.391205
1430940333.23,27.341965
1430940333.245,18.646896
1430940333.261,11.342941
1430940333.277,5.057617
1430940333.292,-0.5925293
1430940333.308,-5.7406616
1430940333.323,-10.177811
1430940333.339,-13.577667
1430940333.355,-15.728027
1430940333.37,-16.72522
1430940333.386,-16.934845
1430940333.402,-16.85234
1430940333.417,-16.85411
1430940333.433,-17.126465
1430940333.448,-17.622131
1430940333.464,-18.204102
1430940333.48,-18.748444
1430940333.495,-19.223053
1430940333.511,-19.624374
1430940333.527,-19.982117
1430940333.542,-20.274033
1430940333.558,-20.448914
1430940333.573,-20.416962
1430940333.589,-20.105743
1430940333.605,-19.44365
1430940333.62,-18.354828
1430940333.636,-16.745285
1430940333.652,-14.596924
1430940333.667,-11.968643
1430940333.683,-9.0581665
1430940333.698,-6.13678
1430940333.714,-3.461319
1430940333.73,-1.1180573
1430940333.745,1.0155029
1430940333.761,3.249298
1430940333.777,5.8973694
1430940333.792,9.116867
1430940333.808,12.799545
1430940333.823,16.612335
1430940333.839,20.158188
1430940333.855,23.1875
1430940333.87,25.686142
1430940333.886,27.885345
1430940333.902,30.153336
1430940333.917,32.86052
1430940333.933,36.251846
1430940333.948,40.384888
1430940333.964,45.078064
1430940333.98,49.84079
1430940333.995,53.87506
1430940334.011,56.182526
1430940334.027,55.77455
1430940334.042,52.029884
1430940334.058,44.891403
1430940334.073,35.023453
1430940334.089,23.604431
1430940334.105,12.019119
1430940334.12,1.4517822
1430940334.136,-7.3660965
1430940334.152,-14.231903
1430940334.167,-19.347588
1430940334.183,-23.11193
1430940334.198,-25.886047
1430940334.214,-27.912384
1430940334.23,-29.29789
1430940334.245,-30.075188
1430940334.261,-30.271896
1430940334.277,-29.977715
1430940334.292,-29.347298
1430940334.308,-28.601418
1430940334.323,-27.96634
1430940334.339,-27.627106
1430940334.355,-27.679283
1430940334.37,-28.094467
1430940334.386,-28.744759
1430940334.402,-29.453545
1430940334.417,-30.032883
1430940334.433,-30.345467
1430940334.448,-30.306175
1430940334.464,-29.877792
1430940334.48,-29.046692
1430940334.495,-27.816254
1430940334.511,-26.191391
1430940334.527,-24.20153
1430940334.542,-21.893898
1430940334.558,-19.3292
1430940334.573,-16.580307
1430940334.589,-13.739975
1430940334.605,-10.912041
1430940334.62,-8.196739
1430940334.636,-5.6612244
1430940334.652,-3.3155212
1430940334.667,-1.0475006
1430940334.683,1.306366
1430940334.698,3.947441
1430940334.714,6.9628677
1430940334.73,10.31118
1430940334.745,13.809654
1430940334.761,17.24208
1430940334.777,20.43077
1430940334.792,23.355331
1430940334.808,26.10962
1430940334.824,28.898224
1430940334.839,31.984795
1430940334.855,35.63362
1430940334.87,40.052475
1430940334.886,45.262985
1430940334.902,50.925087
1430940334.917,56.24713
1430940334.933,60.0654
1430940334.949,61.11532
1430940334.964,58.469055
1430940334.98,51.911324
1430940334.995,42.03132
1430940335.011,30.083412
1430940335.027,17.515663
1430940335.042,5.5706635
1430940335.058,-4.989746
1430940335.074,-13.833229
1430940335.089,-20.930374
1430940335.105,-26.357773
1430940335.12,-30.145447
1430940335.136,-32.36795
1430940335.152,-33.16581
1430940335.167,-32.808174
1430940335.183,-31.684784
1430940335.199,-30.17345
1430940335.214,-28.625935
1430940335.23,-27.253162
1430940335.245,-26.176495
1430940335.261,-25.42083
1430940335.277,-25.046364
1430940335.292,-25.086536
1430940335.308,-25.631744
1430940335.324,-26.692265
1430940335.339,-28.17424
1430940335.355,-29.829308
1430940335.37,-31.261486
1430940335.386,-32.04684
1430940335.402,-31.835682
1430940335.417,-30.44448
1430940335.433,-27.921452
1430940335.449,-24.500504
1430940335.464,-20.571297
1430940335.48,-16.552685
1430940335.495,-12.825439
1430940335.511,-9.55127
1430940335.527,-6.6791916
1430940335.542,-3.882637
1430940335.558,-0.80524063
1430940335.574,2.8502617
1430940335.589,7.0815964
1430940335.605,11.629822
1430940335.62,16.156723
1430940335.636,20.43248
1430940335.652,24.473225
1430940335.667,28.4488
1430940335.683,32.485775
1430940335.699,36.53917
1430940335.714,40.417866
1430940335.73,43.98531
1430940335.745,47.31899
1430940335.761,50.770042
1430940335.777,54.60795
1430940335.792,58.697792
1430940335.808,62.228752
1430940335.824,63.921185
1430940335.839,62.472153
1430940335.855,57.18867
1430940335.87,48.274826
1430940335.886,36.796906
1430940335.902,24.202934
1430940335.917,11.819796
1430940335.933,0.514019
1430940335.949,-9.31711
1430940335.964,-17.557518
1430940335.98,-24.17067
1430940335.995,-29.106852
1430940336.011,-32.30207
1430940336.027,-33.86139
1430940336.042,-34.008717
1430940336.058,-33.13819
1430940336.074,-31.637104
1430940336.089,-29.90633
1430940336.105,-28.312122
1430940336.12,-27.23777
1430940336.136,-27.041023
1430940336.152,-27.96743
1430940336.167,-29.984184
1430940336.183,-32.709522
1430940336.199,-35.44696
1430940336.214,-37.341824
1430940336.23,-37.656
1430940336.245,-35.998817
1430940336.261,-32.44628
1430940336.277,-27.48047
1430940336.292,-21.79034
1430940336.308,-16.056479
1430940336.324,-10.744154
1430940336.339,-6.0598936
1430940336.355,-1.9730549
1430940336.37,1.652586
1430940336.386,5.037486
1430940336.402,8.392074
1430940336.417,11.960459
1430940336.433,15.958649
1430940336.449,20.587397
1430940336.464,25.949625
1430940336.48,31.992546
1430940336.495,38.4544
1430940336.511,44.938805
1430940336.527,51.011982
1430940336.542,56.39112
1430940336.558,61.056076
1430940336.574,65.35045
1430940336.589,69.796745
1430940336.605,74.81506
1430940336.62,80.34473
1430940336.636,85.65507
1430940336.652,89.39487
1430940336.667,89.997314
1430940336.683,86.267334
1430940336.699,77.91163
1430940336.714,65.68965
1430940336.73,51.13223
1430940336.745,35.980515
1430940336.761,21.530735
1430940336.777,8.219894
1430940336.792,-4.2976913
1430940336.808,-16.797768
1430940336.824,-29.844864
1430940336.839,-43.41137
1430940336.855,-56.776085
1430940336.87,-68.90261
1430940336.886,-78.92867
1430940336.902,-86.46175
1430940336.917,-91.35012
1430940336.933,-93.137146
1430940336.949,-90.73259
1430940336.964,-82.67038
1430940336.98,-68.08727
1430940336.995,-47.792587
1430940337.011,-24.675774
1430940337.027,-3.0056458
1430940337.042,13.17144
1430940337.058,21.636978
1430940337.074,22.821136
1430940337.089,19.214905
1430940337.105,13.964584
1430940337.12,9.413925
1430940337.136,6.547928
1430940337.152,5.3690796
1430940337.167,5.886017
1430940337.183,8.674362
1430940337.199,14.551819
1430940337.214,23.581055
1430940337.23,34.16162
1430940337.245,43.13965
1430940337.261,47.018585
1430940337.277,43.724335
1430940337.292,33.781845
1430940337.308,20.139984
1430940337.324,6.506897
1430940337.339,-4.7875824
1430940337.355,-14.10376
1430940337.37,-24.076416
1430940337.386,-37.72345
1430940337.402,-56.425766
1430940337.417,-78.970245
1430940337.433,-102.29555
1430940337.449,-123.37552
1430940337.464,-140.9167
1430940337.48,-155.73311
1430940337.496,-169.68484
1430940337.511,-183.85353
1430940337.527,-197.09596
1430940337.542,-206.022
1430940337.558,-206.10217
1430940337.574,-193.15651
1430940337.589,-164.63629
1430940337.605,-120.17212
1430940337.62,-61.748306
1430940337.636,6.1430817
1430940337.652,76.5163
1430940337.667,140.59229
1430940337.683,189.61209
1430940337.699,217.2931
1430940337.714,221.95264
1430940337.73,207.07724
1430940337.746,179.90004
1430940337.761,148.57643
1430940337.777,119.45003
1430940337.792,95.53003
1430940337.808,76.948425
1430940337.824,62.46164
1430940337.839,51.017944
1430940337.855,42.30818
1430940337.871,36.304367
1430940337.886,32.43759
1430940337.902,29.403076
1430940337.917,25.67276
1430940337.933,20.451218
1430940337.949,14.328751
1430940337.964,9.04007
1430940337.98,6.648346
1430940337.996,8.418198
1430940338.011,14.070023
1430940338.027,21.817596
1430940338.042,28.949265
1430940338.058,32.879654
1430940338.074,32.162415
1430940338.089,27.0831
1430940338.105,19.508804
1430940338.121,12.232803
1430940338.136,7.8023987
1430940338.152,7.553253
1430940338.167,11.080902
1430940338.183,16.49971
1430940338.199,21.193344
1430940338.214,22.858673
1430940338.23,20.231949
1430940338.246,13.376953
1430940338.261,3.4405518
1430940338.277,-7.9045715
1430940338.292,-19.071625
1430940338.308,-28.94522
1430940338.324,-37.0419
1430940338.339,-43.370712
1430940338.355,-48.170486
1430940338.371,-51.653625
1430940338.386,-53.919464
1430940338.402,-54.946426
1430940338.417,-54.775467
1430940338.433,-53.665314
1430940338.449,-52.105957
1430940338.464,-50.6904
1430940338.48,-49.84613
1430940338.496,-49.608215
1430940338.511,-49.631348
1430940338.527,-49.380035
1430940338.542,-48.434784
1430940338.558,-46.71393
1430940338.574,-44.459167
1430940338.589,-42.03427
1430940338.605,-39.657257
1430940338.621,-37.24109
1430940338.636,-34.434174
1430940338.652,-30.85083
1430940338.667,-26.28598
1430940338.683,-20.841492
1430940338.699,-14.867706
1430940338.714,-8.78717
1430940338.73,-2.9116821
1430940338.746,2.6626587
1430940338.761,8.023041
1430940338.777,13.361816
1430940338.792,18.815552
1430940338.808,24.418549
1430940338.824,30.10669
1430940338.839,35.73413
1430940338.855,41.15326
1430940338.871,46.206146
1430940338.886,50.68994
1430940338.902,54.28595
1430940338.917,56.56482
1430940338.933,56.98645
1430940338.949,55.038605
1430940338.964,50.400116
1430940338.98,43.189545
1430940338.996,34.091095
1430940339.011,24.374695
1430940339.027,15.666504
1430940339.042,9.56369
1430940339.058,7.202606
1430940339.074,8.842499
1430940339.089,13.681915
1430940339.105,19.964355
1430940339.121,25.412933
1430940339.136,27.812805
1430940339.152,25.540802
1430940339.167,17.91626
1430940339.183,5.3059387
1430940339.199,-11.0355835
1430940339.214,-29.239868
1430940339.23,-47.202454
1430940339.246,-62.94217
1430940339.261,-74.8526
1430940339.277,-81.894775
1430940339.292,-83.65207
1430940339.308,-80.262054
1430940339.324,-72.30585
1430940339.339,-60.74289
1430940339.355,-46.90695
1430940339.371,-32.43036
1430940339.386,-19.132751
1430940339.402,-8.678894
1430940339.417,-2.270111
1430940339.433,-0.29742432
1430940339.449,-2.2810974
1430940339.464,-7.0511475
1430940339.48,-13.051697
1430940339.496,-18.637726
1430940339.511,-22.284546
1430940339.527,-22.951752
1430940339.542,-20.419098
1430940339.558,-15.583557
1430940339.574,-10.371185
1430940339.589,-7.0792236
1430940339.605,-7.5013123
1430940339.621,-12.093872
1430940339.636,-19.790253
1430940339.652,-28.488861
1430940339.667,-36.154938
1430940339.683,-41.69336
1430940339.699,-45.308044
1430940339.714,-47.945465
1430940339.73,-50.344025
1430940339.746,-52.184143
1430940339.761,-51.986725
1430940339.777,-47.82556
1430940339.792,-38.515472
1430940339.808,-24.602234
1430940339.824,-8.457916
1430940339.839,6.530426
1430940339.855,17.376099
1430940339.871,22.73233
1430940339.886,23.334839
1430940339.902,21.432373
1430940339.917,19.427307
1430940339.933,18.672852
1430940339.949,18.989685
1430940339.964,19.253876
1430940339.98,18.481934
1430940339.996,16.655334
1430940340.011,14.733917
1430940340.027,13.896774
1430940340.042,14.639603
1430940340.058,16.26271
1430940340.074,17.105545
1430940340.089,15.39888
1430940340.105,10.073669
1430940340.121,1.2716827
1430940340.136,-9.803894
1430940340.152,-21.312378
1430940340.167,-31.33046
1430940340.183,-38.10927
1430940340.199,-40.08316
1430940340.214,-35.921234
1430940340.23,-24.755066
1430940340.246,-6.6675415
1430940340.261,16.79573
1430940340.277,42.63356
1430940340.292,66.9857
1430940340.308,86.2785
1430940340.324,98.355576
1430940340.339,103.102875
1430940340.355,102.16528
1430940340.371,98.01619
1430940340.386,92.73074
1430940340.402,87.23042
1430940340.418,81.175385
1430940340.433,73.595184
1430940340.449,63.58632
1430940340.464,50.831818
1430940340.48,35.609375
1430940340.496,18.509583
1430940340.511,0.15454102
1430940340.527,-18.833054
1430940340.543,-37.575897
1430940340.558,-54.71631
1430940340.574,-68.472855
1430940340.589,-77.11485
1430940340.605,-79.68233
1430940340.621,-76.53012
1430940340.636,-69.40227
1430940340.652,-60.815353
1430940340.668,-53.12616
1430940340.683,-47.719177
1430940340.699,-44.668945
1430940340.714,-43.085693
1430940340.73,-41.82408
1430940340.746,-40.12349
1430940340.761,-37.902924
1430940340.777,-35.581833
1430940340.793,-33.68608
1430940340.808,-32.45607
1430940340.824,-31.75261
1430940340.839,-31.135406
1430940340.855,-30.115143
1430940340.871,-28.332916
1430940340.886,-25.706467
1430940340.902,-22.388397
1430940340.918,-18.731995
1430940340.933,-15.141281
1430940340.949,-12.006912
1430940340.964,-9.583496
1430940340.98,-7.963852
1430940340.996,-6.9982758
1430940341.011,-6.3405914
1430940341.027,-5.45166
1430940341.043,-3.7762756
1430940341.058,-0.9384308
1430940341.074,3.0046005
1430940341.089,7.458557
1430940341.105,11.376015
1430940341.121,13.581169
1430940341.136,13.255249
1430940341.152,10.259399
1430940341.168,5.2165604
1430940341.183,-0.76110077
1430940341.199,-6.484787
1430940341.214,-11.079338
1430940341.23,-14.12558
1430940341.246,-15.532074
1430940341.261,-15.412506
1430940341.277,-13.948143
1430940341.293,-11.44706
1430940341.308,-8.41375
1430940341.324,-5.5454865
1430940341.339,-3.5609512
1430940341.355,-2.9134293
1430940341.371,-3.5282974
1430940341.386,-4.7914352
1430940341.402,-5.7877083
1430940341.418,-5.683693
1430940341.433,-4.0822678
1430940341.449,-1.1649055
1430940341.464,2.4416313
1430940341.48,5.958084
1430940341.496,8.797995
1430940341.511,10.700388
1430940341.527,11.780471
1430940341.543,12.39008
1430940341.558,12.993148
1430940341.574,13.956892
1430940341.589,15.491443
1430940341.605,17.616076
1430940341.621,20.213812
1430940341.636,23.134525
1430940341.652,26.264015
1430940341.668,29.508972
1430940341.683,32.770737
1430940341.699,35.85652
1430940341.714,38.50541
1430940341.73,40.4917
1430940341.746,41.760593
1430940341.761,42.48155
1430940341.777,43.017933
1430940341.793,43.77073
1430940341.808,45.04914
1430940341.824,46.92136
1430940341.839,49.182297
1430940341.855,51.299725
1430940341.871,52.468056
1430940341.886,51.73206
1430940341.902,48.230015
1430940341.918,41.536476
1430940341.933,31.90081
1430940341.949,20.317844
1430940341.964,8.283733
1430940341.98,-2.6802864
1430940341.996,-11.4548
1430940342.011,-17.582699
1430940342.027,-21.177433
1430940342.043,-22.645428
1430940342.058,-22.38536
1430940342.074,-20.666603
1430940342.089,-17.693222
1430940342.105,-13.71714
1430940342.121,-9.036484
1430940342.136,-3.9597473
1430940342.152,1.3222885
1430940342.168,6.747505
1430940342.183,12.2967
1430940342.199,17.846321
1430940342.214,23.00235
1430940342.23,27.134956
1430940342.246,29.565514
1430940342.261,29.848404
1430940342.277,28.062195
1430940342.293,24.806175
1430940342.308,21.04277
1430940342.324,17.684647
1430940342.339,15.279655
1430940342.355,13.831978
1430940342.371,12.999939
1430940342.386,12.372452
1430940342.402,11.735176
1430940342.418,11.110786
1430940342.433,10.570686
1430940342.449,10.040916
1430940342.464,9.204964
1430940342.48,7.6775436
1430940342.496,5.281845
1430940342.511,2.2406464
1430940342.527,-0.87792206
1430940342.543,-3.4874191
1430940342.558,-5.2951126
1430940342.574,-6.4729767
1430940342.589,-7.6284485
1430940342.605,-9.672424
1430940342.621,-13.584618
1430940342.636,-20.199013
1430940342.652,-29.898071
1430940342.668,-42.326927
1430940342.683,-56.17594
1430940342.699,-69.30061
1430940342.714,-79.23529
1430940342.73,-83.99603
1430940342.746,-82.76061
1430940342.761,-76.12585
1430940342.777,-65.71671
1430940342.793,-53.47207
1430940342.808,-40.90342
1430940342.824,-28.76429
1430940342.839,-17.170021
1430940342.855,-5.9714127
1430940342.871,4.9145584
1430940342.886,15.426514
1430940342.902,25.411499
1430940342.918,34.78914
1430940342.933,43.56907
1430940342.949,51.71924
1430940342.964,59.113205
1430940342.98,65.4195
1430940342.996,70.20963
1430940343.011,73.035736
1430940343.027,73.55152
1430940343.043,71.596306
1430940343.058,67.27407
1430940343.074,60.961075
1430940343.09,53.306732
1430940343.105,45.12419
1430940343.121,37.23902
1430940343.136,30.241173
1430940343.152,24.388435
1430940343.168,19.59842
1430940343.183,15.5445175
1430940343.199,11.863869
1430940343.215,8.29808
1430940343.23,4.760063
1430940343.246,1.3025131
1430940343.261,-1.9321365
1430940343.277,-4.7775726
1430940343.293,-7.042755
1430940343.308,-8.496933
1430940343.324,-8.931351
1430940343.34,-8.233337
1430940343.355,-6.5305634
1430940343.371,-4.2758865
1430940343.386,-2.1841278
1430940343.402,-1.0766602
1430940343.418,-1.601738
1430940343.433,-4.0635986
1430940343.449,-8.318642
1430940343.465,-13.857208
1430940343.48,-19.98664
1430940343.496,-26.00145
1430940343.511,-31.261665
1430940343.527,-35.266026
1430940343.543,-37.689957
1430940343.558,-38.413586
1430940343.574,-37.592335
1430940343.59,-35.61207
1430940343.605,-32.99204
1430940343.621,-30.18428
1430940343.636,-27.457634
1430940343.652,-24.85418
1430940343.668,-22.301998
1430940343.683,-19.769531
1430940343.699,-17.36935
1430940343.715,-15.319485
1430940343.73,-13.822784
1430940343.746,-12.926083
1430940343.761,-12.453964
1430940343.777,-12.040752
1430940343.793,-11.33939
1430940343.808,-10.15617
1430940343.824,-8.540691
1430940343.84,-6.717949
1430940343.855,-4.9431114
1430940343.871,-3.3060493
1430940343.886,-1.7143097
1430940343.902,0.033462524
1430940343.918,2.1177292
1430940343.933,4.532337
1430940343.949,7.0689316
1430940343.965,9.428982
1430940343.98,11.363098
1430940343.996,12.830921
1430940344.011,14.024376
1430940344.027,15.2606125
1430940344.043,16.850845
1430940344.058,19.038506
1430940344.074,21.912788
1430940344.09,25.408554
1430940344.105,29.303444
1430940344.121,33.16284
1430940344.136,36.32322
1430940344.152,38.02056
1430940344.168,37.541252
1430940344.183,34.517403
1430940344.199,29.060402
1430940344.215,21.777336
1430940344.23,13.5948105
1430940344.246,5.4647217
1430940344.261,-1.8755798
1430940344.277,-8.018959
1430940344.293,-12.865608
1430940344.308,-16.496178
1430940344.324,-19.038063
1430940344.34,-20.58831
1430940344.355,-21.242683
1430940344.371,-21.08738
1430940344.386,-20.270836
1430940344.402,-18.977875
1430940344.418,-17.412216
1430940344.433,-15.752678
1430940344.449,-14.140648
1430940344.465,-12.661446
1430940344.48,-11.3265915
1430940344.496,-10.12439
1430940344.511,-9.029533
1430940344.527,-8.051567
1430940344.543,-7.264038
1430940344.558,-6.7217865
1430940344.574,-6.451378
1430940344.59,-6.38208
1430940344.605,-6.3546295
1430940344.621,-6.127121
1430940344.636,-5.490074
1430940344.652,-4.285774
1430940344.668,-2.4902115
1430940344.683,-0.1798935
1430940344.699,2.4789734
1430940344.715,5.2679825
1430940344.73,7.9702835
1430940344.746,10.43354
1430940344.761,12.593071
1430940344.777,14.504135
1430940344.793,16.34549
1430940344.808,18.36953
1430940344.824,20.790527
1430940344.84,23.690804
1430940344.855,26.850937
1430940344.871,29.7333
1430940344.886,31.561066
1430940344.902,31.546059
1430940344.918,29.133362
1430940344.933,24.3274
1430940344.949,17.653816
1430940344.965,10.053955
1430940344.98,2.5526505
1430940344.996,-4.0687866
1430940345.011,-9.398872
1430940345.027,-13.377869
1430940345.043,-16.140198
1430940345.058,-17.82457
1430940345.074,-18.516998
1430940345.09,-18.315025
1430940345.105,-17.399826
1430940345.121,-16.042732
1430940345.136,-14.575939
1430940345.152,-13.256168
1430940345.168,-12.210674
1430940345.183,-11.380642
1430940345.199,-10.615059
1430940345.215,-9.7392845
1430940345.23,-8.668911
1430940345.246,-7.441593
1430940345.261,-6.2324867
1430940345.277,-5.25185
1430940345.293,-4.657917
1430940345.308,-4.4449387
1430940345.324,-4.417244
1430940345.34,-4.2411194
1430940345.355,-3.597313
1430940345.371,-2.3255463
1430940345.386,-0.51050186
1430940345.402,1.5844955
1430940345.418,3.652855
1430940345.433,5.494774
1430940345.449,7.0931206
1430940345.465,8.601639
1430940345.48,10.237297
1430940345.496,12.218006
1430940345.511,14.700966
1430940345.527,17.778221
1430940345.543,21.394337
1430940345.558,25.33041
1430940345.574,29.138153
1430940345.59,32.1729
1430940345.605,33.71655
1430940345.621,33.16758
1430940345.636,30.224003
1430940345.652,25.018234
1430940345.668,18.067467
1430940345.683,10.185127
1430940345.699,2.2484283
1430940345.715,-4.9586983
1430940345.73,-10.916512
1430940345.746,-15.36705
1430940345.762,-18.33522
1430940345.777,-20.019516
1430940345.793,-20.71394
1430940345.808,-20.737946
1430940345.824,-20.355942
1430940345.84,-19.759525
1430940345.855,-19.079906
1430940345.871,-18.37838
1430940345.887,-17.678463
1430940345.902,-16.981106
1430940345.918,-16.24466
1430940345.933,-15.419121
1430940345.949,-14.498848
1430940345.965,-13.509781
1430940345.98,-12.58746
1430940345.996,-11.898552
1430940346.012,-11.623123
1430940346.027,-11.805687
1430940346.043,-12.313183
1430940346.058,-12.78632
1430940346.074,-12.756935
1430940346.09,-11.788616
1430940346.105,-9.678299
1430940346.121,-6.568638
1430940346.137,-2.899109
1430940346.152,0.743103
1430940346.168,3.8708
1430940346.183,6.2873116
1430940346.199,8.136162
1430940346.215,9.813843
1430940346.23,11.769211
1430940346.246,14.316303
1430940346.262,17.504704
1430940346.277,21.085987
1430940346.293,24.551102
1430940346.308,27.262154
1430940346.324,28.549507
1430940346.34,27.873703
1430940346.355,24.9277
1430940346.371,19.711452
1430940346.387,12.527573
1430940346.402,3.9097672
1430940346.418,-5.496216
1430940346.433,-15.034012
1430940346.449,-24.129395
1430940346.465,-32.286617
1430940346.48,-39.071022
1430940346.496,-44.078293
1430940346.512,-46.991344
1430940346.527,-47.671497
1430940346.543,-46.400368
1430940346.558,-44.04454
1430940346.574,-42.087433
1430940346.59,-42.29445
1430940346.605,-46.15173
1430940346.621,-54.125267
1430940346.637,-65.221695
1430940346.652,-77.04143
1430940346.668,-86.52918
1430940346.683,-90.98801
1430940346.699,-89.12748
1430940346.715,-81.50573
1430940346.73,-70.30491
1430940346.746,-58.432007
1430940346.762,-48.447327
1430940346.777,-41.64167
1430940346.793,-37.62313
1430940346.808,-34.54499
1430940346.824,-29.819633
1430940346.84,-21.078316
1430940346.855,-7.0270996
1430940346.871,12.152214
1430940346.887,34.919235
1430940346.902,58.936058
1430940346.918,81.650406
1430940346.933,100.95554
1430940346.949,115.4549
1430940346.965,124.62344
1430940346.98,128.85596
1430940346.996,129.38237
1430940347.012,127.976845
1430940347.027,126.428276
1430940347.043,125.787735
1430940347.058,125.825035
1430940347.074,125.06589
1430940347.09,121.49302
1430940347.105,113.637695
1430940347.121,101.5258
1430940347.137,86.75962
1430940347.152,71.80013
1430940347.168,58.703674
1430940347.183,48.193474
1430940347.199,39.51085
1430940347.215,31.135925
1430940347.23,21.790924
1430940347.246,11.231583
1430940347.262,0.3295288
1430940347.277,-9.527351
1430940347.293,-17.243843
1430940347.308,-22.580765
1430940347.324,-26.162193
1430940347.34,-28.977654
1430940347.355,-31.819794
1430940347.371,-34.969322
1430940347.387,-38.225105
1430940347.402,-41.228638
1430940347.418,-43.86345
1430940347.433,-46.228287
1430940347.449,-48.49402
1430940347.465,-50.59855
1430940347.48,-52.148285
1430940347.496,-52.608833
1430940347.512,-51.700012
1430940347.527,-49.665207
1430940347.543,-47.251488
1430940347.558,-45.33539
1430940347.574,-44.424637
1430940347.59,-44.317497
1430940347.605,-44.17771
1430940347.621,-42.944427
1430940347.637,-39.87841
1430940347.652,-34.917355
1430940347.668,-28.679771
1430940347.683,-22.1134
1430940347.699,-16.096115
1430940347.715,-11.1012
1430940347.73,-7.175823
1430940347.746,-4.1481285
1430940347.762,-1.8446388
1430940347.777,-0.22759247
1430940347.793,0.67531586
1430940347.808,0.97169876
1430940347.824,1.07304
1430940347.84,1.7838326
1430940347.855,4.082218
1430940347.871,8.801929
1430940347.887,16.206478
1430940347.902,25.72068
1430940347.918,35.94261
1430940347.933,45.02091
1430940347.949,51.214725
1430940347.965,53.47914
1430940347.98,51.71726
1430940347.996,46.710274
1430940348.012,39.63234
1430940348.027,31.478168
1430940348.043,22.734016
1430940348.058,13.452763
1430940348.074,3.64814
1430940348.09,-6.2613373
1430940348.105,-15.332024
1430940348.121,-22.39201
1430940348.137,-26.59753
1430940348.152,-27.861443
1430940348.168,-26.945122
1430940348.183,-25.09357
1430940348.199,-23.528725
1430940348.215,-23.005882
1430940348.23,-23.654552
1430940348.246,-25.012589
1430940348.262,-26.303864
1430940348.277,-26.673912
1430940348.293,-25.381569
1430940348.308,-21.951767
1430940348.324,-16.333447
1430940348.34,-8.966064
1430940348.355,-0.7565613
1430940348.371,7.219631
1430940348.387,14.022694
1430940348.402,19.19635
1430940348.418,22.782402
1430940348.434,25.108944
1430940348.449,26.45063
1430940348.465,26.817978
1430940348.48,25.927994
1430940348.496,23.57362
1430940348.512,19.920464
1430940348.527,15.656929
1430940348.543,11.798801
1430940348.558,9.276901
1430940348.574,8.46748
1430940348.59,9.098444
1430940348.605,10.430347
1430940348.621,11.693935
1430940348.637,12.506453
1430940348.652,13.043533
1430940348.668,13.858076
1430940348.684,15.631208
1430940348.699,18.834764
1430940348.715,23.436403
1430940348.73,28.848999
1430940348.746,34.05147
1430940348.762,37.826847
1430940348.777,39.129982
1430940348.793,37.347233
1430940348.809,32.481968
1430940348.824,25.058819
1430940348.84,15.879634
1430940348.855,5.718241
1430940348.871,-4.8246202
1430940348.887,-15.360614
1430940348.902,-25.533157
1430940348.918,-34.87265
1430940348.934,-42.71274
1430940348.949,-48.326103
1430940348.965,-51.13448
1430940348.98,-50.989433
1430940348.996,-48.301044
1430940349.012,-43.970695
1430940349.027,-39.125504
1430940349.043,-34.775154
1430940349.059,-31.453667
1430940349.074,-29.12103
1430940349.09,-27.282963
1430940349.105,-25.280733
1430940349.121,-22.68779
1430940349.137,-19.539059
1430940349.152,-16.266722
1430940349.168,-13.536161
1430940349.184,-11.847729
1430940349.199,-11.29192
1430940349.215,-11.464844
1430940349.23,-11.631039
1430940349.246,-10.922966
1430940349.262,-8.692768
1430940349.277,-4.6300087
1430940349.293,1.1539555
1430940349.309,8.279728
1430940349.324,16.253237
1430940349.34,24.596457
1430940349.355,32.877438
1430940349.371,40.707905
1430940349.387,47.687317
1430940349.402,53.423172
1430940349.418,57.591824
1430940349.434,60.028236
1430940349.449,60.74845
1430940349.465,59.920982
1430940349.48,57.814224
1430940349.496,54.781597
1430940349.512,51.191566
1430940349.527,47.3849
1430940349.543,43.555332
1430940349.559,39.682747
1430940349.574,35.48861
1430940349.59,30.524231
1430940349.605,24.298637
1430940349.621,16.4959
1430940349.637,7.1038094
1430940349.652,-3.5137215
1430940349.668,-14.70845
1430940349.684,-25.66771
1430940349.699,-35.6005
1430940349.715,-43.911224
1430940349.73,-50.35807
1430940349.746,-55.04084
1430940349.762,-58.33422
1430940349.777,-60.690216
1430940349.793,-62.463203
1430940349.809,-63.787407
1430940349.824,-64.61306
1430940349.84,-64.84799
1430940349.855,-64.52522
1430940349.871,-63.785942
1430940349.887,-62.79972
1430940349.902,-61.632576
1430940349.918,-60.214035
1430940349.934,-58.356308
1430940349.949,-55.82241
1430940349.965,-52.401917
1430940349.98,-48.032715
1430940349.996,-42.8966
1430940350.012,-37.533028
1430940350.027,-32.73551
1430940350.043,-29.26355
1430940350.059,-27.356339
1430940350.074,-26.456097
1430940350.09,-25.258156
1430940350.105,-22.22533
1430940350.121,-16.29752
1430940350.137,-7.5102577
1430940350.152,2.9430351
1430940350.168,12.995209
1430940350.184,20.361488
1430940350.199,23.211658
1430940350.215,20.656307
1430940350.23,12.927254
1430940350.246,1.4415817
1430940350.262,-11.5283165
1430940350.277,-23.288918
1430940350.293,-31.420376
1430940350.309,-34.42207
1430940350.324,-32.096153
1430940350.34,-25.443672
1430940350.355,-16.17566
1430940350.371,-6.0434036
1430940350.387,3.625267
1430940350.402,11.947544
1430940350.418,18.305702
1430940350.434,22.101574
1430940350.449,22.707417
1430940350.465,19.660383
1430940350.48,12.936302
1430940350.496,3.108784
1430940350.512,-8.71056
1430940350.527,-21.03391
1430940350.543,-32.324837
1430940350.559,-41.183907
1430940350.574,-46.551025
1430940350.59,-47.81978
1430940350.605,-44.90021
1430940350.621,-38.188248
1430940350.637,-28.525658
1430940350.652,-17.033798
1430940350.668,-4.9245415
1430940350.684,6.693619
1430940350.699,17.003597
1430940350.715,25.600105
1430940350.73,32.61721
1430940350.746,38.77321
1430940350.762,45.2578
1430940350.777,53.292084
1430940350.793,63.540577
1430940350.809,75.55109
1430940350.824,87.50569
1430940350.84,96.56702
1430940350.855,99.622475
1430940350.871,94.44979
1430940350.887,80.660904
1430940350.902,60.087196
1430940350.918,36.360672
1430940350.934,13.769043
1430940350.949,-4.107048
1430940350.965,-15.42466
1430940350.98,-20.338005
1430940350.996,-20.411438
1430940351.012,-17.556862
1430940351.027,-13.147507
1430940351.043,-7.729553
1430940351.059,-1.3597717
1430940351.074,5.6728516
1430940351.09,12.428154
1430940351.105,17.43303
1430940351.121,19.380318
1430940351.137,17.841644
1430940351.152,13.604645
1430940351.168,8.227539
1430940351.184,3.2140121
1430940351.199,-0.7684326
1430940351.215,-4.10392
1430940351.23,-7.8239136
1430940351.246,-12.858246
1430940351.262,-19.408539
1430940351.277,-26.84452
1430940351.293,-34.137398
1430940351.309,-40.506622
1430940351.324,-45.866364
1430940351.34,-50.831985
1430940351.356,-56.35264
1430940351.371,-63.133514
1430940351.387,-71.21251
1430940351.402,-79.879944
1430940351.418,-87.87282
1430940351.434,-93.67462
1430940351.449,-95.74391
1430940351.465,-92.46451
1430940351.481,-82.15878
1430940351.496,-63.304535
1430940351.512,-35.222794
1430940351.527,0.97340393
1430940351.543,41.644623
1430940351.559,80.93298
1430940351.574,112.101135
1430940351.59,129.64784
1430940351.606,131.23524
1430940351.621,118.41911
1430940351.637,95.82251
1430940351.652,69.21196
1430940351.668,43.389755
1430940351.684,20.97882
1430940351.699,2.5800018
1430940351.715,-12.046417
1430940351.731,-22.697235
1430940351.746,-28.163956
1430940351.762,-26.723206
1430940351.777,-17.32373
1430940351.793,-0.6188965
1430940351.809,20.711441
1430940351.824,42.622345
1430940351.84,61.01976
1430940351.856,73.07176
1430940351.871,77.99069
1430940351.887,76.98915
1430940351.902,72.489365
1430940351.918,67.01784
1430940351.934,62.33818
1430940351.949,59.05429
1430940351.965,56.78531
1430940351.981,54.587418
1430940351.996,51.42183
1430940352.012,46.420776
1430940352.027,39.062744
1430940352.043,29.246109
1430940352.059,17.388977
1430940352.074,4.470093
1430940352.09,-7.9881134
1430940352.106,-18.065048
1430940352.121,-23.633057
1430940352.137,-22.676697
1430940352.152,-13.735092
1430940352.168,3.3966522
1430940352.184,27.002655
1430940352.199,53.267075
1430940352.215,76.91748
1430940352.231,92.74019
1430940352.246,97.41141
1430940352.262,90.70824
1430940352.277,75.47534
1430940352.293,56.2847
1430940352.309,37.49832
1430940352.324,21.720078
1430940352.34,9.423187
1430940352.356,-0.29602814
1430940352.371,-8.496826
1430940352.387,-15.491341
1430940352.402,-20.804848
1430940352.418,-23.753845
1430940352.434,-24.099602
1430940352.449,-22.376785
1430940352.465,-19.607391
1430940352.481,-16.809792
1430940352.496,-14.465424
1430940352.512,-12.47271
1430940352.527,-10.3216095
1430940352.543,-7.453514
1430940352.559,-3.6665955
1430940352.574,0.7401428
1430940352.59,5.0958443
1430940352.606,8.684937
1430940352.621,11.146389
1430940352.637,12.708443
1430940352.652,14.155632
1430940352.668,16.475151
1430940352.684,20.3899
1430940352.699,25.886005
1430940352.715,32.118977
1430940352.731,37.61689
1430940352.746,40.770393
1430940352.762,40.33054
1430940352.777,35.83483
1430940352.793,27.64896
1430940352.809,16.843643
1430940352.824,4.8375645
1430940352.84,-6.9589615
1430940352.856,-17.471384
1430940352.871,-26.07845
1430940352.887,-32.62604
1430940352.902,-37.320568
1430940352.918,-40.587738
1430940352.934,-42.85196
1430940352.949,-44.46658
1430940352.965,-45.595142
1430940352.981,-46.29589
1430940352.996,-46.558594
1430940353.012,-46.411156
1430940353.027,-45.97589
1430940353.043,-45.441216
1430940353.059,-44.99179
1430940353.074,-44.745598
1430940353.09,-44.68116
1430940353.106,-44.67547
1430940353.121,-44.57248
1430940353.137,-44.25351
1430940353.152,-43.667397
1430940353.168,-42.818672
1430940353.184,-41.695892
1430940353.199,-40.24594
1430940353.215,-38.35424
1430940353.231,-35.91887
1430940353.246,-32.881004
1430940353.262,-29.323166
1430940353.277,-25.4048
1430940353.293,-21.339798
1430940353.309,-17.28009
1430940353.324,-13.2956085
1430940353.34,-9.33429
1430940353.356,-5.3218536
1430940353.371,-1.2175751
1430940353.387,2.8925476
1430940353.402,6.8744354
1430940353.418,10.574387
1430940353.434,14.022369
1430940353.449,17.458878
1430940353.465,21.35138
1430940353.481,26.156342
1430940353.496,32.07483
1430940353.512,38.80159
1430940353.527,45.474655
1430940353.543,50.838516
1430940353.559,53.584885
1430940353.574,52.73703
1430940353.59,47.922836
1430940353.606,39.45543
1430940353.621,28.256012
1430940353.637,15.622421
1430940353.652,2.9698029
1430940353.668,-8.425827
1430940353.684,-17.62648
1430940353.699,-24.180435
1430940353.715,-28.076065
1430940353.731,-29.696503
1430940353.746,-29.581451
1430940353.762,-28.31923
1430940353.777,-26.393097
1430940353.793,-24.197601
1430940353.809,-22.043793
1430940353.824,-20.232742
1430940353.84,-19.006927
1430940353.856,-18.539612
1430940353.871,-18.850632
1430940353.887,-19.789627
1430940353.902,-21.094894
1430940353.918,-22.434067
1430940353.934,-23.50557
1430940353.949,-24.104797
1430940353.965,-24.146591
1430940353.981,-23.66124
1430940353.996,-22.717575
1430940354.012,-21.385727
1430940354.028,-19.665192
1430940354.043,-17.504196
1430940354.059,-14.7574005
1430940354.074,-11.296066
1430940354.09,-7.006241
1430940354.106,-1.8684845
1430940354.121,4.041336
1430940354.137,10.496674
1430940354.153,17.140854
1430940354.168,23.483063
1430940354.184,29.050522
1430940354.199,33.50566
1430940354.215,36.794662
1430940354.231,39.15724
1430940354.246,41.077377
1430940354.262,43.076736
1430940354.278,45.585144
1430940354.293,48.795654
1430940354.309,52.584793
1430940354.324,56.308914
1430940354.34,58.778137
1430940354.356,58.36325
1430940354.371,53.585785
1430940354.387,43.76947
1430940354.403,29.59311
1430940354.418,13.033417
1430940354.434,-3.331543
1430940354.449,-17.285736
1430940354.465,-27.792084
1430940354.481,-35.101227
1430940354.496,-40.178925
1430940354.512,-43.897247
1430940354.528,-46.487457
1430940354.543,-47.58307
1430940354.559,-46.750153
1430940354.574,-44.04779
1430940354.59,-40.18097
1430940354.606,-36.230164
1430940354.621,-33.07617
1430940354.637,-31.020905
1430940354.653,-29.786438
1430940354.668,-28.874573
1430940354.684,-27.936157
1430940354.699,-27.004486
1430940354.715,-26.449646
1430940354.731,-26.68927
1430940354.746,-27.8862
1430940354.762,-29.775452
1430940354.778,-31.721375
1430940354.793,-32.98163
1430940354.809,-32.99402
1430940354.824,-31.585419
1430940354.84,-28.97879
1430940354.856,-25.661499
1430940354.871,-22.090271
1430940354.887,-18.520935
1430940354.903,-14.961761
1430940354.918,-11.245148
1430940354.934,-7.1980286
1430940354.949,-2.7770386
1430940354.965,1.8795166
1430940354.981,6.510132
1430940354.996,10.81955
1430940355.012,14.602356
1430940355.028,17.806396
1430940355.043,20.553284
1430940355.059,23.118591
1430940355.074,25.917633
1430940355.09,29.35617
1430940355.106,33.707306
1430940355.121,38.924133
1430940355.137,44.491577
1430940355.153,49.4209
1430940355.168,52.429077
1430940355.184,52.297516
1430940355.199,48.298676
1430940355.215,40.490295
1430940355.231,29.727234
1430940355.246,17.40216
1430940355.262,5.0210876
1430940355.278,-6.202545
1430940355.293,-15.530121
1430940355.309,-22.709717
1430940355.324,-27.813599
1430940355.34,-31.070374
1430940355.356,-32.743378
1430940355.371,-33.155
1430940355.387,-32.61139
1430940355.403,-31.460938
1430940355.418,-29.98642
1430940355.434,-28.408936
1430940355.449,-26.868744
1430940355.465,-25.474579
1430940355.481,-24.353943
1430940355.496,-23.638153
1430940355.512,-23.42102
1430940355.528,-23.728699
1430940355.543,-24.465088
1430940355.559,-25.450867
1430940355.574,-26.432037
1430940355.59,-27.13623
1430940355.606,-27.258087
1430940355.621,-26.548035
1430940355.637,-24.84665
1430940355.653,-22.203339
1430940355.668,-18.8721
1430940355.684,-15.248718
1430940355.699,-11.687897
1430940355.715,-8.378082
1430940355.731,-5.252594
1430940355.746,-2.0877686
1430940355.762,1.3564758
1430940355.778,5.168518
1430940355.793,9.240662
1430940355.809,13.345123
1430940355.824,17.27835
1430940355.84,20.947235
1430940355.856,24.428772
1430940355.871,27.884125
1430940355.887,31.54007
1430940355.903,35.553284
1430940355.918,40.000977
1430940355.934,44.7493
1430940355.949,49.39212
1430940355.965,53.199677
1430940355.981,55.177094
1430940355.996,54.32718
1430940356.012,49.987274
1430940356.028,42.075287
1430940356.043,31.201233
1430940356.059,18.541504
1430940356.074,5.501587
1430940356.09,-6.6223755
1430940356.106,-16.903564
1430940356.121,-24.903625
1430940356.137,-30.582947
1430940356.153,-34.148224
1430940356.168,-35.920105
1430940356.184,-36.23471
1430940356.199,-35.417236
1430940356.215,-33.848907
1430940356.231,-31.937927
1430940356.246,-30.10254
1430940356.262,-28.672058
1430940356.278,-27.796173
1430940356.293,-27.431793
1430940356.309,-27.378265
1430940356.324,-27.409515
1430940356.34,-27.366333
1430940356.356,-27.243896
1430940356.371,-27.108032
1430940356.387,-26.997375
1430940356.403,-26.839142
1430940356.418,-26.433105
1430940356.434,-25.529938
1430940356.449,-23.951477
1430940356.465,-21.694305
1430940356.481,-18.926727
1430940356.496,-15.919891
1430940356.512,-12.9410095
1430940356.528,-10.126801
1430940356.543,-7.4552
1430940356.559,-4.740204
1430940356.574,-1.7618713
1430940356.59,1.6222229
1430940356.606,5.364044
1430940356.621,9.263916
1430940356.637,13.013824
1430940356.653,16.383606
1430940356.668,19.29898
1430940356.684,21.910278
1430940356.7,24.496124
1430940356.715,27.406952
1430940356.731,30.922546
1430940356.746,35.168823
1430940356.762,40.011536
1430940356.778,44.976257
1430940356.793,49.224213
1430940356.809,51.681427
1430940356.825,51.28546
1430940356.84,47.347504
1430940356.856,39.817352
1430940356.871,29.413116
1430940356.887,17.41098
1430940356.903,5.3034363
1430940356.918,-5.662781
1430940356.934,-14.698364
1430940356.95,-21.56894
1430940356.965,-26.4021
1430940356.981,-29.492432
1430940356.996,-31.1138
1430940357.012,-31.48465
1430940357.028,-30.814972
1430940357.043,-29.368805
1430940357.059,-27.507751
1430940357.075,-25.628235
1430940357.09,-24.08905
1430940357.106,-23.106049
1430940357.121,-22.728333
1430940357.137,-22.868774
1430940357.153,-23.362213
1430940357.168,-24.06549
1430940357.184,-24.85971
1430940357.2,-25.659607
1430940357.215,-26.327667
1430940357.231,-26.677979
1430940357.246,-26.49942
1430940357.262,-25.6344
1430940357.278,-24.0542
1430940357.293,-21.875061
1430940357.309,-19.321838
1430940357.325,-16.609161
1430940357.34,-13.884216
1430940357.356,-11.188416
1430940357.371,-8.4487
1430940357.387,-5.579315
1430940357.403,-2.5039368
1430940357.418,0.76486206
1430940357.434,4.141083
1430940357.45,7.480652
1430940357.465,10.633911
1430940357.481,13.499756
1430940357.496,16.064667
1430940357.512,18.443176
1430940357.528,20.814331
1430940357.543,23.391968
1430940357.559,26.298859
1430940357.575,29.50235
1430940357.59,32.724335
1430940357.606,35.469727
1430940357.621,37.05069
1430940357.637,36.694214
1430940357.653,33.68463
1430940357.668,27.559967
1430940357.684,18.266861
1430940357.7,6.234421
1430940357.715,-7.683899
1430940357.731,-22.420654
1430940357.746,-36.956024
1430940357.762,-50.4971
1430940357.778,-62.544846
1430940357.793,-72.74916
1430940357.809,-80.794556
1430940357.825,-86.311615
1430940357.84,-88.98326
1430940357.856,-88.706726
1430940357.871,-85.76921
1430940357.887,-80.8199
1430940357.903,-74.69623
1430940357.918,-68.159164
1430940357.934,-61.679657
1430940357.95,-55.385468
1430940357.965,-49.23413
1430940357.981,-43.199036
1430940357.996,-37.403473
1430940358.012,-32.075302
1430940358.028,-27.373688
1430940358.043,-23.199997
1430940358.059,-19.192719
1430940358.075,-14.85112
1430940358.09,-9.828964
1430940358.106,-4.1455994
1430940358.121,1.7039642
1430940358.137,6.902771
1430940358.153,10.537178
1430940358.168,11.91526
1430940358.184,10.758209
1430940358.2,7.281227
1430940358.215,2.1569748
1430940358.231,-3.5984573
1430940358.246,-8.77858
1430940358.262,-12.200882
1430940358.278,-12.961708
1430940358.293,-10.691292
1430940358.309,-5.702301
1430940358.325,1.0993881
1430940358.34,8.563953
1430940358.356,15.747425
1430940358.371,22.19717
1430940358.387,27.969437
1430940358.403,33.26059
1430940358.418,37.924095
1430940358.434,41.193535
1430940358.45,41.9128
1430940358.465,39.071186
1430940358.481,32.46344
1430940358.496,22.95443
1430940358.512,12.180092
1430940358.528,1.839817
1430940358.543,-6.95409
1430940358.559,-13.96117
1430940358.575,-19.564613
1430940358.59,-24.237907
1430940358.606,-28.098068
1430940358.621,-30.84536
1430940358.637,-32.046333
1430940358.653,-31.554527
1430940358.668,-29.65458
1430940358.684,-26.971725
1430940358.7,-24.040459
1430940358.715,-21.04181
1430940358.731,-17.664833
1430940358.746,-13.428925
1430940358.762,-8.04245
1430940358.778,-1.7241058
1430940358.793,4.793335
1430940358.809,10.517212
1430940358.825,14.605316
1430940358.84,16.685867
1430940358.856,16.967117
1430940358.871,16.074585
1430940358.887,14.84523
1430940358.903,14.106918
1430940358.918,14.5952
1430940358.934,16.911362
1430940358.95,21.426651
1430940358.965,28.088837
1430940358.981,36.338287
1430940358.996,45.10727
1430940359.012,53.127823
1430940359.028,59.347366
1430940359.043,63.297073
1430940359.059,65.15097
1430940359.075,65.459015
1430940359.09,64.6673
1430940359.106,62.74359
1430940359.121,59.16684
1430940359.137,53.30719
1430940359.153,44.963257
1430940359.168,34.80609
1430940359.184,24.3461
1430940359.2,15.550446
1430940359.215,10.129913
1430940359.231,8.921539
1430940359.246,11.547119
1430940359.262,16.597107
1430940359.278,22.113373
1430940359.293,26.329254
1430940359.309,28.117004
1430940359.325,27.231964
1430940359.34,24.117188
1430940359.356,19.54068
1430940359.372,14.295349
1430940359.387,9.075836
1430940359.403,4.4942017
1430940359.418,1.159729
1430940359.434,-0.37548828
1430940359.45,0.26757813
1430940359.465,3.0925598
1430940359.481,7.6530457
1430940359.496,13.113373
1430940359.512,18.504486
1430940359.528,23.053436
1430940359.543,26.441223
1430940359.559,28.841095
1430940359.575,30.804077
1430940359.59,32.92157
1430940359.606,35.529327
1430940359.622,38.441406
1430940359.637,41.003937
1430940359.653,42.29135
1430940359.668,41.528625
1430940359.684,38.40619
1430940359.7,33.258423
1430940359.715,26.93341
1430940359.731,20.470978
1430940359.747,14.745514
1430940359.762,10.293091
1430940359.778,7.2809753
1430940359.793,5.6300964
1430940359.809,5.138916
1430940359.825,5.5349426
1430940359.84,6.4250793
1430940359.856,7.3249207
1430940359.872,7.692993
1430940359.887,7.109894
1430940359.903,5.405365
1430940359.918,2.7861023
1430940359.934,-0.2810974
1430940359.95,-3.190216
1430940359.965,-5.412567
1430940359.981,-6.530487
1430940359.997,-6.302948
1430940360.012,-4.675537
1430940360.028,-1.8314819
1430940360.043,1.7210999
1430940360.059,5.1576843
1430940360.075,7.512909
1430940360.09,7.952667
1430940360.106,6.088867
1430940360.122,2.1277466
1430940360.137,-3.207489
1430940360.153,-9.000763
1430940360.168,-14.475037
1430940360.184,-19.215576
1430940360.2,-23.131592
1430940360.215,-26.253906
1430940360.231,-28.453278
1430940360.247,-29.386993
1430940360.262,-28.59134
1430940360.278,-25.782043
1430940360.293,-21.129578
1430940360.309,-15.303619
1430940360.325,-9.299744
1430940360.34,-4.092041
1430940360.356,-0.26519775
1430940360.372,2.116211
1430940360.387,3.4301147
1430940360.403,4.174011
1430940360.418,4.7027893
1430940360.434,5.04895
1430940360.45,5.055603
1430940360.465,4.567444
1430940360.481,3.6715393
1430940360.497,2.674652
1430940360.512,1.973999
1430940360.528,1.7978516
1430940360.543,2.1071777
1430940360.559,2.6293335
1430940360.575,3.083252
1430940360.59,3.3371582
1430940360.606,3.5102844
1430940360.622,3.8770447
1430940360.637,4.7375793
1430940360.653,6.256378
1430940360.668,8.480011
1430940360.684,11.360992
1430940360.7,14.8029785
1430940360.715,18.634308
1430940360.731,22.540375
1430940360.747,26.010406
1430940360.762,28.39859
1430940360.778,29.070038
1430940360.793,27.65036
1430940360.809,24.135132
1430940360.825,18.939697
1430940360.84,12.731323
1430940360.856,6.262268
1430940360.872,0.13647461
1430940360.887,-5.2132263
1430940360.903,-9.575378
1430940360.918,-12.846924
1430940360.934,-14.9964905
1430940360.95,-16.018127
1430940360.965,-15.998383
1430940360.981,-15.099609
1430940360.997,-13.608063
1430940361.012,-11.843323
1430940361.028,-10.101379
1430940361.043,-8.534393
1430940361.059,-7.1440735
1430940361.075,-5.8101807
1430940361.09,-4.407654
1430940361.106,-2.8740234
1430940361.122,-1.2617493
1430940361.137,0.2966919
1430940361.153,1.6286926
1430940361.168,2.6036072
1430940361.184,3.1551208
1430940361.2,3.3388367
1430940361.215,3.3007202
1430940361.231,3.2814026
1430940361.247,3.5553894
1430940361.262,4.318573
1430940361.278,5.669861
1430940361.293,7.5811462
1430940361.309,9.904083
1430940361.325,12.488678
1430940361.34,15.236755
1430940361.356,18.142395
1430940361.372,21.27002
1430940361.387,24.705353
1430940361.403,28.494507
1430940361.418,32.58954
1430940361.434,36.789825
1430940361.45,40.702057
1430940361.465,43.737366
1430940361.481,45.196472
1430940361.497,44.450928
1430940361.512,41.20291
1430940361.528,35.6214
1430940361.543,28.381378
1430940361.559,20.440735
1430940361.575,12.747162
1430940361.59,5.9012146
1430940361.606,0.07400513
1430940361.622,-4.9500427
1430940361.637,-9.516907
1430940361.653,-13.88385
1430940361.668,-18.104004
1430940361.684,-22.06128
1430940361.7,-25.591705
1430940361.715,-28.60199
1430940361.731,-31.075897
1430940361.747,-33.07132
1430940361.762,-34.63141
1430940361.778,-35.72574
1430940361.793,-36.227722
1430940361.809,-35.978027
1430940361.825,-34.857178
1430940361.84,-32.877655
1430940361.856,-30.143677
1430940361.872,-26.80478
1430940361.887,-22.93338
1430940361.903,-18.509583
1430940361.918,-13.440094
1430940361.934,-7.7210693
1430940361.95,-1.5145569
1430940361.965,4.755951
1430940361.981,10.546661
1430940361.997,15.337097
1430940362.012,18.857086
1430940362.028,21.177917
1430940362.044,22.686584
1430940362.059,23.942749
1430940362.075,25.520935
1430940362.09,27.862366
1430940362.106,31.166443
1430940362.122,35.284637
1430940362.137,39.694244
1430940362.153,43.507385
1430940362.168,45.67978
1430940362.184,45.27301
1430940362.2,41.856567
1430940362.215,35.632294
1430940362.231,27.45044
1430940362.247,18.517822
1430940362.262,9.969986
1430940362.278,2.5043488
1430940362.294,-3.7614746
1430940362.309,-9.209946
1430940362.325,-14.4149475
1430940362.34,-19.815659
1430940362.356,-25.46962
1430940362.372,-31.028564
1430940362.387,-35.9001
1430940362.403,-39.522293
1430940362.419,-41.55983
1430940362.434,-42.00917
1430940362.45,-41.10617
1430940362.465,-39.20076
1430940362.481,-36.590546
1430940362.497,-33.474457
1430940362.512,-30.005066
1430940362.528,-26.37944
1430940362.544,-22.859192
1430940362.559,-19.73256
1430940362.575,-17.19078
1430940362.59,-15.248749
1430940362.606,-13.718185
1430940362.622,-12.328842
1430940362.637,-10.789154
1430940362.653,-8.926071
1430940362.669,-6.641815
1430940362.684,-3.9679718
1430940362.7,-0.9637909
1430940362.715,2.2343903
1430940362.731,5.4714966
1430940362.747,8.582947
1430940362.762,11.454544
1430940362.778,14.071075
1430940362.794,16.552536
1430940362.809,19.130081
1430940362.825,22.084503
1430940362.84,25.656052
1430940362.856,29.939941
1430940362.872,34.771866
1430940362.887,39.676773
1430940362.903,43.81169
1430940362.919,46.137833
1430940362.934,45.591827
1430940362.95,41.468872
1430940362.965,33.66324
1430940362.981,22.816605
1430940362.997,10.183945
1430940363.012,-2.6786804
1430940363.028,-14.359589
1430940363.044,-23.89627
1430940363.059,-30.953995
1430940363.075,-35.7052
1430940363.09,-38.630615
1430940363.106,-40.246063
1430940363.122,-40.926697
1430940363.137,-40.867706
1430940363.153,-40.167084
1430940363.169,-38.90851
1430940363.184,-37.235077
1430940363.2,-35.342392
1430940363.215,-33.430084
1430940363.231,-31.613876
1430940363.247,-29.933777
1430940363.262,-28.387543
1430940363.278,-26.997833
1430940363.294,-25.878891
1430940363.309,-25.197098
1430940363.325,-25.098236
1430940363.34,-25.567245
1430940363.356,-26.349289
1430940363.372,-27.006592
1430940363.387,-27.021835
1430940363.403,-26.050812
1430940363.419,-24.000595
1430940363.434,-21.087372
1430940363.45,-17.680145
1430940363.465,-14.130753
1430940363.481,-10.602188
1430940363.497,-7.0364075
1430940363.512,-3.2625885
1430940363.528,0.85139465
1430940363.544,5.2776337
1430940363.559,9.763779
1430940363.575,13.989136
1430940363.59,17.649216
1430940363.606,20.65039
1430940363.622,23.143448
1430940363.637,25.51921
1430940363.653,28.269836
1430940363.669,31.895752
1430940363.684,36.701324
1430940363.7,42.67079
1430940363.715,49.322113
1430940363.731,55.732834
1430940363.747,60.653183
1430940363.762,62.85312
1430940363.778,61.49196
1430940363.794,56.40883
1430940363.809,48.198654
1430940363.825,38.039154
1430940363.84,27.289581
1430940363.856,17.13507
1430940363.872,8.278458
1430940363.887,0.92858887
1430940363.903,-5.0806885
1430940363.919,-10.053848
1430940363.934,-14.266541
1430940363.95,-17.832993
1430940363.965,-20.784836
1430940363.981,-23.083862
1430940363.997,-24.759964
1430940364.012,-25.935333
1430940364.028,-26.79042
1430940364.044,-27.476181
1430940364.059,-28.06482
1430940364.075,-28.53508
1430940364.09,-28.823761
1430940364.106,-28.911331
1430940364.122,-28.87204
1430940364.137,-28.790924
1430940364.153,-28.73822
1430940364.169,-28.677002
1430940364.184,-28.45279
1430940364.2,-27.86055
1430940364.215,-26.73323
1430940364.231,-24.9962
1430940364.247,-22.737854
1430940364.262,-20.151184
1430940364.278,-17.486694
1430940364.294,-14.938751
1430940364.309,-12.582306
1430940364.325,-10.307571
1430940364.34,-7.877594
1430940364.356,-5.006363
1430940364.372,-1.5219116
1430940364.387,2.5303192
1430940364.403,6.8743134
1430940364.419,11.0963745
1430940364.434,14.827332
1430940364.45,17.901978
1430940364.465,20.402115
1430940364.481,22.605988
1430940364.497,24.886307
1430940364.512,27.583542
1430940364.528,30.962463
1430940364.544,35.14763
1430940364.559,40.07782
1430940364.575,45.395844
1430940364.59,50.390778
1430940364.606,54.06653
1430940364.622,55.359146
1430940364.637,53.451447
1430940364.653,48.11029
1430940364.669,39.79457
1430940364.684,29.545288
1430940364.7,18.66919
1430940364.715,8.3759
1430940364.731,-0.5285187
1430940364.747,-7.7164307
1430940364.762,-13.281311
1430940364.778,-17.494186
1430940364.794,-20.670792
1430940364.809,-22.995789
1430940364.825,-24.601974
1430940364.84,-25.568848
1430940364.856,-26.059814
1430940364.872,-26.269424
1430940364.887,-26.422241
1430940364.903,-26.666779
1430940364.919,-27.002838
1430940364.934,-27.302948
1430940364.95,-27.40715
1430940364.966,-27.230148
1430940364.981,-26.840012
1430940364.997,-26.40068
1430940365.012,-26.09816
1430940365.028,-25.97667
1430940365.044,-25.895218
1430940365.059,-25.563034
1430940365.075,-24.652054
1430940365.091,-22.948349
1430940365.106,-20.438614
1430940365.122,-17.323715
1430940365.137,-13.9613495
1430940365.153,-10.709152
1430940365.169,-7.7785645
1430940365.184,-5.1419067
1430940365.2,-2.5707245
1430940365.216,0.23434448
1430940365.231,3.4430084
1430940365.247,7.008255
1430940365.262,10.645203
1430940365.278,14.026093
1430940365.294,16.911713
1430940365.309,19.2995
1430940365.325,21.40216
1430940365.341,23.59581
1430940365.356,26.242737
1430940365.372,29.62468
1430940365.387,33.77614
1430940365.403,38.44377
1430940365.419,42.987595
1430940365.434,46.481377
1430940365.45,47.892487
1430940365.466,46.369896
1430940365.481,41.58551
1430940365.497,33.861008
1430940365.512,24.147118
1430940365.528,13.740509
1430940365.544,3.894722
1430940365.559,-4.4846344
1430940365.575,-11.020454
1430940365.591,-15.804153
1430940365.606,-19.225197
1430940365.622,-21.723907
1430940365.637,-23.637642
1430940365.653,-25.082405
1430940365.669,-26.046326
1430940365.684,-26.482468
1430940365.7,-26.444733
1430940365.716,-26.105858
1430940365.731,-25.714615
1430940365.747,-25.448792
1430940365.762,-25.331154
1430940365.778,-25.23095
1430940365.794,-24.953499
1430940365.809,-24.417885
1430940365.825,-23.671478
1430940365.841,-22.897766
1430940365.856,-22.288765
1430940365.872,-21.905357
1430940365.887,-21.665375
1430940365.903,-21.340393
1430940365.919,-20.7453
1430940365.934,-19.770348
1430940365.95,-18.475395
1430940365.966,-16.956757
1430940365.981,-15.2895355
1430940365.997,-13.427002
1430940366.012,-11.21727
1430940366.028,-8.48838
1430940366.044,-5.1387253
1430940366.059,-1.2210846
1430940366.075,3.034851
1430940366.091,7.3076935
1430940366.106,11.281029
1430940366.122,14.766998
1430940366.137,17.735634
1430940366.153,20.35308
1430940366.169,22.900131
1430940366.184,25.713997
1430940366.2,29.085358
1430940366.216,33.203506
1430940366.231,38.01362
1430940366.247,43.151566
1430940366.262,47.878128
1430940366.278,51.170288
1430940366.294,51.98346
1430940366.309,49.580734
1430940366.325,43.862877
1430940366.341,35.458893
1430940366.356,25.52549
1430940366.372,15.395523
1430940366.387,6.1167755
1430940366.403,-1.745636
1430940366.419,-8.152344
1430940366.434,-13.32193
1430940366.45,-17.515121
1430940366.466,-20.863678
1430940366.481,-23.384209
1430940366.497,-25.052986
1430940366.512,-25.915024
1430940366.528,-26.119087
1430940366.544,-25.911499
1430940366.559,-25.530571
1430940366.575,-25.178154
1430940366.591,-24.954948
1430940366.606,-24.875114
1430940366.622,-24.84961
1430940366.637,-24.786705
1430940366.653,-24.61184
1430940366.669,-24.334297
1430940366.684,-24.03257
1430940366.7,-23.785843
1430940366.716,-23.594055
1430940366.731,-23.359818
1430940366.747,-22.864433
1430940366.762,-21.883041
1430940366.778,-20.291084
1430940366.794,-18.156776
1430940366.809,-15.706078
1430940366.825,-13.246674
1430940366.841,-11.023743
1430940366.856,-9.141922
1430940366.872,-7.499428
1430940366.887,-5.884987
1430940366.903,-4.048752
1430940366.919,-1.8104477
1430940366.934,0.90055084
1430940366.95,4.0272293
1430940366.966,7.456215
1430940366.981,11.000824
1430940366.997,14.474075
1430940367.012,17.722794
1430940367.028,20.658012
1430940367.044,23.298538
1430940367.059,25.795425
1430940367.075,28.386429
1430940367.091,31.366974
1430940367.106,34.9606
1430940367.122,39.19969
1430940367.137,43.81163
1430940367.153,48.15085
1430940367.169,51.267883
1430940367.184,52.138596
1430940367.2,49.98259
1430940367.216,44.592224
1430940367.231,36.447617
1430940367.247,26.643555
1430940367.262,16.508362
1430940367.278,7.229553
1430940367.294,-0.5151291
1430940367.309,-6.5955963
1430940367.325,-11.299072
1430940367.341,-15.040512
1430940367.356,-18.16542
1430940367.372,-20.777817
1430940367.387,-22.826004
1430940367.403,-24.211777
1430940367.419,-24.9105
1430940367.434,-25.029816
1430940367.45,-24.795944
1430940367.466,-24.458267
1430940367.481,-24.226967
1430940367.497,-24.187698
1430940367.512,-24.319443
1430940367.528,-24.513329
1430940367.544,-24.658958
1430940367.559,-24.633392
1430940367.575,-24.330345
1430940367.591,-23.594711
1430940367.606,-22.28376
1430940367.622,-20.289879
1430940367.638,-17.650497
1430940367.653,-14.538429
1430940367.669,-11.260147
1430940367.684,-8.114197
1430940367.7,-5.311157
1430940367.716,-2.8792114
1430940367.731,-0.7623062
1430940367.747,1.1399765
1430940367.763,2.862297
1430940367.778,4.415306
1430940367.794,5.827011
1430940367.809,7.2123566
1430940367.825,8.734352
1430940367.841,10.551758
1430940367.856,12.66954
1430940367.872,14.976372
1430940367.888,17.25888
1430940367.903,19.339508
1430940367.919,21.149796
1430940367.934,22.765198
1430940367.95,24.343834
1430940367.966,26.130775
1430940367.981,28.372337
1430940367.997,31.319344
1430940368.013,35.062347
1430940368.028,39.449905
1430940368.044,43.88819
1430940368.059,47.43725
1430940368.075,48.97885
1430940368.091,47.59111
1430940368.106,42.9309
1430940368.122,35.35856
1430940368.138,25.818169
1430940368.153,15.5156555
1430940368.169,5.573227
1430940368.184,-3.1908875
1430940368.2,-10.345375
1430940368.216,-15.789505
1430940368.231,-19.666328
1430940368.247,-22.257088
1430940368.263,-23.912346
1430940368.278,-24.936874
1430940368.294,-25.535385
1430940368.309,-25.790627
1430940368.325,-25.72467
1430940368.341,-25.349312
1430940368.356,-24.77713
1430940368.372,-24.171608
1430940368.388,-23.700005
1430940368.403,-23.43412
1430940368.419,-23.346916
1430940368.434,-23.349289
1430940368.45,-23.385078
1430940368.466,-23.479462
1430940368.481,-23.70568
1430940368.497,-24.07914
1430940368.513,-24.48494
1430940368.528,-24.655159
1430940368.544,-24.317902
1430940368.559,-23.249962
1430940368.575,-21.437668
1430940368.591,-19.093842
1430940368.606,-16.565742
1430940368.622,-14.172707
1430940368.638,-12.0951
1430940368.653,-10.270233
1430940368.669,-8.453339
1430940368.684,-6.328354
1430940368.7,-3.6873856
1430940368.716,-0.46943665
1430940368.731,3.175293
1430940368.747,6.9872055
1430940368.763,10.681465
1430940368.778,14.066772
1430940368.794,17.077415
1430940368.809,19.8489
1430940368.825,22.64637
1430940368.841,25.812271
1430940368.856,29.597115
1430940368.872,34.00441
1430940368.888,38.635986
1430940368.903,42.727234
1430940368.919,45.261116
1430940368.934,45.33426
1430940368.95,42.41484
1430940368.966,36.56443
1430940368.981,28.422005
1430940368.997,19.020317
1430940369.013,9.461288
1430940369.028,0.68836975
1430940369.044,-6.72805
1430940369.059,-12.586121
1430940369.075,-16.942581
1430940369.091,-19.995262
1430940369.106,-21.965126
1430940369.122,-23.03238
1430940369.138,-23.367706
1430940369.153,-23.136475
1430940369.169,-22.535774
1430940369.184,-21.752876
1430940369.2,-20.958588
1430940369.216,-20.222855
1430940369.231,-19.551834
1430940369.247,-18.898216
1430940369.263,-18.259605
1430940369.278,-17.685455
1430940369.294,-17.31556
1430940369.309,-17.261688
1430940369.325,-17.560966
1430940369.341,-18.055504
1430940369.356,-18.459724
1430940369.372,-18.42627
1430940369.388,-17.708405
1430940369.403,-16.2481
1430940369.419,-14.230644
1430940369.434,-11.93988
1430940369.45,-9.661774
1430940369.466,-7.5224304
1430940369.481,-5.4347
1430940369.497,-3.1846313
1430940369.513,-0.5525894
1430940369.528,2.588646
1430940369.544,6.175606
1430940369.559,9.981491
1430940369.575,13.709343
1430940369.591,17.089317
1430940369.606,20.006142
1430940369.622,22.531563
1430940369.638,24.949638
1430940369.653,27.711334
1430940369.669,31.28341
1430940369.684,35.978775
1430940369.7,41.709152
1430940369.716,47.816734
1430940369.731,53.116898
1430940369.747,56.15705
1430940369.763,55.640602
1430940369.778,50.90554
1430940369.794,42.212715
1430940369.809,30.694931
1430940369.825,18.022804
1430940369.841,5.8567276
1430940369.856,-4.566185
1430940369.872,-12.657936
1430940369.888,-18.399727
1430940369.903,-22.076492
1430940369.919,-24.0392
1430940369.934,-24.57695
1430940369.95,-23.96077
1430940369.966,-22.539375
1430940369.981,-20.76596
1430940369.997,-19.140892
1430940370.013,-18.097298
1430940370.028,-17.860771
1430940370.044,-18.401405
1430940370.059,-19.481628
1430940370.075,-20.755089
1430940370.091,-21.899803
1430940370.106,-22.657722
1430940370.122,-22.913132
1430940370.138,-22.64721
1430940370.153,-21.916206
1430940370.169,-20.814117
1430940370.184,-19.409561
1430940370.2,-17.741425
1430940370.216,-15.823059
1430940370.231,-13.646217
1430940370.247,-11.270309
1430940370.263,-8.818573
1430940370.278,-6.4746704
1430940370.294,-4.423485
1430940370.31,-2.763832
1430940370.325,-1.3931046
1430940370.341,-0.04283142
1430940370.356,1.6846695
1430940370.372,4.133812
1430940370.388,7.441551
1430940370.403,11.445152
1430940370.419,15.709427
1430940370.434,19.68467
1430940370.45,22.964554
1430940370.466,25.430603
1430940370.481,27.34906
1430940370.497,29.283684
1430940370.513,31.864204
1430940370.528,35.55433
1430940370.544,40.473663
1430940370.56,46.24817
1430940370.575,52.063995
1430940370.591,56.760815
1430940370.606,59.132866
1430940370.622,58.203495
1430940370.638,53.578712
1430940370.653,45.567932
1430940370.669,35.119995
1430940370.685,23.566113
1430940370.7,12.227722
1430940370.716,2.0775108
1430940370.731,-6.3593483
1430940370.747,-12.992466
1430940370.763,-17.997063
1430940370.778,-21.6414
1430940370.794,-24.196705
1430940370.81,-25.943626
1430940370.825,-27.13366
1430940370.841,-27.99921
1430940370.856,-28.6996
1430940370.872,-29.26118
1430940370.888,-29.620037
1430940370.903,-29.686924
1430940370.919,-29.413246
1430940370.935,-28.87436
1430940370.95,-28.230495
1430940370.966,-27.69854
1430940370.981,-27.484924
1430940370.997,-27.70103
1430940371.013,-28.310413
1430940371.028,-29.144627
1430940371.044,-29.876705
1430940371.06,-30.132963
1430940371.075,-29.557848
1430940371.091,-27.946981
1430940371.106,-25.300701
1430940371.122,-21.86669
1430940371.138,-18.06387
1430940371.153,-14.36628
1430940371.169,-11.112635
1430940371.185,-8.39889
1430940371.2,-6.05464
1430940371.216,-3.769167
1430940371.231,-1.2152863
1430940371.247,1.7802258
1430940371.263,5.2276936
1430940371.278,8.957861
1430940371.294,12.75208
1430940371.31,16.419378
1430940371.325,19.909126
1430940371.341,23.31929
1430940371.356,26.90283
1430940371.372,30.972363
1430940371.388,35.809998
1430940371.403,41.484684
1430940371.419,47.71491
1430940371.435,53.75432
1430940371.45,58.500645
1430940371.466,60.738403
1430940371.481,59.501057
1430940371.497,54.412117
1430940371.513,45.87341
1430940371.528,34.952766
1430940371.544,23.092001
1430940371.56,11.671553
1430940371.575,1.6747036
1430940371.591,-6.493615
1430940371.606,-12.894381
1430940371.622,-17.87905
1430940371.638,-21.772577
1430940371.653,-24.782835
1430940371.669,-26.95377
1430940371.685,-28.277485
1430940371.7,-28.76083
1430940371.716,-28.535015
1430940371.731,-27.818161
1430940371.747,-26.873596
1430940371.763,-25.93981
1430940371.778,-25.201197
1430940371.794,-24.786116
1430940371.81,-24.784258
1430940371.825,-25.214092
1430940371.841,-26.020208
1430940371.856,-27.02474
1430940371.872,-27.914997
1430940371.888,-28.324654
1430940371.903,-27.907152
1430940371.919,-26.472311
1430940371.935,-24.082436
1430940371.95,-21.026796
1430940371.966,-17.753862
1430940371.981,-14.647297
1430940371.997,-11.8784485
1430940372.013,-9.339888
1430940372.028,-6.7186527
1430940372.044,-3.687893
1430940372.06,-0.09838867
1430940372.075,3.957405
1430940372.091,8.171913
1430940372.106,12.230614
1430940372.122,15.951927
1430940372.138,19.36296
1430940372.153,22.676373
1430940372.169,26.15715
1430940372.185,30.060123
1430940372.2,34.5467
1430940372.216,39.64051
1430940372.231,45.078514
1430940372.247,50.22983
1430940372.263,54.114113
1430940372.278,55.542065
1430940372.294,53.53192
1430940372.31,47.687405
1430940372.325,38.4858
1430940372.341,27.128975
1430940372.356,15.202541
1430940372.372,4.1647453
1430940372.388,-5.066696
1430940372.403,-12.241787
1430940372.419,-17.616703
1430940372.435,-21.663872
1430940372.45,-24.771175
1430940372.466,-27.120445
1430940372.481,-28.707596
1430940372.497,-29.447971
1430940372.513,-29.351742
1430940372.528,-28.576935
1430940372.544,-27.418785
1430940372.56,-26.221931
1430940372.575,-25.271576
1430940372.591,-24.718971
1430940372.606,-24.577606
1430940372.622,-24.78064
1430940372.638,-25.222702
1430940372.653,-25.811546
1430940372.669,-26.398605
1430940372.685,-26.79573
1430940372.7,-26.752457
1430940372.716,-26.039352
1430940372.731,-24.561676
1430940372.747,-22.43972
1430940372.763,-19.925064
1430940372.778,-17.320694
1430940372.794,-14.798012
1430940372.81,-12.34742
1430940372.825,-9.768761
1430940372.841,-6.814415
1430940372.856,-3.3529053
1430940372.872,0.5897217
1430940372.888,4.8176575
1430940372.903,9.082535
1430940372.919,13.210045
1430940372.935,17.167046
1430940372.95,21.08548
1430940372.966,25.173447
1430940372.982,29.682236
1430940372.997,34.765625
1430940373.013,40.462166
1430940373.028,46.535988
1430940373.044,52.420692
1430940373.06,57.2241
1430940373.075,59.80648
1430940373.091,59.11657
1430940373.106,54.55223
1430940373.122,46.257828
1430940373.138,35.1753
1430940373.153,22.789368
1430940373.169,10.69072
1430940373.185,0.085250854
1430940373.2,-8.447899
1430940373.216,-14.980888
1430940373.232,-19.94094
1430940373.247,-23.843391
1430940373.263,-26.979576
1430940373.278,-29.433327
1430940373.294,-31.126297
1430940373.31,-32.019722
1430940373.325,-32.241463
1430940373.341,-32.056747
1430940373.357,-31.782417
1430940373.372,-31.636292
1430940373.388,-31.652802
1430940373.403,-31.713158
1430940373.419,-31.675034
1430940373.435,-31.505379
1430940373.45,-31.344612
1430940373.466,-31.443863
1430940373.482,-31.961136
1430940373.497,-32.820457
1430940373.513,-33.60128
1430940373.528,-33.719673
1430940373.544,-32.67182
1430940373.56,-30.286278
1430940373.575,-26.804138
1430940373.591,-22.792053
1430940373.607,-18.85196
1430940373.622,-15.360268
1430940373.638,-12.36515
1430940373.653,-9.603462
1430940373.669,-6.704048
1430940373.685,-3.3582458
1430940373.7,0.5442505
1430940373.716,4.9062347
1430940373.732,9.501358
1430940373.747,14.021004
1430940373.763,18.220306
1430940373.778,21.952812
1430940373.794,25.253983
1430940373.81,28.339073
1430940373.825,31.559547
1430940373.841,35.301445
1430940373.857,39.84912
1430940373.872,45.224625
1430940373.888,51.089363
1430940373.903,56.68544
1430940373.919,60.93625
1430940373.935,62.662506
1430940373.95,60.913727
1430940373.966,55.29206
1430940373.982,46.160965
1430940373.997,34.598312
1430940374.013,22.095055
1430940374.028,10.092819
1430940374.044,-0.38036346
1430940374.06,-8.905319
1430940374.075,-15.604202
1430940374.091,-20.876587
1430940374.107,-25.094627
1430940374.122,-28.481613
1430940374.138,-31.075348
1430940374.153,-32.846542
1430940374.169,-33.805054
1430940374.185,-34.048706
1430940374.2,-33.76985
1430940374.216,-33.20626
1430940374.232,-32.627472
1430940374.247,-32.246048
1430940374.263,-32.190933
1430940374.278,-32.46945
1430940374.294,-32.959908
1430940374.31,-33.517105
1430940374.325,-34.011635
1430940374.341,-34.43017
1430940374.357,-34.77436
1430940374.372,-34.99064
1430940374.388,-34.896347
1430940374.403,-34.188133
1430940374.419,-32.56035
1430940374.435,-29.877762
1430940374.45,-26.28466
1430940374.466,-22.18927
1430940374.482,-18.107918
1430940374.497,-14.437897
1430940374.513,-11.324875
1430940374.528,-8.646126
1430940374.544,-6.0830307
1430940374.56,-3.2893906
1430940374.575,-0.011230469
1430940374.591,3.8238678
1430940374.607,8.10997
1430940374.622,12.590401
1430940374.638,16.98156
1430940374.653,21.019753
1430940374.669,24.582603
1430940374.685,27.675766
1430940374.7,30.472435
1430940374.716,33.285164
1430940374.732,36.515656
1430940374.747,40.583015
1430940374.763,45.724724
1430940374.778,51.782173
1430940374.794,58.041023
1430940374.81,63.279594
1430940374.825,66.045425
1430940374.841,65.097565
1430940374.857,59.894653
1430940374.872,50.786873
1430940374.888,38.95855
1430940374.903,26.034431
1430940374.919,13.598526
1430940374.935,2.775589
1430940374.95,-5.9180374
1430940374.966,-12.556168
1430940374.982,-17.559677
1430940374.997,-21.426826
1430940375.013,-24.552116
1430940375.028,-27.12555
1430940375.044,-29.158089
1430940375.06,-30.581413
1430940375.075,-31.391785
1430940375.091,-31.688751
1430940375.107,-31.688156
1430940375.122,-31.6455
1430940375.138,-31.743126
1430940375.153,-32.03913
1430940375.169,-32.465485
1430940375.185,-32.91085
1430940375.2,-33.26789
1430940375.216,-33.492935
1430940375.232,-33.589317
1430940375.247,-33.545685
1430940375.263,-33.308228
1430940375.278,-32.768127
1430940375.294,-31.812584
1430940375.31,-30.380203
1430940375.325,-28.492561
1430940375.341,-26.268295
1430940375.357,-23.835556
1430940375.372,-21.324867
1430940375.388,-18.77713
1430940375.403,-16.170082
1430940375.419,-13.436798
1430940375.435,-10.522987
1430940375.45,-7.37764
1430940375.466,-3.9748383
1430940375.482,-0.29468536
1430940375.497,3.656784
1430940375.513,7.7946167
1430940375.528,11.937851
1430940375.544,15.874886
1430940375.56,19.435326
1430940375.575,22.597282
1430940375.591,25.497253
1430940375.607,28.422157
1430940375.622,31.695396
1430940375.638,35.610123
1430940375.653,40.354874
1430940375.669,45.96138
1430940375.685,52.190056
1430940375.7,58.468056
1430940375.716,63.819397
1430940375.732,67.04492
1430940375.747,66.96142
1430940375.763,62.89096
1430940375.778,54.901367
1430940375.794,43.89878
1430940375.81,31.327728
1430940375.825,18.730896
1430940375.841,7.3027115
1430940375.857,-2.31501
1430940375.872,-10.034996
1430940375.888,-16.057518
1430940375.904,-20.678513
1430940375.919,-24.091858
1430940375.935,-26.4161
1430940375.95,-27.749771
1430940375.966,-28.259094
1430940375.982,-28.173912
1430940375.997,-27.794449
1430940376.013,-27.375633
1430940376.029,-27.142258
1430940376.044,-27.190475
1430940376.06,-27.527283
1430940376.075,-28.090706
1430940376.091,-28.774162
1430940376.107,-29.481148
1430940376.122,-30.160507
1430940376.138,-30.786797
1430940376.154,-31.315445
1430940376.169,-31.638443
1430940376.185,-31.582321
1430940376.2,-30.91726
1430940376.216,-29.441391
1430940376.232,-27.067024
1430940376.247,-23.915527
1430940376.263,-20.255638
1430940376.279,-16.523582
1430940376.294,-13.115799
1430940376.31,-10.268959
1430940376.325,-7.9454346
1430940376.341,-5.8614655
1430940376.357,-3.607071
1430940376.372,-0.8195038
1430940376.388,2.6389847
1430940376.404,6.6300125
1430940376.419,10.836708
1430940376.435,14.916779
1430940376.45,18.668213
1430940376.466,22.059227
1430940376.482,25.224121
1430940376.497,28.302475
1430940376.513,31.471703
1430940376.529,34.889954
1430940376.544,38.78282
1430940376.56,43.358162
1430940376.575,48.64667
1430940376.591,54.24524
1430940376.607,59.225395
1430940376.622,62.252632
1430940376.638,62.01863
1430940376.654,57.723324
1430940376.669,49.482235
1430940376.685,38.312237
1430940376.7,25.832447
1430940376.716,13.683685
1430940376.732,3.090084
1430940376.747,-5.433815
1430940376.763,-11.944824
1430940376.779,-16.84446
1430940376.794,-20.55436
1430940376.81,-23.343239
1430940376.825,-25.298641
1430940376.841,-26.444427
1430940376.857,-26.836971
1430940376.872,-26.65635
1430940376.888,-26.16859
1430940376.904,-25.668411
1430940376.919,-25.378914
1430940376.935,-25.408669
1430940376.95,-25.72501
1430940376.966,-26.226257
1430940376.982,-26.784576
1430940376.997,-27.316845
1430940377.013,-27.792202
1430940377.029,-28.203491
1430940377.044,-28.532639
1430940377.06,-28.708656
1430940377.075,-28.637241
1430940377.091,-28.220901
1430940377.107,-27.39692
1430940377.122,-26.157253
1430940377.138,-24.531319
1430940377.154,-22.570744
1430940377.169,-20.308666
1430940377.185,-17.751083
1430940377.2,-14.903843
1430940377.216,-11.79982
1430940377.232,-8.494514
1430940377.247,-5.0591087
1430940377.263,-1.5605965
1430940377.279,1.9704742
1430940377.294,5.555031
1430940377.31,9.19677
1430940377.325,12.86673
1430940377.341,16.480488
1430940377.357,19.924023
1430940377.372,23.117195
1430940377.388,26.101227
1430940377.404,29.03038
1430940377.419,32.20006
1430940377.435,35.922417
1430940377.45,40.47162
1430940377.466,45.88741
1430940377.482,51.894905
1430940377.497,57.777096
1430940377.513,62.458195
1430940377.529,64.69311
1430940377.544,63.426067
1430940377.56,58.192963
1430940377.575,49.311695
1430940377.591,37.86417
1430940377.607,25.374516
1430940377.622,13.339352
1430940377.638,2.8284798
1430940377.654,-5.7066765
1430940377.669,-12.351978
1430940377.685,-17.495678
1430940377.7,-21.537064
1430940377.716,-24.741459
1430940377.732,-27.200436
1430940377.747,-28.918526
1430940377.763,-29.901775
1430940377.779,-30.24965
1430940377.794,-30.101204
1430940377.81,-29.666664
1430940377.825,-29.148838
1430940377.841,-28.723671
1430940377.857,-28.504292
1430940377.872,-28.558842
1430940377.888,-28.876282
1430940377.904,-29.423458
1430940377.919,-30.128132
1430940377.935,-30.884365
1430940377.95,-31.562569
1430940377.966,-32.022285
1430940377.982,-32.081192
1430940377.997,-31.601591
1430940378.013,-30.486845
1430940378.029,-28.715132
1430940378.044,-26.324335
1430940378.06,-23.443634
1430940378.075,-20.199173
1430940378.091,-16.76753
1430940378.107,-13.316233
1430940378.122,-10.003008
1430940378.138,-6.909794
1430940378.154,-4.030861
1430940378.169,-1.2021122
1430940378.185,1.8170204
1430940378.2,5.2354336
1430940378.216,9.13135
1430940378.232,13.383877
1430940378.247,17.702738
1430940378.263,21.76789
1430940378.279,25.34311
1430940378.294,28.400341
1430940378.31,31.107216
1430940378.325,33.80249
1430940378.341,36.88604
1430940378.357,40.723454
1430940378.372,45.50972
1430940378.388,51.122524
1430940378.404,57.02115
1430940378.419,62.210663
1430940378.435,65.4177
1430940378.45,65.41062
1430940378.466,61.39821
1430940378.482,53.377163
1430940378.497,42.194496
1430940378.513,29.348877
1430940378.529,16.494648
1430940378.544,5.024066
1430940378.56,-4.310667
1430940378.576,-11.405591
1430940378.591,-16.631687
1430940378.607,-20.508377
1430940378.622,-23.46338
1430940378.638,-25.70401
1430940378.654,-27.29617
1430940378.669,-28.255898
1430940378.685,-28.688608
1430940378.701,-28.794899
1430940378.716,-28.838932
1430940378.732,-29.023125
1430940378.747,-29.421814
1430940378.763,-29.94479
1430940378.779,-30.428057
1430940378.794,-30.707226
1430940378.81,-30.766556
1430940378.826,-30.68283
1430940378.841,-30.63718
1430940378.857,-30.718664
1430940378.872,-30.87675
1430940378.888,-30.89214
1430940378.904,-30.484625
1430940378.919,-29.432463
1430940378.935,-27.693802
1430940378.951,-25.370861
1430940378.966,-22.659275
1430940378.982,-19.730385
1430940378.997,-16.699749
1430940379.013,-13.6051655
1430940379.029,-10.494416
1430940379.044,-7.3970523
1430940379.06,-4.358194
1430940379.076,-1.3469049
1430940379.091,1.7004852
1430940379.107,4.908365
1430940379.122,8.347183
1430940379.138,12.020703
1430940379.154,15.808664
1430940379.169,19.528103
1430940379.185,23.010191
1430940379.201,26.169466
1430940379.216,29.048782
1430940379.232,31.851246
1430940379.247,34.899185
1430940379.263,38.558533
1430940379.279,43.109802
1430940379.294,48.563114
1430940379.31,54.476246
1430940379.326,59.941963
1430940379.341,63.686977
1430940379.357,64.45421
1430940379.372,61.391376
1430940379.388,54.452545
1430940379.404,44.429245
1430940379.419,32.750725
1430940379.435,20.99438
1430940379.451,10.405254
1430940379.466,1.6191487
1430940379.482,-5.3351293
1430940379.497,-10.756071
1430940379.513,-15.025678
1430940379.529,-18.36148
1430940379.544,-20.844868
1430940379.56,-22.50487
1430940379.576,-23.440832
1430940379.591,-23.885782
1430940379.607,-24.109241
1430940379.622,-24.355974
1430940379.638,-24.706799
1430940379.654,-25.131271
1430940379.669,-25.48938
1430940379.685,-25.697468
1430940379.701,-25.716751
1430940379.716,-25.63631
1430940379.732,-25.58853
1430940379.747,-25.7065
1430940379.763,-25.991653
1430940379.779,-26.3018
1430940379.794,-26.339113
1430940379.81,-25.766752
1430940379.826,-24.34175
1430940379.841,-22.030024
1430940379.857,-19.077274
1430940379.872,-15.91048
1430940379.888,-12.951732
1430940379.904,-10.463223
1430940379.919,-8.374737
1430940379.935,-6.3760943
1430940379.951,-4.027051
1430940379.966,-1.017775
1430940379.982,2.7078333
1430940379.997,6.9219093
1430940380.013,11.219162
1430940380.029,15.192887
1430940380.044,18.581118
1430940380.06,21.325254
1430940380.076,23.631168
1430940380.091,25.868835
1430940380.107,28.511795
1430940380.122,32.0025
1430940380.138,36.58901
1430940380.154,42.10781
1430940380.169,47.930565
1430940380.185,52.954243
1430940380.201,55.904633
1430940380.216,55.681313
1430940380.232,51.770844
1430940380.247,44.404987
1430940380.263,34.55392
1430940380.279,23.565092
1430940380.294,12.778944
1430940380.31,3.1472645
1430940380.326,-4.912191
1430940380.341,-11.471174
1430940380.357,-16.818197
1430940380.372,-21.233805
1430940380.388,-24.784504
1430940380.404,-27.389702
1430940380.419,-28.878038
1430940380.435,-29.243326
1430940380.451,-28.672453
1430940380.466,-27.554024
1430940380.482,-26.349094
1430940380.497,-25.418972
1430940380.513,-24.930674
1430940380.529,-24.887712
1430940380.544,-25.187592
1430940380.56,-25.71666
1430940380.576,-26.384335
1430940380.591,-27.117313
1430940380.607,-27.799675
1430940380.622,-28.28519
1430940380.638,-28.37902
1430940380.654,-27.927471
1430940380.669,-26.82395
1430940380.685,-25.060682
1430940380.701,-22.714247
1430940380.716,-19.94777
1430940380.732,-16.99293
1430940380.747,-14.082769
1430940380.763,-11.417367
1430940380.779,-9.083174
1430940380.794,-7.0176277
1430940380.81,-5.0036173
1430940380.826,-2.708816
1430940380.841,0.1646967
1430940380.857,3.7856479
1430940380.872,8.087645
1430940380.888,12.818725
1430940380.904,17.602509
1430940380.919,22.119865
1430940380.935,26.187586
1430940380.951,29.87601
1430940380.966,33.43064
1430940380.982,37.221848
1430940380.997,41.55644
1430940381.013,46.608307
1430940381.029,52.237633
1430940381.044,57.920956
1430940381.06,62.757828
1430940381.076,65.59969
1430940381.091,65.34496
1430940381.107,61.302814
1430940381.122,53.49282
1430940381.138,42.74073
1430940381.154,30.45676
1430940381.169,18.20696
1430940381.185,7.2006016
1430940381.201,-1.9599056
1430940381.216,-9.3286705
1430940381.232,-15.282185
1430940381.248,-20.22662
1430940381.263,-24.312986
1430940381.279,-27.494574
1430940381.294,-29.639528
1430940381.31,-30.743519
1430940381.326,-31.043385
1430940381.341,-30.937702
1430940381.357,-30.813604
1430940381.373,-30.88481
1430940381.388,-31.1438
1430940381.404,-31.424587
1430940381.419,-31.540009
1430940381.435,-31.461313
1430940381.451,-31.275692
1430940381.466,-31.168627
1430940381.482,-31.251377
1430940381.498,-31.5188
1430940381.513,-31.79324
1430940381.529,-31.815279
1430940381.544,-31.32099
1430940381.56,-30.159878
1430940381.576,-28.313927
1430940381.591,-25.875586
1430940381.607,-22.992811
1430940381.623,-19.846195
1430940381.638,-16.59795
1430940381.654,-13.423014
1430940381.669,-10.4534
1430940381.685,-7.737934
1430940381.701,-5.180725
1430940381.716,-2.5801659
1430940381.732,0.36253166
1430940381.748,3.844553
1430940381.763,7.911644
1430940381.779,12.373169
1430940381.794,16.894863
1430940381.81,21.136213
1430940381.826,24.91046
1430940381.841,28.23899
1430940381.857,31.335434
1430940381.873,34.55687
1430940381.888,38.281494
1430940381.904,42.785973
1430940381.919,48.150276
1430940381.935,54.092415
1430940381.951,59.918663
1430940381.966,64.5524
1430940381.982,66.75536
1430940381.998,65.45892
1430940382.013,60.17646
1430940382.029,51.152245
1430940382.044,39.401627
1430940382.06,26.381834
1430940382.076,13.603592
1430940382.091,2.2174911
1430940382.107,-7.1791496
1430940382.123,-14.56752
1430940382.138,-20.265915
1430940382.154,-24.702663
1430940382.169,-28.216202
1430940382.185,-30.965553
1430940382.201,-32.988987
1430940382.216,-34.29586
1430940382.232,-34.945473
1430940382.248,-35.066216
1430940382.263,-34.809155
1430940382.279,-34.328056
1430940382.294,-33.72838
1430940382.31,-33.12138
1430940382.326,-32.601746
1430940382.341,-32.253723
1430940382.357,-32.113808
1430940382.373,-32.16674
1430940382.388,-32.307335
1430940382.404,-32.41639
1430940382.419,-32.347794
1430940382.435,-31.957771
1430940382.451,-31.137077
1430940382.466,-29.798576
1430940382.482,-27.898087
1430940382.498,-25.489243
1430940382.513,-22.690125
1430940382.529,-19.696629
1430940382.544,-16.685936
1430940382.56,-13.791435
1430940382.576,-11.018211
1430940382.591,-8.275494
1430940382.607,-5.3979416
1430940382.623,-2.2250977
1430940382.638,1.3283997
1430940382.654,5.23341
1430940382.669,9.333443
1430940382.685,13.410217
1430940382.701,17.26656
1430940382.716,20.82423
1430940382.732,24.152931
1430940382.748,27.471188
1430940382.763,31.064331
1430940382.779,35.195694
1430940382.794,40.085587
1430940382.81,45.781513
1430940382.826,52.076122
1430940382.841,58.36091
1430940382.857,63.62452
1430940382.873,66.5423
1430940382.888,65.891754
1430940382.904,60.95804
1430940382.919,51.94607
1430940382.935,39.951664
1430940382.951,26.713825
1430940382.966,13.983662
1430940382.982,3.068695
1430940382.998,-5.465023
1430940383.013,-11.729382
1430940383.029,-16.262154
1430940383.044,-19.659664
1430940383.06,-22.382072
1430940383.076,-24.64679
1430940383.091,-26.47963
1430940383.107,-27.810726
1430940383.123,-28.585953
1430940383.138,-28.792385
1430940383.154,-28.530258
1430940383.169,-27.970943
1430940383.185,-27.320805
1430940383.201,-26.754517
1430940383.216,-26.369957
1430940383.232,-26.179722
1430940383.248,-26.150822
1430940383.263,-26.268227
1430940383.279,-26.53027
1430940383.294,-26.922386
1430940383.31,-27.336815
1430940383.326,-27.535591
1430940383.341,-27.255493
1430940383.357,-26.29591
1430940383.373,-24.663345
1430940383.388,-22.59433
1430940383.404,-20.441998
1430940383.419,-18.46402
1430940383.435,-16.66439
1430940383.451,-14.726448
1430940383.466,-12.176754
1430940383.482,-8.61829
1430940383.498,-3.958828
1430940383.513,1.5055313
1430940383.529,7.2092476
1430940383.544,12.546734
1430940383.56,17.121727
1430940383.576,20.859707
1430940383.591,24.007084
1430940383.607,27.017159
1430940383.623,30.381435
1430940383.638,34.534317
1430940383.654,39.663773
1430940383.669,45.65779
1430940383.685,51.93461
1430940383.701,57.491238
1430940383.716,61.005238
1430940383.732,61.249065
1430940383.748,57.462933
1430940383.763,49.70134
1430940383.779,38.92773
1430940383.794,26.707642
1430940383.81,14.704399
1430940383.826,4.1901703
1430940383.841,-4.2796593
1430940383.857,-10.825081
1430940383.873,-15.939953
1430940383.888,-20.117489
1430940383.904,-23.622723
1430940383.92,-26.42582
1430940383.935,-28.398727
1430940383.951,-29.475147
1430940383.966,-29.779793
1430940383.982,-29.588684
1430940383.998,-29.204956
1430940384.013,-28.815071
1430940384.029,-28.459785
1430940384.044,-28.07544
1430940384.06,-27.608139
1430940384.076,-27.08485
1430940384.091,-26.634499
1430940384.107,-26.384266
1430940384.123,-26.369274
1430940384.138,-26.452717
1430940384.154,-26.362877
1430940384.17,-25.791416
1430940384.185,-24.514656
1430940384.201,-22.491016
1430940384.216,-19.848354
1430940384.232,-16.77887
1430940384.248,-13.4464
1430940384.263,-9.882431
1430940384.279,-6.032604
1430940384.295,-1.830616
1430940384.31,2.6585732
1430940384.326,7.2203293
1430940384.341,11.534382
1430940384.357,15.348171
1430940384.373,18.618893
1430940384.388,21.563263
1430940384.404,24.617306
1430940384.42,28.280952
1430940384.435,32.929256
1430940384.451,38.684647
1430940384.466,45.273605
1430940384.482,52.013817
1430940384.498,57.81805
1430940384.513,61.407352
1430940384.529,61.601715
1430940384.545,57.676483
1430940384.56,49.678623
1430940384.576,38.480453
1430940384.591,25.574253
1430940384.607,12.650177
1430940384.623,1.0770035
1430940384.638,-8.394119
1430940384.654,-15.680965
1430940384.67,-21.136261
1430940384.685,-25.241535
1430940384.701,-28.332726
1430940384.716,-30.564785
1430940384.732,-31.985554
1430940384.748,-32.661194
1430940384.763,-32.731174
1430940384.779,-32.4087
1430940384.795,-31.86589
1430940384.81,-31.200367
1430940384.826,-30.414803
1430940384.841,-29.530632
1430940384.857,-28.631485
1430940384.873,-27.90562
1430940384.888,-27.518402
1430940384.904,-27.539932
1430940384.92,-27.81622
1430940384.935,-28.016285
1430940384.951,-27.742458
1430940384.966,-26.722954
1430940384.982,-24.891365
1430940384.998,-22.421936
1430940385.013,-19.598122
1430940385.029,-16.681156
1430940385.045,-13.770142
1430940385.06,-10.75111
1430940385.076,-7.376034
1430940385.091,-3.4213905
1430940385.107,1.1947212
1430940385.123,6.3214645
1430940385.138,11.618076
1430940385.154,16.675442
1430940385.17,21.204147
1430940385.185,25.110168
1430940385.201,28.600487
1430940385.216,32.07804
1430940385.232,36.032925
1430940385.248,40.845856
1430940385.263,46.644512
1430940385.279,53.137764
1430940385.295,59.585102
1430940385.31,64.886734
1430940385.326,67.78992
1430940385.341,67.2237
1430940385.357,62.633297
1430940385.373,54.17888
1430940385.388,42.768066
1430940385.404,29.820278
1430940385.42,16.875042
1430940385.435,5.19619
1430940385.451,-4.4915733
1430940385.466,-12.115498
1430940385.482,-18.030533
1430940385.498,-22.782997
1430940385.513,-26.816597
1430940385.529,-30.337685
1430940385.545,-33.285603
1430940385.56,-35.488605
1430940385.576,-36.798523
1430940385.591,-37.21839
1430940385.607,-36.91111
1430940385.623,-36.14612
1430940385.638,-35.181396
1430940385.654,-34.221
1430940385.67,-33.41429
1430940385.685,-32.85841
1430940385.701,-32.6463
1430940385.716,-32.81321
1430940385.732,-33.271225
1430940385.748,-33.793385
1430940385.763,-33.984097
1430940385.779,-33.413033
1430940385.795,-31.753242
1430940385.81,-28.943394
1430940385.826,-25.230423
1430940385.841,-21.153141
1430940385.857,-17.295048
1430940385.873,-14.103806
1430940385.888,-11.6525955
1430940385.904,-9.642773
1430940385.92,-7.533367
1430940385.935,-4.81728
1430940385.951,-1.2443542
1430940385.966,3.0364952
1430940385.982,7.562683
1430940385.998,11.758762
1430940386.013,15.190235
1430940386.029,17.711533
1430940386.045,19.53756
1430940386.06,21.13528
1430940386.076,23.13541
1430940386.091,26.0429
1430940386.107,30.097195
1430940386.123,34.989773
1430940386.138,39.818367
1430940386.154,43.141327
1430940386.17,43.29574
1430940386.185,38.88134
1430940386.201,29.22476
1430940386.216,14.671154
1430940386.232,-3.3615131
1430940386.248,-22.763987
1430940386.263,-41.25454
1430940386.279,-57.023
1430940386.295,-69.11825
1430940386.31,-77.57474
1430940386.326,-83.186806
1430940386.341,-87.080635
1430940386.357,-90.12987
1430940386.373,-92.59166
1430940386.388,-93.93636
1430940386.404,-93.06701
1430940386.42,-88.68251
1430940386.435,-79.68564
1430940386.451,-65.42366
1430940386.466,-45.926716
1430940386.482,-21.99764
1430940386.498,4.643421
1430940386.513,31.488033
1430940386.529,55.622025
1430940386.545,74.56327
1430940386.56,87.17134
1430940386.576,94.21214
1430940386.591,98.13127
1430940386.607,102.05036
1430940386.623,108.42048
1430940386.638,117.91623
1430940386.654,129.07132
1430940386.67,138.84187
1430940386.685,143.5999
1430940386.701,140.29472
1430940386.716,127.326355
1430940386.732,105.12962
1430940386.748,76.314255
1430940386.763,45.350716
1430940386.779,17.569118
1430940386.795,-2.3374577
1430940386.81,-11.947557
1430940386.826,-12.182734
1430940386.842,-7.1265755
1430940386.857,-2.4994793
1430940386.873,-3.3691063
1430940386.888,-12.143137
1430940386.904,-27.816967
1430940386.92,-46.680653
1430940386.935,-63.95714
1430940386.951,-75.45459
1430940386.967,-78.7007
1430940386.982,-73.20822
1430940386.998,-60.266964
1430940387.013,-42.52691
1430940387.029,-23.582796
1430940387.045,-7.400482
1430940387.06,2.450863
1430940387.076,3.6732674
1430940387.092,-4.1331367
1430940387.107,-19.26129
1430940387.123,-38.44796
1430940387.138,-57.986874
1430940387.154,-74.84703
1430940387.17,-87.375175
1430940387.185,-95.37652
1430940387.201,-99.53651
1430940387.217,-100.551926
1430940387.232,-98.3208
1430940387.248,-91.64041
1430940387.263,-78.512115
1430940387.279,-57.176067
1430940387.295,-27.16325
1430940387.31,10.073755
1430940387.326,51.485466
1430940387.342,93.49695
1430940387.357,133.22505
1430940387.373,169.13647
1430940387.388,200.75282
1430940387.404,227.81558
1430940387.42,249.43408
1430940387.435,263.72955
1430940387.451,268.24545
1430940387.467,260.8245
1430940387.482,240.65767
1430940387.498,208.90605
1430940387.513,168.73088
1430940387.529,124.58053
1430940387.545,81.0836
1430940387.56,41.86073
1430940387.576,8.823172
1430940387.592,-17.96066
1430940387.607,-39.473495
1430940387.623,-56.822475
1430940387.638,-70.56586
1430940387.654,-80.79236
1430940387.67,-87.74808
1430940387.685,-92.52152
1430940387.701,-96.96594
1430940387.717,-102.75815
1430940387.732,-110.06024
1430940387.748,-116.83133
1430940387.763,-119.46541
1430940387.779,-114.68638
1430940387.795,-101.55302
1430940387.81,-82.46009
1430940387.826,-62.358643
1430940387.842,-46.740944
1430940387.857,-39.225975
1430940387.873,-40.185486
1430940387.888,-47.01655
1430940387.904,-55.807976
1430940387.92,-63.40744
1430940387.935,-68.80116
1430940387.951,-73.094475
1430940387.967,-78.3557
1430940387.982,-85.9759
1430940387.998,-95.59882
1430940388.013,-105.040726
1430940388.029,-111.24228
1430940388.045,-111.53006
1430940388.06,-104.711586
1430940388.076,-91.31739
1430940388.092,-73.236145
1430940388.107,-52.810326
1430940388.123,-32.076775
1430940388.138,-12.336456
1430940388.154,5.7355194
1430940388.17,21.778336
1430940388.185,35.398277
1430940388.201,46.14824
1430940388.217,53.6874
1430940388.232,58.011665
1430940388.248,59.60965
1430940388.263,59.35238
1430940388.279,58.231766
1430940388.295,57.07019
1430940388.31,56.292107
1430940388.326,56.003395
1430940388.342,56.131706
1430940388.357,56.74881
1430940388.373,58.152214
1430940388.388,60.827873
1430940388.404,65.08958
1430940388.42,70.75891
1430940388.435,76.889854
1430940388.451,81.938934
1430940388.467,84.20019
1430940388.482,82.444885
1430940388.498,76.4144
1430940388.513,66.94745
1430940388.529,55.644707
1430940388.545,44.24946
1430940388.56,34.024956
1430940388.576,25.432755
1430940388.592,18.154
1430940388.607,11.471779
1430940388.623,4.682663
1430940388.638,-2.5351715
1430940388.654,-10.12307
1430940388.67,-17.707176
1430940388.685,-24.8415
1430940388.701,-31.170212
1430940388.717,-36.47731
1430940388.732,-40.70018
1430940388.748,-43.859924
1430940388.763,-46.06433
1430940388.779,-47.50238
1430940388.795,-48.398926
1430940388.81,-48.95305
1430940388.826,-49.24736
1430940388.842,-49.27806
1430940388.857,-48.96469
1430940388.873,-48.279648
1430940388.888,-47.24031
1430940388.904,-45.919266
1430940388.92,-44.321335
1430940388.935,-42.338135
1430940388.951,-39.718246
1430940388.967,-36.234024
1430940388.982,-31.783005
1430940388.998,-26.482483
1430940389.013,-20.662003
1430940389.029,-14.720108
1430940389.045,-8.977402
1430940389.06,-3.5732574
1430940389.076,1.5072479
1430940389.092,6.361023
1430940389.107,11.097305
1430940389.123,15.781006
1430940389.138,20.512817
1430940389.154,25.43077
1430940389.17,30.76651
1430940389.185,36.666595
1430940389.201,42.97917
1430940389.217,49.04831
1430940389.232,53.724716
1430940389.248,55.61206
1430940389.263,53.60849
