1433282832.154,0.0
1433282832.17,0.0
1433282832.185,0.0
1433282832.201,0.0
1433282832.216,0.0
1433282832.232,0.0
1433282832.248,0.0
1433282832.263,0.0
1433282832.279,0.0
1433282832.295,0.0022315353
1433282832.31,-0.0045169927
1433282832.326,-0.011265522
1433282832.341,-0.011383951
1433282832.357,0.0011864507
1433282832.373,0.025910312
1433282832.388,0.050634187
1433282832.404,0.051362894
1433282832.42,-0.0014929791
1433282832.435,-0.1302426
1433282832.451,-0.35562757
1433282832.466,-0.6591247
1433282832.482,-1.0095103
1433282832.498,-1.3709826
1433282832.513,-1.7197359
1433282832.529,-2.0551105
1433282832.545,-2.39945
1433282832.56,-2.7866635
1433282832.576,-3.2399073
1433282832.591,-3.796012
1433282832.607,-4.418684
1433282832.623,-5.0592937
1433282832.638,-5.6644096
1433282832.654,-6.2021537
1433282832.67,-6.6808796
1433282832.685,-7.149598
1433282832.701,-7.6782336
1433282832.716,-8.310739
1433282832.732,-9.143657
1433282832.748,-10.089731
1433282832.763,-11.041313
1433282832.779,-11.8842125
1433282832.795,-12.564316
1433282832.81,-13.13563
1433282832.826,-13.760044
1433282832.841,-14.65232
1433282832.857,-15.962056
1433282832.873,-17.914442
1433282832.888,-20.317299
1433282832.904,-22.903854
1433282832.92,-25.37947
1433282832.935,-27.578028
1433282832.951,-29.57246
1433282832.966,-31.675173
1433282832.982,-34.3178
1433282832.998,-37.813618
1433282833.013,-42.541233
1433282833.029,-48.1463
1433282833.045,-54.104755
1433282833.06,-59.83309
1433282833.076,-64.972374
1433282833.091,-69.58293
1433282833.107,-74.14353
1433282833.123,-79.344986
1433282833.138,-85.70726
1433282833.154,-93.76193
1433282833.17,-102.99779
1433282833.185,-112.61757
1433282833.201,-121.73034
1433282833.216,-129.76602
1433282833.232,-136.75102
1433282833.248,-143.30344
1433282833.263,-150.74623
1433282833.279,-157.77356
1433282833.295,-166.64323
1433282833.31,-177.94798
1433282833.326,-191.79102
1433282833.341,-206.96808
1433282833.357,-220.56592
1433282833.373,-228.24644
1433282833.388,-225.36154
1433282833.404,-208.53198
1433282833.42,-176.87024
1433282833.435,-132.76222
1433282833.451,-80.04997
1433282833.466,-23.069275
1433282833.482,34.94339
1433282833.498,92.43695
1433282833.513,149.15695
1433282833.529,205.22772
1433282833.545,260.36963
1433282833.56,313.74133
1433282833.576,363.87396
1433282833.591,409.83353
1433282833.607,450.90775
1433282833.623,486.50244
1433282833.638,515.73865
1433282833.654,537.2274
1433282833.67,549.22
1433282833.685,549.9613
1433282833.701,538.367
1433282833.716,514.2055
1433282833.732,478.674
1433282833.748,433.87952
1433282833.763,382.45126
1433282833.779,327.02106
1433282833.795,269.84186
1433282833.81,212.63379
1433282833.826,156.6594
1433282833.841,102.95233
1433282833.857,52.373596
1433282833.873,5.9046936
1433282833.888,-35.580414
1433282833.904,-71.42584
1433282833.92,-101.35184
1433282833.935,-125.50113
1433282833.951,-144.3797
1433282833.966,-158.69403
1433282833.982,-169.15071
1433282833.998,-176.3711
1433282834.013,-180.75139
1433282834.029,-182.57419
1433282834.045,-182.06863
1433282834.06,-179.5066
1433282834.076,-175.23325
1433282834.091,-169.65286
1433282834.107,-163.17691
1433282834.123,-156.14568
1433282834.138,-148.80681
1433282834.154,-141.29686
1433282834.17,-133.68983
1433282834.185,-126.01962
1433282834.201,-118.33268
1433282834.216,-110.68864
1433282834.232,-103.15572
1433282834.248,-95.80455
1433282834.263,-88.684166
1433282834.279,-81.82744
1433282834.295,-75.24594
1433282834.31,-68.9526
1433282834.326,-62.949085
1433282834.341,-57.247494
1433282834.357,-51.857185
1433282834.373,-46.78282
1433282834.388,-42.02776
1433282834.404,-37.58521
1433282834.42,-33.451748
1433282834.435,-29.613855
1433282834.451,-26.070963
1433282834.466,-22.808779
1433282834.482,-19.824995
1433282834.498,-17.113392
1433282834.513,-14.666497
1433282834.529,-12.47932
1433282834.545,-10.538469
1433282834.56,-8.833674
1433282834.576,-7.3478527
1433282834.592,-6.067689
1433282834.607,-4.9734235
1433282834.623,-4.046258
1433282834.638,-3.2673752
1433282834.654,-2.6211367
1433282834.67,-2.088365
1433282834.685,-1.6507506
1433282834.701,-1.2976913
1433282834.716,-1.0147024
1433282834.732,-0.79105926
1433282834.748,-0.6133206
1433282834.763,-0.47516227
1433282834.779,-0.3684653
1433282834.795,-0.28461677
1433282834.81,-0.22397345
1433282834.826,-0.17647654
1433282834.842,-0.14055526
1433282834.857,-0.11251485
1433282834.873,-0.0926249
1433282834.888,-0.07977182
1433282834.904,-0.06783539
1433282834.92,-0.05929327
1433282834.935,-0.052183747
1433282834.951,-0.046860814
1433282834.967,-0.044131815
1433282834.982,-0.040358156
1433282834.998,-0.039164305
1433282835.013,-0.034330726
1433282835.029,-0.03515649
1433282835.045,-0.03181714
1433282835.06,-0.030750751
1433282835.076,-0.02810505
1433282835.092,-0.029290557
1433282835.107,-0.027453512
1433282835.123,-0.026080728
1433282835.138,-0.023848891
1433282835.154,-0.022980958
1433282835.17,-0.022156507
1433282835.185,-0.022176981
1433282835.201,-0.0209395
1433282835.217,-0.020535946
1433282835.232,-0.019924253
1433282835.248,-0.019534469
1433282835.263,-0.019832999
1433282835.279,-0.017324418
1433282835.295,-0.015485451
1433282835.31,-0.015339762
1433282835.326,-0.015439674
1433282835.342,-0.018994182
1433282835.357,-0.020128995
1433282835.373,-0.027158365
1433282835.388,-0.025956035
1433282835.404,-0.015588194
1433282835.42,0.014337137
1433282835.435,0.05223827
1433282835.451,0.10291518
1433282835.467,0.15427129
1433282835.482,0.20022805
1433282835.498,0.23576662
1433282835.513,0.2624841
1433282835.529,0.28497562
1433282835.545,0.3031443
1433282835.56,0.3241414
1433282835.576,0.34850538
1433282835.592,0.36565632
1433282835.607,0.3859565
1433282835.623,0.40032595
1433282835.638,0.41985342
1433282835.654,0.4489031
1433282835.67,0.5015172
1433282835.685,0.57160926
1433282835.701,0.6709657
1433282835.717,0.77203286
1433282835.732,0.8635075
1433282835.748,0.93444943
1433282835.763,0.98197734
1433282835.779,1.016994
1433282835.795,1.0555072
1433282835.81,1.1383901
1433282835.826,1.2640213
1433282835.842,1.4531174
1433282835.857,1.6747506
1433282835.873,1.9084632
1433282835.888,2.1239123
1433282835.904,2.2972403
1433282835.92,2.435265
1433282835.935,2.5813296
1433282835.951,2.7755666
1433282835.967,3.0634058
1433282835.982,3.4502788
1433282835.998,3.9062607
1433282836.013,4.360327
1433282836.029,4.763055
1433282836.045,5.1010594
1433282836.06,5.4000635
1433282836.076,5.7316937
1433282836.092,6.1755357
1433282836.107,6.7567887
1433282836.123,7.4413695
1433282836.138,8.141147
1433282836.154,8.764616
1433282836.17,9.275979
1433282836.185,9.711563
1433282836.201,10.181383
1433282836.217,10.789197
1433282836.232,11.54125
1433282836.248,12.375821
1433282836.263,13.179081
1433282836.279,13.893843
1433282836.295,14.610293
1433282836.31,15.505143
1433282836.326,16.668009
1433282836.342,17.837639
1433282836.357,18.34603
1433282836.373,17.28748
1433282836.388,13.904385
1433282836.404,7.9805584
1433282836.42,-0.022237778
1433282836.435,-9.077209
1433282836.451,-17.981707
1433282836.467,-25.608894
1433282836.482,-31.179441
1433282836.498,-34.247314
1433282836.513,-34.64114
1433282836.529,-32.435387
1433282836.545,-28.016817
1433282836.56,-22.206833
1433282836.576,-16.364267
1433282836.592,-12.125599
1433282836.607,-10.873386
1433282836.623,-13.204222
1433282836.638,-18.458515
1433282836.654,-24.897518
1433282836.67,-30.378529
1433282836.685,-33.164486
1433282836.701,-32.721924
1433282836.717,-29.895775
1433282836.732,-26.379826
1433282836.748,-23.680546
1433282836.763,-22.35509
1433282836.779,-21.845139
1433282836.795,-20.811134
1433282836.81,-18.287487
1433282836.826,-14.191385
1433282836.842,-9.273977
1433282836.857,-4.591465
1433282836.873,-0.7889309
1433282836.888,2.0398998
1433282836.904,4.185251
1433282836.92,5.8229084
1433282836.935,6.8550014
1433282836.951,7.0352573
1433282836.967,6.462453
1433282836.982,5.802183
1433282836.998,6.1060705
1433282837.013,8.154739
1433282837.029,11.870459
1433282837.045,16.155441
1433282837.06,19.386341
1433282837.076,20.18031
1433282837.092,18.141943
1433282837.107,13.927168
1433282837.123,8.985611
1433282837.138,4.898726
1433282837.154,2.8266025
1433282837.17,3.0718813
1433282837.185,5.087678
1433282837.201,7.5956964
1433282837.217,9.054027
1433282837.232,8.295671
1433282837.248,4.985833
1433282837.263,-0.028086185
1433282837.279,-4.960333
1433282837.295,-7.7750363
1433282837.31,-7.2238436
1433282837.326,-3.545538
1433282837.342,1.4827008
1433282837.357,5.3019805
1433282837.373,5.9149303
1433282837.388,2.611783
1433282837.404,-3.455368
1433282837.42,-9.895714
1433282837.435,-14.065447
1433282837.451,-14.444648
1433282837.467,-11.403576
1433282837.482,-7.1565695
1433282837.498,-4.727167
1433282837.514,-6.439554
1433282837.529,-13.453297
1433282837.545,-24.877638
1433282837.56,-38.004284
1433282837.576,-49.067787
1433282837.592,-54.46249
1433282837.607,-51.840923
1433282837.623,-40.78396
1433282837.639,-22.919334
1433282837.654,-1.0599985
1433282837.67,20.971748
1433282837.685,39.727173
1433282837.701,53.1105
1433282837.717,60.767593
1433282837.732,63.721947
1433282837.748,63.54956
1433282837.764,61.716858
1433282837.779,56.71001
1433282837.795,49.433884
1433282837.81,41.370205
1433282837.826,34.598328
1433282837.842,31.591097
1433282837.857,34.628876
1433282837.873,45.00893
1433282837.889,62.22359
1433282837.904,83.71082
1433282837.92,105.00762
1433282837.935,121.40285
1433282837.951,128.71599
1433282837.967,124.99815
1433282837.982,111.07962
1433282837.998,90.37136
1433282838.014,67.700066
1433282838.029,47.44919
1433282838.045,32.051407
1433282838.06,21.229872
1433282838.076,12.831074
1433282838.092,3.7965088
1433282838.107,-7.616583
1433282838.123,-20.73898
1433282838.139,-32.774937
1433282838.154,-40.439507
1433282838.17,-41.870243
1433282838.185,-37.875076
1433282838.201,-31.877064
1433282838.217,-28.294155
1433282838.232,-31.018974
1433282838.248,-41.5309
1433282838.264,-58.225044
1433282838.279,-76.760056
1433282838.295,-91.71739
1433282838.31,-99.0954
1433282838.326,-98.17731
1433282838.342,-92.24081
1433282838.357,-87.031235
1433282838.373,-88.028625
1433282838.389,-97.20529
1433282838.404,-111.215744
1433282838.42,-122.27733
1433282838.435,-121.46179
1433282838.451,-102.89785
1433282838.467,-66.690125
1433282838.482,-18.900505
1433282838.498,31.40136
1433282838.514,76.09516
1433282838.529,111.28618
1433282838.545,137.61258
1433282838.56,157.84985
1433282838.576,173.55371
1433282838.592,183.1997
1433282838.607,183.4801
1433282838.623,172.57213
1433282838.639,152.85423
1433282838.654,130.70488
1433282838.67,113.30112
1433282838.685,104.177795
1433282838.701,100.691315
1433282838.717,95.46234
1433282838.732,80.830246
1433282838.748,53.806778
1433282838.764,18.042587
1433282838.779,-18.169388
1433282838.795,-46.298294
1433282838.81,-61.588547
1433282838.826,-64.341324
1433282838.842,-58.36754
1433282838.857,-48.23845
1433282838.873,-37.339554
1433282838.889,-27.603958
1433282838.904,-20.187988
1433282838.92,-16.044647
1433282838.935,-15.798553
1433282838.951,-19.141174
1433282838.967,-24.72499
1433282838.982,-30.540482
1433282838.998,-34.600357
1433282839.014,-35.83568
1433282839.029,-34.341217
1433282839.045,-31.184479
1433282839.06,-27.869736
1433282839.076,-25.709076
1433282839.092,-25.32431
1433282839.107,-26.500153
1433282839.123,-28.42566
1433282839.139,-30.201202
1433282839.154,-31.381683
1433282839.17,-32.114227
1433282839.185,-32.83264
1433282839.201,-33.829285
1433282839.217,-34.921387
1433282839.232,-35.41153
1433282839.248,-34.246735
1433282839.264,-30.235718
1433282839.279,-22.077545
1433282839.295,-8.6519165
1433282839.31,10.554565
1433282839.326,34.734222
1433282839.342,61.402527
1433282839.357,86.78082
1433282839.373,107.17377
1433282839.389,120.47827
1433282839.404,127.04935
1433282839.42,129.08905
1433282839.435,128.96356
1433282839.451,127.421844
1433282839.467,123.07788
1433282839.482,113.3056
1433282839.498,96.09311
1433282839.514,71.36014
1433282839.529,41.158295
1433282839.545,8.692413
1433282839.56,-22.966522
1433282839.576,-51.741943
1433282839.592,-76.5932
1433282839.607,-97.11807
1433282839.623,-113.1033
1433282839.639,-124.41788
1433282839.654,-131.10052
1433282839.67,-133.47366
1433282839.685,-132.16919
1433282839.701,-128.16046
1433282839.717,-122.765686
1433282839.732,-117.54816
1433282839.748,-113.94592
1433282839.764,-112.59808
1433282839.779,-112.837524
1433282839.795,-112.78836
1433282839.81,-110.22632
1433282839.826,-103.9209
1433282839.842,-94.38226
1433282839.857,-83.66803
1433282839.873,-74.05249
1433282839.889,-66.64514
1433282839.904,-60.780945
1433282839.92,-54.740784
1433282839.935,-47.137207
1433282839.951,-38.131104
1433282839.967,-29.50885
1433282839.982,-23.587402
1433282839.998,-21.625977
1433282840.014,-22.914307
1433282840.029,-25.101135
1433282840.045,-25.526672
1433282840.06,-22.542969
1433282840.076,-16.229858
1433282840.092,-7.902405
1433282840.107,0.88397217
1433282840.123,9.311401
1433282840.139,17.289978
1433282840.154,24.998901
1433282840.17,32.135376
1433282840.186,37.708496
1433282840.201,40.383423
1433282840.217,39.107483
1433282840.232,33.524292
1433282840.248,24.00592
1433282840.264,11.406006
1433282840.279,-3.2988892
1433282840.295,-19.087524
1433282840.311,-34.830048
1433282840.326,-49.383392
1433282840.342,-61.67682
1433282840.357,-71.094696
1433282840.373,-77.6084
1433282840.389,-81.69458
1433282840.404,-83.94745
1433282840.42,-84.76053
1433282840.436,-84.22046
1433282840.451,-82.39722
1433282840.467,-79.78592
1433282840.482,-77.497314
1433282840.498,-76.88028
1433282840.514,-78.70163
1433282840.529,-82.33276
1433282840.545,-85.43982
1433282840.561,-84.68973
1433282840.576,-77.00906
1433282840.592,-61.14563
1433282840.607,-38.400055
1433282840.623,-12.169189
1433282840.639,13.478455
1433282840.654,35.478027
1433282840.67,52.39496
1433282840.686,63.868134
1433282840.701,69.27347
1433282840.717,66.81766
1433282840.732,54.06656
1433282840.748,29.63733
1433282840.764,-5.0263977
1433282840.779,-45.156494
1433282840.795,-84.09653
1433282840.811,-115.88989
1433282840.826,-137.43979
1433282840.842,-148.75635
1433282840.857,-151.57431
1433282840.873,-147.49829
1433282840.889,-137.32233
1433282840.904,-121.74109
1433282840.92,-102.67967
1433282840.936,-83.66806
1433282840.951,-68.53648
1433282840.967,-59.114426
1433282840.982,-53.784042
1433282840.998,-48.023346
1433282841.014,-37.009827
1433282841.029,-18.624405
1433282841.045,5.0937653
1433282841.061,29.010605
1433282841.076,47.77942
1433282841.092,58.61393
1433282841.107,62.48642
1433282841.123,63.0278
1433282841.139,64.216576
1433282841.154,68.4561
1433282841.17,75.90875
1433282841.186,85.3415
1433282841.201,95.2889
1433282841.217,104.80811
1433282841.232,113.49242
1433282841.248,121.056335
1433282841.264,126.98445
1433282841.279,130.80574
1433282841.295,132.78427
1433282841.311,134.24908
1433282841.326,137.22247
1433282841.342,143.26718
1433282841.357,152.21785
1433282841.373,161.63449
1433282841.389,167.55685
1433282841.404,166.19379
1433282841.42,155.7637
1433282841.436,137.3563
1433282841.451,114.33529
1433282841.467,90.58253
1433282841.482,68.70056
1433282841.498,49.100044
1433282841.514,30.500633
1433282841.529,11.3194275
1433282841.545,-8.967567
1433282841.561,-29.109138
1433282841.576,-46.54213
1433282841.592,-58.458717
1433282841.607,-62.861237
1433282841.623,-59.1438
1433282841.639,-48.0775
1433282841.654,-31.342232
1433282841.67,-11.006393
1433282841.686,10.922379
1433282841.701,32.709106
1433282841.717,53.11386
1433282841.732,71.38019
1433282841.748,87.103546
1433282841.764,99.776085
1433282841.779,108.44993
1433282841.795,111.76487
1433282841.811,108.59601
1433282841.826,98.809525
1433282841.842,83.895805
1433282841.857,66.81451
1433282841.873,50.98986
1433282841.889,39.01757
1433282841.904,31.727577
1433282841.92,28.14878
1433282841.936,26.381653
1433282841.951,24.755394
1433282841.967,22.531479
1433282841.982,19.729301
1433282841.998,16.359703
1433282842.014,11.664108
1433282842.029,4.1272507
1433282842.045,-7.718689
1433282842.061,-24.136421
1433282842.076,-43.54666
1433282842.092,-62.894455
1433282842.107,-78.91408
1433282842.123,-89.49668
1433282842.139,-94.49227
1433282842.154,-95.42609
1433282842.17,-94.34708
1433282842.186,-92.581726
1433282842.201,-90.107285
1433282842.217,-85.78918
1433282842.232,-78.3343
1433282842.248,-67.28182
1433282842.264,-53.416595
1433282842.279,-38.53927
1433282842.295,-24.723824
1433282842.311,-13.477257
1433282842.326,-5.348915
1433282842.342,-3.5858154E-4
1433282842.357,3.3469849
1433282842.373,5.456291
1433282842.389,6.8081055
1433282842.404,7.670006
1433282842.42,8.338081
1433282842.436,9.332497
1433282842.451,11.338379
1433282842.467,14.976425
1433282842.482,20.438553
1433282842.498,27.285034
1433282842.514,34.481293
1433282842.529,40.761223
1433282842.545,45.06286
1433282842.561,46.884857
1433282842.576,46.43052
1433282842.592,44.447456
1433282842.607,41.876503
1433282842.623,39.529808
1433282842.639,37.896378
1433282842.654,37.095093
1433282842.67,37.049263
1433282842.686,37.65499
1433282842.701,38.81527
1433282842.717,40.43461
1433282842.732,42.297997
1433282842.748,44.09664
1433282842.764,45.46948
1433282842.779,46.189262
1433282842.795,46.252228
1433282842.811,45.91064
1433282842.826,45.513184
1433282842.842,45.415092
1433282842.858,45.846104
1433282842.873,46.905704
1433282842.889,48.518837
1433282842.904,50.43447
1433282842.92,52.16078
1433282842.936,53.038902
1433282842.951,52.342155
1433282842.967,49.526447
1433282842.982,44.445953
1433282842.998,37.469948
1433282843.014,29.322489
1433282843.029,20.837543
1433282843.045,12.628975
1433282843.061,4.9381742
1433282843.076,-2.3070736
1433282843.092,-9.301249
1433282843.108,-16.12292
1433282843.123,-22.63058
1433282843.139,-28.49442
1433282843.154,-33.329926
1433282843.17,-36.892982
1433282843.186,-39.181637
1433282843.201,-40.495823
1433282843.217,-41.319954
1433282843.233,-42.176838
1433282843.248,-43.439396
1433282843.264,-45.240627
1433282843.279,-47.442883
1433282843.295,-49.72837
1433282843.311,-51.675102
1433282843.326,-52.880066
1433282843.342,-53.019524
1433282843.358,-51.883614
1433282843.373,-49.395622
1433282843.389,-45.67463
1433282843.404,-41.001755
1433282843.42,-35.891647
1433282843.436,-30.973701
1433282843.451,-26.88018
1433282843.467,-23.994202
1433282843.483,-22.258492
1433282843.498,-21.077522
1433282843.514,-19.498291
1433282843.529,-16.501877
1433282843.545,-11.448868
1433282843.561,-4.342079
1433282843.576,4.1920166
1433282843.592,13.222992
1433282843.608,21.834991
1433282843.623,29.36084
1433282843.639,35.29074
1433282843.654,39.156174
1433282843.67,40.484253
1433282843.686,39.068253
1433282843.701,35.21701
1433282843.717,29.906021
1433282843.733,24.385254
1433282843.748,19.552399
1433282843.764,15.384766
1433282843.779,10.948334
1433282843.795,4.9037476
1433282843.811,-3.6061249
1433282843.826,-14.367691
1433282843.842,-26.093033
1433282843.858,-37.010574
1433282843.873,-45.681107
1433282843.889,-51.576523
1433282843.904,-55.10103
1433282843.92,-57.18431
1433282843.936,-58.68817
1433282843.951,-59.96875
1433282843.967,-60.792267
1433282843.983,-60.505966
1433282843.998,-58.51825
1433282844.014,-54.737366
1433282844.029,-49.7735
1433282844.045,-44.823822
1433282844.061,-41.17418
1433282844.076,-39.653748
1433282844.092,-40.18753
1433282844.108,-41.90132
1433282844.123,-43.550873
1433282844.139,-44.18756
1433282844.154,-43.5282
1433282844.17,-42.01941
1433282844.186,-40.509766
1433282844.201,-39.88655
1433282844.217,-40.756653
1433282844.233,-43.30281
1433282844.248,-47.22551
1433282844.264,-51.87288
1433282844.279,-56.347656
1433282844.295,-59.854477
1433282844.311,-61.99431
1433282844.326,-62.915375
1433282844.342,-63.121613
1433282844.358,-63.11383
1433282844.373,-63.0233
1433282844.389,-62.659256
1433282844.404,-61.82704
1433282844.42,-60.738663
1433282844.436,-60.062088
1433282844.451,-60.36103
1433282844.467,-61.31285
1433282844.483,-61.3273
1433282844.498,-57.923637
1433282844.514,-48.826424
1433282844.529,-33.0511
1433282844.545,-11.30587
1433282844.561,14.658638
1433282844.576,43.055046
1433282844.592,72.81155
1433282844.608,103.29989
1433282844.623,133.36502
1433282844.639,160.39603
1433282844.654,180.32367
1433282844.67,188.88622
1433282844.686,183.5106
1433282844.701,164.89148
1433282844.717,137.18327
1433282844.733,106.43847
1433282844.748,78.44566
1433282844.764,56.817394
1433282844.779,42.54373
1433282844.795,35.02435
1433282844.811,33.693497
1433282844.826,39.051296
1433282844.842,52.294712
1433282844.858,73.50522
1433282844.873,99.91627
1433282844.889,125.50949
1433282844.904,142.69557
1433282844.92,145.36398
1433282844.936,131.61478
1433282844.951,104.48098
1433282844.967,70.2412
1433282844.983,35.298706
1433282844.998,3.5675201
1433282845.014,-24.087246
1433282845.029,-48.178192
1433282845.045,-68.29007
1433282845.061,-81.80263
1433282845.076,-85.01938
1433282845.092,-75.853
1433282845.108,-56.48526
1433282845.123,-33.747868
1433282845.139,-16.813175
1433282845.154,-13.179745
1433282845.17,-24.988586
1433282845.186,-48.211246
1433282845.201,-74.692764
1433282845.217,-96.06898
1433282845.233,-107.66826
1433282845.248,-109.978
1433282845.264,-107.03288
1433282845.279,-103.14406
1433282845.295,-99.70885
1433282845.311,-94.56139
1433282845.326,-83.86843
1433282845.342,-65.060265
1433282845.358,-38.588425
1433282845.373,-7.225189
1433282845.389,26.300377
1433282845.404,61.23352
1433282845.42,98.50183
1433282845.436,138.3846
1433282845.451,177.83997
1433282845.467,209.8428
1433282845.483,226.02681
1433282845.498,221.04846
1433282845.514,195.88174
1433282845.53,157.87007
1433282845.545,117.24658
1433282845.561,82.19476
1433282845.576,55.575127
1433282845.592,34.918182
1433282845.608,15.243843
1433282845.623,-7.2725754
1433282845.639,-33.180687
1433282845.654,-60.001106
1433282845.67,-83.90733
1433282845.686,-101.63269
1433282845.701,-111.64551
1433282845.717,-114.12929
1433282845.733,-110.81089
1433282845.748,-104.762665
1433282845.764,-99.62031
1433282845.78,-98.68503
1433282845.795,-103.52761
1433282845.811,-112.987206
1433282845.826,-123.40921
1433282845.842,-130.29364
1433282845.858,-130.45831
1433282845.873,-123.42286
1433282845.889,-111.114296
1433282845.905,-96.231415
1433282845.92,-80.6071
1433282845.936,-64.79
1433282845.951,-49.396202
1433282845.967,-37.09935
1433282845.983,-33.21505
1433282845.998,-44.032738
1433282846.014,-73.40035
1433282846.03,-119.489235
1433282846.045,-174.04922
1433282846.061,-224.80885
1433282846.076,-259.63123
1433282846.092,-270.30548
1433282846.108,-254.32494
1433282846.123,-214.23376
1433282846.139,-155.8876
1433282846.155,-86.71836
1433282846.17,-14.758274
1433282846.186,52.032547
1433282846.201,106.35768
1433282846.217,143.23401
1433282846.233,161.64108
1433282846.248,165.15358
1433282846.264,161.30038
1433282846.28,159.32861
1433282846.295,167.19756
1433282846.311,188.98898
1433282846.326,223.35571
1433282846.342,263.4097
1433282846.358,298.25638
1433282846.373,315.68036
1433282846.389,305.69305
1433282846.405,264.28592
1433282846.42,195.42987
1433282846.436,111.00013
1433282846.451,27.77622
1433282846.467,-37.416374
1433282846.483,-73.10504
1433282846.498,-76.87703
1433282846.514,-55.896835
1433282846.53,-23.362577
1433282846.545,7.3489
1433282846.561,28.302563
1433282846.576,39.51484
1433282846.592,47.385536
1433282846.608,60.05789
1433282846.623,82.295906
1433282846.639,112.6116
1433282846.655,144.00574
1433282846.67,167.48788
1433282846.686,176.42668
1433282846.701,168.92392
1433282846.717,147.76498
1433282846.733,118.24736
1433282846.748,85.73822
1433282846.764,54.436283
1433282846.78,27.809612
1433282846.795,9.457756
1433282846.811,3.2746277
1433282846.826,12.141922
1433282846.842,35.759827
1433282846.858,69.37378
1433282846.873,104.1117
1433282846.889,129.33252
1433282846.905,136.63272
1433282846.92,123.09898
1433282846.936,92.71413
1433282846.951,54.90045
1433282846.967,20.938843
1433282846.983,-0.15896606
1433282846.998,-4.387146
1433282847.014,6.636734
1433282847.03,27.107697
1433282847.045,49.711227
1433282847.061,68.21408
1433282847.076,79.079636
1433282847.092,81.839966
1433282847.108,78.46753
1433282847.123,71.955536
1433282847.139,64.98303
1433282847.155,59.032196
1433282847.17,54.1015
1433282847.186,49.119537
1433282847.201,42.567505
1433282847.217,33.239685
1433282847.233,20.659882
1433282847.248,5.3053894
1433282847.264,-11.598236
1433282847.28,-28.36383
1433282847.295,-43.438324
1433282847.311,-55.96756
1433282847.326,-66.18866
1433282847.342,-75.51633
1433282847.358,-86.16373
1433282847.373,-100.35898
1433282847.389,-119.51785
1433282847.405,-143.5983
1433282847.42,-170.945
1433282847.436,-198.6568
1433282847.451,-223.35956
1433282847.467,-242.09265
1433282847.483,-253.06848
1433282847.498,-256.09192
1433282847.514,-252.49536
1433282847.53,-244.65234
1433282847.545,-235.15558
1433282847.561,-225.9961
1433282847.576,-217.96692
1433282847.592,-210.44415
1433282847.608,-201.69037
1433282847.623,-189.5752
1433282847.639,-172.57343
1433282847.655,-150.49982
1433282847.67,-124.80664
1433282847.686,-98.05292
1433282847.701,-72.894714
1433282847.717,-50.92682
1433282847.733,-32.162903
1433282847.748,-15.397827
1433282847.764,0.8433838
1433282847.78,17.261047
1433282847.795,33.53076
1433282847.811,48.726685
1433282847.826,62.07068
1433282847.842,73.461
1433282847.858,83.625854
1433282847.873,93.86572
1433282847.889,105.67456
1433282847.905,120.578
1433282847.92,140.00665
1433282847.936,165.03613
1433282847.951,195.70862
1433282847.967,230.30377
1433282847.983,264.96326
1433282847.998,294.0857
1433282848.014,311.5976
1433282848.03,312.50342
1433282848.045,294.25763
1433282848.061,257.12415
1433282848.076,203.94849
1433282848.092,139.2486
1433282848.108,68.347534
1433282848.123,-3.307434
1433282848.139,-70.68768
1433282848.155,-129.65509
1433282848.17,-177.51917
1433282848.186,-213.32446
1433282848.201,-237.92908
1433282848.217,-253.50159
1433282848.233,-262.5829
1433282848.248,-267.2229
1433282848.264,-268.318
1433282848.28,-265.9339
1433282848.295,-259.81976
1433282848.311,-250.14172
1433282848.326,-237.72961
1433282848.342,-223.93872
1433282848.358,-210.02997
1433282848.373,-196.54999
1433282848.389,-182.99158
1433282848.405,-167.93909
1433282848.42,-149.51129
1433282848.436,-126.1637
1433282848.452,-97.31421
1433282848.467,-63.76593
1433282848.483,-27.631104
1433282848.498,8.210876
1433282848.514,41.00293
1433282848.53,68.80115
1433282848.545,90.69293
1433282848.561,106.42566
1433282848.577,115.859375
1433282848.592,118.589294
1433282848.608,114.135925
1433282848.623,102.39917
1433282848.639,84.05133
1433282848.655,60.508545
1433282848.67,33.3714
1433282848.686,3.7911377
1433282848.702,-27.765808
1433282848.717,-61.270935
1433282848.733,-96.47803
1433282848.748,-132.56085
1433282848.764,-168.06409
1433282848.78,-201.39941
1433282848.795,-231.04108
1433282848.811,-255.64267
1433282848.827,-273.72247
1433282848.842,-283.58615
1433282848.858,-283.6827
1433282848.873,-273.39468
1433282848.889,-253.73083
1433282848.905,-227.55673
1433282848.92,-198.88126
1433282848.936,-171.53506
1433282848.952,-147.85858
1433282848.967,-127.8624
1433282848.983,-109.52005
1433282848.998,-90.022156
1433282849.014,-67.25247
1433282849.03,-40.954315
1433282849.045,-12.824005
1433282849.061,14.271851
1433282849.077,37.686478
1433282849.092,55.909744
1433282849.108,68.64787
1433282849.123,75.9545
1433282849.139,77.16162
1433282849.155,70.46695
1433282849.17,53.777832
1433282849.186,26.382095
1433282849.202,-9.454361
1433282849.217,-48.288418
1433282849.233,-82.92877
1433282849.248,-106.868256
1433282849.264,-116.41994
1433282849.28,-111.526955
1433282849.295,-95.07184
1433282849.311,-71.42335
1433282849.327,-45.10253
1433282849.342,-19.934471
1433282849.358,1.377449
1433282849.373,17.643784
1433282849.389,29.568604
1433282849.405,39.502686
1433282849.42,50.49527
1433282849.436,64.829315
1433282849.452,82.97182
1433282849.467,103.37245
1433282849.483,123.83505
1433282849.498,143.21304
1433282849.514,162.39328
1433282849.53,184.13101
1433282849.545,211.76395
1433282849.561,247.41602
1433282849.577,290.9754
1433282849.592,340.29178
1433282849.608,392.44315
1433282849.623,445.15918
1433282849.639,497.48196
1433282849.655,549.0564
1433282849.67,598.74866
1433282849.686,643.33105
1433282849.702,677.45966
1433282849.717,695.13367
1433282849.733,692.0625
1433282849.748,667.7474
1433282849.764,626.0563
1433282849.78,573.8703
1433282849.795,518.3412
1433282849.811,464.22278
1433282849.827,412.74976
1433282849.842,362.2862
1433282849.858,310.0272
1433282849.873,253.83533
1433282849.889,193.1019
1433282849.905,128.66753
1433282849.92,62.28485
1433282849.936,-3.8530579
1433282849.952,-67.18869
1433282849.967,-125.19147
1433282849.983,-175.43907
1433282849.998,-215.66794
1433282850.014,-244.09381
1433282850.03,-259.77103
1433282850.045,-262.99338
1433282850.061,-255.71521
1433282850.077,-241.55762
1433282850.092,-224.90152
1433282850.108,-209.29889
1433282850.123,-196.07326
1433282850.139,-184.12906
1433282850.155,-171.38397
1433282850.17,-157.07043
1433282850.186,-143.29582
1433282850.202,-134.72675
1433282850.217,-136.24849
1433282850.233,-150.24701
1433282850.248,-175.12973
1433282850.264,-206.28082
1433282850.28,-238.5073
1433282850.295,-268.27222
1433282850.311,-294.3099
1433282850.327,-316.18658
1433282850.342,-332.43512
1433282850.358,-340.00525
1433282850.373,-335.4124
1433282850.389,-317.06073
1433282850.405,-287.01495
1433282850.42,-250.63219
1433282850.436,-214.66418
1433282850.452,-184.76778
1433282850.467,-163.82596
1433282850.483,-151.87402
1433282850.498,-147.28955
1433282850.514,-148.24237
1433282850.53,-153.48969
1433282850.545,-162.10599
1433282850.561,-172.43079
1433282850.577,-181.2341
1433282850.592,-183.58453
1433282850.608,-174.061
1433282850.623,-148.3895
1433282850.639,-105.0188
1433282850.655,-45.755005
1433282850.67,25.062225
1433282850.686,102.49762
1433282850.702,183.01999
1433282850.717,265.25485
1433282850.733,348.77258
1433282850.748,431.70074
1433282850.764,508.71497
1433282850.78,571.12866
1433282850.795,609.364
1433282850.811,616.8043
1433282850.827,592.71704
1433282850.842,542.7175
1433282850.858,476.39148
1433282850.873,403.40106
1433282850.889,330.21277
1433282850.905,258.76547
1433282850.92,187.9422
1433282850.936,116.35367
1433282850.952,44.75345
1433282850.967,-23.432465
1433282850.983,-83.5809
1433282850.998,-132.29126
1433282851.014,-169.11398
1433282851.03,-196.43213
1433282851.045,-217.76129
1433282851.061,-235.5409
1433282851.077,-249.92465
1433282851.092,-258.94388
1433282851.108,-260.39832
1433282851.124,-253.73077
1433282851.139,-240.90381
1433282851.155,-225.68677
1433282851.17,-211.84488
1433282851.186,-201.36322
1433282851.202,-193.81787
1433282851.217,-187.17133
1433282851.233,-179.34375
1433282851.249,-169.54614
1433282851.264,-158.58118
1433282851.28,-148.12064
1433282851.295,-139.3298
1433282851.311,-132.81464
1433282851.327,-128.91772
1433282851.342,-127.781555
1433282851.358,-129.33713
1433282851.374,-133.35175
1433282851.389,-139.44797
1433282851.405,-147.0008
1433282851.42,-155.20801
1433282851.436,-162.86026
1433282851.452,-169.37357
1433282851.467,-175.2558
1433282851.483,-181.63187
1433282851.499,-189.35883
1433282851.514,-198.62207
1433282851.53,-209.1088
1433282851.545,-220.46387
1433282851.561,-232.72433
1433282851.577,-245.26111
1433282851.592,-258.10938
1433282851.608,-271.9383
1433282851.624,-286.85443
1433282851.639,-301.26346
1433282851.655,-312.5236
1433282851.67,-318.53647
1433282851.686,-318.96976
1433282851.702,-315.41815
1433282851.717,-307.1892
1433282851.733,-294.7132
1433282851.749,-280.6126
1433282851.764,-267.80005
1433282851.78,-257.0891
1433282851.795,-247.54417
1433282851.811,-237.90201
1433282851.827,-227.07495
1433282851.842,-213.82126
1433282851.858,-189.72154
1433282851.874,-149.27658
1433282851.889,-94.92031
1433282851.905,-34.141464
1433282851.92,26.74579
1433282851.936,84.385345
1433282851.952,137.55267
1433282851.967,186.45575
1433282851.983,232.27325
1433282851.999,287.01263
1433282852.014,357.20898
1433282852.03,436.48273
1433282852.045,511.36935
1433282852.061,572.12256
1433282852.077,615.6532
1433282852.092,643.19617
1433282852.108,658.1968
1433282852.124,664.9564
1433282852.139,681.0437
1433282852.155,717.1044
1433282852.17,768.1852
1433282852.186,821.95013
1433282852.202,872.071
1433282852.217,919.6084
1433282852.233,966.8601
1433282852.249,1012.39685
1433282852.264,960.73376
1433282852.28,772.38306
1433282852.295,501.09958
1433282852.311,238.7398
1433282852.327,38.286865
1433282852.342,-92.65143
1433282852.358,-169.26306
1433282852.374,-214.10349
1433282852.389,-248.24753
1433282852.405,-283.3604
1433282852.42,-311.60638
1433282852.436,-323.63318
1433282852.452,-322.4253
1433282852.467,-320.00912
1433282852.483,-325.97705
1433282852.499,-344.02386
1433282852.514,-373.3653
1433282852.53,-410.84833
1433282852.545,-445.49622
1433282852.561,-457.6953
1433282852.577,-435.4898
1433282852.592,-383.54828
1433282852.608,-316.8584
1433282852.624,-248.34367
1433282852.639,-184.4417
1433282852.655,-126.70535
1433282852.67,-74.65085
1433282852.686,-28.18254
1433282852.702,16.421265
1433282852.717,58.279472
1433282852.733,89.197296
1433282852.749,99.52361
1433282852.764,86.399086
1433282852.78,55.396736
1433282852.795,17.484634
1433282852.811,-14.996132
1433282852.827,-32.06872
1433282852.842,-26.878994
1433282852.858,-0.9657059
1433282852.874,35.02437
1433282852.889,67.26225
1433282852.905,86.86977
1433282852.92,93.77229
1433282852.936,95.177734
1433282852.952,100.533676
1433282852.967,115.54419
1433282852.983,139.28581
1433282852.999,163.99248
1433282853.014,179.14815
1433282853.03,177.86977
1433282853.045,161.04034
1433282853.061,136.27919
1433282853.077,113.12307
1433282853.092,98.00325
1433282853.108,91.905716
1433282853.124,91.141
1433282853.139,90.85133
1433282853.155,87.93898
1433282853.17,82.17093
1433282853.186,75.46577
1433282853.202,69.86658
1433282853.217,65.96576
1433282853.233,62.763824
1433282853.249,58.36763
1433282853.264,51.47261
1433282853.28,42.718155
1433282853.295,34.78311
1433282853.311,31.150513
1433282853.327,34.247757
1433282853.342,43.764496
1433282853.358,56.3555
1433282853.374,66.89407
1433282853.389,70.75568
1433282853.405,65.991974
1433282853.42,54.242218
1433282853.436,39.979584
1433282853.452,28.473694
1433282853.467,23.559235
1433282853.483,26.213135
1433282853.499,34.464233
1433282853.514,44.60489
1433282853.53,52.840057
1433282853.545,56.52231
1433282853.561,54.58615
1433282853.577,47.243103
1433282853.592,35.39734
1433282853.608,20.052246
1433282853.624,1.9770508
1433282853.639,-18.48175
1433282853.655,-41.373108
1433282853.67,-66.8067
1433282853.686,-94.37158
1433282853.702,-122.63562
1433282853.717,-148.99548
1433282853.733,-170.19409
1433282853.749,-183.531
1433282853.764,-188.17114
1433282853.78,-185.9079
1433282853.796,-180.49469
1433282853.811,-176.07043
1433282853.827,-175.2893
1433282853.842,-178.55853
1433282853.858,-184.57355
1433282853.874,-191.99902
1433282853.889,-200.8147
1433282853.905,-212.55988
1433282853.921,-229.07
1433282853.936,-250.79944
1433282853.952,-275.82452
1433282853.967,-300.2962
1433282853.983,-320.0005
1433282853.999,-332.17883
1433282854.014,-336.47815
1433282854.03,-334.79755
1433282854.046,-330.15106
1433282854.061,-325.294
1433282854.077,-321.78906
1433282854.092,-319.75488
1433282854.108,-318.22137
1433282854.124,-315.69513
1433282854.139,-310.63733
1433282854.155,-301.7456
1433282854.171,-287.97345
1433282854.186,-268.51917
1433282854.202,-243.00482
1433282854.217,-211.78528
1433282854.233,-176.34222
1433282854.249,-139.35687
1433282854.264,-104.29608
1433282854.28,-74.64014
1433282854.296,-52.775146
1433282854.311,-39.196106
1433282854.327,-32.27887
1433282854.342,-28.927673
1433282854.358,-25.548126
1433282854.374,-19.168213
1433282854.389,-7.9857483
1433282854.405,8.519318
1433282854.421,29.870605
1433282854.436,54.978333
1433282854.452,82.4382
1433282854.467,110.64688
1433282854.483,138.01276
1433282854.499,163.20651
1433282854.514,185.46857
1433282854.53,204.60239
1433282854.546,220.80884
1433282854.561,234.1488
1433282854.577,244.14713
1433282854.592,249.76599
1433282854.608,249.8359
1433282854.624,243.69029
1433282854.639,231.81593
1433282854.655,215.9799
1433282854.671,198.9591
1433282854.686,183.85107
1433282854.702,173.27936
1433282854.717,168.66202
1433282854.733,169.83302
1433282854.749,175.095
1433282854.764,181.87373
1433282854.78,187.61505
1433282854.796,190.63484
1433282854.811,190.40779
1433282854.827,187.371
1433282854.842,182.24246
1433282854.858,175.54408
1433282854.874,167.457
1433282854.889,158.1517
1433282854.905,148.16438
1433282854.921,138.47282
1433282854.936,130.16856
1433282854.952,123.99631
1433282854.967,120.03546
1433282854.983,117.86746
1433282854.999,117.006516
1433282855.014,117.34842
1433282855.03,119.14996
1433282855.046,122.76331
1433282855.061,128.14417
1433282855.077,134.67056
1433282855.092,141.25659
1433282855.108,146.67682
1433282855.124,149.91501
1433282855.139,150.35565
1433282855.155,147.72737
1433282855.171,142.10709
1433282855.186,134.00116
1433282855.202,124.446014
1433282855.217,114.953094
1433282855.233,107.19537
1433282855.249,102.34531
1433282855.264,100.405594
1433282855.28,99.926865
1433282855.296,98.50955
1433282855.311,93.89406
1433282855.327,85.39987
1433282855.342,74.598755
1433282855.358,64.84924
1433282855.374,59.558624
1433282855.389,60.142517
1433282855.405,64.92413
1433282855.421,69.65527
1433282855.436,69.66885
1433282855.452,62.26001
1433282855.467,47.886566
1433282855.483,29.27893
1433282855.499,9.155853
1433282855.514,-11.717682
1433282855.53,-34.858063
1433282855.546,-62.394867
1433282855.561,-94.741974
1433282855.577,-129.12546
1433282855.592,-160.35107
1433282855.608,-183.37811
1433282855.624,-196.20367
1433282855.639,-201.07825
1433282855.655,-203.40741
1433282855.671,-208.97083
1433282855.686,-220.94824
1433282855.702,-238.49908
1433282855.717,-257.27454
1433282855.733,-271.4071
1433282855.749,-275.8208
1433282855.764,-268.05402
1433282855.78,-248.85376
1433282855.796,-221.73834
1433282855.811,-191.82672
1433282855.827,-164.36163
1433282855.842,-143.31427
1433282855.858,-130.45538
1433282855.874,-125.21692
1433282855.889,-125.23572
1433282855.905,-127.31903
1433282855.921,-128.48029
1433282855.936,-126.57422
1433282855.952,-120.46002
1433282855.967,-109.76581
1433282855.983,-94.65918
1433282855.999,-75.84497
1433282856.014,-54.730103
1433282856.03,-33.442688
1433282856.046,-14.44519
1433282856.061,0.17773438
1433282856.077,9.433655
1433282856.092,13.761169
1433282856.108,14.78241
1433282856.124,14.575073
1433282856.139,14.835266
1433282856.155,16.309143
1433282856.171,18.673645
1433282856.186,20.927307
1433282856.202,21.937195
1433282856.217,20.991272
1433282856.233,18.034302
1433282856.249,13.805542
1433282856.264,9.511963
1433282856.28,6.4243774
1433282856.296,5.4105835
1433282856.311,6.6150513
1433282856.327,9.494995
1433282856.342,13.045105
1433282856.358,16.13861
1433282856.374,17.69989
1433282856.389,16.637024
1433282856.405,11.759155
1433282856.421,2.00885
1433282856.436,-13.007507
1433282856.452,-32.397156
1433282856.468,-53.749878
1433282856.483,-73.68158
1433282856.499,-88.940735
1433282856.514,-97.61395
1433282856.53,-99.680115
1433282856.546,-96.73352
1433282856.561,-90.99689
1433282856.577,-84.26312
1433282856.592,-77.36609
1433282856.608,-70.2796
1433282856.624,-62.589478
1433282856.639,-54.00995
1433282856.655,-44.59552
1433282856.671,-34.73517
1433282856.686,-24.99054
1433282856.702,-15.972046
1433282856.718,-8.230164
1433282856.733,-2.2192993
1433282856.749,1.9030762
1433282856.764,4.363037
1433282856.78,5.7387695
1433282856.796,6.748657
1433282856.811,7.9269104
1433282856.827,9.29953
1433282856.843,10.324951
1433282856.858,10.132172
1433282856.874,7.980652
1433282856.889,3.7435303
1433282856.905,-1.8581543
1433282856.921,-7.4261475
1433282856.936,-11.390808
1433282856.952,-12.704041
1433282856.968,-11.360413
1433282856.983,-8.405487
1433282856.999,-5.330139
1433282857.014,-3.2347717
1433282857.03,-2.1591187
1433282857.046,-1.1785583
1433282857.061,0.85775757
1433282857.077,4.421051
1433282857.093,8.786652
1433282857.108,12.378113
1433282857.124,13.743408
1433282857.139,12.611786
1433282857.155,10.157227
1433282857.171,8.290802
1433282857.186,8.400543
1433282857.202,10.250488
1433282857.218,11.940216
1433282857.233,10.899017
1433282857.249,5.533539
1433282857.264,-3.65625
1433282857.28,-14.084198
1433282857.296,-22.37503
1433282857.311,-26.057404
1433282857.327,-24.702393
1433282857.343,-19.88234
1433282857.358,-14.073563
1433282857.374,-9.264053
1433282857.389,-6.114685
1433282857.405,-4.101822
1433282857.421,-2.2581787
1433282857.436,0.10496521
1433282857.452,3.2603912
1433282857.468,7.548172
1433282857.483,13.741013
1433282857.499,23.055222
1433282857.514,36.259857
1433282857.53,52.684555
1433282857.546,69.71542
1433282857.561,83.447845
1433282857.577,90.25648
1433282857.593,88.60294
1433282857.608,79.9455
1433282857.624,68.25953
1433282857.639,58.521027
1433282857.655,54.64731
1433282857.671,58.06311
1433282857.686,67.4453
1433282857.702,79.47671
1433282857.718,90.40847
1433282857.733,97.3936
1433282857.749,99.22453
1433282857.764,96.15501
1433282857.78,89.24157
1433282857.796,79.565994
1433282857.811,67.935
1433282857.827,55.084904
1433282857.843,42.03151
1433282857.858,30.226482
1433282857.874,21.235714
1433282857.889,16.078392
1433282857.905,14.644981
1433282857.921,15.663921
1433282857.936,17.324045
1433282857.952,18.104225
1433282857.968,17.457378
1433282857.983,15.789766
1433282857.999,14.020506
1433282858.014,12.912447
1433282858.03,12.688087
1433282858.046,13.017408
1433282858.061,13.337143
1433282858.077,13.141743
1433282858.093,12.13713
1433282858.108,10.27069
1433282858.124,7.6779575
1433282858.139,4.6538744
1433282858.155,1.6401215
1433282858.171,-0.88624
1433282858.186,-2.5853167
1433282858.202,-3.3857107
1433282858.218,-3.4996033
1433282858.233,-3.2924042
1433282858.249,-3.0656824
1433282858.264,-2.9570503
1433282858.28,-2.9347181
1433282858.296,-2.89754
1433282858.311,-2.731763
1433282858.327,-2.3176155
1433282858.343,-1.4661398
1433282858.358,0.06385231
1433282858.374,2.4829779
1433282858.389,5.9096107
1433282858.405,10.265593
1433282858.421,15.264982
1433282858.436,20.470335
1433282858.452,25.36808
1433282858.468,29.482697
1433282858.483,32.548035
1433282858.499,34.742897
1433282858.514,36.82917
1433282858.53,40.13431
1433282858.546,45.93918
1433282858.561,54.67028
1433282858.577,65.17642
1433282858.593,74.67935
1433282858.608,79.647675
1433282858.624,77.28389
1433282858.639,66.8616
1433282858.655,50.15221
1433282858.671,30.626411
1433282858.686,11.859165
1433282858.702,-3.9154434
1433282858.718,-16.31009
1433282858.733,-26.19033
1433282858.749,-34.489136
1433282858.764,-41.310223
1433282858.78,-45.876217
1433282858.796,-47.328583
1433282858.811,-45.636925
1433282858.827,-42.029022
1433282858.843,-38.42447
1433282858.858,-36.347763
1433282858.874,-36.057693
1433282858.889,-36.51364
1433282858.905,-36.205063
1433282858.921,-34.401398
1433282858.936,-31.83274
1433282858.952,-30.361572
1433282858.968,-31.795753
1433282858.983,-36.664886
1433282858.999,-43.745766
1433282859.014,-50.721306
1433282859.03,-55.41004
1433282859.046,-56.86023
1433282859.061,-55.46885
1433282859.077,-52.3696
1433282859.093,-48.44536
1433282859.108,-43.868782
1433282859.124,-38.362038
1433282859.139,-31.891342
1433282859.155,-25.067223
1433282859.171,-18.96518
1433282859.186,-14.405228
1433282859.202,-11.35881
1433282859.218,-8.902145
1433282859.233,-5.8667603
1433282859.249,-1.6645432
1433282859.264,3.2819672
1433282859.28,7.8851013
1433282859.296,11.144432
1433282859.311,12.911293
1433282859.327,13.985931
1433282859.343,15.674034
1433282859.358,19.011688
1433282859.374,24.185562
1433282859.39,30.516037
1433282859.405,36.825684
1433282859.421,41.989548
1433282859.436,45.32174
1433282859.452,46.656174
1433282859.468,46.169785
1433282859.483,44.12829
1433282859.499,40.71959
1433282859.515,36.091972
1433282859.53,30.500702
1433282859.546,24.397697
1433282859.561,18.472496
1433282859.577,13.416603
1433282859.593,9.6813965
1433282859.608,7.2895813
1433282859.624,5.832985
1433282859.64,4.66288
1433282859.655,3.2453156
1433282859.671,1.3937378
1433282859.686,-0.6881561
1433282859.702,-2.5780945
1433282859.718,-3.9651566
1433282859.733,-4.8225403
1433282859.749,-5.4012604
1433282859.765,-6.0852127
1433282859.78,-7.1562653
1433282859.796,-8.67131
1433282859.811,-10.512016
1433282859.827,-12.506477
1433282859.843,-14.516998
1433282859.858,-16.450836
1433282859.874,-18.202805
1433282859.89,-19.614578
1433282859.905,-20.523804
1433282859.921,-20.903885
1433282859.936,-20.937157
1433282859.952,-21.040169
1433282859.968,-21.632462
1433282859.983,-22.943817
1433282859.999,-24.788307
1433282860.015,-26.619629
1433282860.03,-27.671303
1433282860.046,-27.340103
1433282860.061,-25.390205
1433282860.077,-22.108078
1433282860.093,-18.173378
1433282860.108,-14.4107895
1433282860.124,-11.494804
1433282860.14,-9.755409
1433282860.155,-9.134811
1433282860.171,-9.32336
1433282860.186,-9.903294
1433282860.202,-10.517616
1433282860.218,-10.858643
1433282860.233,-10.620674
1433282860.249,-9.418762
1433282860.265,-6.886818
1433282860.28,-2.8618965
1433282860.296,2.423729
1433282860.311,8.354122
1433282860.327,14.143547
1433282860.343,19.211967
1433282860.358,23.44666
1433282860.374,27.111252
1433282860.39,30.37915
1433282860.405,32.79702
1433282860.421,33.099216
1433282860.436,29.596973
1433282860.452,21.04404
1433282860.468,7.4630013
1433282860.483,-9.708794
1433282860.499,-28.174448
1433282860.515,-45.876026
1433282860.53,-61.67199
1433282860.546,-75.353165
1433282860.561,-86.81032
1433282860.577,-95.25096
1433282860.593,-99.010574
1433282860.608,-96.45499
1433282860.624,-87.28318
1433282860.64,-73.45396
1433282860.655,-58.91926
1433282860.671,-48.159447
1433282860.686,-44.243782
1433282860.702,-47.67832
1433282860.718,-56.568176
1433282860.733,-67.95424
1433282860.749,-79.4303
1433282860.765,-89.98949
1433282860.78,-99.6847
1433282860.796,-108.65099
1433282860.811,-116.16508
1433282860.827,-120.66093
1433282860.843,-120.582954
1433282860.858,-115.520096
1433282860.874,-106.644745
1433282860.89,-96.30423
1433282860.905,-86.868675
1433282860.921,-79.67508
1433282860.936,-74.72102
1433282860.952,-71.24451
1433282860.968,-68.552765
1433282860.983,-66.47627
1433282860.999,-65.18086
1433282861.015,-64.469055
1433282861.03,-63.29892
1433282861.046,-59.91121
1433282861.061,-52.64952
1433282861.077,-40.864655
1433282861.093,-25.387726
1433282861.108,-8.174667
1433282861.124,8.694214
1433282861.14,23.913757
1433282861.155,37.34915
1433282861.171,49.78299
1433282861.186,62.465088
1433282861.202,76.71689
1433282861.218,93.91345
1433282861.233,115.38501
1433282861.249,142.04486
1433282861.265,173.71558
1433282861.28,208.62811
1433282861.296,243.51645
1433282861.311,274.4298
1433282861.327,297.88507
1433282861.343,311.81738
1433282861.358,315.81805
1433282861.374,310.78128
1433282861.39,298.21857
1433282861.405,279.88934
1433282861.421,257.76813
1433282861.436,234.24252
1433282861.452,212.02692
1433282861.468,193.69345
1433282861.483,180.92499
1433282861.499,173.85178
1433282861.515,170.9061
1433282861.53,169.35468
1433282861.546,166.18613
1433282861.561,159.04651
1433282861.577,146.87097
1433282861.593,129.95175
1433282861.608,109.43292
1433282861.624,86.6528
1433282861.64,62.473297
1433282861.655,37.197784
1433282861.671,10.9895935
1433282861.686,-15.395325
1433282861.702,-40.38974
1433282861.718,-62.01767
1433282861.733,-78.95871
1433282861.749,-91.490875
1433282861.765,-101.68454
1433282861.78,-112.4834
1433282861.796,-126.077515
1433282861.811,-142.53629
1433282861.827,-159.4627
1433282861.843,-172.87405
1433282861.858,-178.8392
1433282861.874,-175.0534
1433282861.89,-161.66324
1433282861.905,-140.97176
1433282861.921,-116.40448
1433282861.936,-91.19249
1433282861.952,-67.44734
1433282861.968,-45.703827
1433282861.983,-25.208282
1433282861.999,-4.6066895
1433282862.015,17.126083
1433282862.03,39.99283
1433282862.046,62.702896
1433282862.062,83.03015
1433282862.077,98.65527
1433282862.093,108.07413
1433282862.108,111.134476
1433282862.124,108.99747
1433282862.14,103.57822
1433282862.155,96.76063
1433282862.171,89.774994
1433282862.187,83.07661
1433282862.202,76.526855
1433282862.218,69.81509
1433282862.233,62.735565
1433282862.249,55.293274
1433282862.265,47.63439
1433282862.28,39.9028
1433282862.296,32.26851
1433282862.312,25.005737
1433282862.327,18.462193
1433282862.343,12.97011
1433282862.358,8.697969
1433282862.374,5.6179543
1433282862.39,3.5736055
1433282862.405,2.430053
1433282862.421,2.0639048
1433282862.437,2.2742367
1433282862.452,2.6119862
1433282862.468,2.4240608
1433282862.483,1.1677208
1433282862.499,-1.1636391
1433282862.515,-3.8631592
1433282862.53,-5.8403625
1433282862.546,-6.3679047
1433282862.562,-5.687065
1433282862.577,-5.0932007
1433282862.593,-6.177223
1433282862.608,-9.9902725
1433282862.624,-16.473259
1433282862.64,-24.808014
1433282862.655,-34.209167
1433282862.671,-44.675537
1433282862.687,-56.926254
1433282862.702,-71.62419
1433282862.718,-88.47293
1433282862.733,-105.90787
1433282862.749,-121.64462
1433282862.765,-133.8288
1433282862.78,-141.88216
1433282862.796,-146.60132
1433282862.812,-149.3701
1433282862.827,-151.12163
1433282862.843,-151.61208
1433282862.858,-149.54103
1433282862.874,-143.30743
1433282862.89,-131.90015
1433282862.905,-115.45981
1433282862.921,-95.27559
1433282862.937,-73.37016
1433282862.952,-52.03601
1433282862.968,-33.42148
1433282862.983,-19.282196
1433282862.999,-10.683701
1433282863.015,-7.659363
1433282863.03,-8.977646
1433282863.046,-12.360336
1433282863.062,-15.162598
1433282863.077,-15.433899
1433282863.093,-12.723877
1433282863.108,-8.207062
1433282863.124,-3.966919
1433282863.14,-1.7999268
1433282863.155,-2.2383423
1433282863.171,-4.3407288
1433282863.187,-6.2911377
1433282863.202,-6.4437866
1433282863.218,-4.0947266
1433282863.233,0.37426758
1433282863.249,5.9439087
1433282863.265,11.43988
1433282863.28,15.847656
1433282863.296,18.314697
1433282863.312,18.147095
1433282863.327,15.056732
1433282863.343,9.528534
1433282863.358,2.9970703
1433282863.374,-2.4405823
1433282863.39,-4.7984314
1433282863.405,-3.0517883
1433282863.421,2.376007
1433282863.437,9.792664
1433282863.452,16.960388
1433282863.468,21.99356
1433282863.483,24.00644
1433282863.499,23.294312
1433282863.515,21.05835
1433282863.53,19.008484
1433282863.546,18.742249
1433282863.562,21.294647
1433282863.577,26.747192
1433282863.593,34.10327
1433282863.608,41.613678
1433282863.624,47.41916
1433282863.64,50.31256
1433282863.655,50.284424
1433282863.671,48.460083
1433282863.687,46.551025
1433282863.702,46.093353
1433282863.718,47.90738
1433282863.733,51.957672
1433282863.749,57.58316
1433282863.765,63.85675
1433282863.78,69.78055
1433282863.796,74.320404
1433282863.812,76.48566
1433282863.827,75.47861
1433282863.843,71.08896
1433282863.858,63.989746
1433282863.874,55.629883
1433282863.89,47.74713
1433282863.905,41.592987
1433282863.921,37.355835
1433282863.937,34.068573
1433282863.952,30.217773
1433282863.968,24.655151
1433282863.983,17.371124
1433282863.999,9.595551
1433282864.015,3.1592712
1433282864.03,-0.62454224
1433282864.046,-1.9116211
1433282864.062,-2.579895
1433282864.077,-5.7877502
1433282864.093,-14.92218
1433282864.108,-32.527466
1433282864.124,-59.33551
1433282864.14,-93.8309
1433282864.155,-132.46918
1433282864.171,-170.46915
1433282864.187,-203.0553
1433282864.202,-226.67276
1433282864.218,-239.76859
1433282864.233,-242.75388
1433282864.249,-237.36801
1433282864.265,-225.49765
1433282864.28,-208.29529
1433282864.296,-185.7911
1433282864.312,-157.43344
1433282864.327,-123.15021
1433282864.343,-84.47974
1433282864.358,-45.208374
1433282864.374,-11.050934
1433282864.39,11.626434
1433282864.405,17.852814
1433282864.421,6.1272583
1433282864.437,-20.370514
1433282864.452,-53.98703
1433282864.468,-84.68143
1433282864.483,-103.16815
1433282864.499,-104.05032
1433282864.515,-87.378174
1433282864.53,-58.22815
1433282864.546,-24.321198
1433282864.562,6.9571533
1433282864.577,30.973694
1433282864.593,46.785645
1433282864.608,56.457825
1433282864.624,63.4433
1433282864.64,70.791565
1433282864.655,79.91846
1433282864.671,90.33856
1433282864.687,100.12662
1433282864.702,106.94733
1433282864.718,109.06418
1433282864.734,105.97974
1433282864.749,98.44336
1433282864.765,87.885864
1433282864.78,75.58716
1433282864.796,62.184143
1433282864.812,47.6893
1433282864.827,32.151825
1433282864.843,16.393112
1433282864.859,2.321518
1433282864.874,-7.6717834
1433282864.89,-11.886139
1433282864.905,-10.465363
1433282864.921,-5.6448517
1433282864.937,-0.86357117
1433282864.952,0.92089844
1433282864.968,-1.3251953
1433282864.984,-6.243759
1433282864.999,-10.947342
1433282865.015,-12.653717
1433282865.03,-10.149521
1433282865.046,-4.307968
1433282865.062,2.583908
1433282865.077,8.147293
1433282865.093,11.079269
1433282865.109,11.595673
1433282865.124,10.978699
1433282865.14,10.699142
1433282865.155,11.591965
1433282865.171,13.639847
1433282865.187,16.148087
1433282865.202,18.33371
1433282865.218,19.687515
1433282865.234,20.117844
1433282865.249,19.74916
1433282865.265,18.75827
1433282865.28,17.23088
1433282865.296,15.281296
1433282865.312,13.200836
1433282865.327,11.437439
1433282865.343,10.465836
1433282865.359,10.50499
1433282865.374,11.322067
1433282865.39,12.343018
1433282865.405,12.993622
1433282865.421,13.053406
1433282865.437,12.824432
1433282865.452,13.003387
1433282865.468,14.258057
1433282865.484,16.844177
1433282865.499,20.41249
1433282865.515,24.177002
1433282865.53,27.234482
1433282865.546,28.935287
1433282865.562,29.026741
1433282865.577,27.641441
1433282865.593,25.083435
1433282865.609,21.635605
1433282865.624,17.447655
1433282865.64,12.609459
1433282865.655,7.208496
1433282865.671,1.4944305
1433282865.687,-4.187645
1433282865.702,-9.416107
1433282865.718,-13.830986
1433282865.734,-17.105614
1433282865.749,-18.985641
1433282865.765,-19.188461
1433282865.78,-17.567207
1433282865.796,-14.272278
1433282865.812,-9.966286
1433282865.827,-5.801216
1433282865.843,-3.087677
1433282865.859,-2.7506104
1433282865.874,-4.7727814
1433282865.89,-8.103241
1433282865.905,-11.018738
1433282865.921,-11.874825
1433282865.937,-9.85215
1433282865.952,-5.2736588
1433282865.968,0.6659546
1433282865.984,6.5051727
1433282865.999,11.212639
1433282866.015,14.5701065
1433282866.03,17.060532
1433282866.046,19.469772
1433282866.062,22.296425
1433282866.077,25.400383
1433282866.093,27.948654
1433282866.109,28.710312
1433282866.124,26.620987
1433282866.14,21.310112
1433282866.155,13.363861
1433282866.171,4.229286
1433282866.187,-4.3232346
1433282866.202,-10.835426
1433282866.218,-14.62635
1433282866.234,-15.882294
1433282866.249,-15.360275
1433282866.265,-13.809181
1433282866.28,-11.643242
1433282866.296,-8.808441
1433282866.312,-5.029022
1433282866.327,-0.08732605
1433282866.343,5.9241867
1433282866.359,12.600853
1433282866.374,19.382507
1433282866.39,25.754723
1433282866.405,31.31932
1433282866.421,35.82582
1433282866.437,39.03495
1433282866.452,40.673195
1433282866.468,40.438744
1433282866.484,38.105392
1433282866.499,33.645966
1433282866.515,27.30513
1433282866.53,19.546867
1433282866.546,10.975792
1433282866.562,2.1451874
1433282866.577,-6.5393753
1433282866.593,-14.831741
1433282866.609,-22.503685
1433282866.624,-29.238266
1433282866.64,-34.5308
1433282866.655,-37.85853
1433282866.671,-38.874733
1433282866.687,-37.66182
1433282866.702,-34.781364
1433282866.718,-31.087402
1433282866.734,-27.393623
1433282866.749,-24.226746
1433282866.765,-21.698128
1433282866.78,-19.743431
1433282866.796,-18.317268
1433282866.812,-17.573189
1433282866.827,-17.777153
1433282866.843,-19.052544
1433282866.859,-21.121223
1433282866.874,-23.309364
1433282866.89,-24.741577
1433282866.905,-24.762077
1433282866.921,-23.212486
1433282866.937,-20.43798
1433282866.952,-17.00093
1433282866.968,-13.358543
1433282866.984,-9.625023
1433282866.999,-5.648468
1433282867.015,-1.2903442
1433282867.03,3.2954483
1433282867.046,7.6082535
1433282867.062,10.978195
1433282867.077,12.873009
1433282867.093,13.120857
1433282867.109,11.954208
1433282867.124,9.9014435
1433282867.14,7.5696945
1433282867.155,5.473404
1433282867.171,3.96978
1433282867.187,3.2176895
1433282867.202,3.186409
1433282867.218,3.5971909
1433282867.234,4.045143
1433282867.249,4.008522
1433282867.265,3.0631561
1433282867.28,0.99746704
1433282867.296,-2.0529861
1433282867.312,-5.667404
1433282867.327,-9.252777
1433282867.343,-12.271591
1433282867.359,-14.450272
1433282867.374,-15.814781
1433282867.39,-16.612991
1433282867.406,-17.077862
1433282867.421,-17.248032
1433282867.437,-16.952354
1433282867.452,-15.932011
1433282867.468,-14.061001
1433282867.484,-11.457699
1433282867.499,-8.469208
1433282867.515,-5.365555
1433282867.53,-2.15345
1433282867.546,1.4854507
1433282867.562,5.8779144
1433282867.577,11.017471
1433282867.593,16.36288
1433282867.609,21.04036
1433282867.624,24.282932
1433282867.64,25.862083
1433282867.656,26.156246
1433282867.671,25.9017
1433282867.687,25.693962
1433282867.702,25.75418
1433282867.718,25.85936
1433282867.734,25.691803
1433282867.749,25.03244
1433282867.765,23.950382
1433282867.781,22.695526
1433282867.796,21.577969
1433282867.812,20.8051
1433282867.827,20.484753
1433282867.843,20.697292
1433282867.859,21.485588
1433282867.874,22.821976
1433282867.89,24.526066
1433282867.906,26.352123
1433282867.921,28.103703
1433282867.937,29.819305
1433282867.952,31.800617
1433282867.968,34.43054
1433282867.984,37.844475
1433282867.999,41.55993
1433282868.015,44.5382
1433282868.031,45.42661
1433282868.046,43.21583
1433282868.062,37.655354
1433282868.077,29.457108
1433282868.093,19.962196
1433282868.109,10.514198
1433282868.124,1.9501381
1433282868.14,-5.629719
1433282868.156,-12.607933
1433282868.171,-19.341545
1433282868.187,-25.798458
1433282868.202,-31.549274
1433282868.218,-36.084694
1433282868.234,-39.135727
1433282868.249,-40.834553
1433282868.265,-41.4691
1433282868.281,-41.200302
1433282868.296,-39.835682
1433282868.312,-37.03076
1433282868.327,-32.642567
1433282868.343,-27.055748
1433282868.359,-21.17134
1433282868.374,-16.094803
1433282868.39,-12.669399
1433282868.406,-11.106358
1433282868.421,-10.989929
1433282868.437,-11.519615
1433282868.452,-11.9411545
1433282868.468,-11.839497
1433282868.484,-11.24123
1433282868.499,-10.480186
1433282868.515,-9.903122
1433282868.531,-9.690247
1433282868.546,-9.707237
1433282868.562,-9.64846
1433282868.577,-9.165649
1433282868.593,-8.10807
1433282868.609,-6.552101
1433282868.624,-4.7567368
1433282868.64,-2.9654617
1433282868.656,-1.317894
1433282868.671,0.23916626
1433282868.687,1.8679199
1433282868.702,3.7348022
1433282868.718,5.9178543
1433282868.734,8.434326
1433282868.749,11.286438
1433282868.765,14.510056
1433282868.781,18.093697
1433282868.796,21.866615
1433282868.812,25.402802
1433282868.827,28.125801
1433282868.843,29.439232
1433282868.859,28.995628
1433282868.874,26.747108
1433282868.89,22.983772
1433282868.906,18.150764
1433282868.921,12.739906
1433282868.937,7.1756516
1433282868.952,1.7868576
1433282868.968,-3.193344
1433282868.984,-7.5920563
1433282868.999,-11.335976
1433282869.015,-14.416901
1433282869.031,-16.92176
1433282869.046,-18.972641
1433282869.062,-20.668419
1433282869.077,-22.035103
1433282869.093,-22.977005
1433282869.109,-23.320244
1433282869.124,-22.842613
1433282869.14,-21.366173
1433282869.156,-18.892326
1433282869.171,-15.640007
1433282869.187,-12.046417
1433282869.202,-8.648544
1433282869.218,-5.9658203
1433282869.234,-4.3098907
1433282869.249,-3.7328873
1433282869.265,-4.063141
1433282869.281,-4.954933
1433282869.296,-6.028549
1433282869.312,-6.9507675
1433282869.327,-7.4791794
1433282869.343,-7.469246
1433282869.359,-6.8745804
1433282869.374,-5.754013
1433282869.39,-4.237732
1433282869.406,-2.5152206
1433282869.421,-0.78865814
1433282869.437,0.73018646
1433282869.452,1.8695259
1433282869.468,2.5248833
1433282869.484,2.7270432
1433282869.499,2.6538315
1433282869.515,2.6366997
1433282869.531,3.0166092
1433282869.546,4.061844
1433282869.562,5.7994843
1433282869.577,7.990387
1433282869.593,10.2188225
1433282869.609,12.055351
1433282869.624,13.250259
1433282869.64,13.848045
1433282869.656,14.12521
1433282869.671,14.441166
1433282869.687,14.9676895
1433282869.702,15.628391
1433282869.718,16.01162
1433282869.734,15.593868
1433282869.749,13.922085
1433282869.765,10.879158
1433282869.781,6.7069473
1433282869.796,1.9467239
1433282869.812,-2.8259773
1433282869.827,-7.2236443
1433282869.843,-11.176769
1433282869.859,-14.860661
1433282869.874,-18.467773
1433282869.89,-22.004627
1433282869.906,-25.196922
1433282869.921,-27.605625
1433282869.937,-28.836494
1433282869.952,-28.733616
1433282869.968,-27.456757
1433282869.984,-25.325676
1433282869.999,-22.766254
1433282870.015,-20.11317
1433282870.031,-17.655682
1433282870.046,-15.613071
1433282870.062,-14.141888
1433282870.078,-13.202755
1433282870.093,-12.548103
1433282870.109,-11.785328
1433282870.124,-10.576027
1433282870.14,-8.848011
1433282870.156,-6.9191666
1433282870.171,-5.279766
1433282870.187,-4.3017616
1433282870.202,-3.966341
1433282870.218,-3.8556004
1433282870.234,-3.4339218
1433282870.249,-2.4669724
1433282870.265,-1.2037144
1433282870.281,-0.3068943
1433282870.296,-0.3353367
1433282870.312,-1.3503895
1433282870.328,-2.7695637
1433282870.343,-3.7243252
1433282870.359,-3.5889797
1433282870.374,-2.458106
1433282870.39,-1.0810223
1433282870.406,-0.34683895
1433282870.421,-0.6408901
1433282870.437,-1.4298344
1433282870.453,-1.4777365
1433282870.468,0.447608
1433282870.484,4.84342
1433282870.499,11.016678
1433282870.515,17.413837
1433282870.531,22.367052
1433282870.546,24.980186
1433282870.562,25.449125
1433282870.578,24.875418
1433282870.593,24.518303
1433282870.609,25.065874
1433282870.624,26.32383
1433282870.64,27.534357
1433282870.656,28.001226
1433282870.671,27.71996
1433282870.687,27.488132
1433282870.703,28.397821
1433282870.718,31.058506
1433282870.734,35.06066
1433282870.749,38.965996
1433282870.765,40.99781
1433282870.781,39.941917
1433282870.796,35.776752
1433282870.812,29.626175
1433282870.828,23.097004
1433282870.843,17.368446
1433282870.859,12.678447
1433282870.874,8.437939
1433282870.89,3.9758015
1433282870.906,-0.7078004
1433282870.921,-4.6552677
1433282870.937,-6.416525
1433282870.953,-4.978173
1433282870.968,-0.5957098
1433282870.984,5.1360564
1433282870.999,9.880595
1433282871.015,11.680556
1433282871.031,9.795671
1433282871.046,4.9677362
1433282871.062,-1.1454613
1433282871.078,-6.8224835
1433282871.093,-10.984263
1433282871.109,-13.442871
1433282871.124,-14.609703
1433282871.14,-15.056853
1433282871.156,-15.1353035
1433282871.171,-14.932768
1433282871.187,-14.405676
1433282871.203,-13.58206
1433282871.218,-12.650337
1433282871.234,-11.887511
1433282871.249,-11.5300045
1433282871.265,-11.592236
1433282871.281,-11.900365
1433282871.296,-12.074372
1433282871.312,-11.797044
1433282871.328,-11.02489
1433282871.343,-10.130148
1433282871.359,-9.786365
1433282871.374,-10.58808
1433282871.39,-12.57635
1433282871.406,-14.982173
1433282871.421,-16.413263
1433282871.437,-15.427805
1433282871.453,-11.252964
1433282871.468,-4.2654743
1433282871.484,4.067278
1433282871.499,11.73958
1433282871.515,17.020737
1433282871.531,19.131025
1433282871.546,18.504187
1433282871.562,16.422575
1433282871.578,14.4172
1433282871.593,13.552101
1433282871.609,14.06583
1433282871.624,15.36108
1433282871.64,16.419065
1433282871.656,16.269314
1433282871.671,14.488838
1433282871.687,11.288761
1433282871.703,7.3642616
1433282871.718,3.5402622
1433282871.734,0.4219799
1433282871.749,-1.7450275
1433282871.765,-2.9791203
1433282871.781,-3.3663063
1433282871.796,-2.949379
1433282871.812,-1.7102184
1433282871.828,0.32134247
1433282871.843,2.9370213
1433282871.859,5.714237
1433282871.874,8.065994
1433282871.89,9.413582
1433282871.906,9.324142
1433282871.921,7.735153
1433282871.937,4.9593086
1433282871.953,1.6513443
1433282871.968,-1.4501953
1433282871.984,-3.705387
1433282871.999,-4.831875
1433282872.015,-4.8790016
1433282872.031,-4.144867
1433282872.046,-2.9700966
1433282872.062,-1.5901794
1433282872.078,-0.0844574
1433282872.093,1.5289574
1433282872.109,3.234684
1433282872.124,4.891102
1433282872.14,6.310627
1433282872.156,7.2357635
1433282872.171,7.4994392
1433282872.187,7.0392838
1433282872.203,5.9892616
1433282872.218,4.6441803
1433282872.234,3.4457283
1433282872.249,2.827919
1433282872.265,3.1022034
1433282872.281,4.294426
1433282872.296,6.170513
1433282872.312,8.333382
1433282872.328,10.387726
1433282872.343,12.013718
1433282872.359,13.003593
1433282872.374,13.163521
1433282872.39,12.28611
1433282872.406,10.190681
1433282872.421,6.865715
1433282872.437,2.500084
1433282872.453,-2.4782486
1433282872.468,-7.604767
1433282872.484,-12.511955
1433282872.499,-17.081467
1433282872.515,-21.338814
1433282872.531,-25.308113
1433282872.546,-28.84716
1433282872.562,-31.643623
1433282872.578,-33.35742
1433282872.593,-33.86087
1433282872.609,-33.3313
1433282872.624,-32.1745
1433282872.64,-30.808418
1433282872.656,-29.414703
1433282872.671,-27.879723
1433282872.687,-25.985413
1433282872.703,-23.68209
1433282872.718,-21.311287
1433282872.734,-19.5606
1433282872.749,-19.141205
1433282872.765,-20.354462
1433282872.781,-22.819626
1433282872.796,-25.47583
1433282872.812,-26.978767
1433282872.828,-26.21003
1433282872.843,-22.782211
1433282872.859,-17.145393
1433282872.874,-10.476898
1433282872.89,-4.22213
1433282872.906,0.35479736
1433282872.921,2.5691986
1433282872.937,2.4737396
1433282872.953,0.8094864
1433282872.968,-1.2767868
1433282872.984,-2.5891418
1433282873,-2.2933807
1433282873.015,-0.15396881
1433282873.031,3.4523315
1433282873.046,7.807518
1433282873.062,12.290573
1433282873.078,16.699837
1433282873.093,21.308899
1433282873.109,26.592346
1433282873.125,32.77552
1433282873.14,39.51761
1433282873.156,45.865074
1433282873.171,50.63568
1433282873.187,52.8443
1433282873.203,52.087105
1433282873.218,48.522476
1433282873.234,42.692413
1433282873.25,35.17166
1433282873.265,26.47808
1433282873.281,16.99926
1433282873.296,7.211502
1433282873.312,-2.247116
1433282873.328,-10.623421
1433282873.343,-17.260658
1433282873.359,-21.824593
1433282873.375,-24.401749
1433282873.39,-25.38781
1433282873.406,-25.226288
1433282873.421,-24.112244
1433282873.437,-21.953613
1433282873.453,-18.505241
1433282873.468,-13.829735
1433282873.484,-8.536453
1433282873.5,-3.8525848
1433282873.515,-1.1129074
1433282873.531,-1.2149811
1433282873.546,-4.1161194
1433282873.562,-8.899948
1433282873.578,-14.327965
1433282873.593,-19.505447
1433282873.609,-24.215103
1433282873.625,-28.757263
1433282873.64,-33.335556
1433282873.656,-37.565865
1433282873.671,-40.53576
1433282873.687,-41.350014
1433282873.703,-39.873337
1433282873.718,-37.10588
1433282873.734,-34.755272
1433282873.75,-34.339184
1433282873.765,-36.22888
1433282873.781,-39.310406
1433282873.796,-41.490032
1433282873.812,-40.798027
1433282873.828,-36.41803
1433282873.843,-29.04498
1433282873.859,-20.437057
1433282873.875,-12.4631195
1433282873.89,-6.1242943
1433282873.906,-1.1795425
1433282873.921,3.5585594
1433282873.937,9.434715
1433282873.953,17.20029
1433282873.968,26.619316
1433282873.984,36.60843
1433282874,45.69199
1433282874.015,52.60961
1433282874.031,56.65201
1433282874.046,57.83459
1433282874.062,56.685284
1433282874.078,53.883457
1433282874.093,49.877636
1433282874.109,44.678444
1433282874.125,37.941315
1433282874.14,29.35324
1433282874.156,19.050367
1433282874.171,7.839342
1433282874.187,-3.080803
1433282874.203,-12.591156
1433282874.218,-20.16695
1433282874.234,-25.944607
1433282874.25,-30.31399
1433282874.265,-33.239845
1433282874.281,-33.977615
1433282874.296,-31.296747
1433282874.312,-24.29696
1433282874.328,-13.245059
1433282874.343,0.23396873
1433282874.359,13.73541
1433282874.375,24.958332
1433282874.39,32.62729
1433282874.406,36.66678
1433282874.421,37.80289
1433282874.437,36.846165
1433282874.453,34.194035
1433282874.468,29.748919
1433282874.484,23.186804
1433282874.5,14.3403
1433282874.515,3.3337355
1433282874.531,-9.459594
1433282874.546,-23.41646
1433282874.562,-37.69187
1433282874.578,-51.158585
1433282874.593,-62.435635
1433282874.609,-70.17226
1433282874.625,-73.605125
1433282874.64,-72.90169
1433282874.656,-69.22889
1433282874.671,-64.188576
1433282874.687,-59.104374
1433282874.703,-54.357224
1433282874.718,-49.308987
1433282874.734,-42.850124
1433282874.75,-34.26346
1433282874.765,-23.954494
1433282874.781,-13.562073
1433282874.796,-5.412243
1433282874.812,-1.477169
1433282874.828,-2.5160217
1433282874.843,-7.743702
1433282874.859,-15.184319
1433282874.875,-22.618813
1433282874.89,-28.480042
1433282874.906,-32.447433
1433282874.921,-35.36277
1433282874.937,-38.753998
1433282874.953,-43.977142
1433282874.968,-51.537292
1433282874.984,-60.580215
1433282875,-68.94513
1433282875.015,-73.70965
1433282875.031,-72.18137
1433282875.046,-62.82514
1433282875.062,-46.07802
1433282875.078,-24.55191
1433282875.093,-2.2742233
1433282875.109,16.26236
1433282875.125,27.49501
1433282875.14,29.930328
1433282875.156,24.475037
1433282875.171,14.18129
1433282875.187,3.4214172
1433282875.203,-3.2313232
1433282875.218,-2.0522308
1433282875.234,9.007248
1433282875.25,29.758728
1433282875.265,57.885605
1433282875.281,89.584045
1433282875.296,120.688156
1433282875.312,147.77129
1433282875.328,168.96652
1433282875.343,183.92863
1433282875.359,193.11061
1433282875.375,196.7093
1433282875.39,193.97119
1433282875.406,183.37253
1433282875.421,163.64694
1433282875.437,135.143
1433282875.453,100.803894
1433282875.468,66.00308
1433282875.484,37.167007
1433282875.5,19.653656
1433282875.515,15.735977
1433282875.531,23.480621
1433282875.546,37.240356
1433282875.562,49.244385
1433282875.578,51.93747
1433282875.593,40.602707
1433282875.609,14.769379
1433282875.625,-21.56047
1433282875.64,-60.97455
1433282875.656,-94.75328
1433282875.672,-115.1933
1433282875.687,-117.447266
1433282875.703,-100.565216
1433282875.718,-67.435455
1433282875.734,-23.872742
1433282875.75,22.738174
1433282875.765,65.18532
1433282875.781,98.057205
1433282875.797,118.832306
1433282875.812,127.95804
1433282875.828,127.99802
1433282875.843,122.11835
1433282875.859,112.759995
1433282875.875,101.06427
1433282875.89,87.37717
1433282875.906,72.3685
1433282875.922,57.88083
1433282875.937,46.956505
1433282875.953,42.834595
1433282875.968,47.467255
1433282875.984,60.386948
1433282876,78.373856
1433282876.015,96.14929
1433282876.031,107.771095
1433282876.047,108.39148
1433282876.062,95.60133
1433282876.078,70.06493
1433282876.093,35.19128
1433282876.109,-3.9668007
1433282876.125,-42.347237
1433282876.14,-76.11159
1433282876.156,-103.17651
1433282876.172,-122.770424
1433282876.187,-134.49371
1433282876.203,-137.59508
1433282876.218,-130.93272
1433282876.234,-113.68689
1433282876.25,-86.38343
1433282876.265,-51.495148
1433282876.281,-13.225189
1433282876.297,23.502792
1433282876.312,54.436714
1433282876.328,77.12095
1433282876.343,91.25255
1433282876.359,98.19568
1433282876.375,99.86347
1433282876.39,97.59866
1433282876.406,91.637794
1433282876.422,81.40759
1433282876.437,66.43637
1433282876.453,47.354675
1433282876.468,26.096588
1433282876.484,5.3876343
1433282876.5,-12.419357
1433282876.515,-26.374771
1433282876.531,-37.262985
1433282876.547,-46.96611
1433282876.562,-57.342422
1433282876.578,-69.115295
1433282876.593,-81.461685
1433282876.609,-92.434204
1433282876.625,-99.880035
1433282876.64,-102.39862
1433282876.656,-99.91255
1433282876.672,-93.669525
1433282876.687,-85.69574
1433282876.703,-78.03482
1433282876.718,-72.07907
1433282876.734,-68.195465
1433282876.75,-65.85126
1433282876.765,-64.021545
1433282876.781,-61.7847
1433282876.797,-58.760162
1433282876.812,-55.25638
1433282876.828,-52.031555
1433282876.843,-49.884796
1433282876.859,-49.236023
1433282876.875,-49.86319
1433282876.89,-50.96591
1433282876.906,-51.419006
1433282876.922,-50.21631
1433282876.937,-46.87198
1433282876.953,-41.562347
1433282876.968,-35.05768
1433282876.984,-28.365082
1433282877,-22.359894
1433282877.015,-17.438477
1433282877.031,-13.482361
1433282877.047,-9.9374695
1433282877.062,-6.194702
1433282877.078,-1.8328247
1433282877.093,3.144806
1433282877.109,8.400177
1433282877.125,13.39679
1433282877.14,17.67929
1433282877.156,20.95929
1433282877.172,23.11438
1433282877.187,24.118683
1433282877.203,24.024384
1433282877.218,22.992706
1433282877.234,21.422882
1433282877.25,19.896576
1433282877.265,18.982239
1433282877.281,18.894348
1433282877.297,19.148743
1433282877.312,18.540009
1433282877.328,15.51712
1433282877.343,8.803406
1433282877.359,-1.8786926
1433282877.375,-15.470001
1433282877.39,-29.761353
1433282877.406,-42.065247
1433282877.422,-50.088013
1433282877.437,-52.663666
1433282877.453,-49.999756
1433282877.468,-43.450684
1433282877.484,-34.945374
1433282877.5,-26.490936
1433282877.515,-19.799835
1433282877.531,-16.213654
1433282877.547,-16.512604
1433282877.562,-20.677582
1433282877.578,-27.518219
1433282877.593,-34.630188
1433282877.609,-38.812897
1433282877.625,-37.163483
1433282877.64,-28.29889
1433282877.656,-13.187622
1433282877.672,4.9924316
1433282877.687,21.997711
1433282877.703,34.125854
1433282877.718,39.50302
1433282877.734,38.4765
1433282877.75,33.074432
1433282877.765,25.903717
1433282877.781,19.113953
1433282877.797,13.909668
1433282877.812,10.583618
1433282877.828,8.947113
1433282877.843,8.687897
1433282877.859,9.625946
1433282877.875,11.707123
1433282877.89,14.902161
1433282877.906,19.073944
1433282877.922,23.916534
1433282877.937,28.920624
1433282877.953,33.469116
1433282877.968,36.928955
1433282877.984,38.85785
1433282878,39.156555
1433282878.015,38.18988
1433282878.031,36.663544
1433282878.047,35.38629
1433282878.062,34.864624
1433282878.078,35.07605
1433282878.093,35.370087
1433282878.109,34.678436
1433282878.125,31.875732
1433282878.14,26.17685
1433282878.156,17.345825
1433282878.172,5.7201843
1433282878.187,-7.8960876
1433282878.203,-22.43274
1433282878.218,-36.720367
1433282878.234,-49.61203
1433282878.25,-60.107544
1433282878.265,-67.44275
1433282878.281,-71.2511
1433282878.297,-71.71417
1433282878.312,-69.54712
1433282878.328,-65.87207
1433282878.344,-61.875732
1433282878.359,-58.46042
1433282878.375,-56.009735
1433282878.39,-54.37726
1433282878.406,-53.121307
1433282878.422,-51.80063
1433282878.437,-50.253326
1433282878.453,-48.59613
1433282878.468,-47.030945
1433282878.484,-45.59558
1433282878.5,-44.030273
1433282878.515,-41.8916
1433282878.531,-38.8349
1433282878.547,-34.877075
1433282878.562,-30.424316
1433282878.578,-26.03543
1433282878.594,-22.079071
1433282878.609,-18.491425
1433282878.625,-14.841492
1433282878.64,-10.537628
1433282878.656,-5.186554
1433282878.672,1.2712097
1433282878.687,8.568207
1433282878.703,16.258453
1433282878.719,23.849731
1433282878.734,30.842407
1433282878.75,36.65909
1433282878.765,40.570587
1433282878.781,41.847473
1433282878.797,40.04117
1433282878.812,35.348755
1433282878.828,28.804321
1433282878.844,22.046783
1433282878.859,16.843628
1433282878.875,14.358459
1433282878.89,14.688782
1433282878.906,16.795319
1433282878.922,19.018341
1433282878.937,19.759888
1433282878.953,18.125519
1433282878.969,14.147278
1433282878.984,8.561157
1433282879,2.3078918
1433282879.015,-3.8479614
1433282879.031,-9.490875
1433282879.047,-14.436432
1433282879.062,-18.524475
1433282879.078,-21.526794
1433282879.094,-23.241089
1433282879.109,-23.591614
1433282879.125,-22.767914
1433282879.14,-21.152191
1433282879.156,-19.209534
1433282879.172,-17.30957
1433282879.187,-15.665039
1433282879.203,-14.299103
1433282879.219,-13.101868
1433282879.234,-11.882996
1433282879.25,-10.435669
1433282879.265,-8.631195
1433282879.281,-6.5358276
1433282879.297,-4.398163
1433282879.312,-2.623993
1433282879.328,-1.6027222
1433282879.344,-1.5365295
1433282879.359,-2.3016968
1433282879.375,-3.4956665
1433282879.39,-4.531891
1433282879.406,-4.8964233
1433282879.422,-4.290283
1433282879.437,-2.7233582
1433282879.453,-0.46316528
1433282879.469,2.0796509
1433282879.484,4.555359
1433282879.5,6.763489
1433282879.515,8.684296
1433282879.531,10.412262
1433282879.547,12.06134
1433282879.562,13.696167
1433282879.578,15.311768
1433282879.594,16.86322
1433282879.609,18.328583
1433282879.625,19.703033
1433282879.64,21.014557
1433282879.656,22.249542
1433282879.672,23.340637
1433282879.687,24.13034
1433282879.703,24.387115
1433282879.719,23.876862
1433282879.734,22.417603
1433282879.75,19.941437
1433282879.765,16.571106
1433282879.781,12.575073
1433282879.797,8.315735
1433282879.812,4.1280518
1433282879.828,0.20675659
1433282879.844,-3.4389954
1433282879.859,-6.883026
1433282879.875,-10.170959
1433282879.89,-13.204956
1433282879.906,-15.715576
1433282879.922,-17.332489
1433282879.937,-17.79358
1433282879.953,-17.046844
1433282879.969,-15.329559
1433282879.984,-13.096832
1433282880,-10.822052
1433282880.015,-8.865143
1433282880.031,-7.390991
1433282880.047,-6.381836
1433282880.062,-5.8039856
1433282880.078,-5.715912
1433282880.094,-6.272156
1433282880.109,-7.6368103
1433282880.125,-9.816711
1433282880.14,-12.507019
1433282880.156,-15.075165
1433282880.172,-16.71109
1433282880.187,-16.685638
1433282880.203,-14.617218
1433282880.219,-10.610962
1433282880.234,-5.22229
1433282880.25,0.7635193
1433282880.265,6.558655
1433282880.281,11.572174
1433282880.297,15.466217
1433282880.312,18.079712
1433282880.328,19.350952
1433282880.344,19.28003
1433282880.359,17.986206
1433282880.375,15.795532
1433282880.39,13.227509
1433282880.406,10.896088
1433282880.422,9.356201
1433282880.437,8.904694
1433282880.453,9.516144
1433282880.469,10.8810425
1433282880.484,12.494812
1433282880.5,13.781708
1433282880.515,14.21405
1433282880.531,13.35022
1433282880.547,10.964294
1433282880.562,7.095154
1433282880.578,2.1026611
1433282880.594,-3.4351196
1433282880.609,-8.844391
1433282880.625,-13.563293
1433282880.64,-17.298279
1433282880.656,-20.054077
1433282880.672,-22.006836
1433282880.687,-23.315063
1433282880.703,-23.974731
1433282880.719,-23.77481
1433282880.734,-22.452301
1433282880.75,-19.851105
1433282880.765,-16.072815
1433282880.781,-11.534393
1433282880.797,-6.825775
1433282880.812,-2.540619
1433282880.828,0.868042
1433282880.844,3.1523438
1433282880.859,4.2531433
1433282880.875,4.257477
1433282880.89,3.3356628
1433282880.906,1.7702637
1433282880.922,-0.05267334
1433282880.937,-1.6958008
1433282880.953,-2.7858887
1433282880.969,-3.1450195
1433282880.984,-2.834259
1433282881,-2.125885
1433282881.016,-1.3388977
1433282881.031,-0.69818115
1433282881.047,-0.22793579
1433282881.062,0.27511597
1433282881.078,1.1913757
1433282881.094,2.9136353
1433282881.109,5.7799377
1433282881.125,9.902985
1433282881.14,15.115265
1433282881.156,20.926697
1433282881.172,26.562683
1433282881.187,31.09198
1433282881.203,33.61743
1433282881.219,33.46335
1433282881.234,30.366089
1433282881.25,24.596771
1433282881.266,16.904785
1433282881.281,8.40152
1433282881.297,0.27929688
1433282881.312,-6.4455566
1433282881.328,-11.175598
1433282881.344,-13.8029175
1433282881.359,-14.602661
1433282881.375,-14.086426
1433282881.391,-12.787445
1433282881.406,-11.176666
1433282881.422,-9.622467
1433282881.437,-8.396576
1433282881.453,-7.6843567
1433282881.469,-7.535187
1433282881.484,-7.869293
1433282881.5,-8.46817
1433282881.516,-9.1073
1433282881.531,-9.61673
1433282881.547,-9.941681
1433282881.562,-10.073425
1433282881.578,-10.029358
1433282881.594,-9.764404
1433282881.609,-9.23996
1433282881.625,-8.477829
1433282881.641,-7.625046
1433282881.656,-6.917328
1433282881.672,-6.5814667
1433282881.687,-6.6883087
1433282881.703,-7.114975
1433282881.719,-7.5644684
1433282881.734,-7.732147
1433282881.75,-7.3839417
1433282881.766,-6.465973
1433282881.781,-5.0650177
1433282881.797,-3.3952637
1433282881.812,-1.7042542
1433282881.828,-0.24794006
1433282881.844,0.7829132
1433282881.859,1.3607178
1433282881.875,1.6414337
1433282881.891,1.9518585
1433282881.906,2.6970367
1433282881.922,4.216919
1433282881.937,6.6116486
1433282881.953,9.685883
1433282881.969,12.986298
1433282881.984,15.914352
1433282882,17.958878
1433282882.016,18.7874
1433282882.031,18.338257
1433282882.047,16.735657
1433282882.062,14.213425
1433282882.078,10.992325
1433282882.094,7.2609406
1433282882.109,3.20253
1433282882.125,-0.95710754
1433282882.141,-4.9316254
1433282882.156,-8.414413
1433282882.172,-11.179062
1433282882.187,-13.122055
1433282882.203,-14.266464
1433282882.219,-14.672745
1433282882.234,-14.374664
1433282882.25,-13.336655
1433282882.266,-11.538513
1433282882.281,-9.104919
1433282882.297,-6.3585663
1433282882.312,-3.7332306
1433282882.328,-1.6234436
1433282882.344,-0.17008972
1433282882.359,0.7853241
1433282882.375,1.6082306
1433282882.391,2.6142273
1433282882.406,3.8971405
1433282882.422,5.24823
1433282882.437,6.3371735
1433282882.453,6.894333
1433282882.469,6.9321747
1433282882.484,6.7218323
1433282882.5,6.6957245
1433282882.516,7.1888275
1433282882.531,8.2751465
1433282882.547,9.720963
1433282882.562,11.15506
1433282882.578,12.263016
1433282882.594,12.994339
1433282882.609,13.577667
1433282882.625,14.388855
1433282882.641,15.690994
1433282882.656,17.47641
1433282882.672,19.44844
1433282882.687,21.231018
1433282882.703,22.56221
1433282882.719,23.46222
1433282882.734,24.157745
1433282882.75,24.874802
1433282882.766,25.652328
1433282882.781,26.25917
1433282882.797,26.32309
1433282882.812,25.514252
1433282882.828,23.677979
1433282882.844,20.868378
1433282882.859,17.259247
1433282882.875,13.068878
1433282882.891,8.563583
1433282882.906,4.066864
1433282882.922,-0.021484375
1433282882.937,-3.3162842
1433282882.953,-5.5797577
1433282882.969,-6.8170013
1433282882.984,-7.2566986
1433282883,-7.236389
1433282883.016,-7.0312653
1433282883.031,-6.772354
1433282883.047,-6.4390564
1433282883.062,-5.967926
1433282883.078,-5.360916
1433282883.094,-4.732666
1433282883.109,-4.260605
1433282883.125,-4.104645
1433282883.141,-4.3251343
1433282883.156,-4.849304
1433282883.172,-5.567047
1433282883.187,-6.3294983
1433282883.203,-6.994171
1433282883.219,-7.384323
1433282883.234,-7.329483
1433282883.25,-6.6782074
1433282883.266,-5.375839
1433282883.281,-3.544815
1433282883.297,-1.4580841
1433282883.312,0.5506592
1433282883.328,2.2308044
1433282883.344,3.551056
1433282883.359,4.6941986
1433282883.375,5.9765167
1433282883.391,7.6384125
1433282883.406,9.764282
1433282883.422,12.207123
1433282883.437,14.676346
1433282883.453,16.796371
1433282883.469,18.215378
1433282883.484,18.626099
1433282883.5,17.831482
1433282883.516,15.800766
1433282883.531,12.716339
1433282883.547,8.973618
1433282883.562,5.05925
1433282883.578,1.4001465
1433282883.594,-1.7681732
1433282883.609,-4.4673615
1433282883.625,-6.9022827
1433282883.641,-9.355499
1433282883.656,-12.0538025
1433282883.672,-15.135162
1433282883.687,-18.597565
1433282883.703,-22.329697
1433282883.719,-26.048752
1433282883.734,-29.346207
1433282883.75,-31.718857
1433282883.766,-32.750946
1433282883.781,-32.235138
1433282883.797,-30.275208
1433282883.812,-27.224503
1433282883.828,-23.55719
1433282883.844,-19.72522
1433282883.859,-16.045639
1433282883.875,-12.73053
1433282883.891,-9.929871
1433282883.906,-7.695862
1433282883.922,-5.9879303
1433282883.938,-4.6198883
1433282883.953,-3.3296509
1433282883.969,-1.8597717
1433282883.984,-0.0920105
1433282884,1.9290161
1433282884.016,4.066437
1433282884.031,6.200882
1433282884.047,8.317154
1433282884.063,10.550232
1433282884.078,13.104935
1433282884.094,16.161484
1433282884.109,19.771988
1433282884.125,23.767807
1433282884.141,27.707443
1433282884.156,30.881638
1433282884.172,32.4243
1433282884.188,31.582657
1433282884.203,28.033264
1433282884.219,22.13681
1433282884.234,14.959946
1433282884.25,7.9544525
1433282884.266,2.4098816
1433282884.281,-1.0233765
1433282884.297,-2.623413
1433282884.313,-3.4221802
1433282884.328,-4.724045
1433282884.344,-7.53891
1433282884.359,-12.1058655
1433282884.375,-17.771576
1433282884.391,-23.272568
1433282884.406,-27.24704
1433282884.422,-28.805328
1433282884.438,-27.894043
1433282884.453,-25.316238
1433282884.469,-22.427887
1433282884.484,-20.593338
1433282884.5,-20.693344
1433282884.516,-22.81215
1433282884.531,-26.31903
1433282884.547,-30.15004
1433282884.563,-33.181763
1433282884.578,-34.57464
1433282884.594,-34.066284
1433282884.609,-32.108116
1433282884.625,-29.86399
1433282884.641,-28.86348
1433282884.656,-30.359741
1433282884.672,-34.5905
1433282884.688,-40.36094
1433282884.703,-45.295494
1433282884.719,-46.70787
1433282884.734,-42.72261
1433282884.75,-33.07701
1433282884.766,-19.070763
1433282884.781,-2.928276
1433282884.797,13.229774
1433282884.813,27.982231
1433282884.828,40.606926
1433282884.844,50.59648
1433282884.859,57.260216
1433282884.875,59.68464
1433282884.891,57.34375
1433282884.906,50.70896
1433282884.922,41.525177
1433282884.938,32.32145
1433282884.953,25.501488
1433282884.969,22.355629
1433282884.984,22.88832
1433282885,26.158165
1433282885.016,30.882591
1433282885.031,35.67254
1433282885.047,38.81566
1433282885.063,38.05105
1433282885.078,30.978859
1433282885.094,16.129147
1433282885.109,-5.762104
1433282885.125,-31.323727
1433282885.141,-55.60601
1433282885.156,-74.25188
1433282885.172,-85.42267
1433282885.188,-90.30191
1433282885.203,-91.68342
1433282885.219,-91.62478
1433282885.234,-89.827774
1433282885.25,-83.91194
1433282885.266,-71.38277
1433282885.281,-52.04249
1433282885.297,-28.947666
1433282885.313,-7.346878
1433282885.328,7.9376564
1433282885.344,14.800953
1433282885.359,14.755859
1433282885.375,11.75457
1433282885.391,9.97009
1433282885.406,11.741571
1433282885.422,16.801468
1433282885.438,22.965996
1433282885.453,27.750061
1433282885.469,29.695063
1433282885.484,28.97081
1433282885.5,26.827888
1433282885.516,24.652033
1433282885.531,23.045006
1433282885.547,21.720844
1433282885.563,19.935318
1433282885.578,17.327225
1433282885.594,14.35508
1433282885.609,12.207878
1433282885.625,12.124584
1433282885.641,14.717888
1433282885.656,19.540058
1433282885.672,25.245636
1433282885.688,30.111294
1433282885.703,32.6038
1433282885.719,31.78012
1433282885.734,27.378448
1433282885.75,19.684753
1433282885.766,9.36335
1433282885.781,-2.6357117
1433282885.797,-15.096619
1433282885.813,-26.582817
1433282885.828,-35.5643
1433282885.844,-40.732162
1433282885.859,-41.367355
1433282885.875,-37.655754
1433282885.891,-30.794655
1433282885.906,-22.731781
1433282885.922,-15.603226
1433282885.938,-11.038528
1433282885.953,-9.639313
1433282885.969,-10.839531
1433282885.984,-13.188438
1433282886,-15.020058
1433282886.016,-15.100723
1433282886.031,-13.084557
1433282886.047,-9.482162
1433282886.063,-5.3088226
1433282886.078,-1.5066376
1433282886.094,1.4064026
1433282886.109,3.5499268
1433282886.125,5.446701
1433282886.141,7.684662
1433282886.156,10.565933
1433282886.172,14.0034485
1433282886.188,17.611633
1433282886.203,20.989532
1433282886.219,23.935135
1433282886.234,26.534195
1433282886.25,29.076645
1433282886.266,31.906174
1433282886.281,35.267487
1433282886.297,39.280334
1433282886.313,43.94127
1433282886.328,49.124954
1433282886.344,54.556137
1433282886.359,59.819656
1433282886.375,64.3452
1433282886.391,67.6445
1433282886.406,69.443954
1433282886.422,69.840256
1433282886.438,69.26724
1433282886.453,68.341354
1433282886.469,67.59297
1433282886.484,67.250595
1433282886.5,67.122314
1433282886.516,66.6331
1433282886.531,64.95993
1433282886.547,61.268204
1433282886.563,54.926773
1433282886.578,45.768402
1433282886.594,34.176575
1433282886.61,21.098312
1433282886.625,7.842972
1433282886.641,-4.241501
1433282886.656,-14.135193
1433282886.672,-21.30812
1433282886.688,-25.792831
1433282886.703,-27.986649
1433282886.719,-28.38501
1433282886.735,-27.408142
1433282886.75,-25.378693
1433282886.766,-22.605927
1433282886.781,-19.545242
1433282886.797,-16.742615
1433282886.813,-14.718079
1433282886.828,-13.72142
1433282886.844,-13.652618
1433282886.86,-14.062271
1433282886.875,-14.474243
1433282886.891,-14.598007
1433282886.906,-14.457489
1433282886.922,-14.27507
1433282886.938,-14.268494
1433282886.953,-14.411087
1433282886.969,-14.436417
1433282886.985,-13.981461
1433282887,-12.7556
1433282887.016,-10.721008
1433282887.031,-8.101807
1433282887.047,-5.2827606
1433282887.063,-2.6699677
1433282887.078,-0.5489807
1433282887.094,0.96868896
1433282887.11,1.9858704
1433282887.125,2.75029
1433282887.141,3.5926971
1433282887.156,4.7443085
1433282887.172,6.3383865
1433282887.188,8.319893
1433282887.203,10.530304
1433282887.219,12.731445
1433282887.235,14.690521
1433282887.25,16.150887
1433282887.266,16.8284
1433282887.281,16.443405
1433282887.297,14.794144
1433282887.313,11.852615
1433282887.328,7.8287735
1433282887.344,3.0787048
1433282887.36,-1.9613113
1433282887.375,-6.9021225
1433282887.391,-11.414688
1433282887.406,-15.262688
1433282887.422,-18.263191
1433282887.438,-20.329407
1433282887.453,-21.478249
1433282887.469,-21.84134
1433282887.485,-21.61052
1433282887.5,-20.991783
1433282887.516,-20.115486
1433282887.531,-19.064545
1433282887.547,-17.895485
1433282887.563,-16.671204
1433282887.578,-15.43441
1433282887.594,-14.242012
1433282887.61,-13.116661
1433282887.625,-12.08046
1433282887.641,-11.151161
1433282887.656,-10.377289
1433282887.672,-9.775085
1433282887.688,-9.292824
1433282887.703,-8.752686
1433282887.719,-7.963928
1433282887.735,-6.7654343
1433282887.75,-5.1510696
1433282887.766,-3.2682037
1433282887.781,-1.359848
1433282887.797,0.38690948
1433282887.813,1.8998032
1433282887.828,3.2704086
1433282887.844,4.66819
1433282887.86,6.258705
1433282887.875,8.117203
1433282887.891,10.216927
1433282887.906,12.419838
1433282887.922,14.524239
1433282887.938,16.316277
1433282887.953,17.57119
1433282887.969,18.086113
1433282887.985,17.708778
1433282888,16.33001
1433282888.016,13.957626
1433282888.031,10.691101
1433282888.047,6.7642517
1433282888.063,2.4856796
1433282888.078,-1.7433395
1433282888.094,-5.5506363
1433282888.11,-8.643997
1433282888.125,-10.875023
1433282888.141,-12.2859955
1433282888.156,-13.0733795
1433282888.172,-13.459076
1433282888.188,-13.603027
1433282888.203,-13.512695
1433282888.219,-13.094719
1433282888.235,-12.222137
1433282888.25,-10.892639
1433282888.266,-9.261543
1433282888.281,-7.62854
1433282888.297,-6.290062
1433282888.313,-5.4315033
1433282888.328,-5.056633
1433282888.344,-5.0318146
1433282888.36,-5.1809464
1433282888.375,-5.3634872
1433282888.391,-5.508644
1433282888.406,-5.589882
1433282888.422,-5.5550537
1433282888.438,-5.344673
1433282888.453,-4.874794
1433282888.469,-4.117523
1433282888.485,-3.1070786
1433282888.5,-1.9552765
1433282888.516,-0.7607498
1433282888.531,0.39691925
1433282888.547,1.560997
1433282888.563,2.8500977
1433282888.578,4.4120026
1433282888.594,6.355667
1433282888.61,8.672096
1433282888.625,11.221161
1433282888.641,13.798592
1433282888.656,16.19477
1433282888.672,18.235569
1433282888.688,19.82425
1433282888.703,20.865791
1433282888.719,21.229034
1433282888.735,20.763332
1433282888.75,19.314972
1433282888.766,16.843765
1433282888.781,13.466698
1433282888.797,9.494671
1433282888.813,5.2861633
1433282888.828,1.1723099
1433282888.844,-2.6843338
1433282888.86,-6.2448654
1433282888.875,-9.49847
1433282888.891,-12.340061
1433282888.906,-14.580437
1433282888.922,-15.966709
1433282888.938,-16.370022
1433282888.953,-15.89151
1433282888.969,-14.86179
1433282888.985,-13.684643
1433282889,-12.682899
1433282889.016,-11.955784
1433282889.031,-11.424755
1433282889.047,-10.956894
1433282889.063,-10.519604
1433282889.078,-10.192532
1433282889.094,-10.155983
1433282889.11,-10.467751
1433282889.125,-11.022484
1433282889.141,-11.534763
1433282889.156,-11.678257
1433282889.172,-11.238544
1433282889.188,-10.209446
1433282889.203,-8.736156
1433282889.219,-7.08424
1433282889.235,-5.472561
1433282889.25,-4.0256615
1433282889.266,-2.752491
1433282889.282,-1.5820351
1433282889.297,-0.39383698
1433282889.313,0.91220474
1433282889.328,2.3842735
1433282889.344,3.9862366
1433282889.36,5.6380463
1433282889.375,7.2150726
1433282889.391,8.647327
1433282889.406,9.882641
1433282889.422,10.96624
1433282889.438,12.0094185
1433282889.453,13.207546
1433282889.469,14.706348
1433282889.485,16.584396
1433282889.5,18.728893
1433282889.516,20.808483
1433282889.532,22.339249
1433282889.547,22.84243
1433282889.563,21.963089
1433282889.578,19.605255
1433282889.594,15.9589615
1433282889.61,11.407558
1433282889.625,6.4622
1433282889.641,1.6108971
1433282889.657,-2.7268524
1433282889.672,-6.263443
1433282889.688,-8.872787
1433282889.703,-10.575249
1433282889.719,-11.524338
1433282889.735,-11.915993
1433282889.75,-11.941792
1433282889.766,-11.701736
1433282889.782,-11.254608
1433282889.797,-10.621826
1433282889.813,-9.876575
1433282889.828,-9.128174
1433282889.844,-8.525642
1433282889.86,-8.1647415
1433282889.875,-8.10524
1433282889.891,-8.315273
1433282889.907,-8.695446
1433282889.922,-9.124321
1433282889.938,-9.493126
1433282889.953,-9.707443
1433282889.969,-9.753086
1433282889.985,-9.660439
1433282890,-9.466545
1433282890.016,-9.169254
1433282890.032,-8.740807
1433282890.047,-8.119003
1433282890.063,-7.308613
1433282890.078,-6.336769
1433282890.094,-5.283516
1433282890.11,-4.159443
1433282890.125,-2.8826447
1433282890.141,-1.2967949
1433282890.157,0.7072449
1433282890.172,3.0624733
1433282890.188,5.517029
1433282890.203,7.7094307
1433282890.219,9.397633
1433282890.235,10.562752
1433282890.25,11.4406395
1433282890.266,12.381561
1433282890.282,13.667221
1433282890.297,15.388863
1433282890.313,17.398125
1433282890.328,19.453426
1433282890.344,21.257832
1433282890.36,22.544563
1433282890.375,23.06908
1433282890.391,22.60521
1433282890.407,20.959152
1433282890.422,18.086586
1433282890.438,14.105774
1433282890.453,9.342022
1433282890.469,4.240265
1433282890.485,-0.7428818
1433282890.5,-5.217148
1433282890.516,-8.938374
1433282890.532,-11.794743
1433282890.547,-13.791977
1433282890.563,-15.039669
1433282890.578,-15.68947
1433282890.594,-15.929953
1433282890.61,-15.889135
1433282890.625,-15.713297
1433282890.641,-15.461468
1433282890.657,-15.171886
1433282890.672,-14.835867
1433282890.688,-14.448629
1433282890.703,-13.987383
1433282890.719,-13.453119
1433282890.735,-12.884588
1433282890.75,-12.348774
1433282890.766,-11.945499
1433282890.782,-11.769516
1433282890.797,-11.853212
1433282890.813,-12.14657
1433282890.828,-12.500641
1433282890.844,-12.717384
1433282890.86,-12.597855
1433282890.875,-12.031914
1433282890.891,-11.027607
1433282890.907,-9.720896
1433282890.922,-8.257727
1433282890.938,-6.7542267
1433282890.953,-5.2005043
1433282890.969,-3.5235443
1433282890.985,-1.6062565
1433282891,0.5967922
1433282891.016,3.0296936
1433282891.032,5.550562
1433282891.047,7.9842606
1433282891.063,10.1839695
1433282891.078,12.081272
1433282891.094,13.664915
1433282891.11,15.021194
1433282891.125,16.261803
1433282891.141,17.561695
1433282891.157,19.017967
1433282891.172,20.669262
1433282891.188,22.388453
1433282891.203,23.946611
1433282891.219,25.041876
1433282891.235,25.428112
1433282891.25,24.943115
1433282891.266,23.555449
1433282891.282,21.276049
1433282891.297,18.18302
1433282891.313,14.384712
1433282891.328,10.048281
1433282891.344,5.368025
1433282891.36,0.55724144
1433282891.375,-4.241585
1433282891.391,-8.961224
1433282891.407,-13.625267
1433282891.422,-18.251652
1433282891.438,-22.819878
1433282891.453,-27.145855
1433282891.469,-30.992039
1433282891.485,-34.060574
1433282891.5,-36.123764
1433282891.516,-37.027653
1433282891.532,-36.771492
1433282891.547,-35.467117
1433282891.563,-33.34001
1433282891.578,-30.700798
1433282891.594,-27.862122
1433282891.61,-25.100304
1433282891.625,-22.58654
1433282891.641,-20.376774
1433282891.657,-18.450722
1433282891.672,-16.709435
1433282891.688,-15.031212
1433282891.703,-13.244587
1433282891.719,-11.190163
1433282891.735,-8.718094
1433282891.75,-5.811615
1433282891.766,-2.5721054
1433282891.782,0.74336624
1433282891.797,3.8605652
1433282891.813,6.585537
1433282891.828,8.913101
1433282891.844,10.971504
1433282891.86,12.953213
1433282891.875,14.955864
1433282891.891,16.931484
1433282891.907,18.726994
1433282891.922,20.182098
1433282891.938,21.218174
1433282891.954,21.908009
1433282891.969,22.419048
1433282891.985,22.94675
1433282892,23.646137
1433282892.016,24.638287
1433282892.032,25.967064
1433282892.047,27.642838
1433282892.063,29.610096
1433282892.078,31.73222
1433282892.094,33.73761
1433282892.11,35.25833
1433282892.125,35.876274
1433282892.141,35.222878
1433282892.157,33.049572
1433282892.172,29.343151
1433282892.188,24.320072
1433282892.204,18.422901
1433282892.219,12.213264
1433282892.235,6.294342
1433282892.25,1.1453094
1433282892.266,-2.934864
1433282892.282,-5.9128075
1433282892.297,-7.9608536
1433282892.313,-9.365265
1433282892.329,-10.390274
1433282892.344,-11.135578
1433282892.36,-11.517559
1433282892.375,-11.332279
1433282892.391,-10.406017
1433282892.407,-8.7355995
1433282892.422,-6.5493546
1433282892.438,-4.323921
1433282892.454,-2.5662346
1433282892.469,-1.7250748
1433282892.485,-1.9689331
1433282892.5,-3.1539078
1433282892.516,-4.8486824
1433282892.532,-6.454933
1433282892.547,-7.393215
1433282892.563,-7.2928276
1433282892.579,-6.1655693
1433282892.594,-4.4181595
1433282892.61,-2.7286186
1433282892.625,-1.7283707
1433282892.641,-1.6385155
1433282892.657,-2.1217537
1433282892.672,-2.326233
1433282892.688,-1.3134995
1433282892.704,1.4694061
1433282892.719,5.7925415
1433282892.735,10.680605
1433282892.75,14.771297
1433282892.766,16.966248
1433282892.782,16.919336
1433282892.797,15.235571
1433282892.813,13.209103
1433282892.829,12.359842
1433282892.844,13.934256
1433282892.86,18.61453
1433282892.875,26.260338
1433282892.891,35.772324
1433282892.907,44.99743
1433282892.922,50.983
1433282892.938,50.628555
1433282892.954,41.814495
1433282892.969,24.444632
1433282892.985,1.0588989
1433282893,-23.6311
1433282893.016,-44.178696
1433282893.032,-56.364094
1433282893.047,-58.729
1433282893.063,-52.966995
1433282893.079,-42.940155
1433282893.094,-32.834675
1433282893.11,-25.370964
1433282893.125,-20.983917
1433282893.141,-18.312176
1433282893.157,-15.5555935
1433282893.172,-11.83793
1433282893.188,-7.8206806
1433282893.204,-5.1688848
1433282893.219,-5.453573
1433282893.235,-9.019729
1433282893.25,-14.761633
1433282893.266,-20.719746
1433282893.282,-25.243917
1433282893.297,-27.87426
1433282893.313,-29.497482
1433282893.329,-31.677921
1433282893.344,-35.727432
1433282893.36,-41.89138
1433282893.375,-49.26607
1433282893.391,-56.183163
1433282893.407,-61.002758
1433282893.422,-62.699562
1433282893.438,-61.202362
1433282893.454,-57.30725
1433282893.469,-52.400757
1433282893.485,-48.07468
1433282893.5,-45.821854
1433282893.516,-46.779373
1433282893.532,-51.622063
1433282893.547,-60.329803
1433282893.563,-72.03801
1433282893.579,-84.85105
1433282893.594,-95.947136
1433282893.61,-101.94344
1433282893.625,-99.728455
1433282893.641,-87.43771
1433282893.657,-65.19475
1433282893.672,-35.278202
1433282893.688,-1.5648918
1433282893.704,31.707077
1433282893.719,61.18277
1433282893.735,85.3386
1433282893.75,104.533
1433282893.766,120.361374
1433282893.782,134.56696
1433282893.797,148.086
1433282893.813,160.70555
1433282893.829,171.34177
1433282893.844,178.70169
1433282893.86,182.02565
1433282893.875,181.33365
1433282893.891,177.35495
1433282893.907,171.01846
1433282893.922,163.05846
1433282893.938,153.74489
1433282893.954,142.95595
1433282893.969,130.41922
1433282893.985,115.96759
1433282894,99.65329
1433282894.016,81.729965
1433282894.032,62.521046
1433282894.047,42.37229
1433282894.063,21.650578
1433282894.079,0.86390305
1433282894.094,-19.266506
1433282894.11,-37.762314
1433282894.125,-53.5507
1433282894.141,-65.70062
1433282894.157,-73.6966
1433282894.172,-77.592026
1433282894.188,-78.02796
1433282894.204,-76.038925
1433282894.219,-72.77402
1433282894.235,-69.156746
1433282894.25,-65.735596
1433282894.266,-62.59129
1433282894.282,-59.477226
1433282894.297,-55.987457
1433282894.313,-51.786835
1433282894.329,-46.73812
1433282894.344,-40.99064
1433282894.36,-34.90465
1433282894.375,-28.984999
1433282894.391,-23.739367
1433282894.407,-19.576036
1433282894.422,-16.637243
1433282894.438,-14.738192
1433282894.454,-13.367765
1433282894.469,-11.838444
1433282894.485,-9.502586
1433282894.5,-6.041664
1433282894.516,-1.6169662
1433282894.532,3.1112747
1433282894.547,7.20335
1433282894.563,9.720692
1433282894.579,10.037781
1433282894.594,7.976879
1433282894.61,3.817093
1433282894.625,-1.8387489
1433282894.641,-8.233589
1433282894.657,-14.650558
1433282894.672,-20.472073
1433282894.688,-25.250557
1433282894.704,-28.662567
1433282894.719,-30.567558
1433282894.735,-30.966263
1433282894.75,-30.047997
1433282894.766,-28.145348
1433282894.782,-25.704178
1433282894.797,-23.130157
1433282894.813,-20.7603
1433282894.829,-18.731506
1433282894.844,-17.058434
1433282894.86,-15.693031
1433282894.876,-14.588699
1433282894.891,-13.759117
1433282894.907,-13.269264
1433282894.922,-13.164291
1433282894.938,-13.436104
1433282894.954,-13.972656
1433282894.969,-14.593872
1433282894.985,-15.072777
1433282895.001,-15.227272
1433282895.016,-14.934723
1433282895.032,-14.184059
1433282895.047,-12.9832
1433282895.063,-11.335823
1433282895.079,-9.186859
1433282895.094,-6.477997
1433282895.11,-3.2278671
1433282895.126,0.36496735
1433282895.141,3.940361
1433282895.157,7.0784073
1433282895.172,9.499657
1433282895.188,11.15831
1433282895.204,12.298492
1433282895.219,13.299713
1433282895.235,14.520721
1433282895.251,16.118607
1433282895.266,18.011948
1433282895.282,19.850822
1433282895.297,21.190292
1433282895.313,21.5513
1433282895.329,20.588196
1433282895.344,18.149467
1433282895.36,14.334137
1433282895.376,9.4646225
1433282895.391,4.0220795
1433282895.407,-1.5049438
1433282895.422,-6.6755905
1433282895.438,-11.168892
1433282895.454,-14.767479
1433282895.469,-17.342796
1433282895.485,-18.845345
1433282895.501,-19.320816
1433282895.516,-18.918228
1433282895.532,-17.861816
1433282895.547,-16.404175
1433282895.563,-14.753891
1433282895.579,-13.04525
1433282895.594,-11.390411
1433282895.61,-9.856628
1433282895.626,-8.487175
1433282895.641,-7.2460175
1433282895.657,-5.9735565
1433282895.672,-4.413719
1433282895.688,-2.3356476
1433282895.704,0.35969543
1433282895.719,3.6002426
1433282895.735,7.230118
1433282895.751,11.157211
1433282895.766,15.448708
1433282895.782,20.216248
1433282895.797,25.450584
1433282895.813,30.80597
1433282895.829,35.58142
1433282895.844,38.926186
1433282895.86,40.207535
1433282895.876,39.30491
1433282895.891,36.681313
1433282895.907,33.144585
1433282895.922,29.46714
1433282895.938,26.065826
1433282895.954,22.939949
1433282895.969,19.828918
1433282895.985,16.532478
1433282896.001,13.103966
1433282896.016,9.871071
1433282896.032,7.252899
1433282896.047,5.540703
1433282896.063,4.799347
1433282896.079,4.931221
1433282896.094,5.8315735
1433282896.11,7.510521
1433282896.126,10.002251
1433282896.141,13.185257
1433282896.157,16.554039
1433282896.172,19.22834
1433282896.188,20.222816
1433282896.204,18.869812
1433282896.219,15.197678
1433282896.235,9.975227
1433282896.251,4.399376
1433282896.266,-0.44085693
1433282896.282,-4.073616
1433282896.297,-6.7641068
1433282896.313,-9.299217
1433282896.329,-12.456596
1433282896.344,-16.572731
1433282896.36,-21.330856
1433282896.376,-25.945343
1433282896.391,-29.511139
1433282896.407,-31.420761
1433282896.422,-31.536484
1433282896.438,-30.159561
1433282896.454,-27.772217
1433282896.469,-24.869843
1433282896.485,-21.758438
1433282896.501,-18.637848
1433282896.516,-15.680038
1433282896.532,-13.121231
1433282896.547,-11.284332
1433282896.563,-10.43959
1433282896.579,-10.701492
1433282896.594,-11.89566
1433282896.61,-13.566498
1433282896.626,-15.09758
1433282896.641,-15.895218
1433282896.657,-15.615387
1433282896.672,-14.208084
1433282896.688,-11.874481
1433282896.704,-8.926178
1433282896.719,-5.6973114
1433282896.735,-2.4342499
1433282896.751,0.62776184
1433282896.766,3.2622833
1433282896.782,5.261261
1433282896.797,6.6057434
1433282896.813,7.6100464
1433282896.829,8.847122
1433282896.844,10.942566
1433282896.86,14.19368
1433282896.876,18.27243
1433282896.891,22.204575
1433282896.907,24.716187
1433282896.922,24.752533
1433282896.938,21.960922
1433282896.954,16.90004
1433282896.969,10.869019
1433282896.985,5.433655
1433282897.001,1.8724518
1433282897.016,0.778595
1433282897.032,1.905716
1433282897.047,4.3611603
1433282897.063,6.966095
1433282897.079,8.703674
1433282897.094,8.982468
1433282897.11,7.7274323
1433282897.126,5.204239
1433282897.141,1.8122864
1433282897.157,-2.1608276
1433282897.172,-6.55542
1433282897.188,-11.262985
1433282897.204,-16.0307
1433282897.219,-20.411224
1433282897.235,-23.870346
1433282897.251,-26.011734
1433282897.266,-26.763565
1433282897.282,-26.39743
1433282897.297,-25.352661
1433282897.313,-23.981491
1433282897.329,-22.384918
1433282897.344,-20.475967
1433282897.36,-18.127441
1433282897.376,-15.469147
1433282897.391,-12.886627
1433282897.407,-10.946259
1433282897.422,-10.074142
1433282897.438,-10.352234
1433282897.454,-11.450821
1433282897.469,-12.83342
1433282897.485,-14.01387
1433282897.501,-14.776382
1433282897.516,-15.194168
1433282897.532,-15.485092
1433282897.548,-15.819794
1433282897.563,-16.203918
1433282897.579,-16.546143
1433282897.594,-16.72963
1433282897.61,-16.694382
1433282897.626,-16.409363
1433282897.641,-15.759964
1433282897.657,-14.507004
1433282897.673,-12.342575
1433282897.688,-9.089249
1433282897.704,-4.856308
1433282897.719,-0.12849426
1433282897.735,4.409012
1433282897.751,8.12825
1433282897.766,10.702972
1433282897.782,12.20079
1433282897.798,12.987717
1433282897.813,13.44371
1433282897.829,13.783722
1433282897.844,13.979462
1433282897.86,13.895767
1433282897.876,13.499802
1433282897.891,13.031021
1433282897.907,12.972794
1433282897.923,13.89827
1433282897.938,16.145767
1433282897.954,19.634918
1433282897.969,23.76535
1433282897.985,27.56662
1433282898.001,29.982437
1433282898.016,30.21405
1433282898.032,27.951294
1433282898.048,23.442276
1433282898.063,17.361557
1433282898.079,10.591736
1433282898.094,3.9517212
1433282898.11,-1.9755249
1433282898.126,-6.9323883
1433282898.141,-10.936142
1433282898.157,-14.171936
1433282898.173,-16.82843
1433282898.188,-19.047852
1433282898.204,-20.789963
1433282898.219,-21.929642
1433282898.235,-22.310379
1433282898.251,-21.829437
1433282898.266,-20.49382
1433282898.282,-18.492554
1433282898.298,-16.131607
1433282898.313,-13.812576
1433282898.329,-11.961044
1433282898.344,-10.91571
1433282898.36,-10.848312
1433282898.376,-11.701599
1433282898.391,-13.1779175
1433282898.407,-14.824432
1433282898.423,-16.168365
1433282898.438,-16.842377
1433282898.454,-16.707672
1433282898.469,-15.860855
1433282898.485,-14.548447
1433282898.501,-13.094376
1433282898.516,-11.729828
1433282898.532,-10.556839
1433282898.548,-9.512833
1433282898.563,-8.477661
1433282898.579,-7.3370056
1433282898.594,-6.0729675
1433282898.61,-4.723221
1433282898.626,-3.3385315
1433282898.641,-1.911789
1433282898.657,-0.36450195
1433282898.673,1.4059296
1433282898.688,3.4309387
1433282898.704,5.630661
1433282898.719,7.8189697
1433282898.735,9.772629
1433282898.751,11.338074
1433282898.766,12.491562
1433282898.782,13.326874
1433282898.798,14.035004
1433282898.813,14.860222
1433282898.829,16.069092
1433282898.844,17.891037
1433282898.86,20.449593
1433282898.876,23.652115
1433282898.891,27.148651
1433282898.907,30.358177
1433282898.923,32.633377
1433282898.938,33.410233
1433282898.954,32.39113
1433282898.969,29.542854
1433282898.985,25.11235
1433282899.001,19.517029
1433282899.016,13.298012
1433282899.032,7.0415344
1433282899.048,1.3075943
1433282899.063,-3.4535294
1433282899.079,-6.988266
1433282899.094,-9.284462
1433282899.11,-10.532982
1433282899.126,-11.037193
1433282899.141,-11.086716
1433282899.157,-10.859856
1433282899.173,-10.417534
1433282899.188,-9.781609
1433282899.204,-8.99115
1433282899.219,-8.150688
1433282899.235,-7.3998337
1433282899.251,-6.85688
1433282899.266,-6.5540543
1433282899.282,-6.483696
1433282899.298,-6.578331
1433282899.313,-6.784607
1433282899.329,-7.046135
1433282899.344,-7.327423
1433282899.36,-7.580017
1433282899.376,-7.7927628
1433282899.391,-7.9653015
1433282899.407,-8.12133
1433282899.423,-8.254005
1433282899.438,-8.29673
1433282899.454,-8.119629
1433282899.469,-7.5970306
1433282899.485,-6.6748123
1433282899.501,-5.4000854
1433282899.516,-3.9215622
1433282899.532,-2.3613586
1433282899.548,-0.75936127
1433282899.563,0.88694763
1433282899.579,2.618744
1433282899.594,4.4233932
1433282899.61,6.2374115
1433282899.626,8.011078
1433282899.641,9.797661
1433282899.657,11.719543
1433282899.673,13.929321
1433282899.688,16.447342
1433282899.704,19.149849
1433282899.719,21.843147
1433282899.735,24.389091
1433282899.751,26.778542
1433282899.766,29.120872
1433282899.782,31.437645
1433282899.798,33.472977
1433282899.813,34.67047
1433282899.829,34.27671
1433282899.844,31.613335
1433282899.86,26.4124
1433282899.876,18.948936
1433282899.891,10.0327835
1433282899.907,0.7929001
1433282899.923,-7.5851135
1433282899.938,-14.150253
1433282899.954,-18.374573
1433282899.969,-20.213379
1433282899.985,-20.03717
1433282900.001,-18.507492
1433282900.016,-16.374199
1433282900.032,-14.269653
1433282900.048,-12.591568
1433282900.063,-11.51387
1433282900.079,-11.005936
1433282900.094,-10.933853
1433282900.11,-11.167572
1433282900.126,-11.612503
1433282900.141,-12.210014
1433282900.157,-12.959915
1433282900.173,-13.808502
1433282900.188,-14.674782
1433282900.204,-15.395493
1433282900.22,-15.752907
1433282900.235,-15.57589
1433282900.251,-14.842445
1433282900.266,-13.726593
1433282900.282,-12.548996
1433282900.298,-11.665482
1433282900.313,-11.3448105
1433282900.329,-11.637184
1433282900.345,-12.4177475
1433282900.36,-13.355988
1433282900.376,-14.026009
1433282900.391,-13.999962
1433282900.407,-13.031906
1433282900.423,-11.203712
1433282900.438,-9.055611
1433282900.454,-7.4924927
1433282900.47,-7.4866867
1433282900.485,-9.570557
1433282900.501,-13.4646
1433282900.516,-18.044342
1433282900.532,-21.746208
1433282900.548,-23.244324
1433282900.563,-22.083603
1433282900.579,-18.859573
1433282900.595,-14.844048
1433282900.61,-11.317696
1433282900.626,-8.969536
1433282900.641,-7.6412582
1433282900.657,-6.606552
1433282900.673,-4.9884644
1433282900.688,-2.1670456
1433282900.704,2.1130753
1433282900.72,7.724716
1433282900.735,14.177559
1433282900.751,20.51223
1433282900.766,25.365295
1433282900.782,27.27314
1433282900.798,25.371643
1433282900.813,20.076096
1433282900.829,13.386963
1433282900.845,8.37075
1433282900.86,8.020782
1433282900.876,13.9131775
1433282900.891,25.392006
1433282900.907,39.694145
1433282900.923,53.00818
1433282900.938,61.93136
1433282900.954,64.68615
1433282900.97,61.520447
1433282900.985,54.33513
1433282901.001,45.74552
1433282901.016,38.111877
1433282901.032,32.85264
1433282901.048,30.288849
1433282901.063,29.86235
1433282901.079,30.643585
1433282901.095,31.769379
1433282901.11,32.674942
1433282901.126,32.941086
1433282901.141,32.125214
1433282901.157,29.628242
1433282901.173,24.899712
1433282901.188,17.79177
1433282901.204,8.85508
1433282901.22,-0.7278366
1433282901.235,-9.5811
1433282901.251,-16.749199
1433282901.266,-22.049469
1433282901.282,-25.972427
1433282901.298,-29.156898
1433282901.313,-31.80619
1433282901.329,-33.394623
1433282901.345,-32.917007
1433282901.36,-29.405045
1433282901.376,-22.557808
1433282901.391,-12.922722
1433282901.407,-1.6706467
1433282901.423,9.870476
1433282901.438,20.556358
1433282901.454,29.579414
1433282901.47,36.385742
1433282901.485,40.616898
1433282901.501,42.074547
1433282901.516,40.80871
1433282901.532,37.11634
1433282901.548,31.454514
1433282901.563,24.322426
1433282901.579,16.118279
1433282901.595,7.213562
1433282901.61,-1.8148651
1433282901.626,-10.016411
1433282901.641,-16.20887
1433282901.657,-19.547165
1433282901.673,-20.25296
1433282901.688,-19.950943
1433282901.704,-21.310059
1433282901.72,-27.01648
1433282901.735,-38.43277
1433282901.751,-54.621918
1433282901.766,-72.31982
1433282901.782,-87.18362
1433282901.798,-95.65956
1433282901.813,-96.72217
1433282901.829,-92.016495
1433282901.845,-84.95923
1433282901.86,-78.990845
1433282901.876,-76.14595
1433282901.891,-76.2859
1433282901.907,-77.51231
1433282901.923,-77.643135
1433282901.938,-75.671875
1433282901.954,-72.639725
1433282901.97,-70.42932
1433282901.985,-70.45593
1433282902.001,-72.528244
1433282902.016,-75.11032
1433282902.032,-75.6804
1433282902.048,-71.51247
1433282902.063,-60.647865
1433282902.079,-42.38089
1433282902.095,-17.854134
1433282902.11,10.712151
1433282902.126,39.665955
1433282902.141,63.84111
1433282902.157,76.52906
1433282902.173,71.89467
1433282902.188,48.0011
1433282902.204,8.51907
1433282902.22,-37.715385
1433282902.235,-80.20034
1433282902.251,-109.68147
1433282902.266,-121.6297
1433282902.282,-117.2979
1433282902.298,-103.15399
1433282902.313,-86.831314
1433282902.329,-73.29325
1433282902.345,-63.429897
1433282902.36,-51.031853
1433282902.376,-33.472897
1433282902.391,-12.393503
1433282902.407,6.3689556
1433282902.423,21.821426
1433282902.438,34.9194
1433282902.454,46.51612
1433282902.47,57.799747
1433282902.485,69.6758
1433282902.501,81.92273
1433282902.516,92.4111
1433282902.532,99.073135
1433282902.548,101.12543
1433282902.563,99.76559
1433282902.579,96.77832
1433282902.595,94.07313
1433282902.61,93.062675
1433282902.626,93.796844
1433282902.641,94.75884
1433282902.657,93.15066
1433282902.673,87.015686
1433282902.688,76.268814
1433282902.704,63.000504
1433282902.72,49.96283
1433282902.735,39.84127
1433282902.751,34.564568
1433282902.766,34.623665
1433282902.782,39.100166
1433282902.798,45.906487
1433282902.813,52.95996
1433282902.829,58.547165
1433282902.845,61.466812
1433282902.86,60.63411
1433282902.876,55.744537
1433282902.892,47.74431
1433282902.907,38.56729
1433282902.923,30.11927
1433282902.938,23.049576
1433282902.954,16.442902
1433282902.97,8.442047
1433282902.985,-2.1942596
1433282903.001,-14.762985
1433282903.016,-26.227448
1433282903.032,-32.59378
1433282903.048,-31.613754
1433282903.063,-24.927887
1433282903.079,-18.058868
1433282903.095,-17.798035
1433282903.11,-28.614197
1433282903.126,-50.16977
1433282903.142,-77.578186
1433282903.157,-103.99954
1433282903.173,-124.08096
1433282903.188,-136.13553
1433282903.204,-141.97398
1433282903.22,-144.67271
1433282903.235,-146.11783
1433282903.251,-145.69138
1433282903.267,-141.00954
1433282903.282,-129.96823
1433282903.298,-112.730545
1433282903.313,-92.25896
1433282903.329,-73.13217
1433282903.345,-59.306976
1433282903.36,-52.16809
1433282903.376,-49.89499
1433282903.392,-48.419617
1433282903.407,-43.5567
1433282903.423,-33.106583
1433282903.438,-17.824554
1433282903.454,-0.79634094
1433282903.47,14.182983
1433282903.485,24.240082
1433282903.501,28.22165
1433282903.517,26.26587
1433282903.532,19.029755
1433282903.548,7.15152
1433282903.563,-8.481171
1433282903.579,-26.126556
1433282903.595,-43.06659
1433282903.61,-56.579224
1433282903.626,-65.39218
1433282903.642,-70.70633
1433282903.657,-75.63223
1433282903.673,-83.25424
1433282903.688,-94.335236
1433282903.704,-106.36435
1433282903.72,-114.63675
1433282903.735,-114.81256
1433282903.751,-105.42981
1433282903.767,-88.77225
1433282903.782,-69.59866
1433282903.798,-52.5997
1433282903.813,-40.103607
1433282903.829,-31.139648
1433282903.845,-22.252106
1433282903.86,-9.356567
1433282903.876,10.280273
1433282903.892,36.927124
1433282903.907,68.419556
1433282903.923,100.792114
1433282903.938,129.62677
1433282903.954,151.5326
1433282903.97,165.11743
1433282903.985,171.0044
1433282904.001,171.0993
1433282904.017,167.53271
1433282904.032,161.7732
1433282904.048,154.46002
1433282904.063,145.55365
1433282904.079,135.11755
1433282904.095,123.97766
1433282904.11,113.64392
1433282904.126,105.56189
1433282904.142,100.304565
1433282904.157,97.31836
1433282904.173,95.35803
1433282904.188,93.66742
1433282904.204,92.16852
1433282904.22,91.59906
1433282904.235,93.298035
1433282904.251,98.28992
1433282904.267,106.35358
1433282904.282,115.79462
1433282904.298,124.107605
1433282904.313,129.02252
1433282904.329,130.1684
1433282904.345,127.850586
1433282904.36,123.1532
1433282904.376,118.068115
1433282904.392,115.028564
1433282904.407,115.61395
1433282904.423,119.77228
1433282904.438,125.99512
1433282904.454,131.88507
1433282904.47,136.59912
1433282904.485,138.51929
1433282904.501,136.37177
1433282904.517,131.07288
1433282904.532,125.93976
1433282904.548,124.64691
1433282904.563,129.36786
1433282904.579,140.33582
1433282904.595,155.70856
1433282904.61,174.82178
1433282904.626,193.90424
1433282904.642,208.07446
1433282904.657,214.90118
1433282904.673,215.8659
1433282904.688,214.16168
1433282904.704,212.42853
1433282904.72,211.95795
1433282904.735,211.98056
1433282904.751,213.05508
1433282904.767,210.82907
1433282904.782,198.21808
1433282904.798,170.32193
1433282904.813,127.03424
1433282904.829,71.365814
1433282904.845,7.609192
1433282904.86,-58.823334
1433282904.876,-140.60934
1433282904.892,-223.73349
1433282904.907,-284.0226
1433282904.923,-310.70422
1433282904.938,-313.16882
1433282904.954,-304.79272
1433282904.97,-292.74365
1433282904.985,-281.03732
1433282905.001,-269.31473
1433282905.017,-257.9406
1433282905.032,-243.86273
1433282905.048,-227.40446
1433282905.063,-211.27562
1433282905.079,-196.97849
1433282905.095,-183.48715
1433282905.11,-169.6033
1433282905.126,-155.67564
1433282905.142,-142.7671
1433282905.157,-132.1127
1433282905.173,-121.66396
1433282905.188,-111.41043
1433282905.204,-102.94624
1433282905.22,-97.04151
1433282905.235,-92.5277
1433282905.251,-87.75929
1433282905.267,-81.70484
1433282905.282,-73.66716
1433282905.298,-63.620533
1433282905.313,-50.662235
1433282905.329,-36.40585
1433282905.345,-24.08054
1433282905.36,-15.849215
1433282905.376,-11.410549
1433282905.392,-9.005711
1433282905.407,-6.937908
1433282905.423,-4.189701
1433282905.438,-0.99463654
1433282905.454,2.4449425
1433282905.47,4.971615
1433282905.485,5.3835487
1433282905.501,3.6486816
1433282905.517,1.0114746
1433282905.532,-1.063179
1433282905.548,-1.8197632
1433282905.563,-1.2958984
1433282905.579,-0.12207794
1433282905.595,1.2637253
1433282905.61,2.326004
1433282905.626,2.580986
1433282905.642,1.8259583
1433282905.657,0.0471344
1433282905.673,-2.7972717
1433282905.688,-6.8262787
1433282905.704,-11.945251
1433282905.72,-17.591454
1433282905.735,-22.675758
1433282905.751,-25.910713
1433282905.767,-26.330711
1433282905.782,-23.7155
1433282905.798,-18.713234
1433282905.814,-12.65686
1433282905.829,-7.0497665
1433282905.845,-3.0145721
1433282905.86,-0.88378143
1433282905.876,-0.1735611
1433282905.892,0.2551422
1433282905.907,1.6986008
1433282905.923,5.1543427
1433282905.939,10.903778
1433282905.954,18.409775
1433282905.97,26.453064
1433282905.985,33.51272
1433282906.001,38.172592
1433282906.017,39.442146
1433282906.032,36.87535
1433282906.048,30.576439
1433282906.064,21.113525
1433282906.079,9.520607
1433282906.095,-2.79599
1433282906.11,-14.112518
1433282906.126,-22.700417
1433282906.142,-27.29966
1433282906.157,-27.611969
1433282906.173,-24.43959
1433282906.189,-19.522484
1433282906.204,-14.955147
1433282906.22,-12.493179
1433282906.235,-12.949837
1433282906.251,-16.01696
1433282906.267,-20.503548
1433282906.282,-24.893066
1433282906.298,-27.914597
1433282906.314,-28.930107
1433282906.329,-28.040184
1433282906.345,-25.877464
1433282906.36,-23.221512
1433282906.376,-20.725998
1433282906.392,-18.689964
1433282906.407,-17.034805
1433282906.423,-15.333275
1433282906.439,-12.990845
1433282906.454,-9.424194
1433282906.47,-4.328148
1433282906.485,2.2639847
1433282906.501,10.001984
1433282906.517,18.37024
1433282906.532,26.826256
1433282906.548,34.94966
1433282906.564,42.48089
1433282906.579,49.3116
1433282906.595,55.37123
1433282906.61,60.539307
1433282906.626,64.55638
1433282906.642,66.918396
1433282906.657,66.89465
1433282906.673,63.78003
1433282906.689,57.197205
1433282906.704,47.49501
1433282906.72,35.83087
1433282906.735,23.977966
1433282906.751,13.67778
1433282906.767,6.027191
1433282906.782,1.0775757
1433282906.798,-1.9906464
1433282906.814,-4.299469
1433282906.829,-6.6349487
