1426792086.609,0.0
1426792086.625,0.0
1426792086.641,0.0
1426792086.656,0.0
1426792086.672,0.0
1426792086.688,0.0
1426792086.703,0.0
1426792086.719,0.0
1426792086.734,0.0
1426792086.75,0.0022315353
1426792086.766,-0.0045169927
1426792086.781,-0.011265522
1426792086.797,-0.011383951
1426792086.813,0.0011864507
1426792086.828,0.025910312
1426792086.844,0.050634187
1426792086.86,0.051362894
1426792086.875,-0.0014929791
1426792086.891,-0.1302426
1426792086.906,-0.35562757
1426792086.922,-0.6591247
1426792086.938,-1.0095103
1426792086.953,-1.3709826
1426792086.969,-1.7197359
1426792086.985,-2.0551105
1426792087,-2.39945
1426792087.016,-2.7866635
1426792087.031,-3.2399073
1426792087.047,-3.796012
1426792087.063,-4.418684
1426792087.078,-5.0592937
1426792087.094,-5.6644096
1426792087.11,-6.2021537
1426792087.125,-6.6808796
1426792087.141,-7.149598
1426792087.156,-7.6782336
1426792087.172,-8.310739
1426792087.188,-9.143657
1426792087.203,-10.089731
1426792087.219,-11.041313
1426792087.235,-11.8842125
1426792087.25,-12.564316
1426792087.266,-13.13563
1426792087.281,-13.760044
1426792087.297,-14.65232
1426792087.313,-15.962056
1426792087.328,-17.914442
1426792087.344,-20.317299
1426792087.36,-22.903854
1426792087.375,-25.37947
1426792087.391,-27.578028
1426792087.406,-29.57246
1426792087.422,-31.675173
1426792087.438,-34.3178
1426792087.453,-37.813618
1426792087.469,-42.541233
1426792087.485,-48.1463
1426792087.5,-54.104755
1426792087.516,-59.83309
1426792087.531,-64.972374
1426792087.547,-69.58293
1426792087.563,-74.14353
1426792087.578,-79.344986
1426792087.594,-85.70726
1426792087.61,-93.76193
1426792087.625,-102.99779
1426792087.641,-112.61757
1426792087.656,-121.73034
1426792087.672,-129.76602
1426792087.688,-136.75102
1426792087.703,-143.30344
1426792087.719,-150.74623
1426792087.735,-157.77356
1426792087.75,-166.64323
1426792087.766,-177.94798
1426792087.781,-191.79102
1426792087.797,-206.96808
1426792087.813,-220.56592
1426792087.828,-228.24644
1426792087.844,-225.36154
1426792087.86,-208.53198
1426792087.875,-176.87024
1426792087.891,-132.76222
1426792087.906,-80.04997
1426792087.922,-23.069275
1426792087.938,34.94339
1426792087.953,92.43695
1426792087.969,149.15695
1426792087.985,205.22772
1426792088,260.36963
1426792088.016,313.74133
1426792088.031,363.87396
1426792088.047,409.83353
1426792088.063,450.90775
1426792088.078,486.50244
1426792088.094,515.73865
1426792088.11,537.2274
1426792088.125,549.22
1426792088.141,549.9613
1426792088.156,538.367
1426792088.172,514.2055
1426792088.188,478.674
1426792088.203,433.87952
1426792088.219,382.45126
1426792088.235,327.02106
1426792088.25,269.84186
1426792088.266,212.63379
1426792088.281,156.6594
1426792088.297,102.95233
1426792088.313,52.373596
1426792088.328,5.9046936
1426792088.344,-35.580414
1426792088.36,-71.42584
1426792088.375,-101.35184
1426792088.391,-125.50113
1426792088.406,-144.3797
1426792088.422,-158.69403
1426792088.438,-169.15071
1426792088.453,-176.3711
1426792088.469,-180.75139
1426792088.485,-182.57419
1426792088.5,-182.06863
1426792088.516,-179.5066
1426792088.531,-175.23325
1426792088.547,-169.65286
1426792088.563,-163.17691
1426792088.578,-156.14568
1426792088.594,-148.80681
1426792088.61,-141.29686
1426792088.625,-133.68983
1426792088.641,-126.01962
1426792088.656,-118.33268
1426792088.672,-110.68864
1426792088.688,-103.15572
1426792088.703,-95.80455
1426792088.719,-88.684166
1426792088.735,-81.82744
1426792088.75,-75.24594
1426792088.766,-68.9526
1426792088.781,-62.949085
1426792088.797,-57.247494
1426792088.813,-51.857185
1426792088.828,-46.78282
1426792088.844,-42.02776
1426792088.86,-37.58521
1426792088.875,-33.451748
1426792088.891,-29.613855
1426792088.906,-26.070963
1426792088.922,-22.808779
1426792088.938,-19.824995
1426792088.953,-17.113392
1426792088.969,-14.666497
1426792088.985,-12.47932
1426792089,-10.538469
1426792089.016,-8.833674
1426792089.031,-7.3478527
1426792089.047,-6.067689
1426792089.063,-4.9734235
1426792089.078,-4.046258
1426792089.094,-3.2673752
1426792089.11,-2.6211367
1426792089.125,-2.0883527
1426792089.141,-1.6507099
1426792089.156,-1.2975938
1426792089.172,-1.0145155
1426792089.188,-0.7907071
1426792089.203,-0.61279094
1426792089.219,-0.47440553
1426792089.235,-0.36762524
1426792089.25,-0.28397727
1426792089.266,-0.2240277
1426792089.281,-0.17805427
1426792089.297,-0.1448732
1426792089.313,-0.12120226
1426792089.328,-0.10771939
1426792089.344,-0.10364109
1426792089.36,-0.10315657
1426792089.375,-0.10890892
1426792089.391,-0.118956
1426792089.406,-0.13357937
1426792089.422,-0.15334055
1426792089.438,-0.17462757
1426792089.453,-0.20072764
1426792089.469,-0.22502607
1426792089.485,-0.25666928
1426792089.5,-0.28556168
1426792089.516,-0.31823558
1426792089.532,-0.35087407
1426792089.547,-0.3890257
1426792089.563,-0.4261772
1426792089.578,-0.46648437
1426792089.594,-0.5090873
1426792089.61,-0.5564965
1426792089.625,-0.60802346
1426792089.641,-0.6646358
1426792089.656,-0.7251779
1426792089.672,-0.7922952
1426792089.688,-0.86545086
1426792089.703,-0.94635546
1426792089.719,-1.0374548
1426792089.735,-1.136642
1426792089.75,-1.2482007
1426792089.766,-1.373963
1426792089.782,-1.5120003
1426792089.797,-1.6663164
1426792089.813,-1.8322408
1426792089.828,-2.0215611
1426792089.844,-2.2261937
1426792089.86,-2.4540145
1426792089.875,-2.6994712
1426792089.891,-2.9747815
1426792089.907,-3.2722223
1426792089.922,-3.597085
1426792089.938,-3.950138
1426792089.953,-4.332611
1426792089.969,-4.7432694
1426792089.985,-5.1820254
1426792090,-5.65825
1426792090.016,-6.16798
1426792090.032,-6.7103925
1426792090.047,-7.294074
1426792090.063,-7.9063606
1426792090.078,-8.558387
1426792090.094,-9.24677
1426792090.11,-9.975925
1426792090.125,-10.742636
1426792090.141,-11.562544
1426792090.157,-12.425594
1426792090.172,-13.33414
1426792090.188,-14.28986
1426792090.203,-15.255651
1426792090.219,-16.20699
1426792090.235,-17.102722
1426792090.25,-17.883762
1426792090.266,-18.462696
1426792090.282,-18.79021
1426792090.297,-18.764914
1426792090.313,-18.352266
1426792090.328,-17.479227
1426792090.344,-16.147886
1426792090.36,-14.386686
1426792090.375,-12.245388
1426792090.391,-9.818262
1426792090.407,-7.1825294
1426792090.422,-4.4811516
1426792090.438,-1.8320694
1426792090.453,0.672699
1426792090.469,2.931755
1426792090.485,4.8924065
1426792090.5,6.525757
1426792090.516,7.8147583
1426792090.532,8.782368
1426792090.547,9.447857
1426792090.563,9.826149
1426792090.578,9.9684105
1426792090.594,9.900948
1426792090.61,9.652111
1426792090.625,9.259453
1426792090.641,8.7540245
1426792090.657,8.136883
1426792090.672,7.4635963
1426792090.688,6.68882
1426792090.703,5.7861633
1426792090.719,4.770523
1426792090.735,3.6276016
1426792090.75,2.3478851
1426792090.766,0.93714905
1426792090.782,-0.57401276
1426792090.797,-2.15522
1426792090.813,-3.7950363
1426792090.828,-5.495476
1426792090.844,-7.341484
1426792090.86,-9.268204
1426792090.875,-11.263618
1426792090.891,-13.333427
1426792090.907,-15.445061
1426792090.922,-17.543823
1426792090.938,-19.596329
1426792090.953,-21.581413
1426792090.969,-23.599548
1426792090.985,-25.866287
1426792091,-28.3246
1426792091.016,-31.027718
1426792091.032,-33.997375
1426792091.047,-37.178154
1426792091.063,-40.418274
1426792091.078,-43.55098
1426792091.094,-46.49283
1426792091.11,-49.325394
1426792091.125,-52.407516
1426792091.141,-55.665726
1426792091.157,-59.223206
1426792091.172,-63.124634
1426792091.188,-67.20114
1426792091.203,-71.10475
1426792091.219,-74.44069
1426792091.235,-76.92549
1426792091.25,-78.59474
1426792091.266,-79.90953
1426792091.282,-80.89572
1426792091.297,-81.76514
1426792091.313,-82.52916
1426792091.328,-82.740814
1426792091.344,-81.474915
1426792091.36,-77.43182
1426792091.375,-69.09624
1426792091.391,-54.722534
1426792091.407,-37.386383
1426792091.422,-18.446136
1426792091.438,0.9179535
1426792091.453,19.920822
1426792091.469,38.373688
1426792091.485,56.648132
1426792091.5,75.60474
1426792091.516,96.26349
1426792091.532,119.44354
1426792091.547,145.20316
1426792091.563,173.16754
1426792091.578,201.42776
1426792091.594,226.83783
1426792091.61,245.83145
1426792091.625,255.43103
1426792091.641,254.2402
1426792091.657,242.92172
1426792091.672,223.9104
1426792091.688,200.63925
1426792091.703,176.99512
1426792091.719,155.80994
1426792091.735,138.4321
1426792091.75,124.81976
1426792091.766,113.89453
1426792091.782,104.10852
1426792091.797,93.98468
1426792091.813,82.5643
1426792091.828,69.566895
1426792091.844,55.62317
1426792091.86,41.468597
1426792091.875,27.56491
1426792091.891,13.980499
1426792091.907,0.5614929
1426792091.922,-12.707489
1426792091.938,-25.353973
1426792091.953,-36.492462
1426792091.969,-45.19992
1426792091.985,-50.994507
1426792092,-54.30478
1426792092.016,-56.361603
1426792092.032,-58.487457
1426792092.047,-61.450226
1426792092.063,-64.93381
1426792092.078,-67.73178
1426792092.094,-68.43463
1426792092.11,-66.309906
1426792092.125,-61.781677
1426792092.141,-56.351456
1426792092.157,-51.869415
1426792092.172,-49.648697
1426792092.188,-49.699966
1426792092.204,-50.834457
1426792092.219,-51.303192
1426792092.235,-49.804108
1426792092.25,-46.193344
1426792092.266,-41.512024
1426792092.282,-37.366592
1426792092.297,-35.026047
1426792092.313,-34.639618
1426792092.328,-35.231903
1426792092.344,-35.274857
1426792092.36,-33.61656
1426792092.375,-30.190125
1426792092.391,-26.016403
1426792092.407,-22.59993
1426792092.422,-21.001678
1426792092.438,-21.131454
1426792092.454,-21.779724
1426792092.469,-21.256607
1426792092.485,-18.461761
1426792092.5,-13.457825
1426792092.516,-7.5240936
1426792092.532,-2.3837585
1426792092.547,0.727417
1426792092.563,1.807312
1426792092.579,1.9787598
1426792092.594,2.849701
1426792092.61,5.5220184
1426792092.625,9.941299
1426792092.641,14.958954
1426792092.657,19.05371
1426792092.672,21.20694
1426792092.688,21.621506
1426792092.704,21.570847
1426792092.719,22.729507
1426792092.735,26.174133
1426792092.75,31.726486
1426792092.766,38.016617
1426792092.782,43.155945
1426792092.797,45.64366
1426792092.813,45.10208
1426792092.829,42.272034
1426792092.844,38.44493
1426792092.86,34.57582
1426792092.875,30.77301
1426792092.891,26.308685
1426792092.907,20.213852
1426792092.922,12.029068
1426792092.938,2.2993011
1426792092.954,-7.5602875
1426792092.969,-15.891129
1426792092.985,-21.710571
1426792093,-25.136124
1426792093.016,-27.262856
1426792093.032,-29.487335
1426792093.047,-32.64737
1426792093.063,-36.4806
1426792093.079,-39.79425
1426792093.094,-41.19973
1426792093.11,-39.9768
1426792093.125,-36.59092
1426792093.141,-32.45352
1426792093.157,-29.238441
1426792093.172,-27.9561
1426792093.188,-28.413467
1426792093.204,-29.401382
1426792093.219,-29.422203
1426792093.235,-27.630638
1426792093.25,-24.264198
1426792093.266,-20.481339
1426792093.282,-17.647507
1426792093.297,-16.522217
1426792093.313,-16.778275
1426792093.329,-17.299225
1426792093.344,-16.81572
1426792093.36,-14.758629
1426792093.375,-11.585289
1426792093.391,-8.487907
1426792093.407,-6.704895
1426792093.422,-6.732506
1426792093.438,-7.9690475
1426792093.454,-9.007889
1426792093.469,-8.423248
1426792093.485,-5.617096
1426792093.5,-1.1287689
1426792093.516,3.6469498
1426792093.532,7.2690125
1426792093.547,9.068939
1426792093.563,9.555344
1426792093.579,10.066925
1426792093.594,11.966347
1426792093.61,15.7660675
1426792093.625,20.798172
1426792093.641,25.595993
1426792093.657,28.727516
1426792093.672,29.715294
1426792093.688,29.397324
1426792093.704,29.470001
1426792093.719,31.55175
1426792093.735,36.17051
1426792093.75,42.42813
1426792093.766,48.414246
1426792093.782,52.118805
1426792093.797,52.46518
1426792093.813,49.73948
1426792093.829,45.228203
1426792093.844,40.44873
1426792093.86,36.179375
1426792093.875,32.200493
1426792093.891,27.526024
1426792093.907,21.197556
1426792093.922,12.991142
1426792093.938,3.7544708
1426792093.954,-5.021393
1426792093.969,-11.912773
1426792093.985,-16.391861
1426792094,-18.982422
1426792094.016,-20.95723
1426792094.032,-23.562347
1426792094.047,-27.253235
1426792094.063,-31.428894
1426792094.079,-34.769444
1426792094.094,-36.004547
1426792094.11,-34.782642
1426792094.125,-31.862347
1426792094.141,-28.818645
1426792094.157,-27.180695
1426792094.172,-27.596848
1426792094.188,-29.444939
1426792094.204,-31.279598
1426792094.219,-31.647575
1426792094.235,-30.007877
1426792094.25,-26.984734
1426792094.266,-23.95462
1426792094.282,-22.253235
1426792094.297,-22.30045
1426792094.313,-23.35915
1426792094.329,-23.999153
1426792094.344,-22.931522
1426792094.36,-19.843353
1426792094.375,-15.460331
1426792094.391,-11.210827
1426792094.407,-8.358158
1426792094.422,-7.2525177
1426792094.438,-7.1329575
1426792094.454,-6.6080017
1426792094.469,-4.436985
1426792094.485,-0.3082924
1426792094.5,4.996788
1426792094.516,10.036392
1426792094.532,13.53952
1426792094.547,15.153324
1426792094.563,15.656921
1426792094.579,16.44149
1426792094.594,18.686365
1426792094.61,22.584145
1426792094.625,27.280396
1426792094.641,31.382845
1426792094.657,33.847984
1426792094.672,34.713425
1426792094.688,35.085125
1426792094.704,36.48356
1426792094.719,39.852173
1426792094.735,44.889114
1426792094.75,50.04412
1426792094.766,53.283554
1426792094.782,53.114693
1426792094.797,49.359673
1426792094.813,43.15956
1426792094.829,36.27107
1426792094.844,30.06768
1426792094.86,24.812624
1426792094.875,19.750757
1426792094.891,13.694419
1426792094.907,5.943598
1426792094.922,-3.1160464
1426792094.938,-12.117471
1426792094.954,-19.431862
1426792094.969,-24.046211
1426792094.985,-26.11345
1426792095,-26.757748
1426792095.016,-27.426367
1426792095.032,-29.005287
1426792095.047,-31.38241
1426792095.063,-33.546776
1426792095.079,-34.34831
1426792095.094,-33.24007
1426792095.11,-30.71101
1426792095.126,-28.00867
1426792095.141,-26.500969
1426792095.157,-26.87414
1426792095.172,-28.693703
1426792095.188,-30.653847
1426792095.204,-31.295094
1426792095.219,-29.883856
1426792095.235,-26.824507
1426792095.251,-23.416746
1426792095.266,-21.153458
1426792095.282,-20.797329
1426792095.297,-21.912487
1426792095.313,-23.132565
1426792095.329,-22.93179
1426792095.344,-20.553516
1426792095.36,-16.446064
1426792095.376,-11.950729
1426792095.391,-8.56945
1426792095.407,-6.9971733
1426792095.422,-6.752651
1426792095.438,-6.444412
1426792095.454,-4.634407
1426792095.469,-0.712059
1426792095.485,4.780056
1426792095.501,10.467579
1426792095.516,14.920261
1426792095.532,17.49815
1426792095.547,18.685268
1426792095.563,19.75993
1426792095.579,22.059658
1426792095.594,26.172405
1426792095.61,31.663311
1426792095.626,37.368546
1426792095.641,42.064125
1426792095.657,45.17839
1426792095.672,47.0295
1426792095.688,48.4856
1426792095.704,50.278637
1426792095.719,52.38339
1426792095.735,53.808247
1426792095.751,53.13336
1426792095.766,49.20881
1426792095.782,41.912918
1426792095.797,32.293724
1426792095.813,22.116531
1426792095.829,12.985382
1426792095.844,5.6038284
1426792095.86,-0.45220947
1426792095.876,-6.2920837
1426792095.891,-12.9756775
1426792095.907,-20.728577
1426792095.922,-28.781067
1426792095.938,-35.72136
1426792095.954,-40.303993
1426792095.969,-42.163506
1426792095.985,-42.003235
1426792096.001,-41.172806
1426792096.016,-40.988083
1426792096.032,-41.949593
1426792096.047,-43.578865
1426792096.063,-44.7993
1426792096.079,-44.668938
1426792096.094,-43.01477
1426792096.11,-40.57042
1426792096.126,-38.53659
1426792096.141,-37.87333
1426792096.157,-38.63559
1426792096.172,-39.871857
1426792096.188,-40.142662
1426792096.204,-38.381844
1426792096.219,-34.493782
1426792096.235,-29.501358
1426792096.251,-24.948196
1426792096.266,-22.096703
1426792096.282,-21.193146
1426792096.297,-21.328156
1426792096.313,-21.003738
1426792096.329,-19.02227
1426792096.344,-15.206421
1426792096.36,-10.484192
1426792096.376,-6.369438
1426792096.391,-4.067566
1426792096.407,-3.7127762
1426792096.422,-4.3439407
1426792096.438,-4.3971176
1426792096.454,-2.6700287
1426792096.469,1.0550766
1426792096.485,5.9069138
1426792096.501,10.510147
1426792096.516,13.787582
1426792096.532,15.678207
1426792096.547,17.147324
1426792096.563,19.601135
1426792096.579,24.011978
1426792096.594,30.325348
1426792096.61,37.446693
1426792096.626,43.87043
1426792096.641,48.527596
1426792096.657,51.37088
1426792096.672,53.27954
1426792096.688,55.371902
1426792096.704,58.10514
1426792096.719,60.8201
1426792096.735,61.92566
1426792096.751,59.764503
1426792096.766,53.530037
1426792096.782,43.85974
1426792096.797,32.518837
1426792096.813,21.561073
1426792096.829,12.29689
1426792096.844,4.746422
1426792096.86,-2.1225739
1426792096.876,-9.666222
1426792096.891,-18.55281
1426792096.907,-28.275703
1426792096.922,-37.352127
1426792096.938,-44.059387
1426792096.954,-47.437943
1426792096.969,-47.76407
1426792096.985,-46.41211
1426792097.001,-45.03866
1426792097.016,-44.73519
1426792097.032,-45.409035
1426792097.047,-46.003304
1426792097.063,-45.227608
1426792097.079,-42.517776
1426792097.094,-38.42376
1426792097.11,-34.344093
1426792097.126,-31.733337
1426792097.141,-31.217674
1426792097.157,-32.171288
1426792097.172,-33.108086
1426792097.188,-32.493492
1426792097.204,-29.728127
1426792097.219,-25.44738
1426792097.235,-21.15841
1426792097.251,-18.388153
1426792097.266,-17.816185
1426792097.282,-18.8322
1426792097.297,-19.961159
1426792097.313,-19.653687
1426792097.329,-17.22831
1426792097.344,-13.202629
1426792097.36,-8.988388
1426792097.376,-6.06839
1426792097.391,-5.1044693
1426792097.407,-5.5102463
1426792097.422,-5.829788
1426792097.438,-4.5655212
1426792097.454,-1.1500092
1426792097.469,3.7764435
1426792097.485,8.739624
1426792097.501,12.297432
1426792097.516,13.939888
1426792097.532,14.4017105
1426792097.547,15.188858
1426792097.563,17.704628
1426792097.579,22.2994
1426792097.594,28.115517
1426792097.61,33.535263
1426792097.626,37.116676
1426792097.641,38.51397
1426792097.657,38.680252
1426792097.672,39.327225
1426792097.688,41.981377
1426792097.704,46.984077
1426792097.719,53.270485
1426792097.735,58.83834
1426792097.751,61.740997
1426792097.766,61.028553
1426792097.782,57.145897
1426792097.798,51.488117
1426792097.813,45.52271
1426792097.829,39.922474
1426792097.844,34.306
1426792097.86,27.616077
1426792097.876,18.976177
1426792097.891,8.455505
1426792097.907,-2.7983665
1426792097.923,-13.067547
1426792097.938,-20.956055
1426792097.954,-26.109005
1426792097.969,-29.34505
1426792097.985,-32.059536
1426792098.001,-35.384365
1426792098.016,-39.452007
1426792098.032,-43.325672
1426792098.048,-45.64081
1426792098.063,-45.418926
1426792098.079,-42.820656
1426792098.094,-39.070732
1426792098.11,-35.879005
1426792098.126,-34.498947
1426792098.141,-35.058002
1426792098.157,-36.505917
1426792098.173,-37.2783
1426792098.188,-36.202793
1426792098.204,-33.206654
1426792098.219,-29.313301
1426792098.235,-26.015656
1426792098.251,-24.37107
1426792098.266,-24.370872
1426792098.282,-24.937523
1426792098.298,-24.561268
1426792098.313,-22.23774
1426792098.329,-18.06149
1426792098.344,-13.181976
1426792098.36,-9.14555
1426792098.376,-7.016121
1426792098.391,-6.6917458
1426792098.407,-6.9865913
1426792098.423,-6.3545113
1426792098.438,-3.8111038
1426792098.454,0.42712402
1426792098.469,5.108856
1426792098.485,8.588051
1426792098.501,9.833462
1426792098.516,9.03717
1426792098.532,7.508009
1426792098.548,6.9172306
1426792098.563,8.307171
1426792098.579,11.523207
1426792098.594,15.344568
1426792098.61,18.224876
1426792098.626,19.268198
1426792098.641,18.82288
1426792098.657,18.273724
1426792098.673,19.256134
1426792098.688,22.67947
1426792098.704,28.210114
1426792098.719,34.496754
1426792098.735,39.922707
1426792098.751,43.566395
1426792098.766,45.625443
1426792098.782,47.121326
1426792098.798,49.08347
1426792098.813,51.66065
1426792098.829,53.871696
1426792098.844,54.047363
1426792098.86,50.757004
1426792098.876,43.69858
1426792098.891,33.9676
1426792098.907,23.574055
1426792098.923,14.476391
1426792098.938,7.6365495
1426792098.954,2.659197
1426792098.969,-1.7492437
1426792098.985,-6.9571815
1426792099.001,-13.4854555
1426792099.016,-20.661087
1426792099.032,-26.943928
1426792099.048,-30.846762
1426792099.063,-31.846832
1426792099.079,-30.702442
1426792099.094,-29.031147
1426792099.11,-28.481401
1426792099.126,-29.739405
1426792099.141,-32.210384
1426792099.157,-34.394646
1426792099.173,-34.876987
1426792099.188,-33.211807
1426792099.204,-30.203531
1426792099.219,-27.453932
1426792099.235,-26.370052
1426792099.251,-27.278902
1426792099.266,-29.221724
1426792099.282,-30.47448
1426792099.298,-29.592846
1426792099.313,-26.24103
1426792099.329,-21.39128
1426792099.344,-16.747328
1426792099.36,-13.813335
1426792099.376,-13.004181
1426792099.391,-13.5027275
1426792099.407,-13.748687
1426792099.423,-12.383877
1426792099.438,-9.016175
1426792099.454,-4.413451
1426792099.469,-0.063827515
1426792099.485,2.7247257
1426792099.501,3.5663223
1426792099.516,3.2438354
1426792099.532,3.2315178
1426792099.548,4.80694
1426792099.563,8.255333
1426792099.579,12.708015
1426792099.594,16.63393
1426792099.61,18.734468
1426792099.626,18.821507
1426792099.641,17.865692
1426792099.657,17.501863
1426792099.673,18.985928
1426792099.688,22.468676
1426792099.704,26.94463
1426792099.719,30.88058
1426792099.735,33.221405
1426792099.751,34.097473
1426792099.766,34.686092
1426792099.782,36.465336
1426792099.798,40.10352
1426792099.813,44.894077
1426792099.829,48.988804
1426792099.844,50.318863
1426792099.86,47.678085
1426792099.876,41.41884
1426792099.891,33.193283
1426792099.907,25.063576
1426792099.923,18.37703
1426792099.938,13.229656
1426792099.954,8.641121
1426792099.969,3.3754234
1426792099.985,-3.2041702
1426792100.001,-10.569122
1426792100.016,-17.3336
1426792100.032,-22.002922
1426792100.048,-23.88137
1426792100.063,-23.463226
1426792100.079,-22.13247
1426792100.094,-21.480045
1426792100.11,-22.4277
1426792100.126,-24.738987
1426792100.141,-27.267284
1426792100.157,-28.575752
1426792100.173,-27.864098
1426792100.188,-25.37445
1426792100.204,-22.300709
1426792100.219,-20.127563
1426792100.235,-19.78682
1426792100.251,-21.080032
1426792100.266,-22.8918
1426792100.282,-23.76078
1426792100.298,-22.82497
1426792100.313,-20.264496
1426792100.329,-17.1721
1426792100.344,-14.908554
1426792100.36,-14.205051
1426792100.376,-14.74107
1426792100.391,-15.307003
1426792100.407,-14.53405
1426792100.423,-11.789028
1426792100.438,-7.539196
1426792100.454,-3.1369781
1426792100.47,-0.026130676
1426792100.485,1.105648
1426792100.501,0.75667953
1426792100.516,0.26948547
1426792100.532,1.102581
1426792100.548,3.9069977
1426792100.563,8.215206
1426792100.579,12.724445
1426792100.595,16.069553
1426792100.61,17.621704
1426792100.626,17.841827
1426792100.641,17.927238
1426792100.657,19.079777
1426792100.673,21.74685
1426792100.688,25.367542
1426792100.704,28.75365
1426792100.72,30.840927
1426792100.735,31.38847
1426792100.751,31.179588
1426792100.766,31.54031
1426792100.782,33.52135
1426792100.798,37.09127
1426792100.813,41.0448
1426792100.829,43.501965
1426792100.845,42.843147
1426792100.86,38.610672
1426792100.876,31.725449
1426792100.891,23.98729
1426792100.907,17.128925
1426792100.923,11.897705
1426792100.938,7.831806
1426792100.954,3.7425117
1426792100.97,-1.4896278
1426792100.985,-8.059822
1426792101.001,-15.076
1426792101.016,-21.110146
1426792101.032,-25.02398
1426792101.048,-26.68835
1426792101.063,-26.983284
1426792101.079,-27.312439
1426792101.095,-28.706207
1426792101.11,-31.199234
1426792101.126,-33.779274
1426792101.141,-35.079147
1426792101.157,-34.171623
1426792101.173,-31.242214
1426792101.188,-27.455536
1426792101.204,-24.40403
1426792101.22,-23.21526
1426792101.235,-23.937511
1426792101.251,-25.530674
1426792101.266,-26.494034
1426792101.282,-25.757824
1426792101.298,-23.237202
1426792101.313,-19.822376
1426792101.329,-16.825142
1426792101.345,-15.195793
1426792101.36,-14.937668
1426792101.376,-15.17981
1426792101.391,-14.714832
1426792101.407,-12.792507
1426792101.423,-9.560589
1426792101.438,-5.989296
1426792101.454,-3.2971153
1426792101.47,-2.2125626
1426792101.485,-2.527378
1426792101.501,-3.1515923
1426792101.516,-2.7980309
1426792101.532,-0.7104454
1426792101.548,2.8608322
1426792101.563,6.8208466
1426792101.579,9.848915
1426792101.595,11.205528
1426792101.61,11.159225
1426792101.626,10.885574
1426792101.641,11.734238
1426792101.657,14.421249
1426792101.673,18.58329
1426792101.688,23.00885
1426792101.704,26.338112
1426792101.72,27.929901
1426792101.735,28.300858
1426792101.751,28.81176
1426792101.766,30.858566
1426792101.782,34.926346
1426792101.798,40.174522
1426792101.813,44.778145
1426792101.829,46.815125
1426792101.845,45.318535
1426792101.86,40.72233
1426792101.876,34.573135
1426792101.891,28.583351
1426792101.907,23.645508
1426792101.923,19.40509
1426792101.938,14.662491
1426792101.954,8.248276
1426792101.97,-0.005706787
1426792101.985,-9.033363
1426792102.001,-16.998848
1426792102.016,-22.324928
1426792102.032,-24.593948
1426792102.048,-24.782867
1426792102.063,-24.673157
1426792102.079,-25.83374
1426792102.095,-28.713287
1426792102.11,-32.445404
1426792102.126,-35.38365
1426792102.141,-36.1624
1426792102.157,-34.512215
1426792102.173,-31.442192
1426792102.188,-28.64318
1426792102.204,-27.59835
1426792102.22,-28.712303
1426792102.235,-31.144897
1426792102.251,-33.323685
1426792102.266,-33.84082
1426792102.282,-32.234238
1426792102.298,-29.203209
1426792102.313,-26.094345
1426792102.329,-24.159546
1426792102.345,-23.73645
1426792102.36,-24.134506
1426792102.376,-24.063148
1426792102.391,-22.428864
1426792102.407,-19.024086
1426792102.423,-14.645073
1426792102.438,-10.655991
1426792102.454,-8.188705
1426792102.47,-7.439636
1426792102.485,-7.5688477
1426792102.501,-7.2144547
1426792102.516,-5.3348007
1426792102.532,-1.8259811
1426792102.548,2.4024963
1426792102.563,5.927864
1426792102.579,7.6901703
1426792102.595,7.6739426
1426792102.61,6.9000397
1426792102.626,6.8994675
1426792102.641,8.778595
1426792102.657,12.560997
1426792102.673,17.175522
1426792102.688,21.120026
1426792102.704,23.271103
1426792102.72,23.645714
1426792102.735,23.311768
1426792102.751,23.767715
1426792102.766,26.030762
1426792102.782,30.062912
1426792102.798,34.798965
1426792102.813,38.78691
1426792102.829,40.976242
1426792102.845,41.28961
1426792102.86,40.555252
1426792102.876,39.84735
1426792102.891,39.712463
1426792102.907,39.72783
1426792102.923,38.66324
1426792102.938,35.16739
1426792102.954,28.57579
1426792102.97,19.499344
1426792102.985,9.574493
1426792103.001,0.74375916
1426792103.016,-5.725876
1426792103.032,-9.80452
1426792103.048,-12.53801
1426792103.063,-15.421616
1426792103.079,-19.369247
1426792103.095,-24.181091
1426792103.11,-28.666458
1426792103.126,-31.396805
1426792103.142,-31.645767
1426792103.157,-29.871536
1426792103.173,-27.451492
1426792103.188,-25.957825
1426792103.204,-26.17569
1426792103.22,-27.687347
1426792103.235,-29.139801
1426792103.251,-29.102142
1426792103.266,-26.98854
1426792103.282,-23.392136
1426792103.298,-19.782578
1426792103.313,-17.653275
1426792103.329,-17.631378
1426792103.345,-19.087555
1426792103.36,-20.520859
1426792103.376,-20.404144
1426792103.392,-18.092697
1426792103.407,-14.152359
1426792103.423,-10.022247
1426792103.438,-7.178177
1426792103.454,-6.337097
1426792103.47,-6.982086
1426792103.485,-7.747513
1426792103.501,-7.210541
1426792103.517,-4.762253
1426792103.532,-0.9452667
1426792103.548,2.8646545
1426792103.563,5.2132263
1426792103.579,5.4755554
1426792103.595,4.2352753
1426792103.61,2.9799194
1426792103.626,3.2375793
1426792103.642,5.7050934
1426792103.657,9.849442
1426792103.673,14.257126
1426792103.688,17.424423
1426792103.704,18.661896
1426792103.72,18.504822
1426792103.735,18.300095
1426792103.751,19.348602
1426792103.767,22.075058
1426792103.782,25.762482
1426792103.798,28.994537
1426792103.813,30.527908
1426792103.829,30.153122
1426792103.845,28.876099
1426792103.86,28.382065
1426792103.876,30.026596
1426792103.892,33.986862
1426792103.907,39.06375
1426792103.923,43.22293
1426792103.938,44.631943
1426792103.954,42.525894
1426792103.97,37.557907
1426792103.985,31.310608
1426792104.001,25.37436
1426792104.017,20.461563
1426792104.032,16.17308
1426792104.048,11.400665
1426792104.063,5.1891327
1426792104.079,-2.4560394
1426792104.095,-10.4136505
1426792104.11,-17.003143
1426792104.126,-20.958984
1426792104.142,-22.17949
1426792104.157,-21.759369
1426792104.173,-21.347275
1426792104.188,-22.159897
1426792104.204,-24.272995
1426792104.22,-26.55542
1426792104.235,-27.486008
1426792104.251,-26.118088
1426792104.267,-22.755646
1426792104.282,-18.791763
1426792104.298,-16.00827
1426792104.313,-15.532562
1426792104.329,-17.229767
1426792104.345,-19.80928
1426792104.36,-21.598206
1426792104.376,-21.520813
1426792104.392,-19.644318
1426792104.407,-17.068039
1426792104.423,-15.230362
1426792104.438,-15.037399
1426792104.454,-16.31424
1426792104.47,-17.91684
1426792104.485,-18.42389
1426792104.501,-16.970245
1426792104.517,-13.766937
1426792104.532,-9.891541
1426792104.548,-6.7141724
1426792104.563,-5.06369
1426792104.579,-4.741226
1426792104.595,-4.6739044
1426792104.61,-3.5807648
1426792104.626,-0.72309875
1426792104.642,3.5947418
1426792104.657,8.224518
1426792104.673,11.803192
1426792104.688,13.543671
1426792104.704,13.695526
1426792104.72,13.406586
1426792104.735,14.011444
1426792104.751,16.196655
1426792104.767,19.613373
1426792104.782,23.074966
1426792104.798,25.241257
1426792104.813,25.493607
1426792104.829,24.357117
1426792104.845,23.227448
1426792104.86,23.653122
1426792104.876,26.382996
1426792104.892,30.971786
1426792104.907,36.039978
1426792104.923,39.980072
1426792104.938,41.84207
1426792104.954,41.746674
1426792104.97,40.64427
1426792104.985,39.60466
1426792105.001,39.03827
1426792105.017,38.418793
1426792105.032,36.57428
1426792105.048,32.469406
1426792105.063,25.907898
1426792105.079,17.860977
1426792105.095,9.996475
1426792105.11,3.852356
1426792105.126,0.0022583008
1426792105.142,-2.1687622
1426792105.157,-4.0916443
1426792105.173,-7.1012115
1426792105.188,-11.6194
1426792105.204,-16.847061
1426792105.22,-21.270737
1426792105.235,-23.542313
1426792105.251,-23.318283
1426792105.267,-21.498306
1426792105.282,-19.720718
1426792105.298,-19.432785
1426792105.313,-21.069824
1426792105.329,-23.815735
1426792105.345,-26.146393
1426792105.36,-26.733688
1426792105.376,-25.27649
1426792105.392,-22.614426
1426792105.407,-20.189484
1426792105.423,-19.21727
1426792105.438,-19.884674
1426792105.454,-21.279953
1426792105.47,-21.942673
1426792105.485,-20.737442
1426792105.501,-17.569702
1426792105.517,-13.418762
1426792105.532,-9.811768
1426792105.548,-7.9214783
1426792105.563,-7.903076
1426792105.579,-8.777893
1426792105.595,-9.0672
1426792105.61,-7.6439056
1426792105.626,-4.473175
1426792105.642,-0.5690918
1426792105.657,2.575119
1426792105.673,3.8531342
1426792105.688,3.2831116
1426792105.704,2.018158
1426792105.72,1.7095337
1426792105.735,3.5240326
1426792105.751,7.4782715
1426792105.767,12.44371
1426792105.782,16.774384
1426792105.798,19.269287
1426792105.813,19.86853
1426792105.829,19.684326
1426792105.845,20.271088
1426792105.86,22.727585
1426792105.876,27.040878
1426792105.892,32.160797
1426792105.907,36.58998
1426792105.923,39.29103
1426792105.938,40.23175
1426792105.954,40.26117
1426792105.97,40.427002
1426792105.985,41.165634
1426792106.001,41.92224
1426792106.017,41.408646
1426792106.032,38.336487
1426792106.048,32.25534
1426792106.064,23.933884
1426792106.079,15.028427
1426792106.095,7.2819977
1426792106.11,1.6507416
1426792106.126,-2.1312714
1426792106.142,-5.2105255
1426792106.157,-8.893188
1426792106.173,-13.791061
1426792106.189,-19.439697
1426792106.204,-24.535965
1426792106.22,-27.69902
1426792106.235,-28.30017
1426792106.251,-26.87181
1426792106.267,-24.763565
1426792106.282,-23.482224
1426792106.298,-23.786682
1426792106.314,-25.335861
1426792106.329,-26.904251
1426792106.345,-27.194412
1426792106.36,-25.666702
1426792106.376,-22.900284
1426792106.392,-20.241165
1426792106.407,-19.049118
1426792106.423,-19.821426
1426792106.439,-21.807816
1426792106.454,-23.441254
1426792106.47,-23.224823
1426792106.485,-20.664597
1426792106.501,-16.577164
1426792106.517,-12.625778
1426792106.532,-10.407288
1426792106.548,-10.441147
1426792106.564,-11.961716
1426792106.579,-13.275177
1426792106.595,-12.824829
1426792106.61,-10.091263
1426792106.626,-5.832947
1426792106.642,-1.6750793
1426792106.657,0.86524963
1426792106.673,1.231781
1426792106.689,0.1401825
1426792106.704,-0.8403778
1426792106.72,-0.21029663
1426792106.735,2.6380768
1426792106.751,7.098892
1426792106.767,11.775513
1426792106.782,15.223022
1426792106.798,16.810303
1426792106.814,17.007446
1426792106.829,17.120865
1426792106.845,18.455597
1426792106.86,21.616486
1426792106.876,26.16101
1426792106.892,30.949173
1426792106.907,34.809265
1426792106.923,37.24353
1426792106.939,38.664856
1426792106.954,39.99173
1426792106.97,41.880096
1426792106.985,44.134827
1426792107.001,45.590103
1426792107.017,44.741745
1426792107.032,40.54521
1426792107.048,33.195526
1426792107.064,24.083176
1426792107.079,15.186401
1426792107.095,8.016388
1426792107.11,2.8680115
1426792107.126,-1.1964417
1426792107.142,-5.687958
1426792107.157,-11.687393
1426792107.173,-19.105148
1426792107.189,-26.672165
1426792107.204,-32.65175
1426792107.22,-35.859146
1426792107.235,-36.322983
1426792107.251,-35.26065
1426792107.267,-34.337875
1426792107.282,-34.736954
1426792107.298,-36.448868
1426792107.314,-38.37932
1426792107.329,-39.028885
1426792107.345,-37.50885
1426792107.36,-34.090675
1426792107.376,-30.129425
1426792107.392,-27.249725
1426792107.407,-26.458076
1426792107.423,-27.481705
1426792107.439,-28.948853
1426792107.454,-29.183983
1426792107.47,-27.18084
1426792107.485,-23.192879
1426792107.501,-18.532051
1426792107.517,-14.840538
1426792107.532,-13.130867
1426792107.548,-13.209335
1426792107.564,-13.830185
1426792107.579,-13.458038
1426792107.595,-11.240318
1426792107.61,-7.440819
1426792107.626,-3.3268814
1426792107.642,-0.3512497
1426792107.657,0.63783264
1426792107.673,-0.006706238
1426792107.689,-1.0294724
1426792107.704,-0.99832153
1426792107.72,0.8635483
1426792107.735,4.259636
1426792107.751,8.042458
1426792107.767,10.933594
1426792107.782,12.295677
1426792107.798,12.549957
1426792107.814,12.889969
1426792107.829,14.592644
1426792107.845,18.200058
1426792107.86,23.201843
1426792107.876,28.321594
1426792107.892,32.26039
1426792107.907,34.487686
1426792107.923,35.617157
1426792107.939,37.00891
1426792107.954,39.94747
1426792107.97,44.75202
1426792107.985,50.40795
1426792108.001,55.018806
1426792108.017,56.679123
1426792108.032,54.503487
1426792108.048,49.01293
1426792108.064,41.856766
1426792108.079,34.83554
1426792108.095,28.925858
1426792108.11,23.917862
1426792108.126,18.69487
1426792108.142,12.113632
1426792108.157,3.8409348
1426792108.173,-5.2370834
1426792108.189,-13.481056
1426792108.204,-19.353058
1426792108.22,-22.307793
1426792108.235,-23.07727
1426792108.251,-23.2221
1426792108.267,-24.222649
1426792108.282,-26.594238
1426792108.298,-29.628899
1426792108.314,-31.897026
1426792108.329,-32.17939
1426792108.345,-30.307518
1426792108.36,-27.299126
1426792108.376,-24.824875
1426792108.392,-24.25148
1426792108.407,-25.858833
1426792108.423,-28.670212
1426792108.439,-31.063858
1426792108.454,-31.66877
1426792108.47,-30.121208
1426792108.485,-27.170502
1426792108.501,-24.203064
1426792108.517,-22.422653
1426792108.532,-22.131218
1426792108.548,-22.611702
1426792108.564,-22.61026
1426792108.579,-21.120071
1426792108.595,-18.052452
1426792108.61,-14.256638
1426792108.626,-11.095604
1426792108.642,-9.55703
1426792108.657,-9.6647415
1426792108.673,-10.387993
1426792108.689,-10.277397
1426792108.704,-8.301247
1426792108.72,-4.4893036
1426792108.736,0.07509613
1426792108.751,3.894516
1426792108.767,5.9413376
1426792108.782,6.3103867
1426792108.798,6.150406
1426792108.814,7.005623
1426792108.829,9.900658
1426792108.845,14.720383
1426792108.861,20.312035
1426792108.876,25.124474
1426792108.892,28.09948
1426792108.907,29.273354
1426792108.923,29.77655
1426792108.939,31.179077
1426792108.954,34.58802
1426792108.97,39.97216
1426792108.986,46.19883
1426792109.001,51.55586
1426792109.017,54.63003
1426792109.032,54.98186
1426792109.048,53.211727
1426792109.064,50.44177
1426792109.079,47.491817
1426792109.095,44.325054
1426792109.111,40.131725
1426792109.126,33.8885
1426792109.142,25.169209
1426792109.157,14.608788
1426792109.173,3.7463646
1426792109.189,-5.701374
1426792109.204,-12.720139
1426792109.22,-17.449337
1426792109.236,-20.97081
1426792109.251,-24.64653
1426792109.267,-29.17498
1426792109.282,-34.197083
1426792109.298,-38.47393
1426792109.314,-40.66275
1426792109.329,-40.163536
1426792109.345,-37.564213
1426792109.361,-34.282806
1426792109.376,-31.901192
1426792109.392,-31.248117
1426792109.407,-31.993515
1426792109.423,-32.898438
1426792109.439,-32.620487
1426792109.454,-30.537607
1426792109.47,-27.124601
1426792109.486,-23.662043
1426792109.501,-21.507364
1426792109.517,-21.229076
1426792109.532,-22.233501
1426792109.548,-23.123901
1426792109.564,-22.478466
1426792109.579,-19.763023
1426792109.595,-15.6460705
1426792109.611,-11.578012
1426792109.626,-9.010093
1426792109.642,-8.457473
1426792109.657,-9.211799
1426792109.673,-9.748927
1426792109.689,-8.67818
1426792109.704,-5.569823
1426792109.72,-1.2357125
1426792109.736,2.755413
1426792109.751,4.95149
1426792109.767,4.935285
1426792109.782,3.5651731
1426792109.798,2.4923291
1426792109.814,3.2415915
1426792109.829,6.347354
1426792109.845,11.06612
1426792109.861,15.8535385
1426792109.876,19.218143
1426792109.892,20.61269
1426792109.907,20.710844
1426792109.923,20.981909
1426792109.939,22.82116
1426792109.954,26.758366
1426792109.97,32.146255
1426792109.986,37.603436
1426792110.001,41.71485
1426792110.017,43.910007
1426792110.032,44.60179
1426792110.048,44.83966
1426792110.064,45.521416
1426792110.079,46.7154
1426792110.095,47.504845
1426792110.111,46.5017
1426792110.126,42.615032
1426792110.142,35.81359
1426792110.157,27.213322
1426792110.173,18.586872
1426792110.189,11.436111
1426792110.204,6.242895
1426792110.22,2.3285904
1426792110.236,-1.6456146
1426792110.251,-6.805252
1426792110.267,-13.304726
1426792110.282,-20.156889
1426792110.298,-25.794106
1426792110.314,-29.012524
1426792110.329,-29.665306
1426792110.345,-28.770702
1426792110.361,-27.891655
1426792110.376,-28.25822
1426792110.392,-30.022758
1426792110.407,-32.226418
1426792110.423,-33.46421
1426792110.439,-32.82389
1426792110.454,-30.48143
1426792110.47,-27.636719
1426792110.486,-25.802216
1426792110.501,-25.893204
1426792110.517,-27.561657
1426792110.532,-29.426655
1426792110.548,-29.838295
1426792110.564,-27.900799
1426792110.579,-24.001606
1426792110.595,-19.57019
1426792110.611,-16.290543
1426792110.626,-15.115753
1426792110.642,-15.666473
1426792110.657,-16.528633
1426792110.673,-16.010826
1426792110.689,-13.235855
1426792110.704,-8.580124
1426792110.72,-3.4909744
1426792110.736,0.35497284
1426792110.751,2.005745
1426792110.767,1.8240356
1426792110.782,1.2200317
1426792110.798,1.8664398
1426792110.814,4.6553345
1426792110.829,9.23735
1426792110.845,14.237793
1426792110.861,18.088394
1426792110.876,19.982986
1426792110.892,20.362144
1426792110.907,20.63787
1426792110.923,22.39817
1426792110.939,26.445068
1426792110.954,32.405785
1426792110.97,38.994255
1426792110.986,44.709557
1426792111.001,48.606117
1426792111.017,50.755295
1426792111.032,51.89715
1426792111.048,52.853317
1426792111.064,53.78405
1426792111.079,53.982002
1426792111.095,52.227554
1426792111.111,47.456894
1426792111.126,39.500046
1426792111.142,29.323105
1426792111.157,18.647247
1426792111.173,9.216927
1426792111.189,1.9341888
1426792111.204,-3.4660645
1426792111.22,-8.116409
1426792111.236,-13.296402
1426792111.251,-19.587494
1426792111.267,-26.449257
1426792111.282,-32.52897
1426792111.298,-36.362396
1426792111.314,-37.34041
1426792111.329,-36.04515
1426792111.345,-34.007904
1426792111.361,-32.873795
1426792111.376,-33.49907
1426792111.392,-35.46495
1426792111.408,-37.441284
1426792111.423,-37.96707
1426792111.439,-36.442337
1426792111.454,-33.47882
1426792111.47,-30.527008
1426792111.486,-29.041763
1426792111.501,-29.563171
1426792111.517,-31.3517
1426792111.533,-32.86682
1426792111.548,-32.623398
1426792111.564,-30.159515
1426792111.579,-26.21289
1426792111.595,-22.308884
1426792111.611,-19.798904
1426792111.626,-19.041443
1426792111.642,-19.17099
1426792111.658,-18.637558
1426792111.673,-16.154236
1426792111.689,-11.518646
1426792111.704,-5.7413177
1426792111.72,-0.50338745
1426792111.736,2.800537
1426792111.751,3.8995361
1426792111.767,3.7930298
1426792111.783,4.1550293
1426792111.798,6.366043
1426792111.814,10.705933
1426792111.829,16.241013
1426792111.845,21.384293
1426792111.861,24.830719
1426792111.876,26.366547
1426792111.892,26.981995
1426792111.908,28.31485
1426792111.923,31.679642
1426792111.939,37.285217
1426792111.954,44.112305
1426792111.97,50.3806
1426792111.986,54.434296
1426792112.001,55.53131
1426792112.017,54.051514
1426792112.033,51.08911
1426792112.048,47.727722
1426792112.064,44.310257
1426792112.079,40.32251
1426792112.095,34.74115
1426792112.111,26.788757
1426792112.126,16.598328
1426792112.142,5.3150787
1426792112.158,-5.343994
1426792112.173,-13.973572
1426792112.189,-20.16092
1426792112.204,-24.596252
1426792112.22,-28.606216
1426792112.236,-33.28534
1426792112.251,-38.768234
1426792112.267,-44.123352
1426792112.283,-47.927856
1426792112.298,-49.132782
1426792112.314,-47.790894
1426792112.329,-45.0291
1426792112.345,-42.511063
1426792112.361,-41.493347
1426792112.376,-42.180847
1426792112.392,-43.692627
1426792112.408,-44.66658
1426792112.423,-44.095993
1426792112.439,-41.943512
1426792112.454,-39.04355
1426792112.47,-36.616608
1426792112.486,-35.45854
1426792112.501,-35.47029
1426792112.517,-35.734955
1426792112.533,-35.081314
1426792112.548,-32.851578
1426792112.564,-29.325119
1426792112.579,-25.553238
1426792112.595,-22.7818
1426792112.611,-21.690567
1426792112.626,-21.907455
1426792112.642,-22.180862
1426792112.658,-21.081665
1426792112.673,-17.891296
1426792112.689,-12.992798
1426792112.704,-7.6657715
1426792112.72,-3.417984
1426792112.736,-1.0511475
1426792112.751,-0.18782043
1426792112.767,0.50445557
1426792112.783,2.5278625
1426792112.798,6.631668
1426792112.814,12.327972
1426792112.829,18.22647
1426792112.845,22.748398
1426792112.861,25.106186
1426792112.876,25.788528
1426792112.892,26.281448
1426792112.908,28.245026
1426792112.923,32.53482
1426792112.939,38.726456
1426792112.954,45.35991
1426792112.97,50.586426
1426792112.986,53.174713
1426792113.001,52.970047
1426792113.017,50.811203
1426792113.033,47.847275
1426792113.048,44.77887
1426792113.064,41.399246
1426792113.079,36.85884
1426792113.095,30.277481
1426792113.111,21.481201
1426792113.126,11.343765
1426792113.142,1.4281006
1426792113.158,-6.7388763
1426792113.173,-12.506836
1426792113.189,-16.40422
1426792113.204,-19.709778
1426792113.22,-23.73642
1426792113.236,-28.962341
1426792113.251,-34.7153
1426792113.267,-39.545074
1426792113.283,-42.06172
1426792113.298,-41.73738
1426792113.314,-39.294037
1426792113.329,-36.229965
1426792113.345,-34.129745
1426792113.361,-33.742218
1426792113.376,-34.708084
1426792113.392,-35.835358
1426792113.408,-35.871307
1426792113.423,-34.296967
1426792113.439,-31.605453
1426792113.454,-28.955017
1426792113.47,-27.48677
1426792113.486,-27.567291
1426792113.501,-28.551834
1426792113.517,-29.128418
1426792113.533,-28.087631
1426792113.548,-25.054825
1426792113.564,-20.761673
1426792113.579,-16.619339
1426792113.595,-13.94191
1426792113.611,-13.141052
1426792113.626,-13.45993
1426792113.642,-13.389328
1426792113.658,-11.582916
1426792113.673,-7.640991
1426792113.689,-2.4136963
1426792113.704,2.532074
1426792113.72,5.7468567
1426792113.736,6.785263
1426792113.751,6.437393
1426792113.767,6.24823
1426792113.783,7.6078033
1426792113.798,10.9785
1426792113.814,15.630127
1426792113.829,20.138489
1426792113.845,23.179962
1426792113.861,24.3508
1426792113.876,24.332245
1426792113.892,24.504776
1426792113.908,26.161346
1426792113.923,29.802063
1426792113.939,34.938446
1426792113.954,40.429306
1426792113.97,45.093155
1426792113.986,48.362732
1426792114.001,50.45862
1426792114.017,52.037857
1426792114.033,53.536606
1426792114.048,54.713425
1426792114.064,54.56275
1426792114.08,51.861122
1426792114.095,45.84268
1426792114.111,36.86422
1426792114.126,26.342567
1426792114.142,16.209312
1426792114.158,7.979927
1426792114.173,2.1015167
1426792114.189,-2.1621094
1426792114.204,-6.196663
1426792114.22,-11.192345
1426792114.236,-17.338661
1426792114.251,-23.730927
1426792114.267,-28.881592
1426792114.283,-31.620926
1426792114.298,-31.824173
1426792114.314,-30.496681
1426792114.33,-29.2219
1426792114.345,-29.251945
1426792114.361,-30.725136
1426792114.376,-32.662163
1426792114.392,-33.567535
1426792114.408,-32.429955
1426792114.423,-29.384453
1426792114.439,-25.664162
1426792114.455,-22.911682
1426792114.47,-22.232727
1426792114.486,-23.527908
1426792114.501,-25.582794
1426792114.517,-26.770348
1426792114.533,-26.023697
1426792114.548,-23.394745
1426792114.564,-19.983246
1426792114.58,-17.252121
1426792114.595,-16.169144
1426792114.611,-16.626938
1426792114.626,-17.522202
1426792114.642,-17.416351
1426792114.658,-15.457695
1426792114.673,-11.84343
1426792114.689,-7.7498474
1426792114.705,-4.6224213
1426792114.72,-3.3302765
1426792114.736,-3.6025314
1426792114.751,-4.181015
1426792114.767,-3.5498276
1426792114.783,-0.86665344
1426792114.798,3.5989685
1426792114.814,8.614395
1426792114.83,12.731186
1426792114.845,15.081726
1426792114.861,15.921402
1426792114.876,16.383919
1426792114.892,17.813835
1426792114.908,20.923706
1426792114.923,25.424347
1426792114.939,30.223503
1426792114.955,34.12535
1426792114.97,36.5263
1426792114.986,37.880733
1426792115.001,39.31495
1426792115.017,41.949955
1426792115.033,46.00305
1426792115.048,50.499733
1426792115.064,53.637
1426792115.08,53.639954
1426792115.095,49.723072
1426792115.111,42.539852
1426792115.126,33.82575
1426792115.142,25.505856
1426792115.158,18.69479
1426792115.173,13.283562
1426792115.189,8.186028
1426792115.205,2.208191
1426792115.22,-5.127472
1426792115.236,-13.143005
1426792115.251,-20.381134
1426792115.267,-25.352707
1426792115.283,-27.471539
1426792115.298,-27.322956
1426792115.314,-26.350548
1426792115.33,-26.067657
1426792115.345,-27.201637
1426792115.361,-29.323872
1426792115.376,-31.185535
1426792115.392,-31.47707
1426792115.408,-29.706402
1426792115.423,-26.493523
1426792115.439,-23.255165
1426792115.455,-21.42749
1426792115.47,-21.64074
1426792115.486,-23.305588
1426792115.501,-24.999516
1426792115.517,-25.232822
1426792115.533,-23.365849
1426792115.548,-19.903957
1426792115.564,-16.20507
1426792115.58,-13.709789
1426792115.595,-13.078621
1426792115.611,-13.809099
1426792115.626,-14.546038
1426792115.642,-13.879023
1426792115.658,-11.213272
1426792115.673,-7.0829487
1426792115.689,-2.87636
1426792115.705,-0.042280197
1426792115.72,0.7493725
1426792115.736,0.021539688
1426792115.751,-0.89767456
1426792115.767,-0.6129818
1426792115.783,1.4519329
1426792115.798,4.7735796
1426792115.814,8.053284
1426792115.83,10.015729
1426792115.845,10.220713
1426792115.861,9.348614
1426792115.876,8.802757
1426792115.892,9.84595
1426792115.908,12.832167
1426792115.923,17.040604
1426792115.939,21.08607
1426792115.955,23.821705
1426792115.97,25.03804
1426792115.986,25.681208
1426792116.001,27.220917
1426792116.017,30.792263
1426792116.033,36.344685
1426792116.048,42.576702
1426792116.064,47.503548
1426792116.08,49.40314
1426792116.095,47.656456
1426792116.111,43.01349
1426792116.126,37.018425
1426792116.142,31.199852
1426792116.158,26.233429
1426792116.173,21.802841
1426792116.189,16.965616
1426792116.205,10.89388
1426792116.22,3.6078777
1426792116.236,-3.9378014
1426792116.251,-10.317527
1426792116.267,-14.414486
1426792116.283,-16.076267
1426792116.298,-16.207407
1426792116.314,-16.27235
1426792116.33,-17.462101
1426792116.345,-20.021986
1426792116.361,-23.124218
1426792116.376,-25.410538
1426792116.392,-25.846178
1426792116.408,-24.388027
1426792116.423,-22.031885
1426792116.439,-20.266314
1426792116.455,-20.145548
1426792116.47,-21.660488
1426792116.486,-23.71086
1426792116.501,-24.75755
1426792116.517,-23.715084
1426792116.533,-20.636978
1426792116.548,-16.660816
1426792116.564,-13.374006
1426792116.58,-11.924578
1426792116.595,-12.368134
1426792116.611,-13.656111
1426792116.626,-14.329514
1426792116.642,-13.340801
1426792116.658,-10.715076
1426792116.673,-7.4389286
1426792116.689,-4.8799934
1426792116.705,-3.9741192
1426792116.72,-4.578228
1426792116.736,-5.615387
1426792116.751,-5.6312256
1426792116.767,-3.7334557
1426792116.783,-0.060066223
1426792116.798,4.2857246
1426792116.814,7.877136
1426792116.83,9.816895
1426792116.845,10.209454
1426792116.861,10.1136055
1426792116.876,10.839184
1426792116.892,13.14418
1426792116.908,16.780281
1426792116.923,20.688095
1426792116.939,23.586544
1426792116.955,24.835922
1426792116.97,24.82867
1426792116.986,24.845871
1426792117.002,26.284897
1426792117.017,29.788635
1426792117.033,34.81291
1426792117.048,39.778896
1426792117.064,42.841454
1426792117.08,42.812325
1426792117.095,39.705605
1426792117.111,34.62947
1426792117.127,29.086273
1426792117.142,24.159
1426792117.158,19.92247
1426792117.173,15.660332
1426792117.189,10.35318
1426792117.205,3.5930595
1426792117.22,-4.0796204
1426792117.236,-11.272789
1426792117.252,-16.493221
1426792117.267,-19.018013
1426792117.283,-19.255322
1426792117.298,-18.550354
1426792117.314,-18.438057
1426792117.33,-19.788662
1426792117.345,-22.282455
1426792117.361,-24.692032
1426792117.377,-25.621628
1426792117.392,-24.390656
1426792117.408,-21.503086
1426792117.423,-18.380016
1426792117.439,-16.699535
1426792117.455,-17.372059
1426792117.47,-20.103317
1426792117.486,-23.50035
1426792117.502,-25.869446
1426792117.517,-26.148209
1426792117.533,-24.437832
1426792117.548,-21.83834
1426792117.564,-19.770496
1426792117.58,-19.078026
1426792117.595,-19.502754
1426792117.611,-19.876099
1426792117.627,-18.898815
1426792117.642,-16.031578
1426792117.658,-11.883129
1426792117.673,-7.8719406
1426792117.689,-5.4519424
1426792117.705,-5.139385
1426792117.72,-6.2404366
1426792117.736,-7.190731
1426792117.752,-6.529976
1426792117.767,-3.7307281
1426792117.783,0.492836
1426792117.798,4.6402435
1426792117.814,7.328438
1426792117.83,8.086571
1426792117.845,7.6614456
1426792117.861,7.548279
1426792117.877,9.091728
1426792117.892,12.662605
1426792117.908,17.462097
1426792117.923,22.003143
1426792117.939,24.916641
1426792117.955,25.828186
1426792117.97,25.522476
1426792117.986,25.55777
1426792118.002,27.350266
1426792118.017,31.348198
1426792118.033,36.79705
1426792118.048,42.122154
1426792118.064,45.716568
1426792118.08,46.807983
1426792118.095,45.691772
1426792118.111,43.381813
1426792118.127,40.877907
1426792118.142,38.45527
1426792118.158,35.54164
1426792118.173,31.119263
1426792118.189,24.429955
1426792118.205,15.662804
1426792118.22,5.9702682
1426792118.236,-2.9509125
1426792118.252,-9.736084
1426792118.267,-13.996567
1426792118.283,-16.4618
1426792118.298,-18.45919
1426792118.314,-21.187988
1426792118.33,-24.93238
1426792118.345,-28.946335
1426792118.361,-31.936256
1426792118.377,-32.84896
1426792118.392,-31.590996
1426792118.408,-29.110703
1426792118.423,-26.885872
1426792118.439,-26.125916
1426792118.455,-26.997124
1426792118.47,-28.596565
1426792118.486,-29.474487
1426792118.502,-28.569374
1426792118.517,-25.856094
1426792118.533,-22.354134
1426792118.548,-19.481491
1426792118.564,-18.225655
1426792118.58,-18.493477
1426792118.595,-19.230194
1426792118.611,-19.079956
1426792118.627,-17.2557
1426792118.642,-14.022064
1426792118.658,-10.536995
1426792118.673,-8.165123
1426792118.689,-7.694069
1426792118.705,-8.784004
1426792118.72,-10.184799
1426792118.736,-10.429626
1426792118.752,-8.700226
1426792118.767,-5.2990265
1426792118.783,-1.4178314
1426792118.798,1.5421219
1426792118.814,2.7946396
1426792118.83,2.6679077
1426792118.845,2.3896027
1426792118.861,3.3739624
1426792118.877,6.353691
1426792118.892,10.965675
1426792118.908,15.990906
1426792118.923,20.002945
1426792118.939,22.174553
1426792118.955,22.780289
1426792118.97,22.975815
1426792118.986,24.177391
1426792119.002,27.225105
1426792119.017,31.970116
1426792119.033,37.39408
1426792119.048,42.154396
1426792119.064,45.313034
1426792119.08,46.74797
1426792119.095,47.05719
1426792119.111,47.053078
1426792119.127,47.003426
1426792119.142,46.46158
1426792119.158,44.396828
1426792119.173,39.86007
1426792119.189,32.64363
1426792119.205,23.645912
1426792119.22,14.492447
1426792119.236,6.802002
1426792119.252,1.3701248
1426792119.267,-2.1949005
1426792119.283,-5.147629
1426792119.298,-8.898178
1426792119.314,-14.127029
1426792119.33,-20.349136
1426792119.345,-26.213692
1426792119.361,-30.194786
1426792119.377,-31.515396
1426792119.392,-30.574562
1426792119.408,-28.772095
1426792119.423,-27.684807
1426792119.439,-28.240997
1426792119.455,-30.191246
1426792119.47,-32.354927
1426792119.486,-33.32646
1426792119.502,-32.42975
1426792119.517,-30.066788
1426792119.533,-27.450966
1426792119.548,-25.85714
1426792119.564,-25.822327
1426792119.58,-26.782845
1426792119.595,-27.406082
1426792119.611,-26.405785
1426792119.627,-23.36473
1426792119.642,-18.981834
1426792119.658,-14.709534
1426792119.674,-11.984917
1426792119.689,-11.408432
1426792119.705,-12.36335
1426792119.72,-13.424774
1426792119.736,-13.104309
1426792119.752,-10.768974
1426792119.767,-6.909981
1426792119.783,-2.884636
1426792119.799,-0.16777039
1426792119.814,0.5461731
1426792119.83,-0.21774292
1426792119.845,-1.0755844
1426792119.861,-0.46951294
1426792119.877,2.3372726
1426792119.892,6.9052887
1426792119.908,11.857628
1426792119.924,15.683151
1426792119.939,17.643349
1426792119.955,18.179138
1426792119.97,18.55085
1426792119.986,20.092453
1426792120.002,23.325111
1426792120.017,27.670357
1426792120.033,31.821075
1426792120.049,34.583412
1426792120.064,35.61721
1426792120.08,35.715607
1426792120.095,36.2416
1426792120.111,38.27796
1426792120.127,41.763435
1426792120.142,45.444084
1426792120.158,47.395317
1426792120.174,46.01718
1426792120.189,40.926888
1426792120.205,33.16294
1426792120.22,24.619751
1426792120.236,17.104034
1426792120.252,11.406715
1426792120.267,7.093956
1426792120.283,2.9569626
1426792120.299,-2.1218796
1426792120.314,-8.383392
1426792120.33,-14.982964
1426792120.345,-20.544823
1426792120.361,-23.925865
1426792120.377,-24.970947
1426792120.392,-24.52887
1426792120.408,-24.039146
1426792120.424,-24.618225
1426792120.439,-26.50409
1426792120.455,-28.849258
1426792120.47,-30.352219
1426792120.486,-30.02179
1426792120.502,-27.822792
1426792120.517,-24.729706
1426792120.533,-22.186668
1426792120.549,-21.277512
1426792120.564,-22.10257
1426792120.58,-23.692612
1426792120.595,-24.583122
1426792120.611,-23.649498
1426792120.627,-20.806763
1426792120.642,-17.03038
1426792120.658,-13.834106
1426792120.674,-12.423843
1426792120.689,-12.978096
1426792120.705,-14.5229645
1426792120.72,-15.5453415
1426792120.736,-14.810776
1426792120.752,-12.116356
1426792120.767,-8.306679
1426792120.783,-4.823677
1426792120.799,-2.8257065
1426792120.814,-2.5122833
1426792120.83,-3.0332718
1426792120.845,-3.06118
1426792120.861,-1.5588608
1426792120.877,1.545517
1426792120.892,5.370613
1426792120.908,8.604126
1426792120.924,10.357437
1426792120.939,10.722038
1426792120.955,10.790077
1426792120.97,12.000519
1426792120.986,15.242966
1426792121.002,20.265327
1426792121.017,25.834389
1426792121.033,30.34066
1426792121.049,32.843697
1426792121.064,33.596718
1426792121.08,33.95952
1426792121.095,35.546806
1426792121.111,39.226067
1426792121.127,44.446083
1426792121.142,49.475006
1426792121.158,52.1931
1426792121.174,51.186554
1426792121.189,46.47741
1426792121.205,39.44606
1426792121.22,32.049362
1426792121.236,25.764824
1426792121.252,20.86412
1426792121.267,16.495216
1426792121.283,11.315514
1426792121.299,4.472969
1426792121.314,-3.7661285
1426792121.33,-12.046898
1426792121.345,-18.68908
1426792121.361,-22.640396
1426792121.377,-24.063545
1426792121.392,-24.181824
1426792121.408,-24.580353
1426792121.424,-26.211922
1426792121.439,-28.831253
1426792121.455,-31.21782
1426792121.47,-31.93959
1426792121.486,-30.355965
1426792121.502,-27.00698
1426792121.517,-23.332657
1426792121.533,-20.91484
1426792121.549,-20.561096
1426792121.564,-21.859146
1426792121.58,-23.47808
1426792121.595,-23.972717
1426792121.611,-22.647629
1426792121.627,-19.944328
1426792121.642,-17.120506
1426792121.658,-15.527939
1426792121.674,-15.772881
1426792121.689,-17.337967
1426792121.705,-18.845047
1426792121.72,-18.831131
1426792121.736,-16.613205
1426792121.752,-12.677582
1426792121.767,-8.419907
1426792121.783,-5.3694763
1426792121.799,-4.316391
1426792121.814,-4.8524323
1426792121.83,-5.577675
1426792121.845,-4.948761
1426792121.861,-2.2151413
1426792121.877,2.1479492
1426792121.892,6.733818
1426792121.908,10.00061
1426792121.924,11.175156
1426792121.939,10.703293
1426792121.955,9.971703
1426792121.97,10.44445
1426792121.986,12.804703
1426792122.002,16.558533
1426792122.017,20.424301
1426792122.033,23.112122
1426792122.049,24.176796
1426792122.064,24.322716
1426792122.08,25.0374
1426792122.095,27.666222
1426792122.111,32.57538
1426792122.127,38.80777
1426792122.142,44.499474
1426792122.158,47.674835
1426792122.174,47.266983
1426792122.189,43.557655
1426792122.205,37.89908
1426792122.22,31.972595
1426792122.236,26.860474
1426792122.252,22.585457
1426792122.267,18.305962
1426792122.283,12.910278
1426792122.299,5.899132
1426792122.314,-2.2830887
1426792122.33,-10.360252
1426792122.346,-16.933365
1426792122.361,-21.235199
1426792122.377,-23.528374
1426792122.392,-24.876564
1426792122.408,-26.503838
1426792122.424,-28.973648
1426792122.439,-31.89251
1426792122.455,-34.083828
1426792122.471,-34.347282
1426792122.486,-32.251816
1426792122.502,-28.500145
1426792122.517,-24.619625
1426792122.533,-22.218334
1426792122.549,-22.055141
1426792122.564,-23.63477
1426792122.58,-25.523853
1426792122.596,-26.16613
1426792122.611,-24.802967
1426792122.627,-21.856281
1426792122.642,-18.61501
1426792122.658,-16.484901
1426792122.674,-16.11129
1426792122.689,-17.043205
1426792122.705,-18.01638
1426792122.721,-17.79602
1426792122.736,-15.8895645
1426792122.752,-12.874603
1426792122.767,-9.930901
1426792122.783,-8.20174
1426792122.799,-7.9150963
1426792122.814,-8.334595
1426792122.83,-8.131565
1426792122.846,-6.270954
1426792122.861,-2.632206
1426792122.877,1.886898
1426792122.892,5.859928
1426792122.908,8.1210785
1426792122.924,8.528351
1426792122.939,7.9668427
1426792122.955,7.896141
1426792122.971,9.437416
1426792122.986,12.782547
1426792123.002,17.019306
1426792123.017,20.77388
1426792123.033,22.92051
1426792123.049,23.378723
1426792123.064,23.152805
1426792123.08,23.812744
1426792123.096,26.572277
1426792123.111,31.543816
1426792123.127,37.549664
1426792123.142,42.689484
1426792123.158,45.23855
1426792123.174,44.540154
1426792123.189,41.20078
1426792123.205,36.664616
1426792123.221,32.241657
1426792123.236,28.403576
1426792123.252,24.569618
1426792123.267,19.656082
1426792123.283,12.871899
1426792123.299,4.4432144
1426792123.314,-4.424156
1426792123.33,-12.067165
1426792123.346,-17.375542
1426792123.361,-20.31689
1426792123.377,-21.900501
1426792123.392,-23.529633
1426792123.408,-26.20303
1426792123.424,-29.805271
1426792123.439,-33.32563
1426792123.455,-35.382256
1426792123.471,-35.1999
1426792123.486,-33.067398
1426792123.502,-30.258163
1426792123.517,-28.315609
1426792123.533,-28.244259
1426792123.549,-29.85801
1426792123.564,-31.977097
1426792123.58,-33.054764
1426792123.596,-32.158405
1426792123.611,-29.463287
1426792123.627,-26.139324
1426792123.642,-23.669899
1426792123.658,-22.963505
1426792123.674,-23.760399
1426792123.689,-24.848255
1426792123.705,-24.692253
1426792123.721,-22.428303
1426792123.736,-18.30994
1426792123.752,-13.569847
1426792123.767,-9.692329
1426792123.783,-7.527336
1426792123.799,-6.7912254
1426792123.814,-6.30674
1426792123.83,-4.697056
1426792123.846,-1.3472252
1426792123.861,3.2436943
1426792123.877,7.7161217
1426792123.892,10.635159
1426792123.908,11.3193245
1426792123.924,10.382862
1426792123.939,9.305237
1426792123.955,9.710365
1426792123.971,12.338631
1426792123.986,16.684368
1426792124.002,21.263306
1426792124.017,24.504192
1426792124.033,25.603298
1426792124.049,25.05708
1426792124.064,24.3774
1426792124.08,25.238098
1426792124.096,28.528717
1426792124.111,33.935856
1426792124.127,40.115158
1426792124.142,45.40746
1426792124.158,48.613914
1426792124.174,49.57089
1426792124.189,48.93493
1426792124.205,47.661613
1426792124.221,46.245064
1426792124.236,44.424023
1426792124.252,41.338726
1426792124.267,36.121517
1426792124.283,28.583279
1426792124.299,19.577381
1426792124.314,10.648823
1426792124.33,3.3796654
1426792124.346,-1.5213623
1426792124.361,-4.4918556
1426792124.377,-6.856537
1426792124.392,-10.045063
1426792124.408,-14.720169
1426792124.424,-20.309124
1426792124.439,-25.384785
1426792124.455,-28.421852
1426792124.471,-28.795776
1426792124.486,-27.091919
1426792124.502,-24.814178
1426792124.517,-23.553951
1426792124.533,-24.110886
1426792124.549,-26.09871
1426792124.564,-28.25692
1426792124.58,-29.216507
1426792124.596,-28.341267
1426792124.611,-26.066776
1426792124.627,-23.584873
1426792124.642,-22.147556
1426792124.658,-22.296272
1426792124.674,-23.486458
1426792124.689,-24.450558
1426792124.705,-23.878242
1426792124.721,-21.301186
1426792124.736,-17.326733
1426792124.752,-13.326706
1426792124.767,-10.665485
1426792124.783,-9.891899
1426792124.799,-10.35001
1426792124.814,-10.621243
1426792124.83,-9.277794
1426792124.846,-5.843895
1426792124.861,-1.0620995
1426792124.877,3.5232162
1426792124.892,6.4186974
1426792124.908,7.1061707
1426792124.924,6.321903
1426792124.939,5.6318245
1426792124.955,6.51548
1426792124.971,9.47974
1426792124.986,13.866444
1426792125.002,18.228905
1426792125.018,21.221298
1426792125.033,22.350174
1426792125.049,22.260136
1426792125.064,22.2984
1426792125.08,23.774132
1426792125.096,27.198223
1426792125.111,32.068405
1426792125.127,37.170315
1426792125.142,41.223705
1426792125.158,43.476818
1426792125.174,44.063873
1426792125.189,43.651928
1426792125.205,43.009773
1426792125.221,42.314686
1426792125.236,41.060455
1426792125.252,38.229996
1426792125.268,32.964714
1426792125.283,25.149445
1426792125.299,15.71026
1426792125.314,6.2054443
1426792125.33,-1.8418083
1426792125.346,-7.7439365
1426792125.361,-11.879999
1426792125.377,-15.409252
1426792125.393,-19.471931
1426792125.408,-24.428913
1426792125.424,-29.583027
1426792125.439,-33.578777
1426792125.455,-35.223183
1426792125.471,-34.269707
1426792125.486,-31.617659
1426792125.502,-28.83318
1426792125.518,-27.34803
1426792125.533,-27.688435
1426792125.549,-29.197996
1426792125.564,-30.566963
1426792125.58,-30.606934
1426792125.596,-29.043587
1426792125.611,-26.592167
1426792125.627,-24.594337
1426792125.643,-24.156475
1426792125.658,-25.443733
1426792125.674,-27.529825
1426792125.689,-28.919235
1426792125.705,-28.388958
1426792125.721,-25.759502
1426792125.736,-21.951584
1426792125.752,-18.554646
1426792125.768,-16.829586
1426792125.783,-17.022995
1426792125.799,-18.148813
1426792125.814,-18.607216
1426792125.83,-17.103672
1426792125.846,-13.425046
1426792125.861,-8.522468
1426792125.877,-3.9880028
1426792125.893,-1.1122637
1426792125.908,-0.1572504
1426792125.924,-0.19582748
1426792125.939,0.2736969
1426792125.955,2.4276352
1426792125.971,6.4102993
1426792125.986,11.264823
1426792126.002,15.479626
1426792126.018,17.948805
1426792126.033,18.588354
1426792126.049,18.42228
1426792126.064,18.940823
1426792126.08,21.218487
1426792126.096,25.273018
1426792126.111,30.164413
1426792126.127,34.51854
1426792126.143,37.37063
1426792126.158,38.702217
1426792126.174,39.301296
1426792126.189,40.17208
1426792126.205,41.731464
1426792126.221,43.413292
1426792126.236,43.878025
1426792126.252,41.706722
1426792126.268,36.219254
1426792126.283,27.933249
1426792126.299,18.417183
1426792126.314,9.550986
1426792126.33,2.64075
1426792126.346,-2.1574678
1426792126.361,-5.782345
1426792126.377,-9.658297
1426792126.393,-14.797086
1426792126.408,-21.176006
1426792126.424,-27.6674
1426792126.439,-32.704685
1426792126.455,-35.158295
1426792126.471,-35.02089
1426792126.486,-33.348354
1426792126.502,-31.698315
1426792126.518,-31.241188
1426792126.533,-32.08913
1426792126.549,-33.310577
1426792126.564,-33.58476
1426792126.58,-32.088608
1426792126.596,-29.07393
1426792126.611,-25.729412
1426792126.627,-23.554585
1426792126.643,-23.418789
1426792126.658,-25.011738
1426792126.674,-26.981758
1426792126.689,-27.69669
1426792126.705,-26.191196
1426792126.721,-22.740017
1426792126.736,-18.659946
1426792126.752,-15.622637
1426792126.768,-14.668726
1426792126.783,-15.617697
1426792126.799,-17.20608
1426792126.814,-17.81313
1426792126.83,-16.423773
1426792126.846,-13.164989
1426792126.861,-9.168882
1426792126.877,-5.9119797
1426792126.893,-4.289469
1426792126.908,-4.106516
1426792126.924,-4.209629
1426792126.939,-3.2098045
1426792126.955,-0.30218506
1426792126.971,4.2088127
1426792126.986,9.11063
1426792127.002,13.002132
1426792127.018,15.091187
1426792127.033,15.676384
1426792127.049,15.96262
1426792127.064,17.34285
1426792127.08,20.530388
1426792127.096,25.127007
1426792127.111,29.858284
1426792127.127,33.29663
1426792127.143,34.746544
1426792127.158,34.703533
1426792127.174,34.579807
1426792127.189,35.889664
1426792127.205,39.288883
1426792127.221,44.064484
1426792127.236,48.500957
1426792127.252,50.61766
1426792127.268,49.284306
1426792127.283,44.733658
1426792127.299,38.37276
1426792127.314,31.900467
1426792127.33,26.402374
1426792127.346,21.790123
1426792127.361,17.083115
1426792127.377,11.122337
1426792127.393,3.4751396
1426792127.408,-5.211464
1426792127.424,-13.450119
1426792127.439,-19.752785
1426792127.455,-23.435913
1426792127.471,-24.968746
1426792127.486,-25.62157
1426792127.502,-26.74406
1426792127.518,-28.981339
1426792127.533,-31.879902
1426792127.549,-34.27699
1426792127.564,-34.994568
1426792127.58,-33.60992
1426792127.596,-30.734558
1426792127.611,-27.666775
1426792127.627,-25.69011
1426792127.643,-25.346123
1426792127.658,-26.103344
1426792127.674,-26.74255
1426792127.69,-26.020302
1426792127.705,-23.517239
1426792127.721,-19.850548
1426792127.736,-16.350887
1426792127.752,-14.320805
1426792127.768,-14.220177
1426792127.783,-15.400772
1426792127.799,-16.418224
1426792127.814,-15.861073
1426792127.83,-13.174767
1426792127.846,-9.0120735
1426792127.861,-4.8085938
1426792127.877,-2.0792313
1426792127.893,-1.4534454
1426792127.908,-2.3311005
1426792127.924,-3.213211
1426792127.94,-2.5872116
1426792127.955,0.1938858
1426792127.971,4.496048
1426792127.986,8.830193
1426792128.002,11.681648
1426792128.018,12.397881
1426792128.033,11.611656
1426792128.049,10.813499
1426792128.065,11.485596
1426792128.08,14.171219
1426792128.096,18.158585
1426792128.111,21.93042
1426792128.127,24.0018
1426792128.143,23.8844
1426792128.158,22.398834
1426792128.174,21.236748
1426792128.19,22.072754
1426792128.205,25.608086
1426792128.221,31.230003
1426792128.236,37.377884
1426792128.252,42.292435
1426792128.268,44.974564
1426792128.283,45.515274
1426792128.299,44.81259
1426792128.315,43.841393
1426792128.33,42.913887
1426792128.346,41.43747
1426792128.361,38.285286
1426792128.377,32.558266
1426792128.393,24.336197
1426792128.408,14.793816
1426792128.424,5.7692795
1426792128.44,-1.1895142
1426792128.455,-5.589302
1426792128.471,-8.234032
1426792128.486,-10.655388
1426792128.502,-14.233078
1426792128.518,-19.328072
1426792128.533,-25.070602
1426792128.549,-29.866722
1426792128.565,-32.356705
1426792128.58,-32.19792
1426792128.596,-30.294075
1426792128.611,-28.241577
1426792128.627,-27.469353
1426792128.643,-28.41101
1426792128.658,-30.336388
1426792128.674,-31.832642
1426792128.69,-31.712341
1426792128.705,-29.729538
1426792128.721,-26.723206
1426792128.736,-24.067368
1426792128.752,-22.918167
1426792128.768,-23.406075
1426792128.783,-24.63295
1426792128.799,-25.154366
1426792128.815,-23.908958
1426792128.83,-20.81292
1426792128.846,-16.853554
1426792128.861,-13.503929
1426792128.877,-11.8847885
1426792128.893,-12.054901
1426792128.908,-13.040009
1426792128.924,-13.323601
1426792128.94,-11.770042
1426792128.955,-8.241844
1426792128.971,-3.647438
1426792128.986,0.5858002
1426792129.002,3.2924805
1426792129.018,4.2584076
1426792129.033,4.261421
1426792129.049,4.631706
1426792129.065,6.401428
1426792129.08,9.723412
1426792129.096,13.779915
1426792129.111,17.29441
1426792129.127,19.23684
1426792129.143,19.511566
1426792129.158,19.000748
1426792129.174,19.040596
1426792129.19,20.644531
1426792129.205,23.914284
1426792129.221,28.022812
1426792129.236,31.79197
1426792129.252,34.369812
1426792129.268,35.811386
1426792129.283,36.968582
1426792129.299,38.883064
1426792129.315,41.95127
1426792129.33,45.530853
1426792129.346,48.111794
1426792129.361,48.03331
1426792129.377,44.346085
1426792129.393,37.39261
1426792129.408,28.643425
1426792129.424,20.017532
1426792129.44,12.906883
1426792129.455,7.596733
1426792129.471,3.3207703
1426792129.486,-1.1553802
1426792129.502,-6.677246
1426792129.518,-13.0821
1426792129.533,-19.254646
1426792129.549,-23.751984
1426792129.565,-25.713585
1426792129.58,-25.36573
1426792129.596,-23.952576
1426792129.611,-23.04718
1426792129.627,-23.699104
1426792129.643,-25.798126
1426792129.658,-28.230919
1426792129.674,-29.55912
1426792129.69,-28.94197
1426792129.705,-26.65026
1426792129.721,-23.914955
1426792129.736,-22.23597
1426792129.752,-22.460938
1426792129.768,-24.259132
1426792129.783,-26.310898
1426792129.799,-26.999573
1426792129.815,-25.456863
1426792129.83,-21.96437
1426792129.846,-17.882881
1426792129.861,-14.846985
1426792129.877,-13.8414
1426792129.893,-14.623627
1426792129.908,-15.916191
1426792129.924,-16.110695
1426792129.94,-14.292122
1426792129.955,-10.701637
1426792129.971,-6.5458527
1426792129.986,-3.3153992
1426792130.002,-1.8533096
1426792130.018,-1.887146
1426792130.033,-2.2345276
1426792130.049,-1.5221405
1426792130.065,0.95788574
1426792130.08,4.844528
1426792130.096,8.988747
1426792130.111,12.13559
1426792130.127,13.660645
1426792130.143,14.007759
1426792130.158,14.337502
1426792130.174,15.858452
1426792130.19,19.027931
1426792130.205,23.330956
1426792130.221,27.545502
1426792130.236,30.451553
1426792130.252,31.572105
1426792130.268,31.541908
1426792130.283,31.6941
1426792130.299,33.38407
1426792130.315,37.076622
1426792130.33,42.03247
1426792130.346,46.595284
1426792130.361,48.905373
1426792130.377,47.81357
1426792130.393,43.410927
1426792130.408,36.887383
1426792130.424,29.868797
1426792130.44,23.528152
1426792130.455,18.11853
1426792130.471,12.97551
1426792130.486,7.1623
1426792130.502,0.16433716
1426792130.518,-7.561737
1426792130.533,-14.788277
1426792130.549,-20.102432
1426792130.565,-22.765404
1426792130.58,-23.053314
1426792130.596,-22.174843
1426792130.612,-21.569809
1426792130.627,-22.094925
1426792130.643,-23.566147
1426792130.658,-24.920498
1426792130.674,-24.905132
1426792130.69,-22.981518
1426792130.705,-19.695442
1426792130.721,-16.458176
1426792130.737,-14.779892
1426792130.752,-15.369457
1426792130.768,-17.6315
1426792130.783,-20.044827
1426792130.799,-20.989956
1426792130.815,-19.72889
1426792130.83,-16.816002
1426792130.846,-13.740402
1426792130.862,-12.039005
1426792130.877,-12.36058
1426792130.893,-14.098812
1426792130.908,-15.747215
1426792130.924,-15.843327
1426792130.94,-13.849743
1426792130.955,-10.423061
1426792130.971,-6.97316
1426792130.987,-4.879513
1426792131.002,-4.6389236
1426792131.018,-5.6122475
1426792131.033,-6.457958
1426792131.049,-5.8514557
1426792131.065,-3.3190002
1426792131.08,0.66638565
1426792131.096,4.9324303
1426792131.112,8.327309
1426792131.127,10.350796
1426792131.143,11.436771
1426792131.158,12.637459
1426792131.174,14.94038
1426792131.19,18.627125
1426792131.205,23.095287
1426792131.221,27.15733
1426792131.237,29.740566
1426792131.252,30.616093
1426792131.268,30.627525
1426792131.283,31.21798
1426792131.299,33.621872
1426792131.315,37.947212
1426792131.33,43.05092
1426792131.346,46.957245
1426792131.362,47.905704
1426792131.377,45.215965
1426792131.393,39.636505
1426792131.408,32.825256
1426792131.424,26.415651
1426792131.44,21.135742
1426792131.455,16.53578
1426792131.471,11.458172
1426792131.487,4.888191
1426792131.502,-3.252676
1426792131.518,-11.948727
1426792131.533,-19.551142
1426792131.549,-24.668056
1426792131.565,-26.977085
1426792131.58,-27.277813
1426792131.596,-27.080372
1426792131.612,-27.73196
1426792131.627,-29.641064
1426792131.643,-32.09312
1426792131.658,-33.729424
1426792131.674,-33.409687
1426792131.69,-30.978035
1426792131.705,-27.394005
1426792131.721,-24.2566
1426792131.737,-22.931324
1426792131.752,-23.74451
1426792131.768,-25.844093
1426792131.783,-27.679441
1426792131.799,-27.899384
1426792131.815,-26.134804
1426792131.83,-23.1147
1426792131.846,-20.262342
1426792131.862,-18.808174
1426792131.877,-19.07709
1426792131.893,-20.265724
1426792131.908,-20.944
1426792131.924,-19.873615
1426792131.94,-16.79418
1426792131.955,-12.50414
1426792131.971,-8.471653
1426792131.987,-5.931423
1426792132.002,-5.163559
1426792132.018,-5.349389
1426792132.033,-5.060524
1426792132.049,-3.1197634
1426792132.065,0.6602516
1426792132.08,5.4066086
1426792132.096,9.68676
1426792132.112,12.358162
1426792132.127,13.291077
1426792132.143,13.415428
1426792132.158,14.145261
1426792132.174,16.505104
1426792132.19,20.50832
1426792132.205,25.201504
1426792132.221,29.276165
1426792132.237,31.915783
1426792132.252,33.323418
1426792132.268,34.616196
1426792132.283,37.056908
1426792132.299,41.189625
1426792132.315,46.3193
1426792132.33,50.799644
1426792132.346,52.765022
1426792132.362,51.101448
1426792132.377,45.988136
1426792132.393,38.756115
1426792132.408,31.174215
1426792132.424,24.524605
1426792132.44,19.010866
1426792132.455,13.882498
1426792132.471,7.991392
1426792132.487,0.6228428
1426792132.502,-7.939785
1426792132.518,-16.4598
1426792132.533,-23.404484
1426792132.549,-27.768616
1426792132.565,-29.648937
1426792132.58,-30.139275
1426792132.596,-30.759014
1426792132.612,-32.533283
1426792132.627,-35.40444
1426792132.643,-38.29025
1426792132.658,-39.770885
1426792132.674,-39.009483
1426792132.69,-36.361443
1426792132.705,-33.186623
1426792132.721,-31.171795
1426792132.737,-31.321865
1426792132.752,-33.364105
1426792132.768,-35.89317
1426792132.783,-37.14398
1426792132.799,-35.99174
1426792132.815,-32.55599
1426792132.83,-28.072739
1426792132.846,-24.219955
1426792132.862,-22.112656
1426792132.877,-21.743435
1426792132.893,-22.037285
1426792132.908,-21.553493
1426792132.924,-19.34623
1426792132.94,-15.602318
1426792132.955,-11.388565
1426792132.971,-8.132225
1426792132.987,-6.6943817
1426792133.002,-6.875988
1426792133.018,-7.4926796
1426792133.033,-7.0843315
1426792133.049,-4.7173004
1426792133.065,-0.53269196
1426792133.08,4.4084854
1426792133.096,8.724102
1426792133.112,11.530437
1426792133.127,12.948299
1426792133.143,13.996014
1426792133.158,15.905136
1426792133.174,19.346912
1426792133.19,23.962112
1426792133.205,28.625938
1426792133.221,32.067234
1426792133.237,33.753708
1426792133.252,34.281334
1426792133.268,35.05405
1426792133.284,37.451756
1426792133.299,41.908813
1426792133.315,47.478226
1426792133.33,52.25068
1426792133.346,54.213398
1426792133.362,52.274128
1426792133.377,46.785725
1426792133.393,39.253178
1426792133.409,31.50039
1426792133.424,24.702911
1426792133.44,18.904766
1426792133.455,13.259872
1426792133.471,6.657692
1426792133.487,-1.3883095
1426792133.502,-10.364563
1426792133.518,-18.93332
1426792133.534,-25.698784
1426792133.549,-29.943432
1426792133.565,-32.03756
1426792133.58,-33.122707
1426792133.596,-34.47512
1426792133.612,-36.700188
1426792133.627,-39.376804
1426792133.643,-41.318855
1426792133.659,-41.353966
1426792133.674,-39.106777
1426792133.69,-35.334724
1426792133.705,-31.548431
1426792133.721,-29.28864
1426792133.737,-29.220615
1426792133.752,-30.809998
1426792133.768,-32.60679
1426792133.784,-33.09985
1426792133.799,-31.547417
1426792133.815,-28.361084
1426792133.83,-24.777328
1426792133.846,-22.160648
1426792133.862,-21.128445
1426792133.877,-21.217789
1426792133.893,-21.16372
1426792133.909,-19.703297
1426792133.924,-16.357563
1426792133.94,-11.749786
1426792133.955,-7.2267036
1426792133.971,-4.1465683
1426792133.987,-3.0134392
1426792134.002,-3.2498398
1426792134.018,-3.5020447
1426792134.034,-2.4737778
1426792134.049,0.29250336
1426792134.065,4.1633377
1426792134.08,7.813095
1426792134.096,10.014053
1426792134.112,10.424171
1426792134.127,9.844009
1426792134.143,9.772926
1426792134.159,11.581154
1426792134.174,15.655277
1426792134.19,21.151062
1426792134.205,26.467422
1426792134.221,30.061264
1426792134.237,31.403687
1426792134.252,31.2244
1426792134.268,31.15918
1426792134.284,32.844154
1426792134.299,36.984436
1426792134.315,42.98133
1426792134.33,49.238365
1426792134.346,53.88894
1426792134.362,55.73669
1426792134.377,54.699142
1426792134.393,51.65103
1426792134.409,47.748245
1426792134.424,43.69053
1426792134.44,39.331238
1426792134.455,33.949497
1426792134.471,26.757921
1426792134.487,17.662975
1426792134.502,7.499317
1426792134.518,-2.250021
1426792134.534,-10.176914
1426792134.549,-15.694498
1426792134.565,-19.290224
1426792134.58,-22.17567
1426792134.596,-25.615524
1426792134.612,-30.08059
1426792134.627,-34.95536
1426792134.643,-38.891705
1426792134.659,-40.563747
1426792134.674,-39.530327
1426792134.69,-36.515495
1426792134.705,-33.04858
1426792134.721,-30.69585
1426792134.737,-30.14278
1426792134.752,-30.923977
1426792134.768,-31.73399
1426792134.784,-31.273064
1426792134.799,-29.076916
1426792134.815,-25.795689
1426792134.83,-22.782093
1426792134.846,-21.306152
1426792134.862,-21.688179
1426792134.877,-23.101898
1426792134.893,-24.049866
1426792134.909,-23.260796
1426792134.924,-20.456062
1426792134.94,-16.527855
1426792134.955,-12.986668
1426792134.971,-11.091221
1426792134.987,-11.073339
1426792135.002,-11.983885
1426792135.018,-12.241606
1426792135.034,-10.554375
1426792135.049,-6.691778
1426792135.065,-1.6547966
1426792135.08,2.9592094
1426792135.096,5.7538147
1426792135.112,6.4341335
1426792135.127,5.871166
1426792135.143,5.5935154
1426792135.159,6.88278
1426792135.174,10.026167
1426792135.19,14.211527
1426792135.205,18.06534
1426792135.221,20.437227
1426792135.237,21.17867
1426792135.252,21.21702
1426792135.268,21.999496
1426792135.284,24.672207
1426792135.299,29.39411
1426792135.315,35.252472
1426792135.33,40.773678
1426792135.346,44.68027
1426792135.362,46.568752
1426792135.377,46.93506
1426792135.393,46.748756
1426792135.409,46.675873
1426792135.424,46.597282
1426792135.44,45.581364
1426792135.455,42.44747
1426792135.471,36.50796
1426792135.487,28.13329
1426792135.502,18.670338
1426792135.518,9.844514
1426792135.534,2.852602
1426792135.549,-2.1685429
1426792135.565,-6.143321
1426792135.58,-10.363658
1426792135.596,-15.743312
1426792135.612,-22.06719
1426792135.627,-28.180716
1426792135.643,-32.513428
1426792135.659,-34.06598
1426792135.674,-32.981075
1426792135.69,-30.509113
1426792135.705,-28.351725
1426792135.721,-27.782442
1426792135.737,-28.960188
1426792135.752,-30.9337
1426792135.768,-32.239925
1426792135.784,-31.821112
1426792135.799,-29.625477
1426792135.815,-26.617632
1426792135.83,-24.188568
1426792135.846,-23.355583
1426792135.862,-24.070002
1426792135.877,-25.279665
1426792135.893,-25.48607
1426792135.909,-23.738995
1426792135.924,-20.140121
1426792135.94,-15.80286
1426792135.956,-12.195921
1426792135.971,-10.274578
1426792135.987,-9.856656
1426792136.002,-9.786494
1426792136.018,-8.604729
1426792136.034,-5.5153723
1426792136.049,-0.88713074
1426792136.065,3.9696665
1426792136.08,7.5281057
1426792136.096,8.936488
1426792136.112,8.595971
1426792136.127,7.8593636
1426792136.143,8.302233
1426792136.159,10.750967
1426792136.174,14.850459
1426792136.19,19.269165
1426792136.206,22.459175
1426792136.221,23.539919
1426792136.237,22.84878
1426792136.252,21.708004
1426792136.268,21.766636
1426792136.284,24.033699
1426792136.299,28.439613
1426792136.315,33.884796
1426792136.331,38.846924
1426792136.346,42.15806
1426792136.362,43.554672
1426792136.377,43.592987
1426792136.393,43.123196
1426792136.409,42.556206
1426792136.424,41.545532
1426792136.44,39.116043
1426792136.456,34.308975
1426792136.471,26.853533
1426792136.487,17.6135
1426792136.502,8.211294
1426792136.518,0.3621683
1426792136.534,-5.056781
1426792136.549,-8.376814
1426792136.565,-10.863156
1426792136.581,-13.95862
1426792136.596,-18.39925
1426792136.612,-23.70896
1426792136.627,-28.532196
1426792136.643,-31.398895
1426792136.659,-31.666367
1426792136.674,-29.901768
1426792136.69,-27.576612
1426792136.706,-26.263565
1426792136.721,-26.783894
1426792136.737,-28.740662
1426792136.752,-30.79858
1426792136.768,-31.486008
1426792136.784,-30.07384
1426792136.799,-26.98191
1426792136.815,-23.48639
1426792136.831,-20.995829
1426792136.846,-20.225567
1426792136.862,-20.753124
1426792136.877,-21.351786
1426792136.893,-20.681849
1426792136.909,-18.194689
1426792136.924,-14.419411
1426792136.94,-10.718424
1426792136.956,-8.467322
1426792136.971,-8.279696
1426792136.987,-9.64614
1426792137.002,-11.18881
1426792137.018,-11.430119
1426792137.034,-9.680998
1426792137.049,-6.348179
1426792137.065,-2.6408844
1426792137.081,0.117198944
1426792137.096,1.3229446
1426792137.112,1.4759521
1426792137.127,1.8607712
1426792137.143,3.8186874
1426792137.159,7.87446
1426792137.174,13.427525
1426792137.19,19.057861
1426792137.206,23.305851
1426792137.221,25.507519
1426792137.237,26.195059
1426792137.252,26.816616
1426792137.268,28.878958
1426792137.284,33.1111
1426792137.299,39.05147
1426792137.315,45.27183
1426792137.331,50.07096
1426792137.346,52.286804
1426792137.362,51.832504
1426792137.377,49.462173
1426792137.393,46.288525
1426792137.409,42.938446
1426792137.424,39.30003
1426792137.44,34.59076
1426792137.456,28.000101
1426792137.471,19.321823
1426792137.487,9.3295965
1426792137.502,-0.5067949
1426792137.518,-8.678735
1426792137.534,-14.441508
1426792137.549,-18.163815
1426792137.565,-21.066914
1426792137.581,-24.510956
1426792137.596,-29.104755
1426792137.612,-34.283875
1426792137.627,-38.63064
1426792137.643,-40.633785
1426792137.659,-39.722862
1426792137.674,-36.54631
1426792137.69,-32.77993
1426792137.706,-30.180696
1426792137.721,-29.695736
1426792137.737,-30.93143
1426792137.752,-32.501106
1426792137.768,-32.871994
1426792137.784,-31.348366
1426792137.799,-28.42181
1426792137.815,-25.484558
1426792137.831,-24.00859
1426792137.846,-24.570053
1426792137.862,-26.51021
1426792137.877,-28.253654
1426792137.893,-28.1808
1426792137.909,-25.618183
1426792137.924,-21.176363
1426792137.94,-16.398115
1426792137.956,-12.893222
1426792137.971,-11.4179125
1426792137.987,-11.448184
1426792138.002,-11.559168
1426792138.018,-10.261685
1426792138.034,-6.978484
1426792138.049,-2.2971315
1426792138.065,2.3397856
1426792138.081,5.464448
1426792138.096,6.4571815
1426792138.112,5.8641496
1426792138.127,5.1306863
1426792138.143,5.7523994
1426792138.159,8.418343
1426792138.174,12.713471
1426792138.19,17.335012
1426792138.206,20.913252
1426792138.221,22.751091
1426792138.237,23.263931
1426792138.252,23.646454
1426792138.268,25.186234
1426792138.284,28.47797
1426792138.299,33.094925
1426792138.315,37.859306
1426792138.331,41.526203
1426792138.346,43.485355
1426792138.362,44.017063
1426792138.377,43.968456
1426792138.393,44.043068
1426792138.409,44.18973
1426792138.424,43.512188
1426792138.44,40.760906
1426792138.456,35.08249
1426792138.471,26.64903
1426792138.487,16.738396
1426792138.502,7.1615596
1426792138.518,-0.5189109
1426792138.534,-5.7701592
1426792138.549,-9.202487
1426792138.565,-12.176651
1426792138.581,-15.953358
1426792138.596,-20.926853
1426792138.612,-26.41004
1426792138.628,-31.01908
1426792138.643,-33.46856
1426792138.659,-33.373306
1426792138.674,-31.436075
1426792138.69,-29.137642
1426792138.706,-27.870636
1426792138.721,-28.193222
1426792138.737,-29.535334
1426792138.752,-30.553661
1426792138.768,-30.025352
1426792138.784,-27.630047
1426792138.799,-24.161457
1426792138.815,-21.06839
1426792138.831,-19.608902
1426792138.846,-20.0696
1426792138.862,-21.520836
1426792138.878,-22.433578
1426792138.893,-21.486485
1426792138.909,-18.485067
1426792138.924,-14.396524
1426792138.94,-10.856084
1426792138.956,-9.222485
1426792138.971,-9.768127
1426792138.987,-11.511734
1426792139.003,-12.814869
1426792139.018,-12.2877655
1426792139.034,-9.645395
1426792139.049,-5.782522
1426792139.065,-2.2920551
1426792139.081,-0.5201206
1426792139.096,-0.76794434
1426792139.112,-2.139843
1426792139.128,-3.1030064
1426792139.143,-2.3463802
1426792139.159,0.40157318
1426792139.174,4.366417
1426792139.19,8.120346
1426792139.206,10.500156
1426792139.221,11.264301
1426792139.237,11.215462
1426792139.253,11.674969
1426792139.268,13.671177
1426792139.284,17.351906
1426792139.299,21.907356
1426792139.315,26.065128
1426792139.331,28.886105
1426792139.346,30.357067
1426792139.362,31.421597
1426792139.378,33.390564
1426792139.393,37.0993
1426792139.409,42.230095
1426792139.424,47.324825
1426792139.44,50.444447
1426792139.456,50.108208
1426792139.471,46.080906
1426792139.487,39.488792
1426792139.503,32.12727
1426792139.518,25.552082
1426792139.534,20.259052
1426792139.549,15.635265
1426792139.565,10.493858
1426792139.581,3.9645996
1426792139.596,-3.8464088
1426792139.612,-11.780365
1426792139.628,-18.289246
1426792139.643,-22.28973
1426792139.659,-23.784504
1426792139.674,-23.788235
1426792139.69,-23.741241
1426792139.706,-24.651443
1426792139.721,-26.532497
1426792139.737,-28.456753
1426792139.753,-29.173115
1426792139.768,-27.957588
1426792139.784,-25.126682
1426792139.799,-21.90678
1426792139.815,-19.81644
1426792139.831,-19.790829
1426792139.846,-21.652458
1426792139.862,-24.198406
1426792139.878,-25.867947
1426792139.893,-25.61977
1426792139.909,-23.492096
1426792139.924,-20.485615
1426792139.94,-17.99879
1426792139.956,-16.983429
1426792139.971,-17.387917
1426792139.987,-18.242565
1426792140.003,-18.271343
1426792140.018,-16.682987
1426792140.034,-13.681541
1426792140.049,-10.341167
1426792140.065,-7.9810486
1426792140.081,-7.3847847
1426792140.096,-8.281834
1426792140.112,-9.504715
1426792140.128,-9.615234
1426792140.143,-7.7418404
1426792140.159,-4.0661697
1426792140.174,0.325325
1426792140.19,4.066757
1426792140.206,6.259186
1426792140.221,7.0112534
1426792140.237,7.3503647
1426792140.253,8.5651245
1426792140.268,11.453117
1426792140.284,15.7957535
1426792140.299,20.520638
1426792140.315,24.255608
1426792140.331,26.149414
1426792140.346,26.380486
1426792140.362,26.092636
1426792140.378,26.736572
1426792140.393,29.260735
1426792140.409,33.508224
1426792140.424,38.30638
1426792140.44,41.99684
1426792140.456,43.316376
1426792140.471,41.979965
1426792140.487,38.74816
1426792140.503,34.806084
1426792140.518,31.022987
1426792140.534,27.426186
1426792140.549,23.322182
1426792140.565,17.770485
1426792140.581,10.363007
1426792140.596,1.6700897
1426792140.612,-6.943924
1426792140.628,-13.961426
1426792140.643,-18.524742
1426792140.659,-20.870567
1426792140.674,-22.093727
1426792140.69,-23.541283
1426792140.706,-25.950111
1426792140.721,-29.04898
1426792140.737,-31.737
1426792140.753,-32.752846
1426792140.768,-31.473091
1426792140.784,-28.284294
1426792140.799,-24.39418
1426792140.815,-21.242706
1426792140.831,-19.708069
1426792140.846,-19.666168
1426792140.862,-20.11039
1426792140.878,-19.80729
1426792140.893,-18.039452
1426792140.909,-15.047577
1426792140.924,-11.833534
1426792140.94,-9.653328
1426792140.956,-9.157196
1426792140.971,-10.034088
1426792140.987,-11.122711
1426792141.003,-11.084267
1426792141.018,-9.266701
1426792141.034,-6.06015
1426792141.049,-2.688591
1426792141.065,-0.5128021
1426792141.081,-0.16581726
1426792141.096,-1.1475449
1426792141.112,-2.087181
1426792141.128,-1.5723724
1426792141.143,0.964241
1426792141.159,4.875862
1426792141.174,8.700943
1426792141.19,10.915321
1426792141.206,10.892815
1426792141.221,9.27626
1426792141.237,7.5803375
1426792141.253,7.341614
1426792141.268,9.241943
1426792141.284,12.730972
1426792141.299,16.424545
1426792141.315,18.865585
1426792141.331,19.397598
1426792141.346,18.578743
1426792141.362,17.901718
1426792141.378,18.965057
1426792141.393,22.534729
1426792141.409,28.100792
1426792141.424,34.0832
1426792141.44,38.58259
1426792141.456,40.357674
1426792141.471,39.35813
1426792141.487,36.570892
1426792141.503,33.32212
1426792141.518,30.369888
1426792141.534,27.504486
1426792141.55,23.749214
1426792141.565,18.095383
1426792141.581,10.327774
1426792141.596,1.3651352
1426792141.612,-7.1293716
1426792141.628,-13.562424
1426792141.643,-17.303764
1426792141.659,-18.935814
1426792141.675,-19.85537
1426792141.69,-21.44181
1426792141.706,-24.22123
1426792141.721,-27.604713
1426792141.737,-30.252884
1426792141.753,-30.908737
1426792141.768,-29.179352
1426792141.784,-25.792862
1426792141.8,-22.252457
1426792141.815,-20.038544
1426792141.831,-19.806694
1426792141.846,-21.041908
1426792141.862,-22.446556
1426792141.878,-22.702446
1426792141.893,-21.286057
1426792141.909,-18.744118
1426792141.925,-16.3432
1426792141.94,-15.319473
1426792141.956,-16.085083
1426792141.971,-17.940659
1426792141.987,-19.483627
1426792142.003,-19.394958
1426792142.018,-17.242249
1426792142.034,-13.69841
1426792142.05,-10.190079
1426792142.065,-8.088654
1426792142.081,-7.891144
1426792142.096,-8.953751
1426792142.112,-9.883514
1426792142.128,-9.314209
1426792142.143,-6.765457
1426792142.159,-2.8753357
1426792142.175,0.9342346
1426792142.19,3.2687988
1426792142.206,3.5807495
1426792142.221,2.529007
1426792142.237,1.5572815
1426792142.253,2.1157684
1426792142.268,4.7495575
1426792142.284,8.848877
1426792142.3,13.007462
1426792142.315,15.883667
1426792142.331,17.05664
1426792142.346,17.265244
1426792142.362,17.992355
1426792142.378,20.558975
1426792142.393,25.26744
1426792142.409,31.22705
1426792142.425,36.80168
1426792142.44,40.504272
1426792142.456,41.808624
1426792142.471,41.346222
1426792142.487,40.380585
1426792142.503,39.949265
1426792142.518,40.116898
1426792142.534,39.910675
1426792142.55,37.895462
1426792142.565,33.04004
1426792142.581,25.466446
1426792142.596,16.529694
1426792142.612,8.164215
1426792142.628,1.9248352
1426792142.643,-1.8267059
1426792142.659,-3.9774323
1426792142.675,-6.1069183
1426792142.69,-9.511581
1426792142.706,-14.406586
1426792142.721,-19.796234
1426792142.737,-24.075867
1426792142.753,-25.987076
1426792142.768,-25.405426
1426792142.784,-23.391357
1426792142.8,-21.634644
1426792142.815,-21.45964
1426792142.831,-23.074905
1426792142.846,-25.440811
1426792142.862,-26.99379
1426792142.878,-26.542572
1426792142.893,-24.049576
1426792142.909,-20.645142
1426792142.925,-17.96379
1426792142.94,-17.20491
1426792142.956,-18.435287
1426792142.971,-20.550385
1426792142.987,-21.956894
1426792143.003,-21.477615
1426792143.018,-19.013397
1426792143.034,-15.528839
1426792143.05,-12.516678
1426792143.065,-11.093292
1426792143.081,-11.347992
1426792143.096,-12.323456
1426792143.112,-12.572433
1426792143.128,-11.034958
1426792143.143,-7.642105
1426792143.159,-3.365509
1426792143.175,0.33665466
1426792143.19,2.3070984
1426792143.206,2.3995209
1426792143.221,1.5223846
1426792143.237,1.1419373
1426792143.253,2.3970947
1426792143.268,5.486267
1426792143.284,9.587402
1426792143.3,13.337921
1426792143.315,15.654526
1426792143.331,16.377853
1426792143.346,16.348145
1426792143.362,16.881943
1426792143.378,18.93785
1426792143.393,22.529892
1426792143.409,26.711899
1426792143.425,30.148941
1426792143.44,31.957932
1426792143.456,32.321228
1426792143.471,32.363968
1426792143.487,33.50807
1426792143.503,36.45726
1426792143.518,40.66945
1426792143.534,44.501343
1426792143.55,46.0083
1426792143.565,43.95433
1426792143.581,38.49803
1426792143.596,31.095978
1426792143.612,23.736618
1426792143.628,17.882996
1426792143.643,13.820816
1426792143.659,10.660416
1426792143.675,7.040634
1426792143.69,1.978775
1426792143.706,-4.3872375
1426792143.721,-10.873917
1426792143.737,-15.888351
1426792143.753,-18.423233
1426792143.768,-18.61499
1426792143.784,-17.69989
1426792143.8,-17.32756
1426792143.815,-18.598572
1426792143.831,-21.384262
1426792143.846,-24.44168
1426792143.862,-26.145111
1426792143.878,-25.551071
1426792143.893,-22.945679
1426792143.909,-19.74849
1426792143.925,-17.709915
1426792143.94,-17.893478
1426792143.956,-20.02678
1426792143.971,-22.72409
1426792143.987,-24.225769
1426792144.003,-23.484589
1426792144.018,-20.703354
1426792144.034,-17.16954
1426792144.05,-14.516678
1426792144.065,-13.791626
1426792144.081,-14.809616
1426792144.096,-16.380814
1426792144.112,-16.934814
1426792144.128,-15.536072
1426792144.143,-12.325592
1426792144.159,-8.474243
1426792144.175,-5.4602203
1426792144.19,-4.224457
1426792144.206,-4.608719
1426792144.222,-5.5052643
1426792144.237,-5.465439
1426792144.253,-3.631485
1426792144.268,-0.20321655
1426792144.284,3.7064667
1426792144.3,6.6974945
1426792144.315,7.97612
1426792144.331,7.847641
1426792144.347,7.5343933
1426792144.362,8.490967
1426792144.378,11.430023
1426792144.393,15.958817
1426792144.409,20.750092
1426792144.425,24.353134
1426792144.44,26.013351
1426792144.456,26.202927
1426792144.472,26.316162
1426792144.487,27.914963
1426792144.503,31.702652
1426792144.518,37.0988
1426792144.534,42.44339
1426792144.55,45.75815
1426792144.565,45.7659
1426792144.581,42.487656
1426792144.597,37.13745
1426792144.612,31.405457
1426792144.628,26.476334
1426792144.643,22.475937
1426792144.659,18.568314
1426792144.675,13.604416
1426792144.69,7.011841
1426792144.706,-0.66342163
1426792144.722,-8.033463
1426792144.737,-13.5230255
1426792144.753,-16.36673
1426792144.768,-16.997528
1426792144.784,-16.79535
1426792144.8,-17.264069
1426792144.815,-19.186935
1426792144.831,-22.127167
1426792144.847,-24.775406
1426792144.862,-25.757416
1426792144.878,-24.52327
1426792144.893,-21.731781
1426792144.909,-18.875412
1426792144.925,-17.524506
1426792144.94,-18.3676
1426792144.956,-20.865494
1426792144.972,-23.557907
1426792144.987,-24.872131
1426792145.003,-24.058853
1426792145.018,-21.558426
1426792145.034,-18.654053
1426792145.05,-16.733856
1426792145.065,-16.519272
1426792145.081,-17.552277
1426792145.097,-18.625183
1426792145.112,-18.44191
1426792145.128,-16.435532
1426792145.143,-13.080292
1426792145.159,-9.539612
1426792145.175,-7.0341034
1426792145.19,-6.0592346
1426792145.206,-6.0854187
1426792145.222,-5.935501
1426792145.237,-4.4433136
1426792145.253,-1.2045135
1426792145.268,3.2125854
1426792145.284,7.5371246
1426792145.3,10.538513
1426792145.315,11.749985
1426792145.331,11.746689
1426792145.347,11.811554
1426792145.362,13.20993
1426792145.378,16.365036
1426792145.393,20.617447
1426792145.409,24.596207
1426792145.425,26.986038
1426792145.44,27.333282
1426792145.456,26.429276
1426792145.472,25.878357
1426792145.487,27.241806
1426792145.503,31.084335
1426792145.518,36.596603
1426792145.534,41.92813
1426792145.55,45.09195
1426792145.565,44.901367
1426792145.581,41.51573
1426792145.597,36.182327
1426792145.612,30.478973
1426792145.628,25.377853
1426792145.643,20.858063
1426792145.659,16.124298
1426792145.675,10.255569
1426792145.69,2.99057
1426792145.706,-4.938629
1426792145.722,-12.156769
1426792145.737,-17.37535
1426792145.753,-20.17453
1426792145.768,-21.185165
1426792145.784,-21.702896
1426792145.8,-22.924057
1426792145.815,-25.209457
1426792145.831,-27.861084
1426792145.847,-29.633698
1426792145.862,-29.442337
1426792145.878,-27.14801
1426792145.893,-23.663193
1426792145.909,-20.499329
1426792145.925,-18.985214
1426792145.94,-19.468796
1426792145.956,-21.199295
1426792145.972,-22.749115
1426792145.987,-22.782166
1426792146.003,-20.830551
1426792146.018,-17.519379
1426792146.034,-14.164078
1426792146.05,-12.081116
1426792146.065,-11.792419
1426792146.081,-12.698151
1426792146.097,-13.456207
1426792146.112,-12.688797
1426792146.128,-9.870316
1426792146.143,-5.5676575
1426792146.159,-1.1856842
1426792146.175,1.8190155
1426792146.19,2.7672272
1426792146.206,2.1662598
1426792146.222,1.3178558
1426792146.237,1.6208038
1426792146.253,3.6550598
1426792146.268,6.90213
1426792146.284,10.026352
1426792146.3,11.657944
1426792146.315,11.2834015
1426792146.331,9.62384
1426792146.347,8.1627655
1426792146.362,8.396179
1426792146.378,10.903503
1426792146.393,15.135254
1426792146.409,19.76123
1426792146.425,23.507187
1426792146.44,25.947205
1426792146.456,27.721695
1426792146.472,29.967232
1426792146.487,33.48622
1426792146.503,38.03511
1426792146.518,42.26886
1426792146.534,44.3656
1426792146.55,42.993317
1426792146.565,38.041817
1426792146.581,30.71724
1426792146.597,22.899734
1426792146.612,16.219994
1426792146.628,11.245453
1426792146.643,7.371666
1426792146.659,3.3289566
1426792146.675,-1.9151611
1426792146.69,-8.501984
1426792146.706,-15.444702
1426792146.722,-21.239868
1426792146.737,-24.649872
1426792146.753,-25.485107
1426792146.768,-24.651154
1426792146.784,-23.66697
1426792146.8,-23.779388
1426792146.815,-25.265404
1426792146.831,-27.289978
1426792146.847,-28.489754
1426792146.862,-27.833694
1426792146.878,-25.311417
1426792146.894,-21.979591
1426792146.909,-19.38697
1426792146.925,-18.66587
1426792146.94,-19.849937
1426792146.956,-21.785652
1426792146.972,-22.816223
1426792146.987,-21.753258
1426792147.003,-18.544975
1426792147.019,-14.317154
1426792147.034,-10.749168
1426792147.05,-9.091492
1426792147.065,-9.456985
1426792147.081,-10.766541
1426792147.097,-11.421837
1426792147.112,-10.259903
1426792147.128,-7.243149
1426792147.144,-3.410614
1426792147.159,-0.27935028
1426792147.175,1.1422272
1426792147.19,0.93087006
1426792147.206,0.22419739
1426792147.222,0.5472183
1426792147.237,2.8847046
1426792147.253,7.0824814
1426792147.269,11.962784
1426792147.284,15.994743
1426792147.3,18.159935
1426792147.315,18.620758
1426792147.331,18.66661
1426792147.347,19.97866
1426792147.362,23.668724
1426792147.378,29.616302
1426792147.394,36.450317
1426792147.409,42.20128
1426792147.425,45.242363
1426792147.44,45.02687
1426792147.456,42.20865
1426792147.472,38.118332
1426792147.487,33.91999
1426792147.503,29.988422
1426792147.519,25.84195
1426792147.534,20.60817
1426792147.55,13.766502
1426792147.565,5.6747284
1426792147.581,-2.464489
1426792147.597,-9.192562
1426792147.612,-13.589558
1426792147.628,-15.773338
1426792147.644,-16.768345
1426792147.659,-17.918282
1426792147.675,-20.096283
1426792147.69,-23.188526
1426792147.706,-26.152065
1426792147.722,-27.674297
1426792147.737,-27.00328
1426792147.753,-24.448055
1426792147.769,-21.276226
1426792147.784,-19.058979
1426792147.8,-18.79552
1426792147.815,-20.377827
1426792147.831,-22.63464
1426792147.847,-24.041073
1426792147.862,-23.621609
1426792147.878,-21.498848
1426792147.894,-18.761303
1426792147.909,-16.858131
1426792147.925,-16.715458
1426792147.94,-18.159481
1426792147.956,-20.04103
1426792147.972,-20.905888
1426792147.987,-19.889843
1426792148.003,-17.189642
1426792148.019,-13.939707
1426792148.034,-11.544905
1426792148.05,-10.796465
1426792148.065,-11.408026
1426792148.081,-12.169695
1426792148.097,-11.676882
1426792148.112,-9.142248
1426792148.128,-4.8805847
1426792148.144,-0.08699417
1426792148.159,3.8124218
1426792148.175,6.005316
1426792148.19,6.740885
1426792148.206,7.2028446
1426792148.222,8.766994
1426792148.237,12.217772
1426792148.253,17.29052
1426792148.269,22.871595
1426792148.284,27.61145
1426792148.3,30.78082
1426792148.315,32.68615
1426792148.331,34.461563
1426792148.347,37.343864
1426792148.362,41.73937
1426792148.378,46.856724
1426792148.394,50.93863
1426792148.409,52.113552
1426792148.425,49.382915
1426792148.44,43.16183
1426792148.456,35.057373
1426792148.472,27.016361
1426792148.487,20.350138
1426792148.503,15.143108
1426792148.519,10.485128
1426792148.534,5.107262
1426792148.55,-1.6517653
1426792148.565,-9.423458
1426792148.581,-16.922615
1426792148.597,-22.733072
1426792148.612,-26.074772
1426792148.628,-27.221949
1426792148.644,-27.30983
1426792148.659,-27.651466
1426792148.675,-28.988
1426792148.69,-31.039345
1426792148.706,-32.725586
1426792148.722,-32.90432
1426792148.737,-31.143923
1426792148.753,-28.084831
1426792148.769,-25.10994
1426792148.784,-23.67654
1426792148.8,-24.330845
1426792148.815,-26.430271
1426792148.831,-28.398531
1426792148.847,-28.64107
1426792148.862,-26.484997
1426792148.878,-22.540287
1426792148.894,-18.348686
1426792148.909,-15.550756
1426792148.925,-14.886078
1426792148.94,-15.75429
1426792148.956,-16.61316
1426792148.972,-15.859781
1426792148.987,-12.831087
1426792149.003,-8.160397
1426792149.019,-3.3982964
1426792149.034,-0.14536285
1426792149.05,0.9327526
1426792149.065,0.44515038
1426792149.081,-0.06926727
1426792149.097,0.9755039
1426792149.112,4.2215843
1426792149.128,9.0547695
1426792149.144,13.964502
1426792149.159,17.380129
1426792149.175,18.61915
1426792149.19,18.25185
1426792149.206,17.78208
1426792149.222,18.7677
1426792149.237,21.998894
1426792149.253,27.075031
1426792149.269,32.70526
1426792149.284,37.363026
1426792149.3,40.174984
1426792149.315,41.26155
1426792149.331,41.518948
1426792149.347,41.907204
1426792149.362,42.672104
1426792149.378,43.10774
1426792149.394,41.880795
1426792149.409,37.788597
1426792149.425,30.628746
1426792149.44,21.464737
1426792149.456,12.177273
1426792149.472,4.577923
1426792149.487,-0.5314102
1426792149.503,-3.6541214
1426792149.519,-6.1632195
1426792149.534,-9.516193
1426792149.55,-14.197819
1426792149.566,-19.509659
1426792149.581,-23.969677
1426792149.597,-26.194435
1426792149.612,-25.79234
1426792149.628,-23.613518
1426792149.644,-21.266304
1426792149.659,-20.287075
1426792149.675,-21.254585
1426792149.69,-23.559242
1426792149.706,-25.805656
1426792149.722,-26.69963
1426792149.737,-25.819221
1426792149.753,-23.83059
1426792149.769,-22.054886
1426792149.784,-21.680435
1426792149.8,-22.91249
1426792149.816,-24.891289
1426792149.831,-26.0933
1426792149.847,-25.266289
1426792149.862,-22.136269
1426792149.878,-17.624214
1426792149.894,-13.254112
1426792149.909,-10.394966
1426792149.925,-9.404419
1426792149.941,-9.521217
1426792149.956,-9.355988
1426792149.972,-7.7124176
1426792149.987,-4.3391647
1426792150.003,-0.028182983
1426792150.019,3.9209976
1426792150.034,6.3870773
1426792150.05,7.2007065
1426792150.066,7.1841965
1426792150.081,7.702385
1426792150.097,9.824417
1426792150.112,13.7317505
1426792150.128,18.622856
1426792150.144,23.219864
1426792150.159,26.514587
1426792150.175,28.418228
1426792150.191,29.822746
1426792150.206,32.00634
1426792150.222,35.832726
1426792150.237,41.073624
1426792150.253,46.39176
1426792150.269,49.899155
1426792150.284,50.055412
1426792150.3,46.54168
1426792150.316,40.349243
1426792150.331,33.277916
1426792150.347,26.939949
1426792150.362,21.973244
1426792150.378,17.77449
1426792150.394,13.074165
1426792150.409,6.781662
1426792150.425,-1.1756744
1426792150.441,-9.743919
1426792150.456,-17.29853
1426792150.472,-22.53878
1426792150.487,-25.210869
1426792150.503,-26.180908
1426792150.519,-26.886658
1426792150.534,-28.467545
1426792150.55,-31.110641
1426792150.566,-33.987976
1426792150.581,-35.81578
1426792150.597,-35.711517
1426792150.612,-33.777832
1426792150.628,-31.063675
1426792150.644,-28.969345
1426792150.659,-28.503967
1426792150.675,-29.638931
1426792150.691,-31.362442
1426792150.706,-32.278778
1426792150.722,-31.444336
1426792150.737,-28.906433
1426792150.753,-25.639023
1426792150.769,-22.993256
1426792150.784,-21.905685
1426792150.8,-22.277527
1426792150.816,-23.058899
1426792150.831,-22.818268
1426792150.847,-20.617798
1426792150.862,-16.568665
1426792150.878,-11.801071
1426792150.894,-7.806137
1426792150.909,-5.613266
1426792150.925,-5.111664
1426792150.941,-5.125046
1426792150.956,-4.049774
1426792150.972,-0.885849
1426792150.987,4.230255
1426792151.003,10.043198
1426792151.019,14.943283
1426792151.034,17.891846
1426792151.05,19.060959
1426792151.066,19.713364
1426792151.081,21.441345
1426792151.097,25.218307
1426792151.112,30.80989
1426792151.128,36.95793
1426792151.144,42.09349
1426792151.159,45.091003
1426792151.175,45.911835
1426792151.191,45.376846
1426792151.206,44.60399
1426792151.222,44.16327
1426792151.237,43.71414
1426792151.253,42.14058
1426792151.269,38.226715
1426792151.284,31.441833
1426792151.3,22.363678
1426792151.316,12.502609
1426792151.331,3.5989075
1426792151.347,-3.2909088
1426792151.362,-8.227737
1426792151.378,-12.258682
1426792151.394,-16.712692
1426792151.409,-22.30664
1426792151.425,-28.674667
1426792151.441,-34.54312
1426792151.456,-38.431717
1426792151.472,-39.598434
1426792151.487,-38.410324
1426792151.503,-36.188263
1426792151.519,-34.46245
1426792151.534,-34.16562
1426792151.55,-35.139862
1426792151.566,-36.341827
1426792151.581,-36.50023
1426792151.597,-34.920715
1426792151.612,-31.900787
1426792151.628,-28.555069
1426792151.644,-26.17337
1426792151.659,-25.527893
1426792151.675,-26.3564
1426792151.691,-27.56607
1426792151.706,-27.809769
1426792151.722,-26.342987
1426792151.737,-23.362762
1426792151.753,-19.930588
1426792151.769,-17.329071
1426792151.784,-16.25328
1426792151.8,-16.377243
1426792151.816,-16.546356
1426792151.831,-15.414322
1426792151.847,-12.341354
1426792151.862,-7.698517
1426792151.878,-2.7324677
1426792151.894,1.1580048
1426792151.909,3.2050476
1426792151.925,3.7799225
1426792151.941,4.0796356
1426792151.956,5.469635
1426792151.972,8.580841
1426792151.987,13.005951
1426792152.003,17.47728
1426792152.019,20.601196
1426792152.034,21.726486
1426792152.05,21.343048
1426792152.066,20.892044
1426792152.081,21.998917
1426792152.097,25.53978
1426792152.112,31.18097
1426792152.128,37.474716
1426792152.144,42.5981
1426792152.159,45.203903
1426792152.175,45.08116
1426792152.191,43.02292
1426792152.206,40.290054
1426792152.222,37.68495
1426792152.237,35.13983
1426792152.253,31.82579
1426792152.269,26.715668
1426792152.284,19.432724
1426792152.3,10.623947
1426792152.316,1.7513275
1426792152.331,-5.6361237
1426792152.347,-10.794418
1426792152.362,-14.05571
1426792152.378,-16.663757
1426792152.394,-19.937195
1426792152.409,-24.49675
1426792152.425,-29.787369
1426792152.441,-34.496002
1426792152.456,-37.180862
1426792152.472,-37.27417
1426792152.488,-35.349823
1426792152.503,-32.846344
1426792152.519,-31.273987
1426792152.534,-31.300323
1426792152.55,-32.424744
1426792152.566,-33.326157
1426792152.581,-32.69513
1426792152.597,-30.107437
1426792152.613,-26.298279
1426792152.628,-22.727036
1426792152.644,-20.764008
1426792152.659,-20.849884
1426792152.675,-22.16423
1426792152.691,-23.17772
1426792152.706,-22.427612
1426792152.722,-19.472946
1426792152.738,-15.053757
1426792152.753,-10.67926
1426792152.769,-7.766281
1426792152.784,-6.836548
1426792152.8,-7.2119446
1426792152.816,-7.462967
1426792152.831,-6.227524
1426792152.847,-3.0414276
1426792152.863,1.4548798
1426792152.878,5.8482056
1426792152.894,8.817886
1426792152.909,9.891006
1426792152.925,9.7296295
1426792152.941,9.686554
1426792152.956,11.026794
1426792152.972,14.120712
1426792152.988,18.333252
1426792153.003,22.373093
1426792153.019,25.059631
1426792153.034,26.070297
1426792153.05,26.184586
1426792153.066,26.840652
1426792153.081,29.366043
1426792153.097,34.19124
1426792153.113,40.569733
1426792153.128,46.9561
1426792153.144,51.715836
1426792153.159,53.891846
1426792153.175,53.617126
1426792153.191,51.772507
1426792153.206,49.37126
1426792153.222,46.80948
1426792153.238,43.67389
1426792153.253,39.00609
1426792153.269,32.040634
1426792153.284,22.852554
1426792153.3,12.492966
1426792153.316,2.6103363
1426792153.331,-5.390335
1426792153.347,-11.017456
1426792153.363,-14.849228
1426792153.378,-18.126053
1426792153.394,-21.971542
1426792153.409,-26.672028
1426792153.425,-31.502014
1426792153.441,-35.136673
1426792153.456,-36.41626
1426792153.472,-35.10669
1426792153.488,-32.049713
1426792153.503,-28.827698
1426792153.519,-26.891586
1426792153.534,-26.832138
1426792153.55,-28.07161
1426792153.566,-29.28569
1426792153.581,-29.236511
1426792153.597,-27.527435
1426792153.613,-24.825897
1426792153.628,-22.422256
1426792153.644,-21.459045
1426792153.659,-22.15532
1426792153.675,-23.665543
1426792153.691,-24.586258
1426792153.706,-23.757507
1426792153.722,-20.99887
1426792153.738,-17.18605
1426792153.753,-13.778236
1426792153.769,-11.980484
1426792153.784,-12.034576
1426792153.8,-13.079224
1426792153.816,-13.663452
1426792153.831,-12.580139
1426792153.847,-9.6057205
1426792153.863,-5.6057587
1426792153.878,-2.0504227
1426792153.894,-0.16440582
1426792153.909,-0.13718414
1426792153.925,-1.0164108
1426792153.941,-1.2556381
1426792153.956,0.44341278
1426792153.972,4.290947
1426792153.988,9.3654175
1426792154.003,14.123192
1426792154.019,17.275711
1426792154.034,18.6053
1426792154.05,19.084816
1426792154.066,20.267372
1426792154.081,23.421608
1426792154.097,28.73674
1426792154.113,35.25657
1426792154.128,41.39782
1426792154.144,45.794136
1426792154.159,48.009933
1426792154.175,48.620476
1426792154.191,48.65297
1426792154.206,48.841095
1426792154.222,49.01738
1426792154.238,48.20672
1426792154.253,45.152122
1426792154.269,39.137123
1426792154.284,30.569275
1426792154.3,20.905457
1426792154.316,12.002823
1426792154.331,5.192528
1426792154.347,0.61483765
1426792154.363,-2.7086105
1426792154.378,-6.242485
1426792154.394,-11.047264
1426792154.409,-17.070267
1426792154.425,-23.094063
1426792154.441,-27.526787
1426792154.456,-29.245201
1426792154.472,-28.336403
1426792154.488,-25.979881
1426792154.503,-23.873062
1426792154.519,-23.22052
1426792154.534,-24.147552
1426792154.55,-25.668846
1426792154.566,-26.428116
1426792154.581,-25.559021
1426792154.597,-23.228973
1426792154.613,-20.560486
1426792154.628,-18.927757
1426792154.644,-19.121399
1426792154.659,-20.792084
1426792154.675,-22.636864
1426792154.691,-23.139908
1426792154.706,-21.445229
1426792154.722,-17.88845
1426792154.738,-13.799828
1426792154.753,-10.812302
1426792154.769,-9.890648
1426792154.784,-10.814079
1426792154.8,-12.239067
1426792154.816,-12.524673
1426792154.831,-10.665604
1426792154.847,-6.8784485
1426792154.863,-2.4206467
1426792154.878,1.1465683
1426792154.894,2.8516235
1426792154.909,2.9004822
1426792154.925,2.5521927
1426792154.941,3.3361664
1426792154.956,6.1280746
1426792154.972,10.650711
1426792154.988,15.695526
1426792155.003,19.75335
1426792155.019,21.937248
1426792155.034,22.444351
1426792155.05,22.495056
1426792155.066,23.604332
1426792155.081,26.781143
1426792155.097,31.947105
1426792155.113,37.999573
1426792155.128,43.335663
1426792155.144,46.670288
1426792155.16,47.635178
1426792155.175,46.80169
1426792155.191,45.196754
1426792155.206,43.54207
1426792155.222,41.759094
1426792155.238,39.043106
1426792155.253,34.38259
1426792155.269,27.374771
1426792155.285,18.653168
1426792155.3,9.717773
1426792155.316,2.2032013
1426792155.331,-2.9958878
1426792155.347,-6.1679535
1426792155.363,-8.4872055
1426792155.378,-11.30938
1426792155.394,-15.255592
1426792155.41,-19.877518
1426792155.425,-23.942848
1426792155.441,-26.19754
1426792155.456,-26.175766
1426792155.472,-24.487251
1426792155.488,-22.457703
1426792155.503,-21.46296
1426792155.519,-22.133865
1426792155.535,-24.085793
1426792155.55,-26.126228
1426792155.566,-27.006119
1426792155.581,-26.116188
1426792155.597,-23.82019
1426792155.613,-21.161781
1426792155.628,-19.33065
1426792155.644,-18.902557
1426792155.66,-19.504944
1426792155.675,-20.03527
1426792155.691,-19.291374
1426792155.706,-16.726662
1426792155.722,-12.767693
1426792155.738,-8.595039
1426792155.753,-5.5393906
1426792155.769,-4.277603
1426792155.785,-4.463852
1426792155.8,-4.9164276
1426792155.816,-4.3103714
1426792155.831,-2.0019913
1426792155.847,1.6436234
1426792155.863,5.4648895
1426792155.878,8.1495285
1426792155.894,9.0709305
1426792155.91,8.681526
1426792155.925,8.266167
1426792155.941,9.192352
1426792155.956,12.119141
1426792155.972,16.578598
1426792155.988,21.288254
1426792156.003,24.8759
1426792156.019,26.78418
1426792156.035,27.629242
1426792156.05,28.836823
1426792156.066,31.778397
1426792156.081,36.777832
1426792156.097,42.75882
1426792156.113,47.697952
1426792156.128,49.57361
1426792156.144,47.427505
1426792156.16,41.825592
1426792156.175,34.48938
1426792156.191,27.308167
1426792156.206,21.335129
1426792156.222,16.356308
1426792156.238,11.267014
1426792156.253,4.8497925
1426792156.269,-3.2807617
1426792156.285,-12.374359
1426792156.3,-20.864487
1426792156.316,-27.21582
1426792156.331,-30.737137
1426792156.347,-31.902573
1426792156.363,-31.992233
1426792156.378,-32.357193
1426792156.394,-33.614563
1426792156.41,-35.37047
1426792156.425,-36.537567
1426792156.441,-36.103073
1426792156.456,-33.863525
1426792156.472,-30.617447
1426792156.488,-27.7258
1426792156.503,-26.424316
1426792156.519,-27.010788
1426792156.535,-28.714432
1426792156.55,-30.099228
1426792156.566,-29.891647
1426792156.581,-27.720886
1426792156.597,-24.323944
1426792156.613,-21.07753
1426792156.628,-19.2715
1426792156.644,-19.240189
1426792156.66,-20.222458
1426792156.675,-20.757141
1426792156.691,-19.520264
1426792156.706,-16.140778
1426792156.722,-11.434937
1426792156.738,-6.903183
1426792156.753,-3.9392853
1426792156.769,-2.9766846
1426792156.785,-3.276413
1426792156.8,-3.345642
1426792156.816,-1.885788
1426792156.831,1.4883728
1426792156.847,6.011551
1426792156.863,10.2825165
1426792156.878,13.067276
1426792156.894,14.091827
1426792156.91,14.146973
1426792156.925,14.621246
1426792156.941,16.649185
1426792156.956,20.4926
1426792156.972,25.42009
1426792156.988,30.215607
1426792157.003,33.8535
1426792157.019,36.097046
1426792157.035,37.494675
1426792157.05,38.88826
1426792157.066,40.757492
1426792157.081,42.756073
1426792157.097,43.795227
1426792157.113,42.6084
1426792157.128,38.379303
1426792157.144,31.332108
1426792157.16,22.636429
1426792157.175,13.920334
1426792157.191,6.464737
1426792157.206,0.6735687
1426792157.222,-4.0494843
1426792157.238,-8.833389
1426792157.253,-14.596878
1426792157.269,-21.387817
1426792157.285,-28.299744
1426792157.3,-33.868088
1426792157.316,-36.958176
1426792157.331,-37.36679
1426792157.347,-36.023743
1426792157.363,-34.43199
1426792157.378,-33.889404
1426792157.394,-34.72235
1426792157.41,-36.24492
1426792157.425,-37.171112
1426792157.441,-36.54782
1426792157.456,-34.329773
1426792157.472,-31.436981
1426792157.488,-29.218307
1426792157.503,-28.632233
1426792157.519,-29.612106
1426792157.535,-31.10553
1426792157.55,-31.659882
1426792157.566,-30.310287
1426792157.581,-27.17038
1426792157.597,-23.347122
1426792157.613,-20.332184
1426792157.628,-19.127228
1426792157.644,-19.613846
1426792157.66,-20.633148
1426792157.675,-20.616287
1426792157.691,-18.567413
1426792157.706,-14.581024
1426792157.722,-9.839371
1426792157.738,-5.9296722
1426792157.753,-3.9488678
1426792157.769,-3.8718414
1426792157.785,-4.550949
1426792157.8,-4.386528
1426792157.816,-2.240837
1426792157.832,1.9486465
1426792157.847,7.1724014
1426792157.863,11.925926
1426792157.878,15.077385
1426792157.894,16.522415
1426792157.91,17.144676
1426792157.925,18.251488
1426792157.941,20.764397
1426792157.957,24.695778
1426792157.972,29.217743
1426792157.988,33.223747
1426792158.003,36.00953
1426792158.019,37.741463
1426792158.035,39.23707
1426792158.05,41.385376
1426792158.066,44.3983
1426792158.082,47.517303
1426792158.097,49.267776
1426792158.113,48.198174
1426792158.128,43.633484
1426792158.144,36.13028
1426792158.16,27.256912
1426792158.175,18.850014
1426792158.191,12.147499
1426792158.207,7.292549
1426792158.222,3.3781128
1426792158.238,-0.9193497
1426792158.253,-6.551262
1426792158.269,-13.438652
1426792158.285,-20.503601
1426792158.3,-26.225769
1426792158.316,-29.50827
1426792158.332,-30.234512
1426792158.347,-29.36345
1426792158.363,-28.330505
1426792158.378,-28.25319
1426792158.394,-29.266495
1426792158.41,-30.578262
1426792158.425,-30.989204
1426792158.441,-29.761375
1426792158.457,-27.15522
1426792158.472,-24.323845
1426792158.488,-22.664513
1426792158.503,-22.939796
1426792158.519,-24.7473
1426792158.535,-26.71521
1426792158.55,-27.221138
1426792158.566,-25.44218
1426792158.582,-21.794594
1426792158.597,-17.756504
1426792158.613,-14.988358
1426792158.628,-14.426811
1426792158.644,-15.731045
1426792158.66,-17.501945
1426792158.675,-18.096992
1426792158.691,-16.588116
1426792158.707,-13.2480545
1426792158.722,-9.292347
1426792158.738,-6.164955
1426792158.753,-4.687847
1426792158.769,-4.5302505
1426792158.785,-4.52277
1426792158.8,-3.3280487
1426792158.816,-0.32380676
1426792158.832,4.0575886
1426792158.847,8.586647
1426792158.863,11.971123
1426792158.878,13.591734
1426792158.894,14.0007515
1426792158.91,14.529415
1426792158.925,16.567497
1426792158.941,20.674395
1426792158.957,26.220411
1426792158.972,31.761139
1426792158.988,35.784637
1426792159.003,37.677437
1426792159.019,38.055676
1426792159.035,38.40539
1426792159.05,40.20428
1426792159.066,43.93604
1426792159.082,48.755272
1426792159.097,52.856834
1426792159.113,54.39366
1426792159.128,52.39794
1426792159.144,47.266037
1426792159.16,40.387123
1426792159.175,33.41488
1426792159.191,27.327055
1426792159.207,22.104885
1426792159.222,16.92693
1426792159.238,10.896474
1426792159.253,3.6914358
1426792159.269,-4.061781
1426792159.285,-11.104386
1426792159.3,-16.217285
1426792159.316,-18.952166
1426792159.332,-19.829996
1426792159.347,-20.054827
1426792159.363,-20.797039
1426792159.378,-22.525322
1426792159.394,-24.687866
1426792159.41,-26.14015
1426792159.425,-25.807688
1426792159.441,-23.468384
1426792159.457,-19.961277
1426792159.472,-16.769121
1426792159.488,-15.280983
1426792159.503,-16.004976
1426792159.519,-18.257046
1426792159.535,-20.581226
1426792159.55,-21.538883
1426792159.566,-20.524492
1426792159.582,-18.03919
1426792159.597,-15.375504
1426792159.613,-13.82156
1426792159.628,-13.941896
1426792159.644,-15.201448
1426792159.66,-16.307444
1426792159.675,-15.937948
1426792159.691,-13.561726
1426792159.707,-9.680668
1426792159.722,-5.5978546
1426792159.738,-2.6815262
1426792159.753,-1.5906677
1426792159.769,-1.8879395
1426792159.785,-2.3728714
1426792159.8,-1.7397537
1426792159.816,0.58151245
1426792159.832,4.139969
1426792159.847,7.714802
1426792159.863,10.032436
1426792159.878,10.551476
1426792159.894,9.811108
1426792159.91,9.093243
1426792159.925,9.699951
1426792159.941,12.119015
1426792159.957,15.760494
1426792159.972,19.307396
1426792159.988,21.492332
1426792160.003,21.937153
1426792160.019,21.451736
1426792160.035,21.594753
1426792160.05,23.80511
1426792160.066,28.419312
1426792160.082,34.471592
1426792160.097,39.992012
1426792160.113,43.021126
1426792160.128,42.539272
1426792160.144,38.935066
1426792160.16,33.646538
1426792160.175,28.336567
1426792160.191,23.937225
1426792160.207,20.279568
1426792160.222,16.345917
1426792160.238,11.064396
1426792160.253,4.1812477
1426792160.269,-3.4866486
1426792160.285,-10.374611
1426792160.3,-15.047253
1426792160.316,-17.032318
1426792160.332,-17.01756
1426792160.347,-16.438477
1426792160.363,-16.631325
1426792160.378,-18.033806
1426792160.394,-19.963455
1426792160.41,-21.187553
1426792160.425,-20.671387
1426792160.441,-18.352875
1426792160.457,-15.194145
1426792160.472,-12.676247
1426792160.488,-11.945671
1426792160.504,-13.185448
1426792160.519,-15.484756
1426792160.535,-17.383026
1426792160.55,-17.703316
1426792160.566,-16.230751
1426792160.582,-13.783165
1426792160.597,-11.724014
1426792160.613,-11.137184
1426792160.628,-12.2055435
1426792160.644,-13.998802
1426792160.66,-15.066383
1426792160.675,-14.241257
1426792160.691,-11.345558
1426792160.707,-7.27726
1426792160.722,-3.526123
1426792160.738,-1.2752914
1426792160.754,-0.71429443
1426792160.769,-0.9508667
1426792160.785,-0.53868103
1426792160.8,1.6213531
1426792160.816,5.5944977
1426792160.832,10.395332
1426792160.847,14.531143
1426792160.863,16.860718
1426792160.879,17.249313
1426792160.894,16.650764
1426792160.91,16.478569
1426792160.925,17.77697
1426792160.941,20.57463
1426792160.957,23.985825
1426792160.972,26.718369
1426792160.988,27.969597
1426792161.004,27.931755
1426792161.019,27.724686
1426792161.035,28.67212
1426792161.05,31.423271
1426792161.066,35.40957
1426792161.082,39.050636
1426792161.097,40.47409
