1430943598.729,0.0
1430943598.745,0.0
1430943598.76,0.0
1430943598.776,0.0
1430943598.792,0.0
1430943598.807,0.0
1430943598.823,0.0
1430943598.838,0.0
1430943598.854,0.0
1430943598.87,0.0022315353
1430943598.885,-0.0045169927
1430943598.901,-0.011265522
1430943598.917,-0.011383951
1430943598.932,0.0011864507
1430943598.948,0.025910312
1430943598.963,0.050634187
1430943598.979,0.051362894
1430943598.995,-0.0014929791
1430943599.01,-0.1302426
1430943599.026,-0.35562757
1430943599.042,-0.6591247
1430943599.057,-1.0095103
1430943599.073,-1.3709826
1430943599.088,-1.7197359
1430943599.104,-2.0551105
1430943599.12,-2.39945
1430943599.135,-2.7866635
1430943599.151,-3.2399073
1430943599.167,-3.796012
1430943599.182,-4.418684
1430943599.198,-5.0592937
1430943599.213,-5.6644096
1430943599.229,-6.2021537
1430943599.245,-6.6808796
1430943599.26,-7.149598
1430943599.276,-7.6782336
1430943599.292,-8.310739
1430943599.307,-9.143657
1430943599.323,-10.089731
1430943599.338,-11.041313
1430943599.354,-11.8842125
1430943599.37,-12.564316
1430943599.385,-13.13563
1430943599.401,-13.760044
1430943599.417,-14.65232
1430943599.432,-15.962056
1430943599.448,-17.914442
1430943599.463,-20.317299
1430943599.479,-22.903854
1430943599.495,-25.37947
1430943599.51,-27.578028
1430943599.526,-29.57246
1430943599.542,-31.675173
1430943599.557,-34.3178
1430943599.573,-37.813614
1430943599.588,-42.541218
1430943599.604,-48.14627
1430943599.62,-54.104717
1430943599.635,-59.833252
1430943599.651,-64.972984
1430943599.667,-69.584206
1430943599.682,-74.145256
1430943599.698,-79.346275
1430943599.713,-85.70679
1430943599.729,-93.758995
1430943599.745,-102.99373
1430943599.76,-112.61654
1430943599.776,-121.73803
1430943599.792,-129.78586
1430943599.807,-136.77934
1430943599.823,-143.32616
1430943599.838,-150.73996
1430943599.854,-157.71162
1430943599.87,-166.505
1430943599.885,-177.72702
1430943599.901,-191.4979
1430943599.917,-206.62627
1430943599.932,-220.20125
1430943599.948,-227.87584
1430943599.963,-224.9856
1430943599.979,-208.13518
1430943599.995,-176.42848
1430943600.01,-132.255
1430943600.026,-79.47084
1430943600.042,-22.430786
1430943600.057,35.61429
1430943600.073,93.11383
1430943600.088,149.83136
1430943600.104,205.92163
1430943600.12,261.13443
1430943600.135,314.64178
1430943600.151,364.96008
1430943600.167,411.1144
1430943600.182,452.34042
1430943600.198,488.0061
1430943600.213,517.2361
1430943600.229,538.69336
1430943600.245,550.71423
1430943600.26,551.62476
1430943600.276,540.37695
1430943600.292,516.7029
1430943600.307,481.6977
1430943600.323,437.33975
1430943600.338,386.16382
1430943600.354,330.8013
1430943600.37,273.6113
1430943600.385,216.49033
1430943600.401,160.86908
1430943600.417,107.85773
1430943600.432,58.249725
1430943600.448,12.834991
1430943600.463,-27.75467
1430943600.479,-63.042572
1430943600.495,-92.76169
1430943600.51,-116.88278
1430943600.526,-135.62071
1430943600.542,-149.40512
1430943600.557,-158.81299
1430943600.573,-164.5611
1430943600.588,-167.32408
1430943600.604,-167.71217
1430943600.62,-166.21135
1430943600.635,-163.13785
1430943600.651,-158.68675
1430943600.667,-152.99542
1430943600.682,-146.18489
1430943600.698,-138.30502
1430943600.713,-129.33888
1430943600.729,-119.26719
1430943600.745,-108.357414
1430943600.76,-97.395164
1430943600.776,-87.754295
1430943600.792,-81.04872
1430943600.807,-78.47865
1430943600.823,-80.20906
1430943600.838,-85.11533
1430943600.854,-91.13925
1430943600.87,-96.07152
1430943600.885,-98.38023
1430943600.901,-97.58228
1430943600.917,-94.06372
1430943600.932,-88.575134
1430943600.948,-81.78244
1430943600.963,-74.15543
1430943600.979,-66.08836
1430943600.995,-58.239975
1430943601.01,-51.248016
1430943601.026,-45.68788
1430943601.042,-41.79905
1430943601.057,-39.369644
1430943601.073,-37.84072
1430943601.088,-36.581963
1430943601.104,-35.0805
1430943601.12,-33.0812
1430943601.135,-30.551598
1430943601.151,-27.559917
1430943601.167,-24.255684
1430943601.182,-20.796013
1430943601.198,-17.31387
1430943601.213,-13.908516
1430943601.229,-10.644733
1430943601.245,-7.61298
1430943601.26,-4.944832
1430943601.276,-2.880764
1430943601.292,-1.6523781
1430943601.307,-1.4043999
1430943601.323,-2.0496368
1430943601.338,-3.2779083
1430943601.354,-4.622463
1430943601.37,-5.635277
1430943601.385,-6.0470276
1430943601.401,-5.797146
1430943601.417,-5.019394
1430943601.432,-3.9283714
1430943601.448,-2.7375603
1430943601.464,-1.60923
1430943601.479,-0.5963783
1430943601.495,0.33797073
1430943601.51,1.3000565
1430943601.526,2.4213448
1430943601.542,3.7669373
1430943601.557,5.2457924
1430943601.573,6.6401787
1430943601.589,7.62059
1430943601.604,7.9057274
1430943601.62,7.395809
1430943601.635,6.168869
1430943601.651,4.4937325
1430943601.667,2.688858
1430943601.682,1.0365181
1430943601.698,-0.26973724
1430943601.714,-1.1222878
1430943601.729,-1.4852142
1430943601.745,-1.3656425
1430943601.76,-0.8478775
1430943601.776,-0.05555725
1430943601.792,0.86852264
1430943601.807,1.8091621
1430943601.823,2.6954956
1430943601.839,3.4849586
1430943601.854,4.1551933
1430943601.87,4.6609535
1430943601.885,4.94532
1430943601.901,4.9973526
1430943601.917,4.836178
1430943601.932,4.5044403
1430943601.948,3.9827614
1430943601.964,3.184246
1430943601.979,1.9797287
1430943601.995,0.3207512
1430943602.01,-1.6624413
1430943602.026,-3.6453896
1430943602.042,-5.2230034
1430943602.057,-6.133419
1430943602.073,-6.3929214
1430943602.089,-6.302006
1430943602.104,-6.248192
1430943602.12,-6.371628
1430943602.135,-6.457531
1430943602.151,-5.981251
1430943602.167,-4.4217396
1430943602.182,-1.599844
1430943602.198,2.1222134
1430943602.214,5.954317
1430943602.229,8.9590225
1430943602.245,10.459692
1430943602.26,10.249313
1430943602.276,8.617825
1430943602.292,6.155443
1430943602.307,3.573059
1430943602.323,1.4214363
1430943602.339,0.051963806
1430943602.354,-0.42745018
1430943602.37,-0.10734558
1430943602.385,0.7389889
1430943602.401,1.806181
1430943602.417,2.7842903
1430943602.432,3.4637184
1430943602.448,3.7351265
1430943602.464,3.5751266
1430943602.479,2.9897633
1430943602.495,2.0368538
1430943602.51,0.85230446
1430943602.526,-0.30288887
1430943602.542,-1.0617332
1430943602.557,-1.0658894
1430943602.573,-0.1422329
1430943602.589,1.6326027
1430943602.604,3.8195648
1430943602.62,5.8024063
1430943602.635,6.9301643
1430943602.651,6.7621384
1430943602.667,5.2186337
1430943602.682,2.6470242
1430943602.698,-0.3167019
1430943602.714,-2.957821
1430943602.729,-4.738098
1430943602.745,-5.4739227
1430943602.76,-5.334381
1430943602.776,-4.6882286
1430943602.792,-3.9363403
1430943602.807,-3.3158588
1430943602.823,-2.897686
1430943602.839,-2.5881863
1430943602.854,-2.268856
1430943602.87,-1.7924213
1430943602.885,-1.0848675
1430943602.901,-0.09157753
1430943602.917,1.14114
1430943602.932,2.4814987
1430943602.948,3.6716576
1430943602.964,4.4619503
1430943602.979,4.7134438
1430943602.995,4.5050716
1430943603.01,4.090561
1430943603.026,3.778492
1430943603.042,3.7062855
1430943603.057,3.7765503
1430943603.073,3.7183838
1430943603.089,3.3039608
1430943603.104,2.4775524
1430943603.12,1.4572754
1430943603.135,0.57735634
1430943603.151,0.12242317
1430943603.167,0.118486404
1430943603.182,0.36966133
1430943603.198,0.52918816
1430943603.214,0.33231926
1430943603.229,-0.28260422
1430943603.245,-1.1325073
1430943603.26,-1.9411793
1430943603.276,-2.4929695
1430943603.292,-2.7683163
1430943603.307,-2.9267864
1430943603.323,-3.256878
1430943603.339,-4.0184383
1430943603.354,-5.417206
1430943603.37,-7.5303497
1430943603.385,-10.329918
1430943603.401,-13.658249
1430943603.417,-17.236319
1430943603.432,-20.651167
1430943603.448,-23.487885
1430943603.464,-25.317736
1430943603.479,-25.861439
1430943603.495,-25.027525
1430943603.51,-22.942833
1430943603.526,-19.877296
1430943603.542,-16.234596
1430943603.557,-12.4108095
1430943603.573,-8.593162
1430943603.589,-4.8812103
1430943603.604,-1.2953959
1430943603.62,2.1640806
1430943603.635,5.444009
1430943603.651,8.398727
1430943603.667,10.828182
1430943603.682,12.5816555
1430943603.698,13.6046915
1430943603.714,14.0079975
1430943603.729,13.961914
1430943603.745,13.657916
1430943603.76,13.199928
1430943603.776,12.628143
1430943603.792,11.925993
1430943603.807,11.138553
1430943603.823,10.336267
1430943603.839,9.649658
1430943603.854,9.187583
1430943603.87,8.9923
1430943603.885,8.998001
1430943603.901,9.11482
1430943603.917,9.237811
1430943603.932,9.3227
1430943603.948,9.342899
1430943603.964,9.328157
1430943603.979,9.253171
1430943603.995,9.068336
1430943604.01,8.684246
1430943604.026,8.068125
1430943604.042,7.2576466
1430943604.057,6.4189005
1430943604.073,5.747764
1430943604.089,5.40243
1430943604.104,5.353452
1430943604.12,5.349555
1430943604.136,4.97774
1430943604.151,3.8319597
1430943604.167,1.6693151
1430943604.182,-1.443743
1430943604.198,-5.1844354
1430943604.214,-9.046095
1430943604.229,-12.551165
1430943604.245,-15.2716465
1430943604.261,-16.928051
1430943604.276,-17.334324
1430943604.292,-16.407333
1430943604.307,-14.261276
1430943604.323,-11.237833
1430943604.339,-7.8717923
1430943604.354,-4.7707553
1430943604.37,-2.4133806
1430943604.386,-1.0189109
1430943604.401,-0.48878908
1430943604.417,-0.55917263
1430943604.432,-0.9294367
1430943604.448,-1.464602
1430943604.464,-2.1369467
1430943604.479,-2.9718752
1430943604.495,-3.9053965
1430943604.511,-4.7966566
1430943604.526,-5.460967
1430943604.542,-5.7682323
1430943604.557,-5.7984886
1430943604.573,-5.6027546
1430943604.589,-5.2292233
1430943604.604,-4.693918
1430943604.62,-3.9145021
1430943604.636,-2.7448368
1430943604.651,-1.0588036
1430943604.667,1.1271935
1430943604.682,3.6284494
1430943604.698,6.1025457
1430943604.714,8.213725
1430943604.729,9.704722
1430943604.745,10.560901
1430943604.761,10.973154
1430943604.776,11.263512
1430943604.792,11.729092
1430943604.807,12.462563
1430943604.823,13.218105
1430943604.839,13.434223
1430943604.854,12.366032
1430943604.87,9.345621
1430943604.886,4.0770054
1430943604.901,-3.154665
1430943604.917,-11.4994755
1430943604.932,-19.779789
1430943604.948,-26.864376
1430943604.964,-31.991505
1430943604.979,-34.973938
1430943604.995,-36.12094
1430943605.011,-36.077778
1430943605.026,-35.527542
1430943605.042,-35.041004
1430943605.057,-34.95869
1430943605.073,-35.43148
1430943605.089,-36.435448
1430943605.104,-37.81974
1430943605.12,-39.298775
1430943605.136,-40.494957
1430943605.151,-40.992363
1430943605.167,-40.41625
1430943605.182,-38.510067
1430943605.198,-35.18493
1430943605.214,-30.504528
1430943605.229,-24.692345
1430943605.245,-18.06781
1430943605.261,-11.084358
1430943605.276,-4.2535095
1430943605.292,1.8585815
1430943605.307,6.7369843
1430943605.323,10.006836
1430943605.339,11.52269
1430943605.354,11.336533
1430943605.37,9.662041
1430943605.386,6.769905
1430943605.401,2.9561462
1430943605.417,-1.4839096
1430943605.432,-6.3118744
1430943605.448,-11.512573
1430943605.464,-17.47573
1430943605.479,-25.101486
1430943605.495,-35.553604
1430943605.511,-49.686752
1430943605.526,-67.390564
1430943605.542,-87.29956
1430943605.557,-107.09465
1430943605.573,-124.425
1430943605.589,-137.92632
1430943605.604,-147.77864
1430943605.62,-155.37338
1430943605.636,-162.36946
1430943605.651,-169.55417
1430943605.667,-176.33864
1430943605.682,-181.07832
1430943605.698,-182.00449
1430943605.714,-178.10236
1430943605.729,-169.43161
1430943605.745,-156.79425
1430943605.761,-141.1561
1430943605.776,-123.29715
1430943605.792,-104.046844
1430943605.807,-84.584564
1430943605.823,-66.47183
1430943605.839,-51.057312
1430943605.854,-38.512787
1430943605.87,-27.076569
1430943605.886,-13.279175
1430943605.901,6.817383
1430943605.917,35.6922
1430943605.932,72.91458
1430943605.948,114.87656
1430943605.964,155.92313
1430943605.979,190.2992
1430943605.995,213.89453
1430943606.011,225.10455
1430943606.026,224.57153
1430943606.042,214.20609
1430943606.057,196.27002
1430943606.073,172.90802
1430943606.089,146.24835
1430943606.104,118.62671
1430943606.12,92.57977
1430943606.136,70.31439
1430943606.151,53.041504
1430943606.167,40.4859
1430943606.182,30.948608
1430943606.198,22.012024
1430943606.214,11.589966
1430943606.229,-1.1240234
1430943606.245,-15.38031
1430943606.261,-29.078125
1430943606.276,-39.56952
1430943606.292,-44.699707
1430943606.307,-43.489136
1430943606.323,-36.314148
1430943606.339,-24.627441
1430943606.354,-10.418945
1430943606.37,4.3410645
1430943606.386,18.128723
1430943606.401,30.10138
1430943606.417,40.114807
1430943606.432,48.48108
1430943606.448,55.66461
1430943606.464,61.894104
1430943606.479,66.9754
1430943606.495,70.31073
1430943606.511,71.18451
1430943606.526,69.17346
1430943606.542,64.42157
1430943606.557,57.68683
1430943606.573,50.04303
1430943606.589,42.44995
1430943606.604,35.42328
1430943606.62,28.934265
1430943606.636,22.575378
1430943606.651,15.817261
1430943606.667,8.195068
1430943606.682,-0.68096924
1430943606.698,-11.14801
1430943606.714,-23.59607
1430943606.729,-38.281067
1430943606.745,-55.249634
1430943606.761,-73.97424
1430943606.776,-93.18701
1430943606.792,-111.00665
1430943606.808,-125.43799
1430943606.823,-135.16742
1430943606.839,-140.19208
1430943606.854,-141.9909
1430943606.87,-142.93677
1430943606.886,-145.29218
1430943606.901,-150.16284
1430943606.917,-157.02637
1430943606.932,-164.11304
1430943606.948,-169.38586
1430943606.964,-171.64465
1430943606.979,-171.08044
1430943606.995,-169.02222
1430943607.011,-167.05078
1430943607.026,-166.03271
1430943607.042,-165.54004
1430943607.058,-163.97815
1430943607.073,-159.24048
1430943607.089,-149.54736
1430943607.104,-134.08069
1430943607.12,-113.18213
1430943607.136,-88.08667
1430943607.151,-60.42285
1430943607.167,-31.732422
1430943607.183,-3.2789307
1430943607.198,23.856567
1430943607.214,48.57422
1430943607.229,69.70325
1430943607.245,86.242065
1430943607.261,97.82532
1430943607.276,105.042725
1430943607.292,109.33667
1430943607.308,112.49231
1430943607.323,115.81116
1430943607.339,119.57019
1430943607.354,123.05493
1430943607.37,125.109375
1430943607.386,124.92395
1430943607.401,122.40662
1430943607.417,117.98804
1430943607.433,111.98181
1430943607.448,104.127075
1430943607.464,93.60852
1430943607.479,79.61865
1430943607.495,62.044556
1430943607.511,41.80957
1430943607.526,20.572998
1430943607.542,0.056762695
1430943607.558,-18.607788
1430943607.573,-35.103394
1430943607.589,-49.594727
1430943607.604,-62.11963
1430943607.62,-72.168335
1430943607.636,-78.607666
1430943607.651,-80.09265
1430943607.667,-75.73633
1430943607.683,-65.62781
1430943607.698,-51.07019
1430943607.714,-34.25415
1430943607.729,-17.63916
1430943607.745,-3.0842285
1430943607.761,8.871338
1430943607.776,19.263306
1430943607.792,30.210938
1430943607.808,43.89331
1430943607.823,61.405273
1430943607.839,82.13721
1430943607.854,103.96948
1430943607.87,124.26807
1430943607.886,141.06519
1430943607.901,153.8728
1430943607.917,163.65869
1430943607.933,172.09839
1430943607.948,180.60913
1430943607.964,189.58154
1430943607.979,198.38867
1430943607.995,205.87866
1430943608.011,211.07031
1430943608.026,213.64551
1430943608.042,213.99268
1430943608.058,212.93066
1430943608.073,211.26733
1430943608.089,209.58179
1430943608.104,208.10474
1430943608.12,206.84619
1430943608.136,205.61963
1430943608.151,204.19067
1430943608.167,202.18848
1430943608.183,199.10327
1430943608.198,194.27686
1430943608.214,187.00073
1430943608.229,176.80908
1430943608.245,163.78638
1430943608.261,148.79688
1430943608.276,133.41382
1430943608.292,119.676025
1430943608.308,109.5874
1430943608.323,104.693115
1430943608.339,105.85962
1430943608.354,113.15674
1430943608.37,126.04736
1430943608.386,143.38257
1430943608.401,163.44409
1430943608.417,183.81104
1430943608.433,201.55469
1430943608.448,213.57666
1430943608.464,217.25903
1430943608.479,211.18579
1430943608.495,195.45508
1430943608.511,171.65833
1430943608.526,142.32703
1430943608.542,110.27307
1430943608.558,78.06726
1430943608.573,47.923706
1430943608.589,21.741943
1430943608.604,1.1885986
1430943608.62,-12.424194
1430943608.636,-18.505127
1430943608.651,-17.466553
1430943608.667,-10.821289
1430943608.683,-0.7474365
1430943608.698,10.490112
1430943608.714,21.159424
1430943608.729,30.384155
1430943608.745,38.10547
1430943608.761,44.583008
1430943608.776,49.84729
1430943608.792,53.330444
1430943608.808,53.99878
1430943608.823,50.79712
1430943608.839,43.186035
1430943608.854,31.508911
1430943608.87,16.850464
1430943608.886,0.49731445
1430943608.901,-16.586304
1430943608.917,-34.13867
1430943608.933,-52.381348
1430943608.948,-71.50073
1430943608.964,-91.24939
1430943608.979,-110.88037
1430943608.995,-129.5188
1430943609.011,-146.62988
1430943609.026,-162.10388
1430943609.042,-175.95581
1430943609.058,-187.90686
1430943609.073,-197.05688
1430943609.089,-202.13354
1430943609.104,-202.19006
1430943609.12,-197.27014
1430943609.136,-188.76074
1430943609.151,-179.06982
1430943609.167,-170.67944
1430943609.183,-165.07239
1430943609.198,-162.03308
1430943609.214,-159.73279
1430943609.229,-155.61047
1430943609.245,-147.50317
1430943609.261,-134.58997
1430943609.276,-117.60254
1430943609.292,-98.370605
1430943609.308,-78.87268
1430943609.323,-60.47351
1430943609.339,-43.66382
1430943609.354,-28.235596
1430943609.37,-13.81897
1430943609.386,-0.3408203
1430943609.401,11.991211
1430943609.417,22.86621
1430943609.433,32.196533
1430943609.448,40.24817
1430943609.464,47.527588
1430943609.479,54.586426
1430943609.495,61.756714
1430943609.511,69.008606
1430943609.526,75.93634
1430943609.542,81.996704
1430943609.558,86.801575
1430943609.573,90.39014
1430943609.589,93.34009
1430943609.604,96.46179
1430943609.62,100.312805
1430943609.636,104.66266
1430943609.651,108.31671
1430943609.667,109.4613
1430943609.683,106.393616
1430943609.698,98.25513
1430943609.714,85.46356
1430943609.73,69.487976
1430943609.745,52.33728
1430943609.761,35.772644
1430943609.776,20.837097
1430943609.792,7.8200684
1430943609.808,-3.4699707
1430943609.823,-13.322449
1430943609.839,-21.830933
1430943609.855,-28.876099
1430943609.87,-34.276855
1430943609.886,-37.939087
1430943609.901,-39.938293
1430943609.917,-40.50482
1430943609.933,-39.959045
1430943609.948,-38.68219
1430943609.964,-37.11206
1430943609.98,-35.769592
1430943609.995,-35.14453
1430943610.011,-35.570618
1430943610.026,-37.02838
1430943610.042,-39.08252
1430943610.058,-40.96344
1430943610.073,-41.88147
1430943610.089,-41.29065
1430943610.105,-39.15027
1430943610.12,-35.875122
1430943610.136,-32.17914
1430943610.151,-28.756775
1430943610.167,-26.085938
1430943610.183,-24.286926
1430943610.198,-23.168427
1430943610.214,-22.268158
1430943610.23,-20.996246
1430943610.245,-18.733093
1430943610.261,-15.133392
1430943610.276,-10.366577
1430943610.292,-5.354767
1430943610.308,-1.6862183
1430943610.323,-1.2302551
1430943610.339,-5.546173
1430943610.355,-15.277039
1430943610.37,-29.964508
1430943610.386,-48.220734
1430943610.401,-68.29407
1430943610.417,-88.59216
1430943610.433,-107.95604
1430943610.448,-125.61742
1430943610.464,-140.89938
1430943610.48,-152.9692
1430943610.495,-160.8204
1430943610.511,-163.4888
1430943610.526,-160.40384
1430943610.542,-151.68814
1430943610.558,-138.16927
1430943610.573,-121.20436
1430943610.589,-102.39961
1430943610.605,-83.36597
1430943610.62,-65.580536
1430943610.636,-50.204483
1430943610.651,-37.836914
1430943610.667,-28.236511
1430943610.683,-20.187302
1430943610.698,-11.775803
1430943610.714,-1.0939789
1430943610.73,12.89064
1430943610.745,29.767883
1430943610.761,47.735855
1430943610.776,64.40111
1430943610.792,77.81087
1430943610.808,87.25322
1430943610.823,93.30142
1430943610.839,97.20268
1430943610.855,100.00978
1430943610.87,102.06004
1430943610.886,103.08653
1430943610.901,102.71971
1430943610.917,101.05475
1430943610.933,98.78351
1430943610.948,96.99556
1430943610.964,96.66083
1430943610.98,98.2657
1430943610.995,101.61
1430943611.011,105.81685
1430943611.026,109.48302
1430943611.042,110.87613
1430943611.058,108.25881
1430943611.073,100.34226
1430943611.089,86.74687
1430943611.105,68.302216
1430943611.12,46.898937
1430943611.136,25.021446
1430943611.151,4.978388
1430943611.167,-11.682665
1430943611.183,-24.442116
1430943611.198,-33.61148
1430943611.214,-39.887596
1430943611.23,-43.900314
1430943611.245,-46.047623
1430943611.261,-46.53293
1430943611.276,-45.568356
1430943611.292,-43.57613
1430943611.308,-41.148445
1430943611.323,-38.933266
1430943611.339,-37.349716
1430943611.355,-36.49495
1430943611.37,-36.128036
1430943611.386,-35.88408
1430943611.401,-35.50373
1430943611.417,-34.98671
1430943611.433,-34.569305
1430943611.448,-34.536407
1430943611.464,-34.986313
1430943611.48,-35.72928
1430943611.495,-36.285614
1430943611.511,-36.110626
1430943611.526,-34.78592
1430943611.542,-32.174698
1430943611.558,-28.392258
1430943611.573,-23.765594
1430943611.589,-18.715408
1430943611.605,-13.680649
1430943611.62,-9.05777
1430943611.636,-5.073395
1430943611.651,-1.6593933
1430943611.667,1.5948792
1430943611.683,5.3126526
1430943611.698,10.035706
1430943611.714,15.824371
1430943611.73,21.944214
1430943611.745,26.894012
1430943611.761,28.836182
1430943611.776,26.290527
1430943611.792,18.763
1430943611.808,7.013336
1430943611.823,-7.15625
1430943611.839,-21.531769
1430943611.855,-34.196808
1430943611.87,-44.052032
1430943611.886,-50.860504
1430943611.901,-55.00177
1430943611.917,-57.05612
1430943611.933,-57.512604
1430943611.948,-56.664368
1430943611.964,-54.711273
1430943611.98,-51.912598
1430943611.995,-48.65567
1430943612.011,-45.422943
1430943612.026,-42.636963
1430943612.042,-40.527557
1430943612.058,-39.080383
1430943612.073,-38.08725
1430943612.089,-37.276276
1430943612.105,-36.422455
1430943612.12,-35.435577
1430943612.136,-34.36853
1430943612.151,-33.353516
1430943612.167,-32.54431
1430943612.183,-32.009766
1430943612.198,-31.692505
1430943612.214,-31.360596
1430943612.23,-30.699219
1430943612.245,-29.398682
1430943612.261,-27.260681
1430943612.276,-24.30957
1430943612.292,-20.76062
1430943612.308,-16.947815
1430943612.323,-13.178528
1430943612.339,-9.609253
1430943612.355,-6.163513
1430943612.37,-2.6436157
1430943612.386,1.2404175
1430943612.402,5.6898193
1430943612.417,10.805054
1430943612.433,16.569946
1430943612.448,22.896484
1430943612.464,29.526062
1430943612.48,35.960083
1430943612.495,41.350464
1430943612.511,44.54254
1430943612.527,44.348694
1430943612.542,39.95166
1430943612.558,31.247498
1430943612.573,19.043518
1430943612.589,4.874878
1430943612.605,-9.386597
1430943612.62,-22.061035
1430943612.636,-32.06555
1430943612.652,-39.050842
1430943612.667,-43.263
1430943612.683,-45.251404
1430943612.698,-45.581055
1430943612.714,-44.63214
1430943612.73,-42.623657
1430943612.745,-39.70056
1430943612.761,-36.056396
1430943612.777,-32.027954
1430943612.792,-28.098816
1430943612.808,-24.775452
1430943612.823,-22.452759
1430943612.839,-21.262085
1430943612.855,-21.022705
1430943612.87,-21.317505
1430943612.886,-21.602966
1430943612.902,-21.38739
1430943612.917,-20.31543
1430943612.933,-18.24115
1430943612.948,-15.188049
1430943612.964,-11.377686
1430943612.98,-7.215454
1430943612.995,-3.3116455
1430943613.011,-0.3942871
1430943613.027,0.8538208
1430943613.042,0.090148926
1430943613.058,-2.5147095
1430943613.073,-6.27771
1430943613.089,-10.305481
1430943613.105,-13.8307495
1430943613.12,-16.517395
1430943613.136,-18.452332
1430943613.152,-19.96283
1430943613.167,-21.269043
1430943613.183,-22.284851
1430943613.198,-22.647217
1430943613.214,-21.824646
1430943613.23,-19.447266
1430943613.245,-15.46405
1430943613.261,-10.2752075
1430943613.277,-4.69989
1430943613.292,0.11621094
1430943613.308,2.9597778
1430943613.323,2.8197021
1430943613.339,-0.7480469
1430943613.355,-7.450989
1430943613.37,-16.290283
1430943613.386,-25.885681
1430943613.402,-34.90863
1430943613.417,-42.3963
1430943613.433,-47.841614
1430943613.448,-51.088135
1430943613.464,-52.114685
1430943613.48,-50.940674
1430943613.495,-47.67389
1430943613.511,-42.619873
1430943613.527,-36.37549
1430943613.542,-29.760986
1430943613.558,-23.60022
1430943613.573,-18.458252
1430943613.589,-14.530334
1430943613.605,-11.603027
1430943613.62,-9.283386
1430943613.636,-7.2454224
1430943613.652,-5.4350586
1430943613.667,-4.057068
1430943613.683,-3.451233
1430943613.698,-3.8757324
1430943613.714,-5.260315
1430943613.73,-7.2599487
1430943613.745,-9.354919
1430943613.761,-11.108459
1430943613.777,-12.314941
1430943613.792,-13.050781
1430943613.808,-13.526062
1430943613.823,-13.928955
1430943613.839,-14.28717
1430943613.855,-14.458862
1430943613.87,-14.258606
1430943613.886,-13.547363
1430943613.902,-12.319397
1430943613.917,-10.6831665
1430943613.933,-8.7682495
1430943613.948,-6.642456
1430943613.964,-4.2860107
1430943613.98,-1.5881958
1430943613.995,1.6202393
1430943614.011,5.503357
1430943614.027,10.072937
1430943614.042,15.108337
1430943614.058,20.065063
1430943614.073,24.081177
1430943614.089,26.118042
1430943614.105,25.293335
1430943614.12,21.160767
1430943614.136,13.951111
1430943614.152,4.5859985
1430943614.167,-5.5448
1430943614.183,-14.938599
1430943614.198,-22.344849
1430943614.214,-26.998596
1430943614.23,-28.700378
1430943614.245,-27.680786
1430943614.261,-24.475586
1430943614.277,-19.776794
1430943614.292,-14.339233
1430943614.308,-8.896423
1430943614.323,-4.0768433
1430943614.339,-0.2859497
1430943614.355,2.3458252
1430943614.37,3.9265747
1430943614.386,4.7522583
1430943614.402,5.105835
1430943614.417,5.177246
1430943614.433,5.036255
1430943614.448,4.6499023
1430943614.464,3.960144
1430943614.48,2.9765625
1430943614.495,1.8341675
1430943614.511,0.78167725
1430943614.527,0.11999512
1430943614.542,0.034301758
1430943614.558,0.56121826
1430943614.573,1.5130615
1430943614.589,2.5691528
1430943614.605,3.4136963
1430943614.62,3.9074097
1430943614.636,4.1312866
1430943614.652,4.345886
1430943614.667,4.796753
1430943614.683,5.552185
1430943614.698,6.477356
1430943614.714,7.354248
1430943614.73,8.033752
1430943614.745,8.57489
1430943614.761,9.216919
1430943614.777,10.260925
1430943614.792,11.913391
1430943614.808,14.263977
1430943614.823,17.235046
1430943614.839,20.648987
1430943614.855,24.183167
1430943614.87,27.318848
1430943614.886,29.351685
1430943614.902,29.530212
1430943614.917,27.26178
1430943614.933,22.408325
1430943614.948,15.4123535
1430943614.964,7.1781006
1430943614.98,-1.2354736
1430943614.995,-8.954224
1430943615.011,-15.498169
1430943615.027,-20.749512
1430943615.042,-24.798828
1430943615.058,-27.721497
1430943615.074,-29.50238
1430943615.089,-30.09436
1430943615.105,-29.590576
1430943615.12,-28.32428
1430943615.136,-26.891602
1430943615.152,-25.953247
1430943615.167,-26.0083
1430943615.183,-27.233093
1430943615.199,-29.48413
1430943615.214,-32.425842
1430943615.23,-35.742615
1430943615.245,-39.28601
1430943615.261,-43.057556
1430943615.277,-47.10016
1430943615.292,-51.367493
1430943615.308,-55.568115
1430943615.324,-59.21161
1430943615.339,-61.753326
1430943615.355,-62.745087
1430943615.37,-61.927948
1430943615.386,-59.30133
1430943615.402,-55.03479
1430943615.417,-49.43091
1430943615.433,-42.83783
1430943615.449,-35.635498
1430943615.464,-28.15509
1430943615.48,-20.680084
1430943615.495,-13.38559
1430943615.511,-6.312622
1430943615.527,0.6126404
1430943615.542,7.53244
1430943615.558,14.563263
1430943615.574,21.6557
1430943615.589,28.511322
1430943615.605,34.600525
1430943615.62,39.31244
1430943615.636,42.118866
1430943615.652,42.81534
1430943615.667,41.605865
1430943615.683,39.08432
1430943615.699,36.049286
1430943615.714,33.29117
1430943615.73,31.355652
1430943615.745,30.488525
1430943615.761,30.690582
1430943615.777,31.845398
1430943615.792,33.77234
1430943615.808,36.249237
1430943615.824,38.947662
1430943615.839,41.41568
1430943615.855,43.121216
1430943615.87,43.609497
1430943615.886,42.64624
1430943615.902,40.354675
1430943615.917,37.155518
1430943615.933,33.618927
1430943615.949,30.220245
1430943615.964,27.171783
1430943615.98,24.366486
1430943615.995,21.527374
1430943616.011,18.434906
1430943616.027,15.159027
1430943616.042,12.078735
1430943616.058,9.727844
1430943616.074,8.462067
1430943616.089,8.198853
1430943616.105,8.261017
1430943616.12,7.5663147
1430943616.136,4.9105835
1430943616.152,-0.5605469
1430943616.167,-9.068024
1430943616.183,-20.004578
1430943616.199,-32.066437
1430943616.214,-43.46141
1430943616.23,-52.354614
1430943616.245,-57.259125
1430943616.261,-57.474167
1430943616.277,-53.311188
1430943616.292,-46.10234
1430943616.308,-37.89151
1430943616.324,-30.834839
1430943616.339,-26.525467
1430943616.355,-25.47261
1430943616.37,-26.969208
1430943616.386,-29.504776
1430943616.402,-31.490463
1430943616.417,-32.006668
1430943616.433,-31.162323
1430943616.449,-29.966812
1430943616.464,-29.648972
1430943616.48,-30.978516
1430943616.495,-33.877502
1430943616.511,-37.54315
1430943616.527,-41.005043
1430943616.542,-43.742325
1430943616.558,-45.99038
1430943616.574,-48.64669
1430943616.589,-52.81417
1430943616.605,-59.4086
1430943616.62,-68.80881
1430943616.636,-80.691475
1430943616.652,-93.76565
1430943616.667,-105.78804
1430943616.683,-113.859314
1430943616.699,-115.3482
1430943616.714,-108.979485
1430943616.73,-95.68565
1430943616.745,-78.42118
1430943616.761,-60.991302
1430943616.777,-46.348568
1430943616.792,-35.294502
1430943616.808,-26.340302
1430943616.824,-16.830008
1430943616.839,-4.613186
1430943616.855,10.704018
1430943616.87,27.683372
1430943616.886,43.903564
1430943616.902,57.34317
1430943616.917,67.21958
1430943616.933,74.03537
1430943616.949,78.75017
1430943616.964,81.96466
1430943616.98,83.36525
1430943616.995,81.81554
1430943617.011,75.92351
1430943617.027,64.757675
1430943617.042,48.352722
1430943617.058,27.850128
1430943617.074,5.1208344
1430943617.089,-17.757156
1430943617.105,-39.07187
1430943617.12,-57.8412
1430943617.136,-73.86406
1430943617.152,-87.48375
1430943617.167,-99.19151
1430943617.183,-109.26007
1430943617.199,-117.638245
1430943617.214,-124.06183
1430943617.23,-128.46991
1430943617.245,-131.27817
1430943617.261,-133.37912
1430943617.277,-135.76874
1430943617.292,-138.91095
1430943617.308,-142.2547
1430943617.324,-144.22598
1430943617.339,-142.79922
1430943617.355,-136.4118
1430943617.37,-124.54553
1430943617.386,-107.91
1430943617.402,-87.891205
1430943617.417,-65.86066
1430943617.433,-42.660217
1430943617.449,-18.598633
1430943617.464,6.116516
1430943617.48,30.948608
1430943617.495,54.845276
1430943617.511,76.43677
1430943617.527,94.48059
1430943617.542,108.177795
1430943617.558,117.31958
1430943617.574,122.15802
1430943617.589,123.2865
1430943617.605,121.58917
1430943617.62,118.21649
1430943617.636,114.53485
1430943617.652,111.91394
1430943617.667,111.37134
1430943617.683,113.270325
1430943617.699,117.22046
1430943617.714,122.17694
1430943617.73,126.727234
1430943617.746,129.43787
1430943617.761,129.17554
1430943617.777,125.299805
1430943617.792,117.79559
1430943617.808,107.284546
1430943617.824,94.838684
1430943617.839,81.73938
1430943617.855,69.19696
1430943617.87,58.14093
1430943617.886,49.1792
1430943617.902,42.82434
1430943617.917,39.6958
1430943617.933,40.546753
1430943617.949,46.00952
1430943617.964,56.025146
1430943617.98,69.40808
1430943617.996,83.757324
1430943618.011,95.95093
1430943618.027,103.034546
1430943618.042,103.1322
1430943618.058,96.01782
1430943618.074,83.03955
1430943618.089,66.6228
1430943618.105,49.427124
1430943618.121,33.638306
1430943618.136,20.56836
1430943618.152,10.682861
1430943618.167,3.8394775
1430943618.183,-0.34777832
1430943618.199,-2.2512207
1430943618.214,-2.2503662
1430943618.23,-0.8265381
1430943618.246,1.2860107
1430943618.261,3.1000977
1430943618.277,3.645752
1430943618.292,2.368042
1430943618.308,-0.4678955
1430943618.324,-3.8278809
1430943618.339,-6.3048096
1430943618.355,-6.8380127
1430943618.371,-5.3216553
1430943618.386,-2.77771
1430943618.402,-0.9232178
1430943618.417,-1.3383789
1430943618.433,-4.697632
1430943618.449,-10.419434
1430943618.464,-16.924194
1430943618.48,-22.39148
1430943618.496,-25.533691
1430943618.511,-26.055176
1430943618.527,-24.617554
1430943618.542,-22.431396
1430943618.558,-20.746094
1430943618.574,-20.623047
1430943618.589,-22.904297
1430943618.605,-28.203247
1430943618.621,-36.658325
1430943618.636,-47.37268
1430943618.652,-58.088745
1430943618.667,-65.44263
1430943618.683,-66.04138
1430943618.699,-57.855957
1430943618.714,-41.20056
1430943618.73,-18.595825
1430943618.746,6.553833
1430943618.761,31.625366
1430943618.777,55.843994
1430943618.792,80.04639
1430943618.808,105.405396
1430943618.824,131.9491
1430943618.839,157.86255
1430943618.855,180.09595
1430943618.871,195.8573
1430943618.886,204.07678
1430943618.902,205.94824
1430943618.917,204.34961
1430943618.933,202.32751
1430943618.949,201.65698
1430943618.964,202.07043
1430943618.98,201.49231
1430943618.996,197.0758
1430943619.011,186.50757
1430943619.027,168.96008
1430943619.042,145.31116
1430943619.058,117.62512
1430943619.074,88.27722
1430943619.089,59.277954
1430943619.105,32.131226
1430943619.121,8.140503
1430943619.136,-11.232178
1430943619.152,-24.601929
1430943619.167,-31.33191
1430943619.183,-32.318115
1430943619.199,-30.005615
1430943619.214,-27.447021
1430943619.23,-26.815186
1430943619.246,-28.377563
1430943619.261,-30.666138
1430943619.277,-31.842896
1430943619.292,-31.242554
1430943619.308,-30.055298
1430943619.324,-30.526245
1430943619.339,-34.267822
1430943619.355,-40.81543
1430943619.371,-47.54944
1430943619.386,-50.94763
1430943619.402,-48.476685
1430943619.417,-39.740356
1430943619.433,-26.464966
1430943619.449,-11.3967285
1430943619.464,2.9250488
1430943619.48,14.869873
1430943619.496,23.62915
1430943619.511,28.725464
1430943619.527,29.67395
1430943619.542,26.200562
1430943619.558,18.53064
1430943619.574,7.6411133
1430943619.589,-4.7840576
1430943619.605,-16.744019
1430943619.621,-26.39038
1430943619.636,-32.32483
1430943619.652,-33.827393
1430943619.667,-30.900146
1430943619.683,-24.166992
1430943619.699,-14.651123
1430943619.714,-3.4971924
1430943619.73,8.248901
1430943619.746,19.72107
1430943619.761,30.061401
1430943619.777,38.15857
1430943619.792,42.430176
1430943619.808,40.927002
1430943619.824,32.04138
1430943619.839,15.570923
1430943619.855,-6.458496
1430943619.871,-29.988892
1430943619.886,-50.280396
1430943619.902,-64.104614
1430943619.917,-71.41992
1430943619.933,-75.47839
1430943619.949,-80.926025
1430943619.964,-90.92694
1430943619.98,-105.17828
1430943619.996,-120.301025
1430943620.011,-132.51941
1430943620.027,-140.84772
1430943620.042,-148.328
1430943620.058,-160.25256
1430943620.074,-180.21356
1430943620.089,-206.69092
1430943620.105,-232.56396
1430943620.121,-248.04767
1430943620.136,-245.445
1430943620.152,-222.6651
1430943620.167,-183.53723
1430943620.183,-135.03064
1430943620.199,-83.47839
1430943620.214,-32.23462
1430943620.23,17.98706
1430943620.246,66.8822
1430943620.261,111.97473
1430943620.277,147.99622
1430943620.292,168.44177
1430943620.308,168.65356
1430943620.324,148.71936
1430943620.339,114.776855
1430943620.355,77.63257
1430943620.371,49.085083
1430943620.386,37.457886
1430943620.402,44.166748
1430943620.418,63.356567
1430943620.433,84.84949
1430943620.449,99.24451
1430943620.464,102.74048
1430943620.48,99.1134
1430943620.496,97.507324
1430943620.511,107.20044
1430943620.527,132.18323
1430943620.542,168.56091
1430943620.558,206.2616
1430943620.574,234.13684
1430943620.589,245.34229
1430943620.605,240.17224
1430943620.621,225.03503
1430943620.636,208.45203
1430943620.652,196.62549
1430943620.668,191.15002
1430943620.683,189.65466
1430943620.699,188.65424
1430943620.714,186.28986
1430943620.73,183.45496
1430943620.746,182.71619
1430943620.761,186.0346
1430943620.777,193.07233
1430943620.793,201.03882
1430943620.808,206.24518
1430943620.824,206.13434
1430943620.839,200.67047
1430943620.855,192.12097
1430943620.871,183.54382
1430943620.886,176.79486
1430943620.902,171.3675
1430943620.918,164.81738
1430943620.933,154.36816
1430943620.949,138.77527
1430943620.964,119.22565
1430943620.98,98.81067
1430943620.996,80.73114
1430943621.011,66.47528
1430943621.027,54.927917
1430943621.043,43.05963
1430943621.058,27.726013
1430943621.074,7.4677734
1430943621.089,-16.76123
1430943621.105,-42.09842
1430943621.121,-65.24109
1430943621.136,-83.8194
1430943621.152,-96.97232
1430943621.168,-105.016174
1430943621.183,-108.727844
1430943621.199,-108.74301
1430943621.214,-105.56546
1430943621.23,-99.94496
1430943621.246,-93.243454
1430943621.261,-87.38684
1430943621.277,-84.31055
1430943621.293,-85.14848
1430943621.308,-89.6369
1430943621.324,-96.14746
1430943621.339,-102.3436
1430943621.355,-106.166565
1430943621.371,-106.69305
1430943621.386,-104.39519
1430943621.402,-100.75557
1430943621.418,-97.4458
1430943621.433,-95.50578
1430943621.449,-94.895874
1430943621.464,-94.626526
1430943621.48,-93.29218
1430943621.496,-89.76263
1430943621.511,-83.66784
1430943621.527,-75.44446
1430943621.543,-66.07712
1430943621.558,-56.61479
1430943621.574,-47.74968
1430943621.589,-39.65683
1430943621.605,-32.09555
1430943621.621,-24.63771
1430943621.636,-16.93396
1430943621.652,-8.939362
1430943621.668,-1.0487671
1430943621.683,5.915283
1430943621.699,10.740082
1430943621.714,12.093384
1430943621.73,8.811005
1430943621.746,0.32669067
1430943621.761,-13.082977
1430943621.777,-30.20343
1430943621.793,-49.144928
1430943621.808,-67.77362
1430943621.824,-84.23108
1430943621.839,-97.31427
1430943621.855,-106.60361
1430943621.871,-112.3414
1430943621.886,-115.15256
1430943621.902,-115.74927
1430943621.918,-114.747314
1430943621.933,-112.63684
1430943621.949,-109.849365
1430943621.964,-106.826355
1430943621.98,-104.04669
1430943621.996,-101.891785
1430943622.011,-100.48871
1430943622.027,-99.60773
1430943622.043,-98.68793
1430943622.058,-97.01752
1430943622.074,-94.06183
1430943622.089,-89.68146
1430943622.105,-84.23767
1430943622.121,-78.44171
1430943622.136,-73.02997
1430943622.152,-68.442505
1430943622.168,-64.69672
1430943622.183,-61.338867
1430943622.199,-57.739502
1430943622.214,-53.331116
1430943622.23,-47.91333
1430943622.246,-41.649597
1430943622.261,-35.038208
1430943622.277,-28.567444
1430943622.293,-22.478333
1430943622.308,-16.6203
1430943622.324,-10.456482
1430943622.339,-3.289978
1430943622.355,5.5339355
1430943622.371,16.307007
1430943622.386,28.779358
1430943622.402,42.03253
1430943622.418,54.57617
1430943622.433,64.66504
1430943622.449,70.6698
1430943622.464,71.56543
1430943622.48,67.131775
1430943622.496,57.987915
1430943622.511,45.293884
1430943622.527,30.39972
1430943622.543,14.537231
1430943622.558,-1.3429565
1430943622.574,-16.606934
1430943622.589,-30.866394
1430943622.605,-43.859253
1430943622.621,-55.38794
1430943622.636,-65.19891
1430943622.652,-72.95087
1430943622.668,-78.2359
1430943622.683,-80.670654
1430943622.699,-80.05817
1430943622.714,-76.49231
1430943622.73,-70.41864
1430943622.746,-62.506348
1430943622.761,-53.547913
1430943622.777,-44.356506
1430943622.793,-35.674133
1430943622.808,-28.12677
1430943622.824,-22.070435
1430943622.839,-17.538086
1430943622.855,-14.155518
1430943622.871,-11.2543335
1430943622.886,-8.111572
1430943622.902,-4.2771606
1430943622.918,0.17779541
1430943622.933,4.6671753
1430943622.949,8.185303
1430943622.964,9.675964
1430943622.98,8.392761
1430943622.996,4.185425
1430943623.011,-2.371704
1430943623.027,-10.062134
1430943623.043,-17.269653
1430943623.058,-22.350464
1430943623.074,-23.977295
1430943623.089,-21.551392
1430943623.105,-15.360474
1430943623.121,-6.7021484
1430943623.136,2.364624
1430943623.152,9.465088
1430943623.168,12.509399
1430943623.183,10.303711
1430943623.199,2.8272705
1430943623.214,-8.768799
1430943623.23,-22.614258
1430943623.246,-36.65625
1430943623.261,-49.13611
1430943623.277,-58.86963
1430943623.293,-65.24243
1430943623.308,-68.10327
1430943623.324,-67.6615
1430943623.34,-64.46387
1430943623.355,-59.299316
1430943623.371,-53.109985
1430943623.386,-46.74829
1430943623.402,-40.802734
1430943623.418,-35.542114
1430943623.433,-30.997559
1430943623.449,-27.143433
1430943623.465,-24.041748
1430943623.48,-21.878296
1430943623.496,-20.803589
1430943623.511,-20.806152
1430943623.527,-21.58374
1430943623.543,-22.562134
1430943623.558,-23.06018
1430943623.574,-22.51941
1430943623.59,-20.69934
1430943623.605,-17.704224
1430943623.621,-13.969482
1430943623.636,-10.005005
1430943623.652,-6.2387695
1430943623.668,-2.848877
1430943623.683,0.30480957
1430943623.699,3.5795898
1430943623.715,7.409912
1430943623.73,12.093018
1430943623.746,17.62732
1430943623.761,23.56311
1430943623.777,28.997559
1430943623.793,32.62964
1430943623.808,33.042725
1430943623.824,29.046387
1430943623.84,20.028198
1430943623.855,6.241577
1430943623.871,-11.176636
1430943623.886,-30.416626
1430943623.902,-49.457275
1430943623.918,-66.51672
1430943623.933,-80.39685
1430943623.949,-90.488525
1430943623.965,-96.49036
1430943623.98,-98.0979
1430943623.996,-94.89807
1430943624.011,-86.56665
1430943624.027,-73.32654
1430943624.043,-56.367554
1430943624.058,-37.80768
1430943624.074,-20.263184
1430943624.09,-6.0218506
1430943624.105,3.6677246
1430943624.121,8.857056
1430943624.136,10.597412
1430943624.152,10.244202
1430943624.168,8.846741
1430943624.183,6.8969727
1430943624.199,4.555237
1430943624.215,2.0785522
1430943624.23,0.109558105
1430943624.246,-0.38391113
1430943624.261,1.4727783
1430943624.277,5.9625244
1430943624.293,12.488098
1430943624.308,19.712646
1430943624.324,25.99701
1430943624.34,30.03656
1430943624.355,31.365845
1430943624.371,30.49884
1430943624.386,28.739746
1430943624.402,27.588928
1430943624.418,28.125793
1430943624.433,30.51886
1430943624.449,33.84314
1430943624.465,36.34546
1430943624.48,36.07483
1430943624.496,31.565613
1430943624.511,22.388062
1430943624.527,9.343323
1430943624.543,-5.753845
1430943624.558,-20.570251
1430943624.574,-32.895325
1430943624.59,-41.146362
1430943624.605,-44.710327
1430943624.621,-43.9386
1430943624.636,-39.93402
1430943624.652,-34.14691
1430943624.668,-27.908264
1430943624.683,-22.091858
1430943624.699,-16.989807
1430943624.715,-12.471069
1430943624.73,-8.227173
1430943624.746,-4.067932
1430943624.761,0.0013427734
1430943624.777,3.8503418
1430943624.793,7.3466797
1430943624.808,10.465759
1430943624.824,13.252014
1430943624.84,15.690002
1430943624.855,17.64746
1430943624.871,18.89978
1430943624.886,19.270386
1430943624.902,18.77948
1430943624.918,17.690918
1430943624.933,16.411438
1430943624.949,15.386902
1430943624.965,14.913574
1430943624.98,15.124023
1430943624.996,16.013184
1430943625.011,17.536926
1430943625.027,19.62445
1430943625.043,22.239075
1430943625.058,25.359253
1430943625.074,28.959839
1430943625.09,32.964233
1430943625.105,37.19763
1430943625.121,41.270752
1430943625.136,44.565308
1430943625.152,46.234802
1430943625.168,45.396362
1430943625.183,41.3396
1430943625.199,33.8078
1430943625.215,23.089539
1430943625.23,10.0251465
1430943625.246,-4.194519
1430943625.261,-18.288269
1430943625.277,-31.13556
1430943625.293,-41.93213
1430943625.308,-50.306763
1430943625.324,-56.299316
1430943625.34,-60.39557
1430943625.355,-63.440247
1430943625.371,-66.47974
1430943625.386,-70.49701
1430943625.402,-76.11871
1430943625.418,-83.335205
1430943625.433,-91.50922
1430943625.449,-99.578125
1430943625.465,-106.48486
1430943625.48,-111.60077
1430943625.496,-115.13391
1430943625.511,-118.23938
1430943625.527,-122.95001
1430943625.543,-131.794
1430943625.558,-147.0918
1430943625.574,-169.94244
1430943625.59,-199.3888
1430943625.605,-232.13058
1430943625.621,-263.19165
1430943625.636,-287.3486
1430943625.652,-300.73654
1430943625.668,-301.84653
1430943625.683,-291.65604
1430943625.699,-272.81738
1430943625.715,-248.60773
1430943625.73,-222.05823
1430943625.746,-195.49805
1430943625.761,-170.42474
1430943625.777,-147.42148
1430943625.793,-126.0802
1430943625.808,-104.987335
1430943625.824,-82.05795
1430943625.84,-55.220184
1430943625.855,-23.09842
1430943625.871,14.686584
1430943625.886,57.676544
1430943625.902,104.84658
1430943625.918,154.5058
1430943625.933,203.8385
1430943625.949,248.57872
1430943625.965,283.42218
1430943625.98,303.43018
1430943625.996,305.95303
1430943626.012,291.93268
1430943626.027,265.78986
1430943626.043,233.69086
1430943626.058,201.04251
1430943626.074,170.68317
1430943626.09,142.77173
1430943626.105,116.23988
1430943626.121,90.709526
1430943626.137,67.52335
1430943626.152,49.104813
1430943626.168,37.195564
1430943626.183,31.321716
1430943626.199,28.582275
1430943626.215,25.20317
1430943626.23,18.650864
1430943626.246,9.079056
1430943626.262,-0.90960693
1430943626.277,-7.8535004
1430943626.293,-9.479996
1430943626.308,-5.748352
1430943626.324,1.5638428
1430943626.34,10.23468
1430943626.355,18.986298
1430943626.371,27.94278
1430943626.387,38.165802
1430943626.402,50.77054
1430943626.418,66.28845
1430943626.433,84.53284
1430943626.449,104.64572
1430943626.465,125.19397
1430943626.48,144.07132
1430943626.496,158.65207
1430943626.512,166.47818
1430943626.527,166.52722
1430943626.543,160.41681
1430943626.558,152.59122
1430943626.574,149.13773
1430943626.59,155.32889
1430943626.605,173.23508
1430943626.621,200.42313
1430943626.637,230.4838
1430943626.652,255.01968
1430943626.668,266.27594
1430943626.683,259.33804
1430943626.699,233.26459
1430943626.715,191.20605
1430943626.73,139.52838
1430943626.746,86.33795
1430943626.762,39.497803
1430943626.777,4.593506
1430943626.793,-16.522858
1430943626.808,-25.90979
1430943626.824,-28.241547
1430943626.84,-28.704193
1430943626.855,-30.911041
1430943626.871,-36.058716
1430943626.887,-43.233917
1430943626.902,-50.643402
1430943626.918,-56.612335
1430943626.933,-59.872986
1430943626.949,-59.52362
1430943626.965,-55.039246
1430943626.98,-46.693604
1430943626.996,-36.034485
1430943627.012,-25.821167
1430943627.027,-19.044006
1430943627.043,-17.552063
1430943627.058,-21.268555
1430943627.074,-28.294098
1430943627.09,-36.162323
1430943627.105,-43.14795
1430943627.121,-48.869415
1430943627.137,-53.787415
1430943627.152,-58.286438
1430943627.168,-61.904236
1430943627.183,-63.58612
1430943627.199,-62.51718
1430943627.215,-58.897278
1430943627.23,-54.00122
1430943627.246,-49.37915
1430943627.262,-45.91809
1430943627.277,-43.30887
1430943627.293,-40.44159
1430943627.308,-36.26187
1430943627.324,-30.521729
1430943627.34,-23.940857
1430943627.355,-17.729095
1430943627.371,-12.979065
1430943627.387,-10.152069
1430943627.402,-9.14093
1430943627.418,-9.421295
1430943627.433,-10.422668
1430943627.449,-11.508911
1430943627.465,-11.986542
1430943627.48,-11.066101
1430943627.496,-8.049927
1430943627.512,-2.729889
1430943627.527,4.3414917
1430943627.543,11.971313
1430943627.558,18.73639
1430943627.574,23.513428
1430943627.59,25.819244
1430943627.605,25.888306
1430943627.621,24.49353
1430943627.637,22.834137
1430943627.652,22.310425
1430943627.668,24.309052
1430943627.683,29.734406
1430943627.699,38.526062
1430943627.715,49.37149
1430943627.73,60.078552
1430943627.746,68.408905
1430943627.762,73.1604
1430943627.777,74.84567
1430943627.793,75.57022
1430943627.808,78.01184
1430943627.824,84.10416
1430943627.84,94.08368
1430943627.855,106.32654
1430943627.871,118.12891
1430943627.887,126.97772
1430943627.902,131.54892
1430943627.918,132.09225
1430943627.933,129.98166
1430943627.949,126.73419
1430943627.965,123.133514
1430943627.98,118.829834
1430943627.996,112.605255
1430943628.012,103.27203
1430943628.027,90.455475
1430943628.043,74.98752
1430943628.058,58.609985
1430943628.074,43.20407
1430943628.09,29.969788
1430943628.105,19.167908
1430943628.121,10.375275
1430943628.137,3.1241455
1430943628.152,-2.578003
1430943628.168,-6.169525
1430943628.183,-6.9699097
1430943628.199,-4.792801
1430943628.215,-0.33374023
1430943628.23,4.937393
1430943628.246,9.305313
1430943628.262,11.432602
1430943628.277,10.732391
1430943628.293,7.335037
1430943628.308,1.6857605
1430943628.324,-5.7957764
1430943628.34,-14.88446
1430943628.355,-25.384995
1430943628.371,-36.86241
1430943628.387,-48.4377
1430943628.402,-59.0035
1430943628.418,-67.54743
1430943628.433,-73.532265
1430943628.449,-77.05266
1430943628.465,-78.65239
1430943628.48,-78.90744
1430943628.496,-78.13196
1430943628.512,-76.202545
1430943628.527,-72.77952
1430943628.543,-67.61403
1430943628.558,-60.914722
1430943628.574,-53.525047
1430943628.59,-46.923794
1430943628.605,-42.82394
1430943628.621,-42.550495
1430943628.637,-46.33213
1430943628.652,-52.922203
1430943628.668,-59.776966
1430943628.684,-64.03147
1430943628.699,-63.744446
1430943628.715,-58.923073
1430943628.73,-51.65612
1430943628.746,-45.255203
1430943628.762,-42.72212
1430943628.777,-45.36184
1430943628.793,-52.1412
1430943628.808,-60.13023
1430943628.824,-65.58643
1430943628.84,-65.24147
1430943628.855,-57.18538
1430943628.871,-41.127144
1430943628.887,-18.178398
1430943628.902,9.477913
1430943628.918,39.02388
1430943628.934,67.4951
1430943628.949,92.33095
1430943628.965,111.85357
1430943628.98,125.544975
1430943628.996,133.86176
1430943629.012,137.72482
1430943629.027,137.8135
1430943629.043,134.09735
1430943629.059,125.844
1430943629.074,112.23947
1430943629.09,93.24996
1430943629.105,70.347435
1430943629.121,46.4786
1430943629.137,25.307953
1430943629.152,9.853714
1430943629.168,1.319397
1430943629.184,-1.371872
1430943629.199,-0.9436188
1430943629.215,-0.3884735
1430943629.23,-1.4892578
1430943629.246,-4.0149994
1430943629.262,-6.0076904
1430943629.277,-5.030594
1430943629.293,0.35379028
1430943629.309,9.549255
1430943629.324,20.017395
1430943629.34,28.312439
1430943629.355,31.481186
1430943629.371,28.134003
1430943629.387,18.729706
1430943629.402,5.0285645
1430943629.418,-10.887054
1430943629.434,-27.346954
1430943629.449,-43.444458
1430943629.465,-58.747223
1430943629.48,-72.83432
1430943629.496,-85.02319
1430943629.512,-94.43768
1430943629.527,-100.281555
1430943629.543,-102.41531
1430943629.559,-101.42996
1430943629.574,-98.540405
1430943629.59,-95.2666
1430943629.605,-92.960205
1430943629.621,-92.46759
1430943629.637,-93.87714
1430943629.652,-96.47363
1430943629.668,-98.894104
1430943629.684,-99.51584
1430943629.699,-96.9892
1430943629.715,-90.70984
1430943629.73,-81.09906
1430943629.746,-69.34509
1430943629.762,-56.97632
1430943629.777,-45.280365
1430943629.793,-34.934265
1430943629.809,-26.119537
1430943629.824,-18.804443
1430943629.84,-13.077057
1430943629.855,-9.115112
1430943629.871,-6.852844
1430943629.887,-5.6903076
1430943629.902,-4.463196
1430943629.918,-1.9511719
1430943629.934,2.4885254
1430943629.949,8.39212
1430943629.965,14.28183
1430943629.98,18.218353
1430943629.996,18.518341
1430943630.012,14.361481
1430943630.027,6.065613
1430943630.043,-5.3260193
1430943630.059,-18.39685
1430943630.074,-31.749695
1430943630.09,-44.215607
1430943630.105,-54.81555
1430943630.121,-62.81659
1430943630.137,-67.830505
1430943630.152,-69.98837
1430943630.168,-69.98898
1430943630.184,-68.96036
1430943630.199,-68.116974
1430943630.215,-68.40137
1430943630.23,-70.274536
1430943630.246,-73.50876
1430943630.262,-77.260864
1430943630.277,-80.15909
1430943630.293,-80.53732
1430943630.309,-76.842255
1430943630.324,-68.07297
1430943630.34,-54.141785
1430943630.355,-35.972626
1430943630.371,-15.333862
1430943630.387,5.6660156
1430943630.402,25.085785
1430943630.418,41.492157
1430943630.434,54.086792
1430943630.449,62.555542
1430943630.465,66.88782
1430943630.48,67.26401
1430943630.496,64.05905
1430943630.512,57.870636
1430943630.527,49.52884
1430943630.543,39.95102
1430943630.559,29.972595
1430943630.574,20.253418
1430943630.59,11.265137
1430943630.605,3.3338928
1430943630.621,-3.3070679
1430943630.637,-8.590546
1430943630.652,-12.73761
1430943630.668,-16.296448
1430943630.684,-20.129486
1430943630.699,-25.194427
1430943630.715,-32.210815
1430943630.73,-41.266296
1430943630.746,-51.645264
1430943630.762,-61.78131
1430943630.777,-69.61786
1430943630.793,-73.1438
1430943630.809,-70.938416
1430943630.824,-62.60675
1430943630.84,-48.873352
1430943630.855,-31.279572
1430943630.871,-11.819489
1430943630.887,7.510132
1430943630.902,24.882324
1430943630.918,38.746216
1430943630.934,47.930756
1430943630.949,52.005157
1430943630.965,51.643143
1430943630.98,48.81755
1430943630.996,46.519974
1430943631.012,47.815918
1430943631.027,54.68387
1430943631.043,67.14642
1430943631.059,83.13748
1430943631.074,99.2543
1430943631.09,112.00699
1430943631.105,118.97313
1430943631.121,119.355286
1430943631.137,113.88922
1430943631.152,104.187195
1430943631.168,92.07001
1430943631.184,79.12924
1430943631.199,66.605545
1430943631.215,55.398834
1430943631.23,46.213867
1430943631.246,39.53537
1430943631.262,35.54117
1430943631.277,34.037292
1430943631.293,34.493835
1430943631.309,36.15898
1430943631.324,38.326508
1430943631.34,40.464386
1430943631.356,42.29361
1430943631.371,43.613068
1430943631.387,44.09099
1430943631.402,43.122574
1430943631.418,39.92914
1430943631.434,33.814087
1430943631.449,24.59665
1430943631.465,12.874512
1430943631.48,-0.025726318
1430943631.496,-12.408203
1430943631.512,-22.739105
1430943631.527,-30.080566
1430943631.543,-34.25119
1430943631.559,-35.689728
1430943631.574,-35.132996
1430943631.59,-33.331665
1430943631.606,-30.878082
1430943631.621,-28.233185
1430943631.637,-25.80841
1430943631.652,-24.015991
1430943631.668,-23.243408
1430943631.684,-23.77353
1430943631.699,-25.64798
1430943631.715,-28.653625
1430943631.731,-32.326355
1430943631.746,-36.04422
1430943631.762,-39.179474
1430943631.777,-41.29535
1430943631.793,-42.233673
1430943631.809,-42.12216
1430943631.824,-41.2843
1430943631.84,-40.02585
1430943631.856,-38.548706
1430943631.871,-36.92856
1430943631.887,-35.289856
1430943631.902,-33.929474
1430943631.918,-33.3071
1430943631.934,-33.83783
1430943631.949,-35.567627
1430943631.965,-37.93872
1430943631.981,-39.84546
1430943631.996,-40.009552
1430943632.012,-37.488617
1430943632.027,-32.043884
1430943632.043,-24.21933
1430943632.059,-15.068054
1430943632.074,-5.8373413
1430943632.09,2.316162
1430943632.106,8.375214
1430943632.121,11.565552
1430943632.137,11.369934
1430943632.152,7.758667
1430943632.168,1.3119812
1430943632.184,-6.839966
1430943632.199,-15.330261
1430943632.215,-23.057861
1430943632.231,-29.52887
1430943632.246,-34.983704
1430943632.262,-40.120148
1430943632.277,-45.62741
1430943632.293,-51.815186
1430943632.309,-58.405945
1430943632.324,-64.5943
1430943632.34,-69.12961
1430943632.356,-70.53467
1430943632.371,-67.36127
1430943632.387,-58.775574
1430943632.402,-45.115265
1430943632.418,-28.261597
1430943632.434,-11.419312
1430943632.449,1.7805481
1430943632.465,8.512085
1430943632.481,7.7098694
1430943632.496,0.29370117
1430943632.512,-11.476685
1430943632.527,-25.08368
1430943632.543,-38.714325
1430943632.559,-51.48767
1430943632.574,-63.205383
1430943632.59,-73.696106
1430943632.606,-82.51776
1430943632.621,-89.04579
1430943632.637,-93.00531
1430943632.652,-94.77835
1430943632.668,-95.4285
1430943632.684,-96.267624
1430943632.699,-98.37546
1430943632.715,-102.35599
1430943632.731,-108.39188
1430943632.746,-116.40697
1430943632.762,-126.14104
1430943632.777,-136.94113
1430943632.793,-147.48497
1430943632.809,-155.84047
1430943632.824,-160.09346
1430943632.84,-159.20607
1430943632.856,-153.70628
1430943632.871,-145.40485
1430943632.887,-136.3263
1430943632.902,-127.24352
1430943632.918,-116.86804
1430943632.934,-102.15275
1430943632.949,-79.773285
1430943632.965,-47.956642
1430943632.981,-7.6207676
1430943632.996,37.702583
1430943633.012,83.11014
1430943633.027,123.958916
1430943633.043,157.05818
1430943633.059,181.07144
1430943633.074,196.09277
1430943633.09,202.96841
1430943633.106,202.82376
1430943633.121,197.01306
1430943633.137,187.28966
1430943633.152,175.91219
1430943633.168,165.3485
1430943633.184,157.6526
1430943633.199,153.69841
1430943633.215,152.82141
1430943633.231,153.02556
1430943633.246,151.95964
1430943633.262,148.0522
1430943633.277,141.23317
1430943633.293,132.8139
1430943633.309,124.63782
1430943633.324,118.05133
1430943633.34,113.357574
1430943633.356,110.04938
1430943633.371,107.583984
1430943633.387,105.972595
1430943633.402,105.829956
1430943633.418,107.64859
1430943633.434,111.02515
1430943633.449,114.324066
1430943633.465,115.20642
1430943633.481,111.70407
1430943633.496,103.240906
1430943633.512,90.93591
1430943633.527,77.07364
1430943633.543,64.01047
1430943633.559,53.21341
1430943633.574,44.840637
1430943633.59,38.06421
1430943633.606,31.731018
1430943633.621,25.05429
1430943633.637,17.848999
1430943633.652,10.429138
1430943633.668,3.1678162
1430943633.684,-3.7885132
1430943633.699,-10.646423
1430943633.715,-17.730377
1430943633.731,-25.207214
1430943633.746,-32.953613
1430943633.762,-40.651855
1430943633.777,-48.044373
1430943633.793,-55.114044
1430943633.809,-62.035767
1430943633.824,-68.95598
1430943633.84,-75.76788
1430943633.856,-82.0643
1430943633.871,-87.30232
1430943633.887,-91.09955
1430943633.902,-93.33676
1430943633.918,-94.14609
1430943633.934,-93.668655
1430943633.949,-91.907486
1430943633.965,-88.705414
1430943633.981,-83.8909
1430943633.996,-77.400665
1430943634.012,-69.375626
1430943634.027,-60.11853
1430943634.043,-50.00464
1430943634.059,-39.413116
1430943634.074,-28.807648
1430943634.09,-18.694336
1430943634.106,-9.492218
1430943634.121,-1.1671448
1430943634.137,6.941345
1430943634.152,16.103882
1430943634.168,27.770844
1430943634.184,42.99115
1430943634.199,61.681366
1430943634.215,82.16638
1430943634.231,101.300446
1430943634.246,115.281586
1430943634.262,121.00809
1430943634.278,117.409515
1430943634.293,106.09039
1430943634.309,90.82373
1430943634.324,76.07373
1430943634.34,65.19653
1430943634.356,59.286224
1430943634.371,57.25116
1430943634.387,56.858826
1430943634.403,56.173157
1430943634.418,54.34897
1430943634.434,51.598938
1430943634.449,48.39749
1430943634.465,44.8891
1430943634.481,40.779144
1430943634.496,35.942535
1430943634.512,31.098724
1430943634.528,27.831451
1430943634.543,27.915863
1430943634.559,32.292877
1430943634.574,40.399414
1430943634.59,50.250153
1430943634.606,59.260773
1430943634.621,65.36795
1430943634.637,67.76648
1430943634.653,66.97476
1430943634.668,64.35486
1430943634.684,61.386154
1430943634.699,59.021347
1430943634.715,57.489746
1430943634.731,56.246185
1430943634.746,54.219635
1430943634.762,49.99962
1430943634.778,42.117996
1430943634.793,29.43721
1430943634.809,11.728989
1430943634.824,-9.7966
1430943634.84,-32.265793
1430943634.856,-51.6521
1430943634.871,-64.02318
1430943634.887,-67.17845
1430943634.903,-61.859886
1430943634.918,-51.85814
1430943634.934,-42.76824
1430943634.949,-39.8098
1430943634.965,-45.74798
1430943634.981,-59.901634
1430943634.996,-78.68822
1430943635.012,-97.45555
1430943635.028,-112.56226
1430943635.043,-122.6726
1430943635.059,-128.67682
1430943635.074,-132.49443
1430943635.09,-135.52133
1430943635.106,-137.77718
1430943635.121,-137.88373
1430943635.137,-133.89801
1430943635.153,-124.35056
1430943635.168,-108.79643
1430943635.184,-87.75436
1430943635.199,-62.394318
1430943635.215,-34.205826
1430943635.231,-5.0597153
1430943635.246,22.585022
1430943635.262,45.690475
1430943635.278,61.189217
1430943635.293,66.868416
1430943635.309,62.212837
1430943635.324,48.698868
1430943635.34,29.261787
1430943635.356,7.3177032
1430943635.371,-14.228249
1430943635.387,-33.556046
1430943635.403,-49.913002
1430943635.418,-63.292366
1430943635.434,-74.111946
1430943635.449,-83.03922
1430943635.465,-90.8802
1430943635.481,-98.430176
1430943635.496,-106.15924
1430943635.512,-113.94121
1430943635.528,-120.91833
1430943635.543,-125.675766
1430943635.559,-126.74904
1430943635.574,-123.44683
1430943635.59,-116.56974
1430943635.606,-108.87975
1430943635.621,-104.73983
1430943635.637,-108.88169
1430943635.653,-124.41418
1430943635.668,-151.03342
1430943635.684,-184.27686
1430943635.699,-216.5567
1430943635.715,-239.62079
1430943635.731,-247.39915
1430943635.746,-237.76624
1430943635.762,-212.53244
1430943635.778,-175.77171
1430943635.793,-131.84729
1430943635.809,-84.16412
1430943635.824,-35.222992
1430943635.84,12.434326
1430943635.856,55.580963
1430943635.871,90.573944
1430943635.887,114.67621
1430943635.903,127.42142
1430943635.918,131.27777
1430943635.934,130.89551
1430943635.949,131.15338
1430943635.965,134.99643
1430943635.981,142.11575
1430943635.996,149.0412
1430943636.012,150.8074
1430943636.028,143.3328
1430943636.043,125.54358
1430943636.059,100.17758
1430943636.074,73.01874
1430943636.09,50.84259
1430943636.106,39.111084
1430943636.121,40.16223
1430943636.137,52.628113
1430943636.153,72.0437
1430943636.168,92.32202
1430943636.184,107.45038
1430943636.199,112.97766
1430943636.215,106.99408
1430943636.231,90.421936
1430943636.246,66.78027
1430943636.262,41.175476
1430943636.278,18.96753
1430943636.293,4.272583
1430943636.309,-1.1851807
1430943636.324,1.5249023
1430943636.34,9.1067505
1430943636.356,17.289612
1430943636.371,22.305054
1430943636.387,22.082214
1430943636.403,16.646545
1430943636.418,7.878113
1430943636.434,-1.2019043
1430943636.449,-7.496521
1430943636.465,-8.640442
1430943636.481,-3.511963
1430943636.496,7.6430054
1430943636.512,23.433105
1430943636.528,41.74469
1430943636.543,60.242554
1430943636.559,76.72241
1430943636.574,89.41785
1430943636.59,97.02582
1430943636.606,98.84247
1430943636.621,94.888855
1430943636.637,86.06836
1430943636.653,74.21399
1430943636.668,61.789978
1430943636.684,51.268005
1430943636.699,44.29303
1430943636.715,41.134888
1430943636.731,40.533264
1430943636.746,40.38318
1430943636.762,38.674255
1430943636.778,34.377686
1430943636.793,27.917114
1430943636.809,20.934448
1430943636.824,15.583923
1430943636.84,13.579529
1430943636.856,15.597107
1430943636.871,20.977234
1430943636.887,28.021484
1430943636.903,34.490906
1430943636.918,38.294678
1430943636.934,38.090637
1430943636.95,33.81256
1430943636.965,26.923218
1430943636.981,20.215088
1430943636.996,17.022339
1430943637.012,19.854492
1430943637.028,29.065796
1430943637.043,42.30072
1430943637.059,55.12561
1430943637.075,62.933228
1430943637.09,63.102783
1430943637.106,56.242615
1430943637.121,45.83197
1430943637.137,36.50598
1430943637.153,31.696594
1430943637.168,32.11432
1430943637.184,35.84369
1430943637.2,39.306396
1430943637.215,38.86621
1430943637.231,32.01288
1430943637.246,17.967285
1430943637.262,-1.8002319
1430943637.278,-23.114868
1430943637.293,-39.295044
1430943637.309,-42.48761
1430943637.325,-26.679321
1430943637.34,8.670776
1430943637.356,56.440735
1430943637.371,103.060486
1430943637.387,133.29315
1430943637.403,136.8357
1430943637.418,113.27411
1430943637.434,72.545105
1430943637.45,30.382202
1430943637.465,1.024231
1430943637.481,-9.010986
1430943637.496,-2.763977
1430943637.512,10.249756
1430943637.528,19.831848
1430943637.543,20.121826
1430943637.559,11.172852
1430943637.575,-3.0576172
1430943637.59,-18.27246
1430943637.606,-32.592773
1430943637.621,-46.75
1430943637.637,-62.25885
1430943637.653,-79.173645
1430943637.668,-95.236084
1430943637.684,-106.72412
1430943637.7,-110.73291
1430943637.715,-106.94531
1430943637.731,-97.90173
1430943637.746,-87.77582
1430943637.762,-80.38318
1430943637.778,-77.55609
1430943637.793,-78.83087
1430943637.809,-82.17847
1430943637.825,-85.302734
1430943637.84,-86.81665
1430943637.856,-86.8443
1430943637.871,-86.855286
1430943637.887,-89.025085
1430943637.903,-95.15027
1430943637.918,-105.66046
1430943637.934,-119.12549
1430943637.95,-132.5032
1430943637.965,-142.22403
1430943637.981,-145.62244
1430943637.996,-142.10565
1430943638.012,-133.38135
1430943638.028,-122.54425
1430943638.043,-112.451355
1430943638.059,-104.16858
1430943638.075,-96.31415
1430943638.09,-85.53815
1430943638.106,-67.980835
1430943638.121,-40.56195
1430943638.137,-2.0269165
1430943638.153,46.787292
1430943638.168,103.27429
1430943638.184,163.59186
1430943638.2,223.24963
1430943638.215,277.73468
1430943638.231,323.0468
1430943638.246,356.25482
1430943638.262,375.93488
1430943638.278,382.2823
1430943638.293,376.9151
1430943638.309,362.49615
1430943638.325,342.2099
1430943638.34,319.36926
1430943638.356,296.98633
1430943638.371,277.48212
1430943638.387,262.2987
1430943638.403,251.64276
1430943638.418,244.43561
1430943638.434,238.60297
1430943638.45,231.68219
1430943638.465,221.56885
1430943638.481,206.99817
1430943638.496,187.9002
1430943638.512,165.2385
1430943638.528,140.6748
1430943638.543,116.04416
1430943638.559,92.76062
1430943638.575,71.177795
1430943638.59,50.274567
1430943638.606,27.937073
1430943638.621,2.0576477
1430943638.637,-28.041748
1430943638.653,-60.759552
1430943638.668,-92.43288
1430943638.684,-118.85385
1430943638.7,-137.20424
1430943638.715,-147.22873
1430943638.731,-151.00233
1430943638.746,-151.39165
1430943638.762,-150.279
1430943638.778,-147.69252
1430943638.793,-142.42534
1430943638.809,-133.49028
1430943638.825,-121.39606
1430943638.84,-108.26269
1430943638.856,-96.76745
1430943638.871,-88.57309
1430943638.887,-83.44691
1430943638.903,-79.46745
1430943638.918,-74.25946
1430943638.934,-66.350395
1430943638.95,-55.98372
1430943638.965,-44.89643
1430943638.981,-35.552967
1430943638.996,-29.8284
1430943639.012,-28.223175
1430943639.028,-29.67028
1430943639.043,-32.086502
1430943639.059,-33.269478
1430943639.075,-31.792114
1430943639.09,-27.549866
1430943639.106,-21.721039
1430943639.121,-16.254318
1430943639.137,-13.080475
1430943639.153,-13.423798
1430943639.168,-17.499023
1430943639.184,-24.581787
1430943639.2,-33.46631
1430943639.215,-42.979385
1430943639.231,-52.37625
1430943639.246,-61.350952
1430943639.262,-69.90567
1430943639.278,-77.976746
1430943639.293,-85.279724
1430943639.309,-91.3103
1430943639.325,-95.56082
1430943639.34,-97.75232
1430943639.356,-97.96518
1430943639.371,-96.62497
1430943639.387,-94.29794
1430943639.403,-91.559265
1430943639.418,-88.835205
1430943639.434,-86.35397
1430943639.45,-84.23566
1430943639.465,-82.5217
1430943639.481,-81.2865
1430943639.496,-80.666016
1430943639.512,-80.75241
1430943639.528,-81.47003
1430943639.543,-82.40457
1430943639.559,-82.82666
1430943639.575,-81.85022
1430943639.59,-78.76065
1430943639.606,-73.28177
1430943639.622,-65.685974
1430943639.637,-56.67685
1430943639.653,-47.10263
1430943639.668,-37.71585
1430943639.684,-29.011078
1430943639.7,-21.182495
1430943639.715,-14.230164
1430943639.731,-8.018036
1430943639.746,-2.2434998
1430943639.762,3.501648
1430943639.778,9.675232
1430943639.793,16.554901
1430943639.809,23.935913
1430943639.825,30.986633
1430943639.84,36.318115
1430943639.856,38.39807
1430943639.872,36.0802
1430943639.887,29.116455
1430943639.903,18.315979
1430943639.918,5.301758
1430943639.934,-7.9921265
1430943639.95,-19.92926
1430943639.965,-29.544556
1430943639.981,-36.60211
1430943639.997,-41.41864
1430943640.012,-44.540833
1430943640.028,-46.487732
1430943640.043,-47.624573
1430943640.059,-48.138794
1430943640.075,-48.10437
1430943640.09,-47.53485
1430943640.106,-46.417175
1430943640.122,-44.73633
1430943640.137,-42.47516
1430943640.153,-39.66803
1430943640.168,-36.4032
1430943640.184,-32.87854
1430943640.2,-29.373962
1430943640.215,-26.21167
1430943640.231,-23.689575
1430943640.247,-21.982605
1430943640.262,-21.014404
1430943640.278,-20.44983
1430943640.293,-19.744568
1430943640.309,-18.27893
1430943640.325,-15.565063
1430943640.34,-11.437927
1430943640.356,-6.128845
1430943640.372,-0.21136475
1430943640.387,5.581238
1430943640.403,10.637207
1430943640.418,14.656128
1430943640.434,17.736145
1430943640.45,20.267944
1430943640.465,22.767761
1430943640.481,25.665771
1430943640.497,29.219788
1430943640.512,33.478577
1430943640.528,38.320953
1430943640.543,43.410217
1430943640.559,48.19272
1430943640.575,51.87198
1430943640.59,53.57184
1430943640.606,52.513306
1430943640.622,48.33606
1430943640.637,41.2287
1430943640.653,31.90155
1430943640.668,21.35254
1430943640.684,10.6015625
1430943640.7,0.4439087
1430943640.715,-8.598328
1430943640.731,-16.212402
1430943640.747,-22.231201
1430943640.762,-26.617432
1430943640.778,-29.4682
1430943640.793,-31.049805
1430943640.809,-31.703674
1430943640.825,-31.779968
1430943640.84,-31.514221
1430943640.856,-31.014832
1430943640.872,-30.309998
1430943640.887,-29.430176
1430943640.903,-28.45575
1430943640.918,-27.461609
1430943640.934,-26.471924
1430943640.95,-25.416748
1430943640.965,-24.19281
1430943640.981,-22.749817
1430943640.997,-21.124146
1430943641.012,-19.400024
1430943641.028,-17.62738
1430943641.043,-15.731812
1430943641.059,-13.5460205
1430943641.075,-10.936401
1430943641.09,-7.8884277
1430943641.106,-4.5528564
1430943641.122,-1.161377
1430943641.137,2.121338
1430943641.153,5.2645264
1430943641.168,8.392456
1430943641.184,11.720703
1430943641.2,15.4835205
1430943641.215,19.843262
1430943641.231,24.820679
1430943641.247,30.219666
1430943641.262,35.576508
1430943641.278,40.17514
1430943641.293,43.167175
1430943641.309,43.8508
1430943641.325,41.924316
1430943641.34,37.604645
1430943641.356,31.555908
1430943641.372,24.656738
1430943641.387,17.696716
1430943641.403,11.187683
1430943641.418,5.326416
1430943641.434,0.09161377
1430943641.45,-4.588379
1430943641.465,-8.730652
1430943641.481,-12.215759
1430943641.497,-14.821106
1430943641.512,-16.359253
1430943641.528,-16.803284
1430943641.543,-16.35962
1430943641.559,-15.455261
1430943641.575,-14.58313
1430943641.59,-14.138733
1430943641.606,-14.300293
1430943641.622,-14.995789
1430943641.637,-16.003845
1430943641.653,-17.070984
1430943641.668,-18.02185
1430943641.684,-18.77124
1430943641.7,-19.292969
1430943641.715,-19.574585
1430943641.731,-19.569214
1430943641.747,-19.184326
1430943641.762,-18.309387
1430943641.778,-16.867188
1430943641.793,-14.871887
1430943641.809,-12.484009
1430943641.825,-10.005066
1430943641.84,-7.7805786
1430943641.856,-6.0632324
1430943641.872,-4.817688
1430943641.887,-3.77063
1430943641.903,-2.501587
1430943641.918,-0.66815186
1430943641.934,1.9078369
1430943641.95,5.23584
1430943641.965,9.27533
1430943641.981,13.996521
1430943641.997,19.29956
1430943642.012,24.842285
1430943642.028,29.90387
1430943642.043,33.50992
1430943642.059,34.734802
1430943642.075,33.096863
1430943642.09,28.80429
1430943642.106,22.633728
1430943642.122,15.653076
1430943642.137,8.773682
1430943642.153,2.5411987
1430943642.168,-2.906372
1430943642.184,-7.6534424
1430943642.2,-11.80249
1430943642.215,-15.355896
1430943642.231,-18.258057
1430943642.247,-20.390747
1430943642.262,-21.71875
1430943642.278,-22.30603
1430943642.294,-22.337646
1430943642.309,-22.112
1430943642.325,-21.953003
1430943642.34,-22.146484
1430943642.356,-22.8302
1430943642.372,-23.875977
1430943642.387,-24.8974
1430943642.403,-25.377136
1430943642.418,-24.868835
1430943642.434,-23.175964
1430943642.45,-20.46643
1430943642.465,-17.19458
1430943642.481,-13.907684
1430943642.497,-11.012726
1430943642.512,-8.61972
1430943642.528,-6.537567
1430943642.544,-4.4665833
1430943642.559,-2.203003
1430943642.575,0.21157837
1430943642.59,2.4915771
1430943642.606,4.27005
1430943642.622,5.3311768
1430943642.637,5.7386475
1430943642.653,5.8667603
1430943642.669,6.2686462
1430943642.684,7.5232544
1430943642.7,10.014954
1430943642.715,13.851654
1430943642.731,18.769775
1430943642.747,24.192505
1430943642.762,29.283539
1430943642.778,33.10956
1430943642.794,34.86438
1430943642.809,34.07614
1430943642.825,30.726807
1430943642.84,25.291779
1430943642.856,18.535858
1430943642.872,11.314819
1430943642.887,4.351349
1430943642.903,-1.8503723
1430943642.919,-7.00473
1430943642.934,-10.966797
1430943642.95,-13.685455
1430943642.965,-15.188873
1430943642.981,-15.599487
1430943642.997,-15.133667
1430943643.012,-14.093506
1430943643.028,-12.757965
1430943643.044,-11.369263
1430943643.059,-10.060608
1430943643.075,-8.876282
1430943643.09,-7.7960815
1430943643.106,-6.7776794
1430943643.122,-5.786621
1430943643.137,-4.81308
1430943643.153,-3.9086304
1430943643.169,-3.17688
1430943643.184,-2.7044067
1430943643.2,-2.526062
1430943643.215,-2.576294
1430943643.231,-2.6818237
1430943643.247,-2.592041
1430943643.262,-2.1099854
1430943643.278,-1.1178284
1430943643.294,0.3453369
1430943643.309,2.1486206
1430943643.325,4.097107
1430943643.34,6.0547485
1430943643.356,7.954651
1430943643.372,9.852295
1430943643.387,11.8463745
1430943643.403,14.058197
1430943643.419,16.58606
1430943643.434,19.46051
1430943643.45,22.660248
1430943643.465,26.084534
1430943643.481,29.503357
1430943643.497,32.513336
1430943643.512,34.560272
1430943643.528,35.039703
1430943643.544,33.478058
1430943643.559,29.75116
1430943643.575,24.151764
1430943643.59,17.369232
1430943643.606,10.276459
1430943643.622,3.7010193
1430943643.637,-1.7886353
1430943643.653,-5.936737
1430943643.669,-8.755035
1430943643.684,-10.406647
1430943643.7,-11.109375
1430943643.715,-11.101379
1430943643.731,-10.635376
1430943643.747,-9.954285
1430943643.762,-9.293732
1430943643.778,-8.783417
1430943643.794,-8.434662
1430943643.809,-8.165588
1430943643.825,-7.83667
1430943643.84,-7.355072
1430943643.856,-6.738739
1430943643.872,-6.1039124
1430943643.887,-5.6044617
1430943643.903,-5.3327026
1430943643.919,-5.218689
1430943643.934,-5.045929
1430943643.95,-4.5362854
1430943643.965,-3.5064087
1430943643.981,-1.9735107
1430943643.997,-0.17068481
1430943644.012,1.581665
1430943644.028,2.9977722
1430943644.044,3.9901428
1430943644.059,4.6775513
1430943644.075,5.3283386
1430943644.09,6.2194824
1430943644.106,7.574341
1430943644.122,9.549652
1430943644.137,12.200958
1430943644.153,15.4670105
1430943644.169,19.094055
1430943644.184,22.551453
1430943644.2,25.088043
1430943644.215,25.917664
1430943644.231,24.504791
1430943644.247,20.830444
1430943644.262,15.446564
1430943644.278,9.285431
1430943644.294,3.3484497
1430943644.309,-1.6243896
1430943644.325,-5.3143005
1430943644.34,-7.8129883
1430943644.356,-9.45163
1430943644.372,-10.599731
1430943644.387,-11.508667
1430943644.403,-12.27475
1430943644.419,-12.888031
1430943644.434,-13.303558
1430943644.45,-13.498932
1430943644.465,-13.493408
1430943644.481,-13.354492
1430943644.497,-13.135864
1430943644.512,-12.842773
1430943644.528,-12.39505
1430943644.544,-11.672455
1430943644.559,-10.619354
1430943644.575,-9.309692
1430943644.59,-7.996399
1430943644.606,-7.0527344
1430943644.622,-6.8027344
1430943644.637,-7.3446655
1430943644.653,-8.462341
1430943644.669,-9.661835
1430943644.684,-10.352203
1430943644.7,-10.077118
1430943644.715,-8.673584
1430943644.731,-6.3519897
1430943644.747,-3.5342407
1430943644.762,-0.66641235
1430943644.778,1.9839172
1430943644.794,4.3895874
1430943644.809,6.71109
1430943644.825,9.165619
1430943644.84,11.897186
1430943644.856,14.918396
1430943644.872,18.101929
1430943644.887,21.16034
1430943644.903,23.670715
1430943644.919,25.077667
1430943644.934,24.809204
1430943644.95,22.45462
1430943644.965,17.963226
1430943644.981,11.765778
1430943644.997,4.6875916
1430943645.012,-2.3110352
1430943645.028,-8.461151
1430943645.044,-13.389587
1430943645.059,-17.124176
1430943645.075,-19.939392
1430943645.09,-22.112
1430943645.106,-23.764679
1430943645.122,-24.86444
1430943645.137,-25.32129
1430943645.153,-25.140747
1430943645.169,-24.47647
1430943645.184,-23.590118
1430943645.2,-22.753082
1430943645.216,-22.104767
1430943645.231,-21.612915
1430943645.247,-21.081024
1430943645.262,-20.2706
1430943645.278,-19.070465
1430943645.294,-17.549377
1430943645.309,-15.971985
1430943645.325,-14.653107
1430943645.341,-13.823456
1430943645.356,-13.484741
1430943645.372,-13.425232
1430943645.387,-13.2708435
1430943645.403,-12.641968
1430943645.419,-11.276306
1430943645.434,-9.120972
1430943645.45,-6.289612
1430943645.466,-3.0381775
1430943645.481,0.31518555
1430943645.497,3.5031738
1430943645.512,6.3661804
1430943645.528,8.882355
1430943645.544,11.189331
1430943645.559,13.508759
1430943645.575,16.078705
1430943645.591,19.039185
1430943645.606,22.363037
1430943645.622,25.753265
1430943645.637,28.704987
1430943645.653,30.52649
1430943645.669,30.543396
1430943645.684,28.303284
1430943645.7,23.769562
1430943645.716,17.401733
1430943645.731,10.053894
1430943645.747,2.7045288
1430943645.762,-3.783661
1430943645.778,-8.908661
1430943645.794,-12.534882
1430943645.809,-14.80481
1430943645.825,-15.980988
1430943645.841,-16.307709
1430943645.856,-15.971588
1430943645.872,-15.134949
1430943645.887,-13.947479
1430943645.903,-12.583374
1430943645.919,-11.242798
1430943645.934,-10.107025
1430943645.95,-9.308258
1430943645.966,-8.9053955
1430943645.981,-8.898376
1430943645.997,-9.167633
1430943646.012,-9.539764
1430943646.028,-9.814911
1430943646.044,-9.826141
1430943646.059,-9.499359
1430943646.075,-8.837952
1430943646.091,-7.9131775
1430943646.106,-6.7530823
1430943646.122,-5.3507385
1430943646.137,-3.625061
1430943646.153,-1.4918823
1430943646.169,1.0691223
1430943646.184,4.0055237
1430943646.2,7.118286
1430943646.216,10.166565
1430943646.231,12.880829
1430943646.247,15.0729065
1430943646.262,16.685455
1430943646.278,17.860718
1430943646.294,18.89273
1430943646.309,20.179657
1430943646.325,22.088348
1430943646.341,24.838348
1430943646.356,28.396362
1430943646.372,32.391724
1430943646.387,36.175873
1430943646.403,38.911957
1430943646.419,39.76477
1430943646.434,38.172913
1430943646.45,33.986877
1430943646.466,27.566833
1430943646.481,19.654236
1430943646.497,11.211945
1430943646.512,3.1245728
1430943646.528,-3.966339
1430943646.544,-9.760101
1430943646.559,-14.220612
1430943646.575,-17.458649
1430943646.591,-19.580078
1430943646.606,-20.666077
1430943646.622,-20.768402
1430943646.637,-20.028229
1430943646.653,-18.686798
1430943646.669,-17.123596
1430943646.684,-15.760193
1430943646.7,-14.948822
1430943646.716,-14.852936
1430943646.731,-15.456543
1430943646.747,-16.577515
1430943646.762,-18.004456
1430943646.778,-19.58142
1430943646.794,-21.231415
1430943646.809,-22.883698
1430943646.825,-24.392365
1430943646.841,-25.45874
1430943646.856,-25.707367
1430943646.872,-24.811249
1430943646.887,-22.648773
1430943646.903,-19.361664
1430943646.919,-15.356018
1430943646.934,-11.095764
1430943646.95,-6.9893494
1430943646.966,-3.2577515
1430943646.981,0.031707764
1430943646.997,2.924591
1430943647.012,5.492737
1430943647.028,7.8194885
1430943647.044,10.00708
1430943647.059,12.185516
1430943647.075,14.496338
1430943647.091,17.053894
1430943647.106,19.8125
1430943647.122,22.58841
1430943647.137,24.985016
1430943647.153,26.512054
1430943647.169,26.64679
1430943647.184,24.998291
1430943647.2,21.438812
1430943647.216,16.206665
1430943647.231,9.871887
1430943647.247,3.1940002
1430943647.262,-3.0661316
1430943647.278,-8.338654
1430943647.294,-12.3471985
1430943647.309,-15.022614
1430943647.325,-16.464691
1430943647.341,-16.808044
1430943647.356,-16.224182
1430943647.372,-14.914337
1430943647.387,-13.167297
1430943647.403,-11.302765
1430943647.419,-9.636383
1430943647.434,-8.350281
1430943647.45,-7.490387
1430943647.466,-6.9384155
1430943647.481,-6.5012207
1430943647.497,-5.9501038
1430943647.512,-5.0984497
1430943647.528,-3.870697
1430943647.544,-2.2836914
1430943647.559,-0.46643066
1430943647.575,1.3562012
1430943647.591,2.974884
1430943647.606,4.2249756
1430943647.622,5.0817566
1430943647.637,5.627777
1430943647.653,6.066223
1430943647.669,6.5914
1430943647.684,7.3764343
1430943647.7,8.446686
1430943647.716,9.688843
1430943647.731,10.871979
1430943647.747,11.737579
1430943647.762,12.13736
1430943647.778,12.131409
1430943647.794,12.012665
1430943647.809,12.210785
1430943647.825,13.119293
1430943647.841,14.919617
1430943647.856,17.447296
1430943647.872,20.240753
1430943647.888,22.615524
1430943647.903,23.857468
1430943647.919,23.413467
1430943647.934,21.037613
1430943647.95,16.873032
1430943647.966,11.408966
1430943647.981,5.360443
1430943647.997,-0.55200195
1430943648.013,-5.761383
1430943648.028,-9.990906
1430943648.044,-13.233917
1430943648.059,-15.602142
1430943648.075,-17.259277
1430943648.091,-18.335846
1430943648.106,-18.912415
1430943648.122,-19.07956
1430943648.138,-18.944153
1430943648.153,-18.617462
1430943648.169,-18.187592
1430943648.184,-17.68451
1430943648.2,-17.105103
1430943648.216,-16.428314
1430943648.231,-15.6753845
1430943648.247,-14.880478
1430943648.263,-14.082108
1430943648.278,-13.31308
1430943648.294,-12.608795
1430943648.309,-11.996719
1430943648.325,-11.485687
1430943648.341,-11.034073
1430943648.356,-10.541214
1430943648.372,-9.875977
1430943648.388,-8.904282
1430943648.403,-7.5849304
1430943648.419,-5.943863
1430943648.434,-4.079651
1430943648.45,-2.0817413
1430943648.466,-0.040512085
1430943648.481,2.0082092
1430943648.497,4.027313
1430943648.513,5.998184
1430943648.528,7.9035034
1430943648.544,9.756058
1430943648.559,11.603195
1430943648.575,13.586517
1430943648.591,15.857574
1430943648.606,18.540909
1430943648.622,21.63469
1430943648.638,24.926147
1430943648.653,27.946823
1430943648.669,30.057358
1430943648.684,30.596329
1430943648.7,29.102417
1430943648.716,25.516083
1430943648.731,20.220032
1430943648.747,13.917664
1430943648.763,7.453888
1430943648.778,1.559906
1430943648.794,-3.3074799
1430943648.809,-6.9581604
1430943648.825,-9.440781
1430943648.841,-10.982376
1430943648.856,-11.863327
1430943648.872,-12.389282
1430943648.888,-12.798523
1430943648.903,-13.231995
1430943648.919,-13.716751
1430943648.934,-14.209915
1430943648.95,-14.623962
1430943648.966,-14.907883
1430943648.981,-15.038162
1430943648.997,-15.017273
1430943649.013,-14.854706
1430943649.028,-14.566879
1430943649.044,-14.206802
1430943649.059,-13.85965
1430943649.075,-13.60704
1430943649.091,-13.497818
1430943649.106,-13.485214
1430943649.122,-13.444641
1430943649.138,-13.185532
1430943649.153,-12.573105
1430943649.169,-11.532333
1430943649.184,-10.099121
1430943649.2,-8.407684
1430943649.216,-6.647827
1430943649.231,-5.008774
1430943649.247,-3.6131134
1430943649.263,-2.457306
1430943649.278,-1.3746796
1430943649.294,-0.10725403
1430943649.309,1.5597076
1430943649.325,3.7103271
1430943649.341,6.195633
1430943649.356,8.743668
1430943649.372,11.090256
1430943649.388,13.1033325
1430943649.403,14.856476
1430943649.419,16.579468
1430943649.434,18.527786
1430943649.45,20.931847
1430943649.466,23.898582
1430943649.481,27.397194
1430943649.497,31.21051
1430943649.513,34.92408
1430943649.528,37.902733
1430943649.544,39.402885
1430943649.559,38.77778
1430943649.575,35.732574
1430943649.591,30.475578
1430943649.606,23.710503
1430943649.622,16.407608
1430943649.638,9.533157
1430943649.653,3.760025
1430943649.669,-0.6321411
1430943649.684,-3.7161865
1430943649.7,-5.737137
1430943649.716,-6.9965897
1430943649.731,-7.734932
1430943649.747,-8.1141205
1430943649.763,-8.27533
1430943649.778,-8.340019
1430943649.794,-8.396851
1430943649.809,-8.489143
1430943649.825,-8.554573
1430943649.841,-8.501129
1430943649.856,-8.227112
1430943649.872,-7.701172
1430943649.888,-6.9668427
1430943649.903,-6.1350327
1430943649.919,-5.3260193
1430943649.934,-4.6439133
1430943649.95,-4.1313934
1430943649.966,-3.771141
1430943649.981,-3.4642487
1430943649.997,-3.078804
1430943650.013,-2.459671
1430943650.028,-1.5223694
1430943650.044,-0.2789383
1430943650.059,1.1189499
1430943650.075,2.4631042
1430943650.091,3.588211
1430943650.106,4.470215
1430943650.122,5.2299805
1430943650.138,6.068161
1430943650.153,7.1219482
1430943650.169,8.378319
1430943650.184,9.681488
1430943650.2,10.8305435
1430943650.216,11.675896
1430943650.231,12.264114
1430943650.247,12.746719
1430943650.263,13.357933
1430943650.278,14.291412
1430943650.294,15.646774
1430943650.309,17.415207
1430943650.325,19.47853
1430943650.341,21.57817
1430943650.356,23.31881
1430943650.372,24.169525
1430943650.388,23.587967
1430943650.403,21.189156
1430943650.419,16.941757
1430943650.434,11.210243
1430943650.45,4.724083
1430943650.466,-1.6879654
1430943650.481,-7.307907
1430943650.497,-11.731575
1430943650.513,-14.894722
1430943650.528,-16.982857
1430943650.544,-18.239662
1430943650.56,-18.88652
1430943650.575,-19.063232
1430943650.591,-18.88063
1430943650.606,-18.482841
1430943650.622,-18.045998
1430943650.638,-17.739182
1430943650.653,-17.659119
1430943650.669,-17.824783
1430943650.685,-18.1334
1430943650.7,-18.444954
1430943650.716,-18.64016
1430943650.731,-18.611336
1430943650.747,-18.323845
1430943650.763,-17.73059
1430943650.778,-16.776733
1430943650.794,-15.393211
1430943650.81,-13.545746
1430943650.825,-11.215393
1430943650.841,-8.48172
1430943650.856,-5.4598465
1430943650.872,-2.286644
1430943650.888,0.87451935
1430943650.903,3.8355637
1430943650.919,6.4057083
1430943650.935,8.398582
1430943650.95,9.703827
1430943650.966,10.348129
1430943650.981,10.508919
1430943650.997,10.453804
1430943651.013,10.487175
1430943651.028,10.803055
1430943651.044,11.520012
1430943651.06,12.685738
1430943651.075,14.357071
1430943651.091,16.578613
1430943651.106,19.316422
1430943651.122,22.306915
1430943651.138,25.019447
1430943651.153,26.720352
1430943651.169,26.682846
1430943651.185,24.444984
1430943651.2,19.987183
1430943651.216,13.730186
1430943651.231,6.3816605
1430943651.247,-1.3048782
1430943651.263,-8.710915
1430943651.278,-15.414841
1430943651.294,-21.065742
1430943651.31,-25.326263
1430943651.325,-27.786537
1430943651.341,-28.115898
1430943651.356,-26.238586
1430943651.372,-22.515312
1430943651.388,-17.697433
1430943651.403,-12.755432
1430943651.419,-8.522781
1430943651.435,-5.4048615
1430943651.45,-3.355011
1430943651.466,-2.029541
1430943651.481,-1.0701218
1430943651.497,-0.36505127
1430943651.513,-0.018119812
1430943651.528,-0.21143341
1430943651.544,-0.96797943
1430943651.56,-2.078186
1430943651.575,-3.1100845
1430943651.591,-3.6721268
1430943651.606,-3.5371704
1430943651.622,-2.7277145
1430943651.638,-1.4469376
1430943651.653,0.04662323
1430943651.669,1.5272064
1430943651.685,2.862053
1430943651.7,3.9879532
1430943651.716,4.8871384
1430943651.731,5.569809
1430943651.747,6.0624313
1430943651.763,6.420006
1430943651.778,6.6786804
1430943651.794,6.9253616
1430943651.81,7.272789
1430943651.825,7.8653793
1430943651.841,8.822899
1430943651.856,10.210449
1430943651.872,11.982296
1430943651.888,14.04792
1430943651.903,16.33126
1430943651.919,18.793781
1430943651.935,21.417
1430943651.95,24.042473
1430943651.966,26.220032
1430943651.981,27.2369
1430943651.997,26.296726
1430943652.013,22.883259
1430943652.028,17.012474
1430943652.044,9.343025
1430943652.06,0.91780853
1430943652.075,-7.163765
1430943652.091,-14.16449
1430943652.106,-19.876717
1430943652.122,-24.575302
1430943652.138,-28.725029
1430943652.153,-32.691536
1430943652.169,-36.534832
1430943652.185,-39.969852
1430943652.2,-42.579704
1430943652.216,-44.076267
1430943652.231,-44.522514
1430943652.247,-44.361996
1430943652.263,-44.279213
1430943652.278,-44.901543
1430943652.294,-46.56751
1430943652.31,-49.24311
1430943652.325,-52.603703
1430943652.341,-56.22792
1430943652.356,-59.7513
1430943652.372,-62.938164
1430943652.388,-65.73943
1430943652.403,-68.32953
1430943652.419,-71.21742
1430943652.435,-75.263176
1430943652.45,-81.57153
1430943652.466,-91.181496
1430943652.481,-104.71145
1430943652.497,-121.99434
1430943652.513,-141.95052
1430943652.528,-162.77502
1430943652.544,-182.38318
1430943652.56,-198.96121
1430943652.575,-211.46286
1430943652.591,-219.80869
1430943652.606,-224.83594
1430943652.622,-227.91461
1430943652.638,-230.41653
1430943652.653,-233.24205
1430943652.669,-236.52838
1430943652.685,-239.70514
1430943652.7,-241.82529
1430943652.716,-241.97873
1430943652.731,-239.5678
1430943652.747,-234.28291
1430943652.763,-225.92453
1430943652.778,-214.20432
1430943652.794,-198.78609
1430943652.81,-179.47774
1430943652.825,-156.45561
1430943652.841,-130.3045
1430943652.856,-101.791595
1430943652.872,-71.50046
1430943652.888,-39.66623
1430943652.903,-6.3260193
1430943652.919,28.145721
1430943652.935,62.54709
1430943652.95,94.69678
1430943652.966,121.98749
1430943652.981,142.2456
1430943652.997,154.6449
1430943653.013,160.094
1430943653.028,160.90161
1430943653.044,159.94257
1430943653.06,159.63574
1430943653.075,161.20422
1430943653.091,164.40948
1430943653.106,167.84772
1430943653.122,169.72656
1430943653.138,168.81738
1430943653.153,165.27039
1430943653.169,160.8659
1430943653.185,158.60956
1430943653.2,161.57666
1430943653.216,171.5993
1430943653.232,188.3147
1430943653.247,209.10901
1430943653.263,230.09467
1430943653.278,247.57349
1430943653.294,259.34326
1430943653.31,265.15985
1430943653.325,266.24432
1430943653.341,264.1811
1430943653.356,259.99854
1430943653.372,253.82147
1430943653.388,245.24744
1430943653.403,234.12823
1430943653.419,221.08813
1430943653.435,207.60864
1430943653.45,195.46924
1430943653.466,186.0841
1430943653.482,179.95569
1430943653.497,176.6123
1430943653.513,174.9873
1430943653.528,173.93555
1430943653.544,172.63672
1430943653.56,170.62646
1430943653.575,167.69629
1430943653.591,163.56616
1430943653.607,157.80713
1430943653.622,149.86865
1430943653.638,139.32703
1430943653.653,126.049805
1430943653.669,110.25427
1430943653.685,92.44116
1430943653.7,73.178955
1430943653.716,52.94165
1430943653.732,32.01819
1430943653.747,10.619629
1430943653.763,-11.011169
1430943653.778,-32.50122
1430943653.794,-53.35962
1430943653.81,-73.15399
1430943653.825,-91.62927
1430943653.841,-108.78522
1430943653.857,-124.70404
1430943653.872,-139.36432
1430943653.888,-152.45966
1430943653.903,-163.51184
1430943653.919,-172.08154
1430943653.935,-178.14801
1430943653.95,-182.23334
1430943653.966,-185.24054
1430943653.982,-187.91919
1430943653.997,-190.3291
1430943654.013,-191.57404
1430943654.028,-190.06879
1430943654.044,-184.13287
1430943654.06,-172.57916
1430943654.075,-154.99023
1430943654.091,-131.71149
1430943654.107,-103.787415
1430943654.122,-73.013
1430943654.138,-42.12726
1430943654.153,-14.743713
1430943654.169,5.26355
1430943654.185,14.820679
1430943654.2,12.915527
1430943654.216,1.1574707
1430943654.232,-16.622192
1430943654.247,-35.638367
1430943654.263,-51.86206
1430943654.278,-63.265015
1430943654.294,-70.16223
1430943654.31,-74.56555
1430943654.325,-79.005554
1430943654.341,-85.33356
1430943654.357,-93.9765
1430943654.372,-103.76849
1430943654.388,-112.38898
1430943654.403,-117.23358
1430943654.419,-116.3457
1430943654.435,-109.15735
1430943654.45,-96.5863
1430943654.466,-80.59631
1430943654.482,-63.284485
1430943654.497,-46.038696
1430943654.513,-29.017517
1430943654.528,-11.5271
1430943654.544,7.326416
1430943654.56,27.84729
1430943654.575,49.344727
1430943654.591,70.46301
1430943654.607,89.985596
1430943654.622,107.54724
1430943654.638,123.43469
1430943654.653,137.66406
1430943654.669,149.04053
1430943654.685,155.27783
1430943654.7,154.38147
1430943654.716,146.60522
1430943654.732,135.474
1430943654.747,126.87402
1430943654.763,126.45508
1430943654.778,136.62598
1430943654.794,155.1803
1430943654.81,176.39014
1430943654.825,193.97229
1430943654.841,204.03162
1430943654.857,206.41528
1430943654.872,203.71777
1430943654.888,199.06775
1430943654.903,194.15454
1430943654.919,188.6908
1430943654.935,181.37561
1430943654.95,171.33032
1430943654.966,158.98828
1430943654.982,145.8208
1430943654.997,133.46179
1430943655.013,122.8418
1430943655.028,113.614746
1430943655.044,104.40576
1430943655.06,93.5708
1430943655.075,80.01489
1430943655.091,63.80078
1430943655.107,46.20642
1430943655.122,29.232788
1430943655.138,14.889526
1430943655.153,4.3273315
1430943655.169,-2.5594482
1430943655.185,-6.968384
1430943655.2,-10.5928955
1430943655.216,-14.822449
1430943655.232,-20.189514
1430943655.247,-26.306335
1430943655.263,-32.25061
1430943655.278,-37.169617
1430943655.294,-40.73633
1430943655.31,-43.29608
1430943655.325,-45.496765
1430943655.341,-47.891785
1430943655.357,-50.592773
1430943655.372,-53.305115
1430943655.388,-55.635742
1430943655.403,-57.408386
1430943655.419,-58.79016
1430943655.435,-60.125
1430943655.45,-61.539734
1430943655.466,-62.693054
1430943655.482,-62.8031
1430943655.497,-60.988586
1430943655.513,-56.700073
1430943655.528,-50.04895
1430943655.544,-41.71698
1430943655.56,-32.656677
1430943655.575,-23.667603
1430943655.591,-15.1397705
1430943655.607,-7.0458374
1430943655.622,0.9360962
1430943655.638,9.255798
1430943655.653,18.300781
1430943655.669,28.306763
1430943655.685,39.22815
1430943655.7,50.543884
1430943655.716,61.221985
1430943655.732,69.92389
1430943655.747,75.47107
1430943655.763,77.36139
1430943655.778,75.97247
1430943655.794,72.386475
1430943655.81,67.81622
1430943655.825,63.131958
1430943655.841,58.489502
1430943655.857,53.30078
1430943655.872,46.423096
1430943655.888,36.423218
1430943655.903,22.03955
1430943655.919,2.6517334
1430943655.935,-21.122894
1430943655.95,-47.20862
1430943655.966,-72.409485
1430943655.982,-93.424774
1430943655.997,-108.134735
1430943656.013,-116.416016
1430943656.028,-119.99762
1430943656.044,-121.36664
1430943656.06,-122.45862
1430943656.075,-123.82623
1430943656.091,-124.81766
1430943656.107,-124.565155
1430943656.122,-122.77222
1430943656.138,-119.89105
1430943656.154,-116.63226
1430943656.169,-113.148285
1430943656.185,-108.711334
1430943656.2,-102.17148
1430943656.216,-92.78778
1430943656.232,-80.849335
1430943656.247,-67.730774
1430943656.263,-55.131042
1430943656.279,-44.195007
1430943656.294,-34.959473
1430943656.31,-26.476074
1430943656.325,-17.471252
1430943656.341,-7.0932007
1430943656.357,4.6423035
1430943656.372,16.885895
1430943656.388,28.374695
1430943656.404,38.087585
1430943656.419,45.652954
1430943656.435,51.40497
1430943656.45,56.141815
1430943656.466,60.64148
1430943656.482,65.2587
1430943656.497,69.77817
1430943656.513,73.51639
1430943656.529,75.616455
1430943656.544,75.42178
1430943656.56,72.65781
1430943656.575,67.452576
1430943656.591,60.245895
1430943656.607,51.58606
1430943656.622,42.00972
1430943656.638,32.060196
1430943656.654,22.273148
1430943656.669,13.15184
1430943656.685,5.19487
1430943656.7,-1.184372
1430943656.716,-5.711914
1430943656.732,-8.218689
1430943656.747,-8.731613
1430943656.763,-7.476303
1430943656.779,-4.957321
1430943656.794,-1.8763733
1430943656.81,0.9747162
1430943656.825,2.9595184
1430943656.841,3.7430878
1430943656.857,3.3398438
1430943656.872,2.0203705
1430943656.888,0.081954956
1430943656.904,-2.3292694
1430943656.919,-5.239174
1430943656.935,-8.748711
1430943656.95,-12.804955
1430943656.966,-17.053734
1430943656.982,-20.917969
1430943656.997,-23.797173
1430943657.013,-25.259315
1430943657.029,-25.177032
1430943657.044,-23.71833
1430943657.06,-21.274147
1430943657.075,-18.341797
1430943657.091,-15.482086
1430943657.107,-13.239727
1430943657.122,-12.050034
1430943657.138,-12.087208
1430943657.154,-13.182049
1430943657.169,-14.875244
1430943657.185,-16.678797
1430943657.2,-18.43157
1430943657.216,-20.526974
1430943657.232,-23.847538
1430943657.247,-29.238602
1430943657.263,-36.97722
1430943657.279,-46.432976
1430943657.294,-56.14458
1430943657.31,-64.270874
1430943657.325,-69.10833
1430943657.341,-69.39176
1430943657.357,-64.30939
1430943657.372,-53.517216
1430943657.388,-37.363903
1430943657.404,-17.440273
1430943657.419,3.1206436
1430943657.435,19.902542
1430943657.45,28.303299
1430943657.466,25.136421
1430943657.482,9.966839
1430943657.497,-14.654594
1430943657.513,-44.138317
1430943657.529,-73.420395
1430943657.544,-98.33361
1430943657.56,-116.2617
1430943657.575,-125.9382
1430943657.591,-127.054
1430943657.607,-120.038635
1430943657.622,-106.129776
1430943657.638,-87.468094
1430943657.654,-66.92498
1430943657.669,-47.46366
1430943657.685,-31.416344
1430943657.7,-19.925598
1430943657.716,-12.830711
1430943657.732,-8.969254
1430943657.747,-6.6686707
1430943657.763,-4.26318
1430943657.779,-0.60474396
1430943657.794,5.0463753
1430943657.81,12.184696
1430943657.825,19.053387
1430943657.841,23.462921
1430943657.857,23.839321
1430943657.872,19.622166
1430943657.888,11.210686
1430943657.904,-0.4731331
1430943657.919,-14.303646
1430943657.935,-28.633467
1430943657.95,-42.142838
1430943657.966,-54.17168
1430943657.982,-64.73903
1430943657.997,-74.56339
1430943658.013,-85.20303
1430943658.029,-98.95582
1430943658.044,-118.2424
1430943658.06,-144.76543
1430943658.075,-177.60011
1430943658.091,-214.57329
1430943658.107,-252.87932
1430943658.122,-288.8392
1430943658.138,-317.86902
1430943658.154,-335.64294
1430943658.169,-339.5688
1430943658.185,-329.62036
1430943658.2,-308.1964
1430943658.216,-276.13144
1430943658.232,-236.476
1430943658.247,-195.0315
1430943658.263,-157.6141
1430943658.279,-127.12117
1430943658.294,-103.56119
1430943658.31,-85.35798
1430943658.325,-70.300385
1430943658.341,-55.936707
1430943658.357,-33.601196
1430943658.372,0.89675903
1430943658.388,43.795715
1430943658.404,87.54129
1430943658.419,126.71753
1430943658.435,158.81674
1430943658.45,182.58908
1430943658.466,197.40982
1430943658.482,203.88086
1430943658.497,214.22406
1430943658.513,235.99377
1430943658.529,266.4361
1430943658.544,298.24222
1430943658.56,327.97504
1430943658.575,356.1981
1430943658.591,384.37695
1430943658.607,413.48752
1430943658.622,444.8305
1430943658.638,493.59448
1430943658.654,567.4252
1430943658.669,658.43774
1430943658.685,750.42944
1430943658.7,830.053
1430943658.716,888.41656
1430943658.732,919.4778
1430943658.747,920.2411
1430943658.763,808.1799
1430943658.779,570.63135
1430943658.794,280.97968
1430943658.81,29.846619
1430943658.826,-145.16437
1430943658.841,-252.65123
1430943658.857,-315.67712
1430943658.872,-353.50812
1430943658.888,-379.53802
1430943658.904,-397.60754
1430943658.919,-395.65594
1430943658.935,-370.28076
1430943658.951,-334.0658
1430943658.966,-305.4476
1430943658.982,-293.51062
1430943658.997,-297.9784
1430943659.013,-313.03888
1430943659.029,-331.2754
1430943659.044,-346.0728
1430943659.06,-343.5101
1430943659.076,-318.87466
1430943659.091,-281.08258
1430943659.107,-244.26486
1430943659.122,-216.93362
1430943659.138,-200.44691
1430943659.154,-192.09773
1430943659.169,-188.12796
1430943659.185,-185.08395
1430943659.201,-174.66559
1430943659.216,-153.8778
1430943659.232,-127.75966
1430943659.247,-104.34015
1430943659.263,-87.955475
1430943659.279,-78.50096
1430943659.294,-73.31148
1430943659.31,-69.13847
1430943659.326,-63.19594
1430943659.341,-50.922546
1430943659.357,-30.964355
1430943659.372,-6.319687
1430943659.388,18.362122
1430943659.404,40.262497
1430943659.419,58.715546
1430943659.435,74.25284
1430943659.451,87.53424
1430943659.466,98.935196
1430943659.482,109.50952
1430943659.497,119.43982
1430943659.513,127.68736
1430943659.529,132.84322
1430943659.544,134.1375
1430943659.56,131.41074
1430943659.576,124.81688
1430943659.591,114.69125
1430943659.607,101.59952
1430943659.622,86.358826
1430943659.638,69.97125
1430943659.654,53.413086
1430943659.669,37.41005
1430943659.685,22.394714
1430943659.701,8.486465
1430943659.716,-4.3025208
1430943659.732,-15.917221
1430943659.747,-26.203766
1430943659.763,-34.932144
1430943659.779,-41.921524
1430943659.794,-47.18283
1430943659.81,-50.938873
1430943659.826,-53.58777
1430943659.841,-55.49794
1430943659.857,-56.87091
1430943659.872,-57.61859
1430943659.888,-57.467743
1430943659.904,-56.137894
1430943659.919,-53.625504
1430943659.935,-50.255295
1430943659.951,-46.619812
1430943659.966,-43.336166
1430943659.982,-40.746857
1430943659.997,-38.778397
1430943660.013,-36.99524
1430943660.029,-34.81874
1430943660.044,-31.802353
1430943660.06,-27.81717
1430943660.076,-23.129547
1430943660.091,-18.266602
1430943660.107,-13.845718
1430943660.122,-10.281784
1430943660.138,-7.6376495
1430943660.154,-5.532608
1430943660.169,-3.293396
1430943660.185,-0.20257568
1430943660.201,4.1816406
1430943660.216,9.795013
1430943660.232,16.022278
1430943660.247,21.768906
1430943660.263,25.71904
1430943660.279,26.664658
1430943660.294,23.853409
1430943660.31,17.300018
1430943660.326,7.9259644
1430943660.341,-2.4855347
1430943660.357,-11.635239
1430943660.372,-17.299545
1430943660.388,-18.007385
1430943660.404,-13.465363
1430943660.419,-4.5907745
1430943660.435,6.9107666
1430943660.451,19.157318
1430943660.466,30.692657
1430943660.482,40.70096
1430943660.497,48.956085
1430943660.513,55.49167
1430943660.529,60.359985
1430943660.544,63.558746
1430943660.56,65.12573
1430943660.576,65.26932
1430943660.591,64.435394
1430943660.607,63.16455
1430943660.622,61.939514
1430943660.638,60.967926
1430943660.654,60.16092
1430943660.669,59.19644
1430943660.685,57.744904
1430943660.701,55.632233
1430943660.716,52.9769
1430943660.732,50.210632
1430943660.747,47.907715
1430943660.763,46.583374
1430943660.779,46.479156
1430943660.794,47.434692
1430943660.81,48.985962
1430943660.826,50.520706
1430943660.841,51.55551
1430943660.857,51.868668
1430943660.872,51.583603
1430943660.888,50.991257
1430943660.904,50.429245
1430943660.919,50.177856
1430943660.935,50.45813
1430943660.951,51.432907
1430943660.966,53.17076
1430943660.982,55.495743
1430943660.997,57.876984
1430943661.013,59.399048
1430943661.029,58.976624
1430943661.044,55.721863
1430943661.06,49.324844
1430943661.076,40.171814
1430943661.091,29.264801
1430943661.107,17.820465
1430943661.122,6.9109955
1430943661.138,-2.79422
1430943661.154,-11.005463
1430943661.169,-17.725494
1430943661.185,-23.03807
1430943661.201,-27.059021
1430943661.216,-29.893433
1430943661.232,-31.680817
1430943661.247,-32.523857
1430943661.263,-32.49814
1430943661.279,-31.633873
1430943661.294,-29.995308
1430943661.31,-27.794937
1430943661.326,-25.389954
1430943661.341,-23.25644
1430943661.357,-21.800858
1430943661.372,-21.204674
1430943661.388,-21.39898
1430943661.404,-22.105408
1430943661.419,-23.012642
1430943661.435,-23.861866
1430943661.451,-24.521637
1430943661.466,-24.875788
1430943661.482,-24.79885
1430943661.498,-24.111614
1430943661.513,-22.657671
1430943661.529,-20.413033
1430943661.544,-17.601006
1430943661.56,-14.610895
1430943661.576,-11.896317
1430943661.591,-9.7409115
1430943661.607,-8.099304
1430943661.623,-6.573757
1430943661.638,-4.5493317
1430943661.654,-1.4371223
1430943661.669,2.9913864
1430943661.685,8.415901
1430943661.701,13.964607
1430943661.716,18.470627
1430943661.732,20.868507
1430943661.748,20.58525
1430943661.763,17.656898
1430943661.779,12.639038
1430943661.794,6.295967
1430943661.81,-0.7021866
1430943661.826,-7.8211136
1430943661.841,-14.557144
1430943661.857,-20.276001
1430943661.873,-24.149658
1430943661.888,-25.468315
1430943661.904,-24.021217
1430943661.919,-20.395844
1430943661.935,-15.852875
1430943661.951,-11.927643
1430943661.966,-9.728943
1430943661.982,-9.572128
1430943661.998,-10.952087
1430943662.013,-12.944778
1430943662.029,-14.739929
1430943662.044,-16.065247
1430943662.06,-17.172714
1430943662.076,-18.631424
1430943662.091,-20.922714
1430943662.107,-24.186676
1430943662.123,-28.109894
1430943662.138,-32.141068
1430943662.154,-35.679398
1430943662.169,-38.29825
1430943662.185,-39.869324
1430943662.201,-40.486664
1430943662.216,-40.334656
1430943662.232,-39.603348
1430943662.248,-38.35768
1430943662.263,-36.60312
1430943662.279,-34.3528
1430943662.294,-31.683502
1430943662.31,-28.73674
1430943662.326,-25.693146
1430943662.341,-22.678207
1430943662.357,-19.772552
1430943662.373,-16.984802
1430943662.388,-14.339996
1430943662.404,-11.867966
1430943662.419,-9.605103
1430943662.435,-7.493149
1430943662.451,-5.366501
1430943662.466,-2.9483643
1430943662.482,-0.010040283
1430943662.498,3.458725
1430943662.513,7.0654755
1430943662.529,10.034302
1430943662.544,11.355606
1430943662.56,10.134232
1430943662.576,5.8836823
1430943662.591,-1.2174072
1430943662.607,-10.432434
1430943662.623,-20.658234
1430943662.638,-30.795929
1430943662.654,-39.969147
1430943662.669,-47.578796
1430943662.685,-53.24292
1430943662.701,-56.74579
1430943662.716,-58.01889
1430943662.732,-57.290955
1430943662.748,-55.125244
1430943662.763,-52.367615
1430943662.779,-49.940033
1430943662.794,-48.48697
1430943662.81,-48.194366
1430943662.826,-48.73767
1430943662.841,-49.509872
1430943662.857,-49.954147
1430943662.873,-49.750626
1430943662.888,-48.93283
1430943662.904,-47.741745
1430943662.919,-46.45479
1430943662.935,-45.207474
1430943662.951,-43.91864
1430943662.966,-42.266098
1430943662.982,-39.774902
1430943662.998,-35.9187
1430943663.013,-30.260284
1430943663.029,-22.553162
1430943663.044,-12.891235
1430943663.06,-1.791626
1430943663.076,9.689377
1430943663.091,20.097137
1430943663.107,27.938248
1430943663.123,32.36479
1430943663.138,33.73172
1430943663.154,33.877518
1430943663.169,35.635986
1430943663.185,41.848953
1430943663.201,54.137054
1430943663.216,72.1879
1430943663.232,93.81857
1430943663.248,115.89171
1430943663.263,135.40378
1430943663.279,150.33575
1430943663.294,159.75793
1430943663.31,163.38869
1430943663.326,161.07278
1430943663.341,152.65404
1430943663.357,138.24493
1430943663.373,118.70801
1430943663.388,95.83179
1430943663.404,72.058945
1430943663.419,49.74243
1430943663.435,30.511185
1430943663.451,14.834747
1430943663.466,2.2212982
1430943663.482,-8.271683
1430943663.498,-17.421783
1430943663.513,-25.425934
1430943663.529,-31.905289
1430943663.544,-36.222183
1430943663.56,-37.958176
1430943663.576,-37.24724
1430943663.591,-34.873
1430943663.607,-32.015823
1430943663.623,-29.766388
1430943663.638,-28.779297
1430943663.654,-29.091644
1430943663.669,-30.294922
1430943663.685,-31.820099
1430943663.701,-33.269318
1430943663.716,-34.51422
1430943663.732,-35.68857
1430943663.748,-36.957977
1430943663.763,-38.38858
1430943663.779,-39.800568
1430943663.794,-40.808197
1430943663.81,-40.905243
1430943663.826,-39.667328
1430943663.841,-36.877533
1430943663.857,-32.63745
1430943663.873,-27.315765
1430943663.888,-21.456268
1430943663.904,-15.556641
1430943663.919,-9.981689
1430943663.935,-4.8494873
1430943663.951,-0.09246826
1430943663.966,4.483368
1430943663.982,9.110046
1430943663.998,13.966766
1430943664.013,19.268188
1430943664.029,25.239471
1430943664.044,31.832886
1430943664.06,38.46936
1430943664.076,44.059265
1430943664.091,47.30966
1430943664.107,47.10556
1430943664.123,42.93933
1430943664.138,34.983246
1430943664.154,24.244202
1430943664.17,12.21402
1430943664.185,0.41140747
1430943664.201,-10.161591
1430943664.216,-19.061981
1430943664.232,-26.312195
1430943664.248,-32.076874
1430943664.263,-36.487946
1430943664.279,-39.79947
1430943664.294,-42.0235
1430943664.31,-43.003265
1430943664.326,-42.83374
1430943664.341,-42.0242
1430943664.357,-41.302948
1430943664.373,-41.217438
1430943664.388,-41.894775
1430943664.404,-43.04059
1430943664.42,-44.95102
1430943664.435,-47.3627
1430943664.451,-49.507538
1430943664.466,-50.854584
1430943664.482,-51.658264
1430943664.498,-52.61664
1430943664.513,-54.28897
1430943664.529,-56.739685
1430943664.545,-59.567993
1430943664.56,-63.71408
1430943664.576,-68.81238
1430943664.591,-73.06622
1430943664.607,-74.86597
1430943664.623,-74.161835
1430943664.638,-72.17764
1430943664.654,-70.36273
1430943664.67,-69.67285
1430943664.685,-70.29526
1430943664.701,-74.37219
1430943664.716,-81.46695
1430943664.732,-88.39621
1430943664.748,-91.82327
1430943664.763,-90.82196
1430943664.779,-86.84155
1430943664.795,-82.674255
1430943664.81,-81.525116
1430943664.826,-86.193695
1430943664.841,-101.50052
1430943664.857,-127.217514
1430943664.873,-157.05511
1430943664.888,-182.27243
1430943664.904,-196.12154
1430943664.92,-195.46341
1430943664.935,-180.63156
1430943664.951,-154.67523
1430943664.966,-100.62073
1430943664.982,-22.03186
1430943664.998,59.386444
1430943665.013,122.99121
1430943665.029,163.76294
1430943665.045,186.85378
1430943665.06,198.56314
1430943665.076,203.0672
1430943665.091,202.80798
1430943665.107,201.24527
1430943665.123,196.34613
1430943665.138,188.44101
1430943665.154,180.59845
1430943665.17,175.56584
1430943665.185,173.21393
1430943665.201,171.46019
1430943665.216,168.35202
1430943665.232,163.25
1430943665.248,153.9737
1430943665.263,138.59158
1430943665.279,118.51448
1430943665.295,98.486694
1430943665.31,83.91268
1430943665.326,77.858536
1430943665.341,80.20124
1430943665.357,88.135765
1430943665.373,97.11617
1430943665.388,102.53708
1430943665.404,100.115036
1430943665.42,89.78863
1430943665.435,76.06004
1430943665.451,65.49626
1430943665.466,63.522057
1430943665.482,72.740074
1430943665.498,92.45636
1430943665.513,118.773705
1430943665.529,145.40408
1430943665.545,164.60632
1430943665.56,170.37196
1430943665.576,160.56232
1430943665.591,137.13103
1430943665.607,105.042015
1430943665.623,70.41035
1430943665.638,38.81665
1430943665.654,13.971466
1430943665.67,-2.626587
1430943665.685,-11.269714
1430943665.701,-13.15773
1430943665.716,-9.927292
1430943665.732,-3.844757
1430943665.748,1.9175415
1430943665.763,3.5406494
1430943665.779,-2.5364685
1430943665.795,-18.60318
1430943665.81,-44.779495
1430943665.826,-78.53081
1430943665.841,-115.17648
1430943665.857,-148.93932
1430943665.873,-174.61432
1430943665.888,-189.1832
1430943665.904,-192.71239
1430943665.92,-188.13629
1430943665.935,-179.8079
1430943665.951,-171.431
1430943665.966,-164.48529
1430943665.982,-158.11159
1430943665.998,-150.21577
1430943666.013,-139.17703
1430943666.029,-124.99124
1430943666.045,-109.27908
1430943666.06,-94.26462
1430943666.076,-81.57898
1430943666.091,-71.537964
1430943666.107,-63.135986
1430943666.123,-54.85254
1430943666.138,-45.509216
1430943666.154,-34.84149
1430943666.17,-23.637573
1430943666.185,-13.185883
1430943666.201,-4.6112366
1430943666.216,1.6271973
1430943666.232,5.880554
1430943666.248,9.040802
1430943666.263,12.012451
1430943666.279,15.298096
1430943666.295,18.810242
1430943666.31,21.965332
1430943666.326,24.024094
1430943666.341,24.341965
1430943666.357,22.546783
1430943666.373,18.575867
1430943666.388,12.607849
1430943666.404,5.0569153
1430943666.42,-3.4303284
1430943666.435,-11.957794
1430943666.451,-19.487457
1430943666.466,-25.015839
1430943666.482,-27.827667
1430943666.498,-27.648743
1430943666.513,-24.725403
1430943666.529,-19.768448
1430943666.545,-13.830109
1430943666.56,-8.110947
1430943666.576,-3.7793274
1430943666.591,-1.7618713
1430943666.607,-2.6057434
1430943666.623,-6.4220123
1430943666.638,-12.951843
1430943666.654,-21.504868
1430943666.67,-31.001999
1430943666.685,-40.045975
1430943666.701,-47.261948
1430943666.716,-51.69368
1430943666.732,-53.24472
1430943666.748,-52.735962
1430943666.763,-51.55606
1430943666.779,-51.00717
1430943666.795,-51.634216
1430943666.81,-53.04918
1430943666.826,-54.297745
1430943666.842,-54.543213
1430943666.857,-53.68074
1430943666.873,-52.44159
1430943666.888,-51.91577
1430943666.904,-52.887512
1430943666.92,-55.27649
1430943666.935,-57.916985
1430943666.951,-58.9497
1430943666.966,-56.511894
1430943666.982,-49.592957
1430943666.998,-38.49894
1430943667.013,-24.87703
1430943667.029,-11.0383
1430943667.045,0.74002075
1430943667.06,8.640877
1430943667.076,11.222977
1430943667.092,7.242054
1430943667.107,-4.1408386
1430943667.123,-22.378246
1430943667.138,-44.401836
1430943667.154,-64.302605
1430943667.17,-74.656
1430943667.185,-69.34907
1430943667.201,-46.551643
1430943667.217,-10.089331
1430943667.232,31.768192
1430943667.248,69.70534
1430943667.263,97.08903
1430943667.279,112.15384
1430943667.295,117.58996
1430943667.31,118.22566
1430943667.326,118.31563
1430943667.342,120.03843
1430943667.357,123.531494
1430943667.373,127.95494
1430943667.388,132.59683
1430943667.404,137.25714
1430943667.42,141.92703
1430943667.435,146.28256
1430943667.451,149.42056
1430943667.467,150.05032
1430943667.482,147.09616
1430943667.498,140.21878
1430943667.513,130.06128
1430943667.529,118.0708
1430943667.545,105.930214
1430943667.56,94.836464
1430943667.576,84.898
1430943667.592,75.14276
1430943667.607,64.05563
1430943667.623,50.52507
1430943667.638,34.681732
1430943667.654,18.097244
1430943667.67,3.177269
1430943667.685,-8.025597
1430943667.701,-14.882378
1430943667.717,-18.529793
1430943667.732,-21.294128
1430943667.748,-25.446716
1430943667.763,-32.159454
1430943667.779,-40.996048
1430943667.795,-50.219147
1430943667.81,-57.461906
1430943667.826,-60.458084
1430943667.842,-57.73163
1430943667.857,-49.12072
1430943667.873,-36.13687
1430943667.888,-21.93203
1430943667.904,-10.568016
1430943667.92,-5.604164
1430943667.935,-8.423721
1430943667.951,-17.252686
1430943667.967,-27.298325
1430943667.982,-32.309273
1430943667.998,-26.97496
1430943668.013,-9.3203125
1430943668.029,18.004593
1430943668.045,48.238922
1430943668.06,72.78309
1430943668.076,84.311584
1430943668.092,79.46398
1430943668.107,59.83103
1430943668.123,30.93589
1430943668.138,-0.29184723
1430943668.154,-28.216118
1430943668.17,-50.00195
1430943668.185,-65.405975
1430943668.201,-75.32227
1430943668.217,-80.23722
1430943668.232,-79.796616
1430943668.248,-73.57677
1430943668.263,-62.339455
1430943668.279,-48.60555
1430943668.295,-35.988564
1430943668.31,-27.605843
1430943668.326,-24.552593
1430943668.342,-25.535671
1430943668.357,-27.686928
1430943668.373,-28.029629
1430943668.388,-24.806389
1430943668.404,-18.02332
1430943668.42,-9.141094
1430943668.435,-0.11963272
1430943668.451,7.450924
1430943668.467,12.995968
1430943668.482,16.88699
1430943668.498,20.17361
1430943668.513,23.984112
1430943668.529,29.114761
1430943668.545,35.696793
1430943668.56,43.160603
1430943668.576,50.238964
1430943668.592,55.21807
1430943668.607,56.35315
1430943668.623,52.46066
1430943668.638,43.53355
1430943668.654,30.96466
1430943668.67,17.327541
1430943668.685,5.5842323
1430943668.701,-1.9520111
1430943668.717,-4.356144
1430943668.732,-2.3112488
1430943668.748,2.5366592
1430943668.763,8.396179
1430943668.779,14.184227
1430943668.795,19.743385
1430943668.81,25.573414
1430943668.826,32.137444
1430943668.842,39.389687
1430943668.857,46.627922
1430943668.873,52.740257
1430943668.888,56.640427
1430943668.904,57.6101
1430943668.92,55.36887
1430943668.935,50.02896
1430943668.951,41.891865
1430943668.967,31.429861
1430943668.982,19.247116
1430943668.998,6.182762
1430943669.013,-6.722578
1430943669.029,-18.269657
1430943669.045,-27.312471
1430943669.06,-32.926033
1430943669.076,-34.662106
1430943669.092,-32.686363
1430943669.107,-27.837097
1430943669.123,-21.512272
1430943669.138,-15.337072
1430943669.154,-10.697123
1430943669.17,-8.252518
1430943669.185,-7.7034607
1430943669.201,-7.972063
1430943669.217,-7.6713867
1430943669.232,-5.770607
1430943669.248,-1.9008064
1430943669.263,3.7007713
1430943669.279,10.611057
1430943669.295,18.597305
1430943669.31,27.687721
1430943669.326,37.766365
1430943669.342,48.09004
1430943669.357,57.06275
1430943669.373,62.583275
1430943669.388,62.84011
1430943669.404,57.204758
1430943669.42,46.576706
1430943669.435,33.12612
1430943669.451,19.433846
1430943669.467,7.592453
1430943669.482,-1.3410034
1430943669.498,-7.269722
1430943669.513,-10.653954
1430943669.529,-11.978989
1430943669.545,-11.553894
1430943669.56,-9.59642
1430943669.576,-6.3973236
1430943669.592,-2.2868958
1430943669.607,2.7956696
1430943669.623,9.758759
1430943669.638,20.414719
1430943669.654,36.850464
1430943669.67,60.081406
1430943669.685,88.85875
1430943669.701,119.07109
1430943669.717,144.54527
1430943669.732,158.91446
1430943669.748,157.9126
1430943669.764,141.03673
1430943669.779,111.85857
1430943669.795,76.6635
1430943669.81,42.03897
1430943669.826,12.441727
1430943669.842,-11.02005
1430943669.857,-30.094452
1430943669.873,-47.498016
1430943669.889,-64.836426
1430943669.904,-81.410065
1430943669.92,-94.60605
1430943669.935,-101.536865
1430943669.951,-100.816956
1430943669.967,-93.39697
1430943669.982,-82.039154
1430943669.998,-69.72635
1430943670.014,-58.25653
1430943670.029,-47.691315
1430943670.045,-37.04074
1430943670.06,-25.465637
1430943670.076,-13.183105
1430943670.092,-1.4866333
1430943670.107,8.064972
1430943670.123,14.550476
1430943670.139,18.183472
1430943670.154,20.045197
1430943670.17,21.299988
1430943670.185,22.548706
1430943670.201,23.467743
1430943670.217,23.031097
1430943670.232,20.078552
1430943670.248,13.968658
1430943670.264,4.885559
1430943670.279,-6.1716614
1430943670.295,-17.736237
1430943670.31,-28.383514
1430943670.326,-37.10611
1430943670.342,-43.549713
1430943670.357,-47.972565
1430943670.373,-51.094177
1430943670.389,-53.82773
1430943670.404,-57.03946
1430943670.42,-61.30829
1430943670.435,-66.7948
1430943670.451,-73.2558
1430943670.467,-80.12085
1430943670.482,-86.714355
1430943670.498,-92.44269
1430943670.514,-96.894165
1430943670.529,-99.84589
1430943670.545,-101.17883
1430943670.56,-100.771545
1430943670.576,-98.5011
1430943670.592,-94.2652
1430943670.607,-88.10791
1430943670.623,-80.34711
1430943670.639,-71.60736
1430943670.654,-62.761597
1430943670.67,-54.681824
1430943670.685,-47.93109
1430943670.701,-42.483643
1430943670.717,-37.602844
1430943670.732,-32.040894
1430943670.748,-24.399109
1430943670.764,-13.682007
1430943670.779,0.32580566
1430943670.795,16.861023
1430943670.81,34.36786
1430943670.826,50.74121
1430943670.842,63.81891
1430943670.857,71.742065
1430943670.873,73.38037
1430943670.889,68.56955
1430943670.904,58.25403
1430943670.92,44.33972
1430943670.935,29.234253
1430943670.951,15.156982
1430943670.967,3.4470215
1430943670.982,-5.7617188
1430943670.998,-13.3654785
1430943671.014,-20.68451
1430943671.029,-28.699768
1430943671.045,-37.57953
1430943671.06,-46.660217
1430943671.076,-54.846558
1430943671.092,-61.185974
1430943671.107,-65.23926
1430943671.123,-67.131775
1430943671.139,-67.324524
1430943671.154,-66.29993
1430943671.17,-64.33002
1430943671.185,-61.574463
1430943671.201,-58.25244
1430943671.217,-54.84204
1430943671.232,-52.111084
1430943671.248,-50.903015
1430943671.264,-51.771484
1430943671.279,-54.700745
1430943671.295,-59.05365
1430943671.31,-63.742615
1430943671.326,-67.67407
1430943671.342,-70.16058
1430943671.357,-71.178375
1430943671.373,-71.289764
1430943671.389,-71.32776
1430943671.404,-71.98279
1430943671.42,-73.4964
1430943671.435,-75.71228
1430943671.451,-78.239655
1430943671.467,-80.753876
1430943671.482,-83.1102
1430943671.498,-85.13934
1430943671.514,-86.43652
1430943671.529,-86.29172
1430943671.545,-83.89279
1430943671.56,-78.59833
1430943671.576,-70.09784
1430943671.592,-58.326538
1430943671.607,-43.19638
1430943671.623,-24.62445
1430943671.639,-2.7167969
1430943671.654,21.665558
1430943671.67,46.585876
1430943671.685,69.08365
1430943671.701,85.96945
1430943671.717,94.91556
1430943671.732,95.358536
1430943671.748,88.746445
1430943671.764,77.96275
1430943671.779,66.3629
1430943671.795,56.778366
1430943671.81,50.91339
1430943671.826,49.228622
1430943671.842,51.219177
1430943671.857,55.768265
1430943671.873,61.60472
1430943671.889,67.65451
1430943671.904,73.26466
1430943671.92,78.27606
1430943671.935,82.89143
1430943671.951,87.494995
1430943671.967,92.20912
1430943671.982,96.517426
1430943671.998,99.11127
1430943672.014,98.256546
1430943672.029,92.415085
1430943672.045,80.9942
1430943672.06,64.83
1430943672.076,46.078735
1430943672.092,27.612518
1430943672.107,12.211899
1430943672.123,1.8801422
1430943672.139,-2.4426422
1430943672.154,-0.79512024
1430943672.17,6.0776367
1430943672.185,16.882492
1430943672.201,29.88469
1430943672.217,42.966263
1430943672.232,53.956802
1430943672.248,61.133728
1430943672.264,63.730682
1430943672.279,62.07875
1430943672.295,57.399536
1430943672.31,51.27182
1430943672.326,45.042374
1430943672.342,39.59781
1430943672.357,35.292465
1430943672.373,32.09877
1430943672.389,29.803314
1430943672.404,28.11444
1430943672.42,26.639725
1430943672.436,24.86267
1430943672.451,22.249619
1430943672.467,18.461624
1430943672.482,13.568192
1430943672.498,8.127014
1430943672.514,3.050354
1430943672.529,-0.7638397
1430943672.545,-2.811325
1430943672.561,-3.2811127
1430943672.576,-2.9463806
1430943672.592,-2.840744
1430943672.607,-3.761383
1430943672.623,-5.9558105
1430943672.639,-9.035721
1430943672.654,-12.259659
1430943672.67,-14.899414
1430943672.686,-16.599426
1430943672.701,-17.396988
1430943672.717,-17.59961
1430943672.732,-17.498566
1430943672.748,-17.182724
1430943672.764,-16.495178
1430943672.779,-15.178726
1430943672.795,-13.0186
1430943672.811,-9.912338
1430943672.826,-5.8917084
1430943672.842,-1.0834808
1430943672.857,4.3151093
1430943672.873,10.012802
1430943672.889,15.534042
1430943672.904,20.203888
1430943672.92,23.248505
1430943672.936,23.95485
1430943672.951,21.893326
1430943672.967,17.101715
1430943672.982,10.193481
1430943672.998,2.1942291
1430943673.014,-5.6657104
1430943673.029,-12.369431
1430943673.045,-17.336594
1430943673.061,-20.577652
1430943673.076,-22.533737
1430943673.092,-23.823914
1430943673.107,-24.904724
1430943673.123,-25.966873
1430943673.139,-26.88301
1430943673.154,-27.42836
1430943673.17,-27.467133
1430943673.186,-27.056
1430943673.201,-26.429932
1430943673.217,-25.931137
1430943673.232,-25.817963
1430943673.248,-26.212814
1430943673.264,-27.034195
1430943673.279,-28.098587
1430943673.295,-29.184189
1430943673.311,-30.157944
1430943673.326,-30.97647
1430943673.342,-31.681458
1430943673.357,-32.276154
