1426797873.297,0.0
1426797873.313,0.0
1426797873.328,0.0
1426797873.344,0.0
1426797873.359,0.0
1426797873.375,0.0
1426797873.391,0.0
1426797873.406,0.0
1426797873.422,0.0
1426797873.438,0.0022315353
1426797873.453,-0.0045169927
1426797873.469,-0.011265522
1426797873.484,-0.011383951
1426797873.5,0.0011864507
1426797873.516,0.025910312
1426797873.531,0.050634187
1426797873.547,0.051362894
1426797873.563,-0.0014929791
1426797873.578,-0.1302426
1426797873.594,-0.35562757
1426797873.609,-0.6591247
1426797873.625,-1.0095103
1426797873.641,-1.3709826
1426797873.656,-1.7197359
1426797873.672,-2.0551105
1426797873.688,-2.39945
1426797873.703,-2.7866635
1426797873.719,-3.2399073
1426797873.734,-3.796012
1426797873.75,-4.418684
1426797873.766,-5.0592937
1426797873.781,-5.6644096
1426797873.797,-6.2021537
1426797873.813,-6.6808796
1426797873.828,-7.149598
1426797873.844,-7.6782336
1426797873.859,-8.310739
1426797873.875,-9.143657
1426797873.891,-10.089731
1426797873.906,-11.041313
1426797873.922,-11.8842125
1426797873.938,-12.564316
1426797873.953,-13.13563
1426797873.969,-13.760044
1426797873.984,-14.65232
1426797874,-15.962056
1426797874.016,-17.914442
1426797874.031,-20.317299
1426797874.047,-22.903854
1426797874.063,-25.37947
1426797874.078,-27.578028
1426797874.094,-29.57246
1426797874.109,-31.675173
1426797874.125,-34.3178
1426797874.141,-37.813618
1426797874.156,-42.541233
1426797874.172,-48.1463
1426797874.188,-54.104755
1426797874.203,-59.83309
1426797874.219,-64.972374
1426797874.234,-69.58293
1426797874.25,-74.14353
1426797874.266,-79.344986
1426797874.281,-85.70726
1426797874.297,-93.76193
1426797874.313,-102.99779
1426797874.328,-112.61757
1426797874.344,-121.73034
1426797874.359,-129.76602
1426797874.375,-136.75102
1426797874.391,-143.30344
1426797874.406,-150.74623
1426797874.422,-157.77356
1426797874.438,-166.64323
1426797874.453,-177.94798
1426797874.469,-191.79102
1426797874.484,-206.96808
1426797874.5,-220.56592
1426797874.516,-228.24644
1426797874.531,-225.36154
1426797874.547,-208.53198
1426797874.563,-176.87024
1426797874.578,-132.76222
1426797874.594,-80.04997
1426797874.609,-23.069275
1426797874.625,34.94339
1426797874.641,92.43695
1426797874.656,149.15695
1426797874.672,205.22772
1426797874.688,260.36963
1426797874.703,313.74133
1426797874.719,363.87396
1426797874.734,409.83353
1426797874.75,450.90775
1426797874.766,486.50244
1426797874.781,515.73865
1426797874.797,537.2274
1426797874.813,549.22
1426797874.828,549.9613
1426797874.844,538.367
1426797874.86,514.2055
1426797874.875,478.674
1426797874.891,433.87952
1426797874.906,382.45126
1426797874.922,327.02106
1426797874.938,269.84186
1426797874.953,212.63379
1426797874.969,156.6594
1426797874.985,102.95233
1426797875,52.373596
1426797875.016,5.9046936
1426797875.031,-35.580414
1426797875.047,-71.42584
1426797875.063,-101.35184
1426797875.078,-125.50113
1426797875.094,-144.3797
1426797875.11,-158.69403
1426797875.125,-169.15071
1426797875.141,-176.3711
1426797875.156,-180.75139
1426797875.172,-182.57419
1426797875.188,-182.06863
1426797875.203,-179.5066
1426797875.219,-175.23325
1426797875.235,-169.65286
1426797875.25,-163.17691
1426797875.266,-156.14568
1426797875.281,-148.80681
1426797875.297,-141.29686
1426797875.313,-133.68983
1426797875.328,-126.01962
1426797875.344,-118.33268
1426797875.36,-110.68864
1426797875.375,-103.15572
1426797875.391,-95.80455
1426797875.406,-88.684166
1426797875.422,-81.82744
1426797875.438,-75.24594
1426797875.453,-68.9526
1426797875.469,-62.949085
1426797875.485,-57.247486
1426797875.5,-51.857098
1426797875.516,-46.782562
1426797875.531,-42.027237
1426797875.547,-37.584335
1426797875.563,-33.450504
1426797875.578,-29.61234
1426797875.594,-26.069525
1426797875.61,-22.808168
1426797875.625,-19.826426
1426797875.641,-17.1187
1426797875.656,-14.678136
1426797875.672,-12.500375
1426797875.688,-10.5726385
1426797875.703,-8.885072
1426797875.719,-7.4208117
1426797875.735,-6.1665754
1426797875.75,-5.1024923
1426797875.766,-4.209645
1426797875.781,-3.4686675
1426797875.797,-2.863251
1426797875.813,-2.3736043
1426797875.828,-1.980933
1426797875.844,-1.6741066
1426797875.86,-1.43839
1426797875.875,-1.2629712
1426797875.891,-1.1347454
1426797875.906,-1.0481217
1426797875.922,-0.9955696
1426797875.938,-0.9691149
1426797875.953,-0.97002506
1426797875.969,-0.989254
1426797875.985,-1.0260785
1426797876,-1.0777247
1426797876.016,-1.1454136
1426797876.031,-1.2296953
1426797876.047,-1.3264639
1426797876.063,-1.4398059
1426797876.078,-1.5692215
1426797876.094,-1.7169311
1426797876.11,-1.8857961
1426797876.125,-2.0734107
1426797876.141,-2.2846634
1426797876.156,-2.5144372
1426797876.172,-2.7740073
1426797876.188,-3.056745
1426797876.203,-3.3707232
1426797876.219,-3.7132516
1426797876.235,-4.091482
1426797876.25,-4.5006027
1426797876.266,-4.9445133
1426797876.281,-5.4221873
1426797876.297,-5.9353657
1426797876.313,-6.4836617
1426797876.328,-7.0714107
1426797876.344,-7.696671
1426797876.36,-8.361205
1426797876.375,-9.064957
1426797876.391,-9.810314
1426797876.406,-10.597714
1426797876.422,-11.424606
1426797876.438,-12.29324
1426797876.453,-13.207856
1426797876.469,-14.179196
1426797876.485,-15.216518
1426797876.5,-16.314259
1426797876.516,-17.479115
1426797876.531,-18.690874
1426797876.547,-19.92928
1426797876.563,-21.142488
1426797876.578,-22.263876
1426797876.594,-23.19423
1426797876.61,-23.82435
1426797876.625,-24.030249
1426797876.641,-23.69323
1426797876.656,-22.703796
1426797876.672,-20.995667
1426797876.688,-18.552654
1426797876.703,-15.406933
1426797876.719,-11.646606
1426797876.735,-7.3825455
1426797876.75,-2.8106346
1426797876.766,1.8501511
1426797876.781,6.3912964
1426797876.797,10.608295
1426797876.813,14.324436
1426797876.828,17.416874
1426797876.844,19.818748
1426797876.86,21.493752
1426797876.875,22.483944
1426797876.891,22.846645
1426797876.906,22.687931
1426797876.922,22.128124
1426797876.938,21.262688
1426797876.953,20.216587
1426797876.969,19.058926
1426797876.985,17.858418
1426797877,16.655437
1426797877.016,15.472008
1426797877.031,14.303726
1426797877.047,13.173683
1426797877.063,12.095963
1426797877.078,11.076012
1426797877.094,10.086861
1426797877.11,9.122147
1426797877.125,8.170723
1426797877.141,7.1890564
1426797877.156,6.1354294
1426797877.172,4.9428864
1426797877.188,3.6437912
1426797877.203,2.211441
1426797877.219,0.59376526
1426797877.235,-1.2601318
1426797877.25,-3.4862213
1426797877.266,-6.2005234
1426797877.281,-9.555603
1426797877.297,-13.71479
1426797877.313,-18.870125
1426797877.328,-24.958359
1426797877.344,-31.924065
1426797877.36,-39.65338
1426797877.375,-48.016403
1426797877.391,-56.797287
1426797877.406,-65.76225
1426797877.422,-74.68393
1426797877.438,-83.367905
1426797877.453,-91.71602
1426797877.469,-99.341934
1426797877.485,-106.06569
1426797877.5,-111.808914
1426797877.516,-116.59842
1426797877.532,-120.572815
1426797877.547,-123.900375
1426797877.563,-126.84129
1426797877.578,-129.64348
1426797877.594,-132.64566
1426797877.61,-135.65517
1426797877.625,-138.55084
1426797877.641,-141.17844
1426797877.657,-143.34146
1426797877.672,-144.76791
1426797877.688,-145.02917
1426797877.703,-143.47885
1426797877.719,-139.04315
1426797877.735,-133.46088
1426797877.75,-127.16815
1426797877.766,-120.406525
1426797877.782,-113.301544
1426797877.797,-105.954956
1426797877.813,-98.481995
1426797877.828,-90.99698
1426797877.844,-83.695496
1426797877.86,-76.75806
1426797877.875,-70.43872
1426797877.891,-64.47897
1426797877.907,-58.724762
1426797877.922,-53.041718
1426797877.938,-47.36148
1426797877.953,-41.697754
1426797877.969,-36.165344
1426797877.985,-30.942566
1426797878,-26.24768
1426797878.016,-22.27069
1426797878.032,-18.741943
1426797878.047,-15.397461
1426797878.063,-11.994202
1426797878.078,-8.388489
1426797878.094,-4.6294556
1426797878.11,-0.88275146
1426797878.125,2.5237427
1426797878.141,5.325989
1426797878.157,7.4466553
1426797878.172,9.291687
1426797878.188,11.454956
1426797878.203,14.588684
1426797878.219,19.12677
1426797878.235,25.173645
1426797878.25,32.395264
1426797878.266,40.22931
1426797878.282,48.107483
1426797878.297,55.76776
1426797878.313,63.530884
1426797878.328,72.05255
1426797878.344,82.08667
1426797878.36,94.076904
1426797878.375,107.909424
1426797878.391,122.92688
1426797878.407,138.14746
1426797878.422,152.68579
1426797878.438,166.10107
1426797878.453,178.67603
1426797878.469,191.11536
1426797878.485,204.43298
1426797878.5,219.64001
1426797878.516,237.56213
1426797878.532,258.53455
1426797878.547,282.0321
1426797878.563,306.31152
1426797878.578,328.3916
1426797878.594,344.53845
1426797878.61,351.41028
1426797878.625,347.19897
1426797878.641,332.48254
1426797878.657,310.03674
1426797878.672,283.86462
1426797878.688,257.74695
1426797878.703,234.14246
1426797878.719,213.80603
1426797878.735,196.30798
1426797878.75,180.81543
1426797878.766,166.84753
1426797878.782,154.38428
1426797878.797,143.59912
1426797878.813,134.31897
1426797878.828,125.77515
1426797878.844,116.61011
1426797878.86,105.38257
1426797878.875,91.10974
1426797878.891,73.7312
1426797878.907,54.157227
1426797878.922,33.946533
1426797878.938,14.603149
1426797878.953,-2.946289
1426797878.969,-18.746704
1426797878.985,-33.565063
1426797879,-48.346313
1426797879.016,-63.486694
1426797879.032,-78.51044
1426797879.047,-92.1297
1426797879.063,-102.85895
1426797879.078,-109.711914
1426797879.094,-112.6994
1426797879.11,-112.78235
1426797879.125,-111.38965
1426797879.141,-109.72815
1426797879.157,-108.20502
1426797879.172,-106.39624
1426797879.188,-103.37445
1426797879.203,-98.38019
1426797879.219,-91.48547
1426797879.235,-83.562195
1426797879.25,-75.963806
1426797879.266,-69.81952
1426797879.282,-65.406006
1426797879.297,-62.048035
1426797879.313,-58.48987
1426797879.328,-53.579224
1426797879.344,-46.864624
1426797879.36,-38.873352
1426797879.375,-30.703003
1426797879.391,-23.44934
1426797879.407,-17.618103
1426797879.422,-12.857361
1426797879.438,-8.227661
1426797879.453,-2.7045288
1426797879.469,4.2423096
1426797879.485,12.454041
1426797879.5,21.101013
1426797879.516,29.119446
1426797879.532,35.635925
1426797879.547,40.182922
1426797879.563,42.784058
1426797879.578,43.589783
1426797879.594,42.613525
1426797879.61,39.543884
1426797879.625,33.98474
1426797879.641,25.715027
1426797879.657,15.025085
1426797879.672,2.8740234
1426797879.688,-9.477295
1426797879.703,-20.775757
1426797879.719,-30.381042
1426797879.735,-38.30127
1426797879.75,-45.017334
1426797879.766,-51.008423
1426797879.782,-56.32715
1426797879.797,-60.452698
1426797879.813,-62.659485
1426797879.828,-62.521362
1426797879.844,-60.237427
1426797879.86,-56.76941
1426797879.875,-53.364136
1426797879.891,-50.973755
1426797879.907,-49.852234
1426797879.922,-49.383545
1426797879.938,-48.454407
1426797879.953,-46.066833
1426797879.969,-41.88861
1426797879.985,-36.30078
1426797880,-30.191895
1426797880.016,-24.457092
1426797880.032,-19.478027
1426797880.047,-15.023743
1426797880.063,-10.47406
1426797880.078,-5.1931763
1426797880.094,1.0005493
1426797880.11,7.5933228
1426797880.125,13.7178955
1426797880.141,18.631348
1426797880.157,22.121704
1426797880.172,24.848389
1426797880.188,27.942444
1426797880.204,32.50647
1426797880.219,38.89966
1426797880.235,46.45752
1426797880.25,53.578003
1426797880.266,58.387695
1426797880.282,59.505127
1426797880.297,56.592957
1426797880.313,50.389465
1426797880.329,42.234863
1426797880.344,33.345703
1426797880.36,24.291504
1426797880.375,14.9210205
1426797880.391,4.7424927
1426797880.407,-6.5685425
1426797880.422,-18.63153
1426797880.438,-30.470825
1426797880.454,-40.762756
1426797880.469,-48.622925
1426797880.485,-53.87018
1426797880.5,-57.10193
1426797880.516,-59.24768
1426797880.532,-61.035095
1426797880.547,-62.518738
1426797880.563,-63.144592
1426797880.579,-62.128967
1426797880.594,-58.93976
1426797880.61,-53.810547
1426797880.625,-47.601746
1426797880.641,-41.47455
1426797880.657,-36.33795
1426797880.672,-32.399353
1426797880.688,-29.117737
1426797880.704,-25.53534
1426797880.719,-20.977783
1426797880.735,-15.331543
1426797880.75,-9.161316
1426797880.766,-3.3381348
1426797880.782,1.4540405
1426797880.797,5.184387
1426797880.813,8.428345
1426797880.829,12.115295
1426797880.844,16.958923
1426797880.86,22.980774
1426797880.875,29.689453
1426797880.891,36.331573
1426797880.907,42.383728
1426797880.922,47.830627
1426797880.938,53.02124
1426797880.954,58.183075
1426797880.969,63.026764
1426797880.985,66.59375
1426797881,67.45685
1426797881.016,64.49652
1426797881.032,57.30014
1426797881.047,46.529602
1426797881.063,33.62027
1426797881.079,20.313782
1426797881.094,7.9142456
1426797881.11,-3.0657043
1426797881.125,-12.877136
1426797881.141,-22.134796
1426797881.157,-31.25122
1426797881.172,-40.120697
1426797881.188,-48.03357
1426797881.204,-53.981262
1426797881.219,-57.160675
1426797881.235,-57.503387
1426797881.25,-55.698303
1426797881.266,-52.90567
1426797881.282,-50.21176
1426797881.297,-48.135406
1426797881.313,-46.50894
1426797881.329,-44.70337
1426797881.344,-42.08896
1426797881.36,-38.58542
1426797881.375,-34.754578
1426797881.391,-31.373718
1426797881.407,-28.96637
1426797881.422,-27.403381
1426797881.438,-25.868866
1426797881.454,-23.218689
1426797881.469,-18.653229
1426797881.485,-12.09198
1426797881.5,-4.331787
1426797881.516,3.4148865
1426797881.532,10.087097
1426797881.547,15.259705
1426797881.563,19.304413
1426797881.579,23.100433
1426797881.594,27.633026
1426797881.61,33.411713
1426797881.625,40.33249
1426797881.641,47.65915
1426797881.657,54.438293
1426797881.672,59.807922
1426797881.688,63.267334
1426797881.704,64.66989
1426797881.719,64.05615
1426797881.735,61.432373
1426797881.75,56.60739
1426797881.766,49.353058
1426797881.782,39.592285
1426797881.797,27.704315
1426797881.813,14.537842
1426797881.829,1.1616211
1426797881.844,-11.42215
1426797881.86,-22.64508
1426797881.875,-32.466858
1426797881.891,-41.251923
1426797881.907,-49.32544
1426797881.922,-56.602173
1426797881.938,-62.6037
1426797881.954,-66.56952
1426797881.969,-67.997284
1426797881.985,-66.85544
1426797882,-63.77423
1426797882.016,-59.74347
1426797882.032,-55.740753
1426797882.047,-52.356384
1426797882.063,-49.517212
1426797882.079,-46.811737
1426797882.094,-43.644623
1426797882.11,-39.77231
1426797882.125,-35.30124
1426797882.141,-30.692139
1426797882.157,-26.324493
1426797882.172,-22.243805
1426797882.188,-18.0607
1426797882.204,-13.0720825
1426797882.219,-6.759735
1426797882.235,0.916626
1426797882.25,9.254639
1426797882.266,17.25534
1426797882.282,23.923431
1426797882.297,28.94397
1426797882.313,32.854248
1426797882.329,36.7735
1426797882.344,41.9263
1426797882.36,48.88156
1426797882.375,57.227814
1426797882.391,65.53549
1426797882.407,71.95398
1426797882.422,75.01309
1426797882.438,74.16574
1426797882.454,69.99658
1426797882.469,63.669983
1426797882.485,56.2677
1426797882.5,48.25952
1426797882.516,39.424866
1426797882.532,29.237244
1426797882.547,17.433075
1426797882.563,4.4950256
1426797882.579,-8.532806
1426797882.594,-20.31128
1426797882.61,-30.013062
1426797882.625,-37.562744
1426797882.641,-43.60135
1426797882.657,-48.904633
1426797882.672,-53.816925
1426797882.688,-58.048065
1426797882.704,-60.71582
1426797882.719,-61.003876
1426797882.735,-58.647156
1426797882.75,-54.301575
1426797882.766,-49.16211
1426797882.782,-44.477295
1426797882.797,-40.934845
1426797882.813,-38.349243
1426797882.829,-35.911224
1426797882.844,-32.733337
1426797882.86,-28.408234
1426797882.876,-23.19345
1426797882.891,-17.901825
1426797882.907,-13.302734
1426797882.922,-9.703308
1426797882.938,-6.730072
1426797882.954,-3.5874023
1426797882.969,0.44781494
1426797882.985,5.5675964
1426797883,11.315552
1426797883.016,16.843414
1426797883.032,21.472473
1426797883.047,25.118744
1426797883.063,28.443085
1426797883.079,32.518127
1426797883.094,38.25937
1426797883.11,45.84607
1426797883.126,54.456787
1426797883.141,62.547943
1426797883.157,68.37805
1426797883.172,70.69772
1426797883.188,69.13278
1426797883.204,64.13739
1426797883.219,56.738068
1426797883.235,47.901154
1426797883.251,38.130585
1426797883.266,27.354736
1426797883.282,15.258606
1426797883.297,1.7854004
1426797883.313,-12.525452
1426797883.329,-26.48993
1426797883.344,-38.68872
1426797883.36,-48.055786
1426797883.376,-54.298645
1426797883.391,-57.958588
1426797883.407,-60.063324
1426797883.422,-61.457916
1426797883.438,-62.35681
1426797883.454,-62.312195
1426797883.469,-60.58194
1426797883.485,-56.741547
1426797883.501,-51.11731
1426797883.516,-44.720673
1426797883.532,-38.73587
1426797883.547,-34.014282
1426797883.563,-30.603424
1426797883.579,-27.848145
1426797883.594,-24.809784
1426797883.61,-20.849396
1426797883.626,-15.955231
1426797883.641,-10.713715
1426797883.657,-5.824646
1426797883.672,-1.676117
1426797883.688,1.9656982
1426797883.704,5.7589417
1426797883.719,10.440704
1426797883.735,16.265228
1426797883.751,22.933624
1426797883.766,29.680847
1426797883.782,35.668488
1426797883.797,40.59073
1426797883.813,44.773346
1426797883.829,49.00107
1426797883.844,53.994934
1426797883.86,59.897583
1426797883.876,65.89694
1426797883.891,70.60663
1426797883.907,72.49747
1426797883.922,70.505005
1426797883.938,64.58453
1426797883.954,55.564026
1426797883.969,44.77771
1426797883.985,33.485596
1426797884.001,22.371765
1426797884.016,11.397888
1426797884.032,0.2098999
1426797884.047,-11.54892
1426797884.063,-23.774506
1426797884.079,-35.65854
1426797884.094,-46.02481
1426797884.11,-53.75241
1426797884.126,-58.382416
1426797884.141,-60.28366
1426797884.157,-60.46231
1426797884.172,-60.073547
1426797884.188,-59.73651
1426797884.204,-59.32257
1426797884.219,-58.033417
1426797884.235,-55.10031
1426797884.251,-50.29657
1426797884.266,-44.274567
1426797884.282,-38.244232
1426797884.297,-33.380005
1426797884.313,-30.175537
1426797884.329,-28.147888
1426797884.344,-26.177979
1426797884.36,-22.987335
1426797884.376,-17.958649
1426797884.391,-11.374084
1426797884.407,-4.228302
1426797884.422,2.3321838
1426797884.438,7.671936
1426797884.454,11.876587
1426797884.469,15.742737
1426797884.485,20.116394
1426797884.501,25.454803
1426797884.516,31.488495
1426797884.532,37.55243
1426797884.547,43.036133
1426797884.563,47.781036
1426797884.579,52.231873
1426797884.594,56.977356
1426797884.61,62.36667
1426797884.626,67.84354
1426797884.641,72.133514
1426797884.657,73.67886
1426797884.672,71.25699
1426797884.688,64.68848
1426797884.704,54.72174
1426797884.719,42.81357
1426797884.735,30.442123
1426797884.751,18.588715
1426797884.766,7.426132
1426797884.782,-3.431839
1426797884.797,-14.429092
1426797884.813,-25.689621
1426797884.829,-36.63713
1426797884.844,-46.25467
1426797884.86,-53.41295
1426797884.876,-57.437973
1426797884.891,-58.411087
1426797884.907,-57.116394
1426797884.922,-54.7558
1426797884.938,-52.22426
1426797884.954,-49.913956
1426797884.969,-47.50525
1426797884.985,-44.4572
1426797885.001,-40.456192
1426797885.016,-35.82335
1426797885.032,-31.383896
1426797885.047,-28.046509
1426797885.063,-26.244308
1426797885.079,-25.526627
1426797885.094,-24.803833
1426797885.11,-22.822388
1426797885.126,-18.93608
1426797885.141,-13.39856
1426797885.157,-7.2191772
1426797885.172,-1.6231995
1426797885.188,2.780182
1426797885.204,6.2568207
1426797885.219,9.81427
1426797885.235,14.536255
1426797885.251,20.951538
1426797885.266,28.658081
1426797885.282,36.50093
1426797885.297,43.2592
1426797885.313,48.17726
1426797885.329,51.395264
1426797885.344,53.639084
1426797885.36,55.643967
1426797885.376,57.528458
1426797885.391,58.544937
1426797885.407,57.321716
1426797885.422,52.537308
1426797885.438,43.774734
1426797885.454,31.685364
1426797885.469,17.964615
1426797885.485,4.5270844
1426797885.501,-7.2432556
1426797885.516,-17.022232
1426797885.532,-25.312653
1426797885.548,-32.938736
1426797885.563,-40.32959
1426797885.579,-47.046814
1426797885.594,-52.08136
1426797885.61,-54.343613
1426797885.626,-53.468506
1426797885.641,-50.086197
1426797885.657,-45.622147
1426797885.672,-41.6073
1426797885.688,-38.943512
1426797885.704,-37.498093
1426797885.719,-36.282288
1426797885.735,-34.165985
1426797885.751,-30.4637
1426797885.766,-25.34085
1426797885.782,-19.66034
1426797885.798,-14.446838
1426797885.813,-10.231354
1426797885.829,-6.87381
1426797885.844,-3.6591034
1426797885.86,0.24783325
1426797885.876,5.1909027
1426797885.891,10.876923
1426797885.907,16.51921
1426797885.923,21.189926
1426797885.938,24.423569
1426797885.954,26.440796
1426797885.969,28.17517
1426797885.985,30.774246
1426797886.001,35.13936
1426797886.016,41.366592
1426797886.032,48.747253
1426797886.048,55.99077
1426797886.063,61.740555
1426797886.079,65.153336
1426797886.094,66.008194
1426797886.11,64.612045
1426797886.126,61.36714
1426797886.141,56.421005
1426797886.157,49.584747
1426797886.173,40.598373
1426797886.188,29.471619
1426797886.204,16.718246
1426797886.219,3.3764343
1426797886.235,-9.403
1426797886.251,-20.793427
1426797886.266,-30.501205
1426797886.282,-38.68994
1426797886.298,-45.719208
1426797886.313,-51.715515
1426797886.329,-56.439194
1426797886.344,-59.388535
1426797886.36,-60.073715
1426797886.376,-58.38147
1426797886.391,-54.804367
1426797886.407,-50.245712
1426797886.423,-45.737778
1426797886.438,-42.045105
1426797886.454,-39.363495
1426797886.469,-37.34105
1426797886.485,-35.274826
1426797886.501,-32.575012
1426797886.516,-29.113098
1426797886.532,-25.278534
1426797886.548,-21.646103
1426797886.563,-18.600113
1426797886.579,-15.950806
1426797886.594,-12.971024
1426797886.61,-8.797836
1426797886.626,-2.8847961
1426797886.641,4.545929
1426797886.657,12.521072
1426797886.673,19.88739
1426797886.688,25.915771
1426797886.704,30.684448
1426797886.719,35.115387
1426797886.735,40.467926
1426797886.751,47.482147
1426797886.766,55.930923
1426797886.782,64.56914
1426797886.798,71.530106
1426797886.813,75.229416
1426797886.829,74.85501
1426797886.844,70.649994
1426797886.86,63.581894
1426797886.876,54.79413
1426797886.891,44.96547
1426797886.907,34.229187
1426797886.923,22.422943
1426797886.938,9.42717
1426797886.954,-4.2676086
1426797886.969,-17.676727
1426797886.985,-29.491776
1426797887.001,-38.670013
1426797887.016,-44.81688
1426797887.032,-48.270493
1426797887.048,-49.948273
1426797887.063,-50.770645
1426797887.079,-51.30565
1426797887.094,-51.409683
1426797887.11,-50.644302
1426797887.126,-48.500183
1426797887.141,-44.97969
1426797887.157,-40.649704
1426797887.173,-36.43654
1426797887.188,-33.141678
1426797887.204,-31.017609
1426797887.219,-29.660782
1426797887.235,-28.20549
1426797887.251,-25.792053
1426797887.266,-22.086288
1426797887.282,-17.334244
1426797887.298,-12.246994
1426797887.313,-7.4910736
1426797887.329,-3.4008484
1426797887.344,0.22164917
1426797887.36,3.91333
1426797887.376,8.284561
1426797887.391,13.56662
1426797887.407,19.521149
1426797887.423,25.626373
1426797887.438,31.362274
1426797887.454,36.563797
1426797887.469,41.49826
1426797887.485,46.707993
1426797887.501,52.533585
1426797887.516,58.682602
1426797887.532,64.0712
1426797887.548,67.25514
1426797887.563,66.90582
1426797887.579,62.550247
1426797887.594,54.826523
1426797887.61,45.16678
1426797887.626,35.17357
1426797887.641,25.84761
1426797887.657,17.211685
1426797887.673,8.57634
1426797887.688,-0.8166504
1426797887.704,-11.208588
1426797887.719,-21.986542
1426797887.735,-31.929413
1426797887.751,-39.725616
1426797887.766,-44.69374
1426797887.782,-46.925568
1426797887.798,-47.21216
1426797887.813,-46.555496
1426797887.829,-45.6445
1426797887.844,-44.594055
1426797887.86,-43.073593
1426797887.876,-40.574524
1426797887.891,-36.966873
1426797887.907,-32.611237
1426797887.923,-28.334488
1426797887.938,-25.012878
1426797887.954,-23.089172
1426797887.969,-22.28218
1426797887.985,-21.768692
1426797888.001,-20.554092
1426797888.016,-17.998291
1426797888.032,-14.200394
1426797888.048,-9.801102
1426797888.063,-5.6431274
1426797888.079,-2.2868195
1426797888.094,0.2945404
1426797888.11,2.716217
1426797888.126,5.7203674
1426797888.141,9.8654175
1426797888.157,15.127731
1426797888.173,21.065826
1426797888.188,27.018707
1426797888.204,32.631546
1426797888.219,37.920197
1426797888.235,43.1808
1426797888.251,48.721176
1426797888.266,54.220215
1426797888.282,58.714233
1426797888.298,60.81096
1426797888.313,59.330444
1426797888.329,53.79306
1426797888.344,44.814743
1426797888.36,33.801224
1426797888.376,22.404617
1426797888.391,11.807266
1426797888.407,2.314743
1426797888.423,-6.460663
1426797888.438,-15.198151
1426797888.454,-24.18045
1426797888.47,-33.037613
1426797888.485,-40.76216
1426797888.501,-46.28296
1426797888.516,-48.980453
1426797888.532,-49.01837
1426797888.548,-47.314484
1426797888.563,-45.001297
1426797888.579,-42.92131
1426797888.595,-41.175125
1426797888.61,-39.27263
1426797888.626,-36.49872
1426797888.641,-32.422928
1426797888.657,-27.306381
1426797888.673,-21.96788
1426797888.688,-17.432892
1426797888.704,-14.264191
1426797888.72,-12.197739
1426797888.735,-10.337967
1426797888.751,-7.5442505
1426797888.766,-3.21286
1426797888.782,2.4328918
1426797888.798,8.392426
1426797888.813,13.450363
1426797888.829,16.865494
1426797888.845,18.72676
1426797888.86,19.935013
1426797888.876,21.670334
1426797888.891,24.836563
1426797888.907,29.625366
1426797888.923,35.557037
1426797888.938,41.809067
1426797888.954,47.60446
1426797888.97,52.58165
1426797888.985,56.61592
1426797889.001,59.7209
1426797889.016,61.606674
1426797889.032,61.70903
1426797889.048,59.225494
1426797889.063,53.630875
1426797889.079,44.866333
1426797889.095,33.61949
1426797889.11,21.2202
1426797889.126,9.090622
1426797889.141,-1.6454773
1426797889.157,-10.644867
1426797889.173,-18.217697
1426797889.188,-25.01677
1426797889.204,-31.631546
1426797889.22,-38.064835
1426797889.235,-43.781784
1426797889.251,-47.914017
1426797889.266,-49.864258
1426797889.282,-49.5672
1426797889.298,-47.68599
1426797889.313,-45.2144
1426797889.329,-42.947342
1426797889.345,-41.212753
1426797889.36,-39.633926
1426797889.376,-37.548233
1426797889.391,-34.40715
1426797889.407,-30.263657
1426797889.423,-25.75357
1426797889.438,-21.758377
1426797889.454,-18.888687
1426797889.47,-17.014008
1426797889.485,-15.356934
1426797889.501,-12.775711
1426797889.516,-8.498047
1426797889.532,-2.4004364
1426797889.548,4.719467
1426797889.563,11.6657715
1426797889.579,17.433792
1426797889.595,21.696564
1426797889.61,24.970764
1426797889.626,28.247192
1426797889.641,32.49095
1426797889.657,37.984665
1426797889.673,44.266983
1426797889.688,50.382614
1426797889.704,55.291412
1426797889.72,58.446136
1426797889.735,59.854584
1426797889.751,59.929672
1426797889.766,58.933594
1426797889.782,56.73842
1426797889.798,52.686615
1426797889.813,46.03975
1426797889.829,36.46254
1426797889.845,24.331451
1426797889.86,10.828705
1426797889.876,-2.5844574
1426797889.891,-14.64653
1426797889.907,-24.848663
1426797889.923,-33.460938
1426797889.938,-41.1317
1426797889.954,-48.41722
1426797889.97,-55.222702
1426797889.985,-60.82492
1426797890.001,-64.0533
1426797890.016,-64.13515
1426797890.032,-61.07759
1426797890.048,-55.833923
1426797890.063,-49.962387
1426797890.079,-44.89865
1426797890.095,-41.35013
1426797890.11,-39.02234
1426797890.126,-37.02481
1426797890.141,-34.338425
1426797890.157,-30.58284
1426797890.173,-26.074707
1426797890.188,-21.561356
1426797890.204,-17.75682
1426797890.22,-14.725647
1426797890.235,-11.924072
1426797890.251,-8.418442
1426797890.266,-3.4884796
1426797890.282,2.9415283
1426797890.298,10.122437
1426797890.313,16.948227
1426797890.329,22.45636
1426797890.345,26.389694
1426797890.36,29.355133
1426797890.376,32.514847
1426797890.391,36.998657
1426797890.407,43.262222
1426797890.423,50.704803
1426797890.438,57.8627
1426797890.454,63.072754
1426797890.47,65.1689
1426797890.485,63.946594
1426797890.501,60.1183
1426797890.516,54.74518
1426797890.532,48.63434
1426797890.548,41.92209
1426797890.563,34.139267
1426797890.579,24.709686
1426797890.595,13.57135
1426797890.61,1.4610443
1426797890.626,-10.2764435
1426797890.641,-20.228485
1426797890.657,-27.604584
1426797890.673,-32.4944
1426797890.688,-35.70517
1426797890.704,-38.2899
1426797890.72,-40.840378
1426797890.735,-43.200195
1426797890.751,-44.64839
1426797890.766,-44.397995
1426797890.782,-42.153305
1426797890.798,-38.43576
1426797890.813,-34.301895
1426797890.829,-30.843628
1426797890.845,-28.618713
1426797890.86,-27.276367
1426797890.876,-25.897446
1426797890.891,-23.509476
1426797890.907,-19.695648
1426797890.923,-14.7322235
1426797890.938,-9.468201
1426797890.954,-4.6984863
1426797890.97,-0.7350006
1426797890.985,2.7560272
1426797891.001,6.5688934
1426797891.016,11.464218
1426797891.032,17.672668
1426797891.048,24.83168
1426797891.063,32.206497
1426797891.079,39.07274
1426797891.095,45.03743
1426797891.11,50.24005
1426797891.126,55.062164
1426797891.142,59.808594
1426797891.157,64.23547
1426797891.173,67.41554
1426797891.188,68.17442
1426797891.204,65.4527
1426797891.22,58.91487
1426797891.235,49.22014
1426797891.251,37.77359
1426797891.267,26.125214
1426797891.282,15.306366
1426797891.298,5.4589996
1426797891.313,-4.0903625
1426797891.329,-14.062256
1426797891.345,-24.748306
1426797891.36,-35.528427
1426797891.376,-45.0316
1426797891.392,-51.757843
1426797891.407,-54.905945
1426797891.423,-54.73004
1426797891.438,-52.4581
1426797891.454,-49.65158
1426797891.47,-47.41736
1426797891.485,-45.951843
1426797891.501,-44.585396
1426797891.517,-42.250885
1426797891.532,-38.3621
1426797891.548,-33.16066
1426797891.563,-27.66687
1426797891.579,-23.10675
1426797891.595,-20.245941
1426797891.61,-18.85807
1426797891.626,-17.930542
1426797891.642,-16.17212
1426797891.657,-12.645996
1426797891.673,-7.4395905
1426797891.688,-1.4168854
1426797891.704,4.2157288
1426797891.72,8.591339
1426797891.735,11.665619
1426797891.751,14.201752
1426797891.767,17.368942
1426797891.782,22.093643
1426797891.798,28.660622
1426797891.813,36.47666
1426797891.829,44.48826
1426797891.845,51.622246
1426797891.86,57.152313
1426797891.876,60.871544
1426797891.892,62.938385
1426797891.907,63.40551
1426797891.923,62.076378
1426797891.938,58.50052
1426797891.954,52.167664
1426797891.97,42.971443
1426797891.985,31.419601
1426797892.001,18.58574
1426797892.017,5.8800583
1426797892.032,-5.5049744
1426797892.048,-15.083763
1426797892.063,-23.113327
1426797892.079,-30.22979
1426797892.095,-37.090378
1426797892.11,-43.76876
1426797892.126,-49.614334
1426797892.142,-53.749863
1426797892.157,-55.3834
1426797892.173,-54.42726
1426797892.188,-51.645515
1426797892.204,-48.278313
1426797892.22,-45.391006
1426797892.235,-43.399956
1426797892.251,-41.886513
1426797892.267,-39.89303
1426797892.282,-36.60099
1426797892.298,-31.709557
1426797892.313,-25.692421
1426797892.329,-19.479385
1426797892.345,-13.93174
1426797892.36,-9.358162
1426797892.376,-5.4497147
1426797892.392,-1.4190979
1426797892.407,3.4318542
1426797892.423,9.212227
1426797892.438,15.460518
1426797892.454,21.331306
1426797892.47,26.113197
1426797892.485,29.694046
1426797892.501,32.722496
1426797892.517,36.08735
1426797892.532,40.631203
1426797892.548,46.410343
1426797892.563,52.614685
1426797892.579,57.84011
1426797892.595,60.701828
1426797892.61,60.35579
1426797892.626,56.90761
1426797892.642,51.175488
1426797892.657,44.139244
1426797892.673,36.359833
1426797892.688,27.806831
1426797892.704,18.023438
1426797892.72,6.62088
1426797892.735,-6.136585
1426797892.751,-19.340984
1426797892.767,-31.467854
1426797892.782,-41.230038
1426797892.798,-47.993717
1426797892.813,-52.04669
1426797892.829,-54.385136
1426797892.845,-56.16377
1426797892.86,-58.134697
1426797892.876,-60.30995
1426797892.892,-62.11076
1426797892.907,-62.811676
1426797892.923,-62.046288
1426797892.938,-60.12434
1426797892.954,-57.850468
1426797892.97,-56.139256
1426797892.985,-55.53797
1426797893.001,-55.797787
1426797893.017,-56.043026
1426797893.032,-55.1905
1426797893.048,-52.67256
1426797893.063,-48.726707
1426797893.079,-44.364056
1426797893.095,-40.75432
1426797893.11,-38.569153
1426797893.126,-37.65458
1426797893.142,-37.152466
1426797893.157,-35.940117
1426797893.173,-33.44693
1426797893.188,-29.917496
1426797893.204,-26.265747
1426797893.22,-23.588867
1426797893.235,-22.414886
1426797893.251,-22.389473
1426797893.267,-22.518448
1426797893.282,-21.672356
1426797893.298,-19.294762
1426797893.313,-15.68589
1426797893.329,-11.789581
1426797893.345,-8.659027
1426797893.36,-6.8715134
1426797893.376,-6.214905
1426797893.392,-5.852669
1426797893.407,-4.906204
1426797893.423,-2.9420624
1426797893.438,-0.27340698
1426797893.454,2.2232056
1426797893.47,3.6863556
1426797893.485,3.7884064
1426797893.501,2.959076
1426797893.517,2.1294403
1426797893.532,2.2913513
1426797893.548,3.8818054
1426797893.563,6.5342407
1426797893.579,9.380463
1426797893.595,11.383148
1426797893.61,12.089722
1426797893.626,11.844315
1426797893.642,11.59639
1426797893.657,12.48822
1426797893.673,15.142868
1426797893.688,19.419815
1426797893.704,24.424622
1426797893.72,29.025238
1426797893.735,32.41411
1426797893.751,34.52153
1426797893.767,35.974457
1426797893.782,37.709106
1426797893.798,40.283325
1426797893.814,43.65088
1426797893.829,47.19478
1426797893.845,50.1026
1426797893.86,51.964157
1426797893.876,53.050125
1426797893.892,54.245895
1426797893.907,56.607117
1426797893.923,60.71617
1426797893.938,66.29393
1426797893.954,72.30444
1426797893.97,77.35367
1426797893.985,80.26129
1426797894.001,80.55202
1426797894.017,78.49051
1426797894.032,74.72203
1426797894.048,69.85794
1426797894.064,63.941437
1426797894.079,56.537903
1426797894.095,47.081177
1426797894.11,35.344696
1426797894.126,21.848633
1426797894.142,7.7950134
1426797894.157,-5.2955627
1426797894.173,-16.195038
1426797894.189,-24.396393
1426797894.204,-30.096924
1426797894.22,-33.94455
1426797894.235,-36.56259
1426797894.251,-38.208023
1426797894.267,-38.739075
1426797894.282,-37.78665
1426797894.298,-35.16794
1426797894.314,-31.25064
1426797894.329,-26.895355
1426797894.345,-23.094696
1426797894.36,-20.61203
1426797894.376,-19.558105
1426797894.392,-19.344498
1426797894.407,-18.989807
1426797894.423,-17.669449
1426797894.439,-15.1592865
1426797894.454,-11.925171
1426797894.47,-8.77034
1426797894.485,-6.3152466
1426797894.501,-4.5072174
1426797894.517,-2.6663208
1426797894.532,0.124435425
1426797894.548,4.438568
1426797894.564,10.163712
1426797894.579,16.493118
1426797894.595,22.441406
1426797894.61,27.335007
1426797894.626,31.236496
1426797894.642,34.90451
1426797894.657,39.323456
1426797894.673,45.0878
1426797894.689,51.892166
1426797894.704,58.602875
1426797894.72,63.597153
1426797894.735,65.4931
1426797894.751,63.67154
1426797894.767,58.447174
1426797894.782,50.75525
1426797894.798,41.683792
1426797894.814,31.925201
1426797894.829,21.55867
1426797894.845,10.385025
1426797894.86,-1.6795502
1426797894.876,-14.175873
1426797894.892,-26.104126
1426797894.907,-36.239334
1426797894.923,-43.820755
1426797894.939,-48.80388
1426797894.954,-51.8631
1426797894.97,-53.950638
1426797894.985,-55.665054
1426797895.001,-56.888138
1426797895.017,-56.82071
1426797895.032,-54.46843
1426797895.048,-49.351868
1426797895.064,-41.978546
1426797895.079,-33.81212
1426797895.095,-26.59938
1426797895.11,-21.667664
1426797895.126,-19.241623
1426797895.142,-18.39096
1426797895.157,-17.504852
1426797895.173,-15.036331
1426797895.189,-10.305511
1426797895.204,-3.6946564
1426797895.22,3.6826172
1426797895.235,10.578613
1426797895.251,16.336563
1426797895.267,21.115585
1426797895.282,25.663193
1426797895.298,30.862335
1426797895.314,37.154816
1426797895.329,44.277786
1426797895.345,51.459106
1426797895.36,57.8452
1426797895.376,62.886536
1426797895.392,66.53706
1426797895.407,69.11626
1426797895.423,70.90639
1426797895.439,71.76854
1426797895.454,71.03441
1426797895.47,67.765274
1426797895.485,61.237457
1426797895.501,51.488388
1426797895.517,39.460335
1426797895.532,26.668968
1426797895.548,14.663719
1426797895.564,4.2859344
1426797895.579,-4.6345444
1426797895.595,-12.92054
1426797895.61,-21.435127
1426797895.626,-30.343918
1426797895.642,-38.891556
1426797895.657,-45.692467
1426797895.673,-49.592415
1426797895.689,-50.303116
1426797895.704,-48.706146
1426797895.72,-46.412033
1426797895.735,-45.016983
1426797895.751,-45.258873
1426797895.767,-46.81356
1426797895.782,-48.529655
1426797895.798,-49.142525
1426797895.814,-47.908737
1426797895.829,-44.90969
1426797895.845,-40.871216
1426797895.86,-36.618797
1426797895.876,-32.569305
1426797895.892,-28.560905
1426797895.907,-24.04515
1426797895.923,-18.570026
1426797895.939,-12.150902
1426797895.954,-5.3828735
1426797895.97,0.88321686
1426797895.985,6.0014915
1426797896.001,9.983788
1426797896.017,13.591793
1426797896.032,17.872028
1426797896.048,23.623493
1426797896.064,30.6529
1426797896.079,37.677994
1426797896.095,42.764313
1426797896.11,44.134556
1426797896.126,40.975117
1426797896.142,33.681007
1426797896.157,23.696552
1426797896.173,12.758095
1426797896.189,2.0007668
1426797896.204,-8.420647
1426797896.22,-19.079556
1426797896.235,-30.734287
1426797896.251,-43.59319
1426797896.267,-56.96532
1426797896.282,-69.53764
1426797896.298,-79.85739
1426797896.314,-87.01726
1426797896.329,-90.86773
1426797896.345,-91.947334
1426797896.36,-90.97458
1426797896.376,-88.43627
1426797896.392,-84.33873
1426797896.407,-78.41872
1426797896.423,-70.53038
1426797896.439,-61.018124
1426797896.454,-50.79413
1426797896.47,-40.96178
1426797896.486,-32.365593
1426797896.501,-25.127048
1426797896.517,-18.473942
1426797896.532,-11.162807
1426797896.548,-2.0815315
1426797896.564,9.110088
1426797896.579,21.73246
1426797896.595,34.331394
1426797896.61,45.35869
1426797896.626,53.84371
1426797896.642,59.756615
1426797896.657,63.988323
1426797896.673,67.93807
1426797896.689,72.902405
1426797896.704,79.491295
1426797896.72,87.50341
1426797896.736,95.965225
1426797896.751,103.581795
1426797896.767,109.25943
1426797896.782,112.42261
1426797896.798,113.06674
1426797896.814,111.474304
1426797896.829,107.89176
1426797896.845,102.29844
1426797896.861,94.50707
1426797896.876,84.503975
1426797896.892,72.72784
1426797896.907,60.18097
1426797896.923,48.142296
1426797896.939,37.5523
1426797896.954,28.68215
1426797896.97,21.03056
1426797896.986,13.739881
1426797897.001,6.180831
1426797897.017,-1.6692924
1426797897.032,-9.170324
1426797897.048,-15.44277
1426797897.064,-19.925955
1426797897.079,-22.760662
1426797897.095,-24.719456
1426797897.111,-26.811672
1426797897.126,-29.705091
1426797897.142,-33.321716
1426797897.157,-36.848465
1426797897.173,-39.172585
1426797897.189,-39.495064
1426797897.204,-37.72428
1426797897.22,-34.4748
1426797897.236,-30.675789
1426797897.251,-26.962349
1426797897.267,-23.303814
1426797897.282,-19.061798
1426797897.298,-13.426651
1426797897.314,-5.919815
1426797897.329,3.2590714
1426797897.345,13.316162
1426797897.361,23.277634
1426797897.376,32.48934
1426797897.392,40.796677
1426797897.407,48.449295
1426797897.423,55.639496
1426797897.439,62.091553
1426797897.454,66.909195
1426797897.47,68.90184
1426797897.486,66.98157
1426797897.501,60.640182
1426797897.517,50.24539
1426797897.532,36.89888
1426797897.548,22.184753
1426797897.564,7.5577545
1426797897.579,-6.0539856
1426797897.595,-18.416718
1426797897.611,-29.729675
1426797897.626,-40.35846
1426797897.642,-50.323166
1426797897.657,-59.054535
1426797897.673,-65.6638
1426797897.689,-69.30055
1426797897.704,-69.70068
1426797897.72,-67.40675
1426797897.736,-63.598175
1426797897.751,-59.54834
1426797897.767,-56.080902
1426797897.782,-53.297134
1426797897.798,-50.673615
1426797897.814,-47.5394
1426797897.829,-43.723938
1426797897.845,-39.66432
1426797897.861,-36.207657
1426797897.876,-34.06079
1426797897.892,-33.320694
1426797897.907,-33.19452
1426797897.923,-32.48256
1426797897.939,-30.02353
1426797897.954,-25.432861
1426797897.97,-19.264893
1426797897.986,-12.657776
1426797898.001,-6.704254
1426797898.017,-1.7814941
1426797898.032,2.7272644
1426797898.048,8.101379
1426797898.064,15.523041
1426797898.079,25.444122
1426797898.095,37.026794
1426797898.111,48.500183
1426797898.126,57.836334
1426797898.142,63.46521
1426797898.157,64.88779
1426797898.173,62.59427
1426797898.189,57.45941
1426797898.204,50.059753
1426797898.22,40.39026
1426797898.236,28.036469
1426797898.251,12.715546
1426797898.267,-5.0300903
1426797898.282,-23.885162
1426797898.298,-41.99942
1426797898.314,-57.661926
1426797898.329,-69.897156
1426797898.345,-78.694244
1426797898.361,-84.70825
1426797898.376,-88.70807
1426797898.392,-91.118744
1426797898.407,-91.75015
1426797898.423,-90.232544
1426797898.439,-86.28146
1426797898.454,-80.14612
1426797898.47,-72.70151
1426797898.486,-65.12109
1426797898.501,-58.441345
1426797898.517,-53.16107
1426797898.532,-49.034943
1426797898.548,-45.23468
1426797898.564,-40.884033
1426797898.579,-35.40448
1426797898.595,-28.852997
1426797898.611,-21.782074
1426797898.626,-14.833374
1426797898.642,-8.385712
1426797898.657,-2.3821106
1426797898.673,3.58255
1426797898.689,9.986511
1426797898.704,16.886353
1426797898.72,23.934875
1426797898.736,30.50415
1426797898.751,36.001526
1426797898.767,40.25113
1426797898.782,43.46393
1426797898.798,45.871857
1426797898.814,47.43274
1426797898.829,47.55609
1426797898.845,45.227173
1426797898.861,39.569946
1426797898.876,30.206848
1426797898.892,17.59436
1426797898.907,3.0305176
1426797898.923,-11.877289
1426797898.939,-25.707642
1426797898.954,-37.698853
1426797898.97,-47.871796
1426797898.986,-56.726288
1426797899.001,-64.77319
1426797899.017,-72.10541
1426797899.032,-78.19937
1426797899.048,-82.114716
1426797899.064,-83.0166
1426797899.079,-80.68405
1426797899.095,-75.745544
1426797899.111,-69.428955
1426797899.126,-63.105988
1426797899.142,-57.62152
1426797899.157,-53.10501
1426797899.173,-49.067993
1426797899.189,-44.792847
1426797899.204,-39.916534
1426797899.22,-34.601196
1426797899.236,-29.313828
1426797899.251,-24.535797
1426797899.267,-20.355148
1426797899.282,-16.277893
1426797899.298,-11.535431
1426797899.314,-5.471573
1426797899.329,2.0547638
1426797899.345,10.423904
1426797899.361,18.56865
1426797899.376,25.50357
1426797899.392,30.810928
1426797899.408,35.05423
1426797899.423,39.38916
1426797899.439,44.977844
1426797899.454,52.216522
1426797899.47,60.389282
1426797899.486,67.66159
1426797899.501,71.96452
1426797899.517,71.80394
1426797899.533,66.90398
1426797899.548,58.222153
1426797899.564,47.397354
1426797899.579,35.90306
1426797899.595,24.37883
1426797899.611,12.691376
1426797899.626,0.30497742
1426797899.642,-12.964294
1426797899.658,-26.54152
1426797899.673,-39.111237
1426797899.689,-49.171013
1426797899.704,-55.650497
1426797899.72,-58.37169
1426797899.736,-57.97895
1426797899.751,-55.483635
1426797899.767,-51.750206
1426797899.783,-47.023994
1426797899.798,-41.028633
1426797899.814,-33.427147
1426797899.829,-24.25795
1426797899.845,-14.193634
1426797899.861,-4.37883
1426797899.876,4.0930634
1426797899.892,10.66555
1426797899.908,15.587692
1426797899.923,19.770256
1426797899.939,24.29966
1426797899.954,29.793709
1426797899.97,36.196228
1426797899.986,42.765182
1426797900.001,48.591
1426797900.017,53.062534
1426797900.033,56.25644
1426797900.048,58.860268
1426797900.064,61.800785
1426797900.079,65.78286
1426797900.095,70.96184
1426797900.111,76.91934
1426797900.126,82.81048
1426797900.142,87.74919
1426797900.158,91.016304
1426797900.173,92.2009
1426797900.189,91.1635
1426797900.204,87.7754
1426797900.22,81.91359
1426797900.236,73.39238
1426797900.251,62.26273
1426797900.267,48.917656
1426797900.283,34.192417
1426797900.298,19.305676
1426797900.314,5.405388
1426797900.329,-6.7244234
1426797900.345,-17.000666
1426797900.361,-25.91986
1426797900.376,-34.199066
1426797900.392,-42.243473
1426797900.408,-49.799885
1426797900.423,-56.04178
1426797900.439,-59.879616
1426797900.454,-60.6812
1426797900.47,-58.579212
1426797900.486,-54.543907
1426797900.501,-49.883553
1426797900.517,-45.706295
1426797900.533,-42.48612
1426797900.548,-39.900414
1426797900.564,-37.191967
1426797900.579,-33.72282
1426797900.595,-29.319515
1426797900.611,-24.279356
1426797900.626,-19.215714
1426797900.642,-14.556231
1426797900.658,-10.281961
1426797900.673,-5.982259
1426797900.689,-1.0703683
1426797900.704,4.8525705
1426797900.72,11.675032
1426797900.736,18.871881
1426797900.751,25.796295
1426797900.767,32.040783
1426797900.783,37.710014
1426797900.798,43.39019
1426797900.814,49.64756
1426797900.829,56.60546
1426797900.845,63.564293
1426797900.861,69.08214
1426797900.876,71.59382
1426797900.892,70.06177
1426797900.908,64.41903
1426797900.923,55.570427
1426797900.939,44.920185
1426797900.954,33.783848
1426797900.97,22.870945
1426797900.986,12.232126
1426797901.001,1.5232115
1426797901.017,-9.491783
1426797901.033,-20.614975
1426797901.048,-31.214252
1426797901.064,-40.31704
1426797901.079,-47.146324
1426797901.095,-51.39558
1426797901.111,-53.286972
1426797901.126,-53.449066
1426797901.142,-52.60799
1426797901.158,-51.178772
1426797901.173,-49.164207
1426797901.189,-46.36869
1426797901.204,-42.555218
1426797901.22,-37.89866
1426797901.236,-32.94714
1426797901.251,-28.447079
1426797901.267,-24.970467
1426797901.283,-22.558935
1426797901.298,-20.701933
1426797901.314,-18.516457
1426797901.329,-15.195538
1426797901.345,-10.410688
1426797901.361,-4.433386
1426797901.376,2.0220127
1426797901.392,8.210035
1426797901.408,13.72073
1426797901.423,18.718758
1426797901.439,23.849022
1426797901.454,29.861914
1426797901.47,37.160034
1426797901.486,45.554314
1426797901.501,54.24588
1426797901.517,62.167656
1426797901.533,68.43153
1426797901.548,72.52211
1426797901.564,74.38534
1426797901.579,74.16649
1426797901.595,71.82582
1426797901.611,67.083046
1426797901.626,59.578114
1426797901.642,49.127487
1426797901.658,36.12377
1426797901.673,21.573647
1426797901.689,6.8764954
1426797901.704,-6.673414
1426797901.72,-18.305452
1426797901.736,-27.967325
1426797901.751,-36.07789
1426797901.767,-43.102013
1426797901.783,-49.10592
1426797901.798,-53.702057
1426797901.814,-56.216255
1426797901.829,-56.16544
1426797901.845,-53.673775
1426797901.861,-49.48979
1426797901.876,-44.859047
1426797901.892,-40.916733
1426797901.908,-38.262386
1426797901.923,-36.75007
1426797901.939,-35.67076
1426797901.954,-34.16049
1426797901.97,-31.697798
1426797901.986,-28.31028
1426797902.001,-24.415226
1426797902.017,-20.482925
1426797902.033,-16.66804
1426797902.048,-12.700405
1426797902.064,-8.098845
1426797902.08,-2.548462
1426797902.095,3.7719154
1426797902.111,10.171568
1426797902.126,15.849009
1426797902.142,20.30535
1426797902.158,23.798323
1426797902.173,27.177683
1426797902.189,31.551638
1426797902.205,37.5816
1426797902.22,44.999226
1426797902.236,52.604637
1426797902.251,58.67443
1426797902.267,61.610306
1426797902.283,60.614895
1426797902.298,55.90089
1426797902.314,48.4694
1426797902.33,39.638573
1426797902.345,30.334633
1426797902.361,20.914677
1426797902.376,11.203981
1426797902.392,0.8761482
1426797902.408,-10.156076
1426797902.423,-21.4221
1426797902.439,-32.013073
1426797902.455,-40.953133
1426797902.47,-47.49031
1426797902.486,-51.46178
1426797902.501,-53.241207
1426797902.517,-53.459644
1426797902.533,-52.587276
1426797902.548,-50.75668
1426797902.564,-47.735935
1426797902.58,-43.31205
1426797902.595,-37.68543
1426797902.611,-31.60151
1426797902.626,-26.162418
1426797902.642,-22.36028
1426797902.658,-20.5425
1426797902.673,-20.15773
1426797902.689,-20.048088
1426797902.705,-18.934883
1426797902.72,-16.112194
1426797902.736,-11.735199
1426797902.751,-6.590355
1426797902.767,-1.7074585
1426797902.783,2.2462387
1426797902.798,5.355297
1426797902.814,8.274403
1426797902.83,11.87608
1426797902.845,16.767307
1426797902.861,23.00039
1426797902.876,30.146587
1426797902.892,37.56695
1426797902.908,44.679558
1426797902.923,51.138935
1426797902.939,56.799835
1426797902.955,61.443
1426797902.97,64.54462
1426797902.986,65.34082
1426797903.001,63.018517
1426797903.017,57.117058
1426797903.033,47.91898
1426797903.048,36.43339
1426797903.064,24.106693
1426797903.08,12.32933
1426797903.095,1.9114494
1426797903.111,-7.169174
1426797903.126,-15.471722
1426797903.142,-23.653866
1426797903.158,-32.0093
1426797903.173,-40.10454
1426797903.189,-47.04053
1426797903.205,-51.845333
1426797903.22,-53.97534
1426797903.236,-53.601955
1426797903.251,-51.490116
1426797903.267,-48.65165
1426797903.283,-45.88611
1426797903.298,-43.455704
1426797903.314,-41.08938
1426797903.33,-38.32447
1426797903.345,-34.86566
1426797903.361,-30.853699
1426797903.376,-26.796135
1426797903.392,-23.320587
1426797903.408,-20.693794
1426797903.423,-18.673096
1426797903.439,-16.511703
1426797903.455,-13.389603
1426797903.47,-8.822586
1426797903.486,-2.986969
1426797903.501,3.3886795
1426797903.517,9.391098
1426797903.533,14.405327
1426797903.548,18.521217
1426797903.564,22.427979
1426797903.58,27.069168
1426797903.595,33.127846
1426797903.611,40.55008
1426797903.626,48.612144
1426797903.642,56.161392
1426797903.658,62.01497
1426797903.673,65.36866
1426797903.689,65.957596
1426797903.705,63.95674
1426797903.72,59.74019
1426797903.736,53.630745
1426797903.751,45.76452
1426797903.767,36.19554
1426797903.783,25.069221
1426797903.798,12.781792
1426797903.814,0.13085175
1426797903.83,-11.903069
1426797903.845,-22.466537
1426797903.861,-31.119186
1426797903.876,-37.848763
1426797903.892,-43.05921
1426797903.908,-47.146477
1426797903.923,-50.280174
1426797903.939,-52.227203
1426797903.955,-52.6257
1426797903.97,-51.276413
1426797903.986,-48.499977
1426797904.001,-45.082
1426797904.017,-41.92051
1426797904.033,-39.606415
1426797904.048,-38.029594
1426797904.064,-36.55921
1426797904.08,-34.3024
1426797904.095,-30.649055
1426797904.111,-25.639725
1426797904.126,-19.867104
1426797904.142,-14.147781
1426797904.158,-8.943924
1426797904.173,-4.2217712
1426797904.189,0.5336304
1426797904.205,5.827667
1426797904.22,11.834618
1426797904.236,18.178009
1426797904.251,24.108376
1426797904.267,28.93451
1426797904.283,32.41774
1426797904.298,34.94674
1426797904.314,37.415314
1426797904.33,40.773605
1426797904.345,45.584503
1426797904.361,51.63852
1426797904.376,57.959564
1426797904.392,63.154144
1426797904.408,65.93971
1426797904.423,65.54494
1426797904.439,61.992416
1426797904.455,55.854813
1426797904.47,48.017487
1426797904.486,39.172226
1426797904.501,29.631744
1426797904.517,19.425232
1426797904.533,8.524811
1426797904.548,-2.8427734
1426797904.564,-14.080261
1426797904.58,-24.350143
1426797904.595,-32.814728
1426797904.611,-39.040573
1426797904.626,-43.076294
1426797904.642,-45.403748
1426797904.658,-46.611908
1426797904.673,-47.127975
1426797904.689,-46.983414
1426797904.705,-45.945755
1426797904.72,-43.787964
1426797904.736,-40.54297
1426797904.752,-36.717422
1426797904.767,-33.084915
1426797904.783,-30.31987
1426797904.798,-28.633865
1426797904.814,-27.545425
1426797904.83,-26.192322
1426797904.845,-23.660934
1426797904.861,-19.577545
1426797904.876,-14.203537
1426797904.892,-8.331039
1426797904.908,-2.7632294
1426797904.923,2.0405273
1426797904.939,6.187683
1426797904.955,10.164917
1426797904.97,14.489197
1426797904.986,19.297028
1426797905.002,24.325607
1426797905.017,28.99176
1426797905.033,32.895737
1426797905.048,36.037888
1426797905.064,38.93309
1426797905.08,42.282562
1426797905.095,46.525818
1426797905.111,51.435944
1426797905.127,55.994995
1426797905.142,58.818283
1426797905.158,58.679092
1426797905.173,55.089523
1426797905.189,48.44226
1426797905.205,39.856934
1426797905.22,30.532196
1426797905.236,21.250946
1426797905.252,12.109909
1426797905.267,2.7142792
1426797905.283,-7.265457
1426797905.298,-17.759003
1426797905.314,-28.027756
1426797905.33,-37.01413
1426797905.345,-43.734253
1426797905.361,-47.824173
1426797905.377,-49.600647
1426797905.392,-49.881348
1426797905.408,-49.53369
1426797905.423,-49.002625
1426797905.439,-48.254135
1426797905.455,-46.82869
1426797905.47,-44.30287
1426797905.486,-40.60472
1426797905.502,-36.19406
1426797905.517,-31.78685
1426797905.533,-27.99533
1426797905.548,-24.991516
1426797905.564,-22.345612
1426797905.58,-19.314453
1426797905.595,-15.152496
1426797905.611,-9.642242
1426797905.627,-3.1042938
1426797905.642,3.5820618
1426797905.658,9.545029
1426797905.673,14.280289
1426797905.689,17.831772
1426797905.705,20.734161
1426797905.72,23.576294
1426797905.736,26.667603
1426797905.752,29.901505
1426797905.767,32.94362
1426797905.783,35.528
1426797905.798,37.830276
1426797905.814,40.318497
1426797905.83,43.53801
1426797905.845,47.66205
1426797905.861,52.16559
1426797905.877,55.911163
1426797905.892,57.53177
1426797905.908,55.93004
1426797905.923,50.798172
1426797905.939,42.735184
1426797905.955,32.964478
1426797905.97,22.802979
1426797905.986,13.149796
1426797906.002,4.213272
1426797906.017,-4.3954315
1426797906.033,-13.1493225
1426797906.048,-22.131332
1426797906.064,-30.801514
1426797906.08,-38.135666
1426797906.095,-43.07875
1426797906.111,-45.18239
1426797906.127,-44.70262
1426797906.142,-42.607147
1426797906.158,-40.078064
1426797906.173,-37.899475
1426797906.189,-36.262634
1426797906.205,-34.820084
1426797906.22,-33.03383
1426797906.236,-30.680923
1426797906.252,-28.018402
1426797906.267,-25.604752
1426797906.283,-23.975693
1426797906.298,-23.20961
1426797906.314,-22.74704
1426797906.33,-21.688599
1426797906.345,-19.19954
1426797906.361,-14.998322
1426797906.377,-9.544968
1426797906.392,-3.7197876
1426797906.408,1.5750885
1426797906.423,5.9087067
1426797906.439,9.492844
1426797906.455,13.059372
1426797906.47,17.35846
1426797906.486,22.813599
1426797906.502,29.346497
1426797906.517,36.413513
1426797906.533,43.366013
1426797906.548,49.737198
1426797906.564,55.305496
1426797906.58,59.981018
1426797906.595,63.66716
1426797906.611,65.9194
1426797906.627,66.10512
1426797906.642,63.583252
1426797906.658,57.91661
1426797906.673,49.247192
1426797906.689,38.30977
1426797906.705,26.205948
1426797906.72,14.084061
1426797906.736,2.764267
1426797906.752,-7.4703827
1426797906.767,-16.759552
1426797906.783,-25.339462
1426797906.798,-33.27742
1426797906.814,-40.186142
1426797906.83,-45.427856
1426797906.845,-48.381042
1426797906.861,-48.955383
1426797906.877,-47.65126
1426797906.892,-45.413925
1426797906.908,-43.182037
1426797906.923,-41.447174
1426797906.939,-40.1093
1426797906.955,-38.543304
1426797906.97,-36.09256
1426797906.986,-32.498947
1426797907.002,-28.075134
1426797907.017,-23.560165
1426797907.033,-19.698547
1426797907.048,-16.81424
1426797907.064,-14.510208
1426797907.08,-12.04332
1426797907.095,-8.544968
1426797907.111,-3.620163
1426797907.127,2.3922577
1426797907.142,8.667007
1426797907.158,14.314865
1426797907.173,18.82286
1426797907.189,22.328873
1426797907.205,25.527145
1426797907.22,29.148071
1426797907.236,33.654984
1426797907.252,38.93544
1426797907.267,44.42636
1426797907.283,49.476852
1426797907.298,53.623596
1426797907.314,56.754227
1426797907.33,58.874207
1426797907.345,60.03824
1426797907.361,59.913757
1426797907.377,57.9429
1426797907.392,53.56801
1426797907.408,46.57448
1426797907.424,37.338684
1426797907.439,26.735687
1426797907.455,15.959213
1426797907.47,5.959915
1426797907.486,-2.771225
1426797907.502,-10.414764
1426797907.517,-17.473679
1426797907.533,-24.319794
1426797907.548,-30.950287
1426797907.564,-36.871048
1426797907.58,-41.427597
1426797907.595,-44.10353
1426797907.611,-44.987045
1426797907.627,-44.6147
1426797907.642,-43.856033
1426797907.658,-43.40274
1426797907.674,-43.439117
1426797907.689,-43.584366
1426797907.705,-43.180023
1426797907.72,-41.65796
1426797907.736,-38.898605
1426797907.752,-35.34099
1426797907.767,-31.725433
1426797907.783,-28.702545
1426797907.799,-26.533142
1426797907.814,-24.830902
1426797907.83,-22.845963
1426797907.845,-19.802261
1426797907.861,-15.330322
1426797907.877,-9.739426
1426797907.892,-3.7890472
1426797907.908,1.7784882
1426797907.924,6.616028
1426797907.939,10.948456
1426797907.955,15.471191
1426797907.97,20.921722
1426797907.986,27.617126
1426797908.002,35.399536
1426797908.017,43.585754
1426797908.033,51.300293
1426797908.049,57.82332
1426797908.064,62.734573
1426797908.08,65.7944
1426797908.095,66.96153
1426797908.111,66.12393
1426797908.127,63.03911
1426797908.142,57.48607
1426797908.158,49.395065
1426797908.174,38.96167
1426797908.189,26.906235
1426797908.205,14.261612
1426797908.22,2.1129456
1426797908.236,-8.718079
1426797908.252,-17.94339
1426797908.267,-25.812958
1426797908.283,-32.6559
1426797908.299,-38.627777
1426797908.314,-43.51335
1426797908.33,-46.757645
1426797908.345,-47.928467
1426797908.361,-46.99066
1426797908.377,-44.45175
1426797908.392,-41.2726
1426797908.408,-38.38202
1426797908.424,-36.267563
1426797908.439,-34.817398
1426797908.455,-33.523376
1426797908.47,-31.736374
1426797908.486,-29.195541
1426797908.502,-26.105576
1426797908.517,-22.996231
1426797908.533,-20.383331
1426797908.549,-18.415405
1426797908.564,-16.677673
1426797908.58,-14.403641
1426797908.595,-10.930237
1426797908.611,-6.02684
1426797908.627,-0.118927
1426797908.642,5.885956
1426797908.658,11.149155
1426797908.674,15.255615
1426797908.689,18.495148
1426797908.705,21.692749
1426797908.72,25.840485
1426797908.736,31.454178
1426797908.752,38.368393
1426797908.767,45.643204
1426797908.783,51.94748
1426797908.799,56.184616
1426797908.814,57.83728
1426797908.83,57.01999
1426797908.845,54.28311
1426797908.861,50.151962
1426797908.877,44.78798
1426797908.892,38.037262
1426797908.908,29.634125
1426797908.924,19.59909
1426797908.939,8.507278
1426797908.955,-2.5993652
1426797908.97,-12.567139
1426797908.986,-20.581009
1426797909.002,-26.395721
1426797909.017,-30.411423
1426797909.033,-33.226425
1426797909.049,-35.34085
1426797909.064,-36.897476
1426797909.08,-37.647354
1426797909.095,-37.239212
1426797909.111,-35.511658
1426797909.127,-32.69742
1426797909.142,-29.435165
1426797909.158,-26.54741
1426797909.174,-24.59111
1426797909.189,-23.643402
1426797909.205,-23.295303
1426797909.22,-22.702286
1426797909.236,-21.238297
1426797909.252,-18.631714
1426797909.267,-15.196884
1426797909.283,-11.545929
1426797909.299,-8.237747
1426797909.314,-5.3427277
1426797909.33,-2.5204468
1426797909.345,0.8166809
1426797909.361,5.104706
1426797909.377,10.214325
1426797909.392,15.6228485
1426797909.408,20.613281
1426797909.424,24.828766
1426797909.439,28.537369
1426797909.455,32.5269
1426797909.47,37.73535
1426797909.486,44.523422
1426797909.502,52.38315
1426797909.517,59.876938
1426797909.533,65.26431
1426797909.549,67.19588
1426797909.564,65.31468
1426797909.58,60.31534
1426797909.595,53.53357
1426797909.611,46.210052
1426797909.627,38.902634
1426797909.642,31.41742
1426797909.658,23.097672
1426797909.674,13.454407
1426797909.689,2.6210785
1426797909.705,-8.602585
1426797909.72,-19.010025
1426797909.736,-27.581848
1426797909.752,-33.824875
1426797909.767,-37.864075
1426797909.783,-40.188034
1426797909.799,-41.335022
1426797909.814,-41.55237
1426797909.83,-40.74707
1426797909.845,-38.642975
1426797909.861,-35.04814
1426797909.877,-30.185097
1426797909.892,-24.661957
1426797909.908,-19.286499
1426797909.924,-14.727913
1426797909.939,-11.089958
1426797909.955,-7.936714
1426797909.97,-4.369835
1426797909.986,0.49063873
1426797910.002,7.0486298
1426797910.017,15.005615
1426797910.033,23.682205
1426797910.049,32.283066
1426797910.064,40.441147
1426797910.08,48.322876
1426797910.095,56.355827
1426797910.111,64.85829
1426797910.127,73.66315
1426797910.142,82.14315
1426797910.158,89.51235
1426797910.174,95.34941
1426797910.189,99.6973
1426797910.205,102.994446
1426797910.22,105.55274
1426797910.236,107.099075
1426797910.252,106.550674
1426797910.267,102.37628
1426797910.283,93.19835
1426797910.299,78.46283
1426797910.314,58.831406
1426797910.33,35.857716
1426797910.346,11.582706
1426797910.361,-12.209414
1426797910.377,-34.480583
1426797910.392,-54.944687
1426797910.408,-73.73978
1426797910.424,-91.05163
1426797910.439,-106.61787
1426797910.455,-119.8286
1426797910.471,-129.89279
1426797910.486,-136.22662
1426797910.502,-138.78944
1426797910.517,-138.23494
1426797910.533,-135.61778
1426797910.549,-132.01965
1426797910.564,-128.1441
1426797910.58,-124.11151
1426797910.596,-119.540985
1426797910.611,-114.038315
1426797910.627,-107.449524
1426797910.642,-100.20618
1426797910.658,-93.137436
1426797910.674,-87.06836
1426797910.689,-82.2818
1426797910.705,-78.35889
1426797910.721,-74.339035
1426797910.736,-69.23096
1426797910.752,-62.61116
1426797910.767,-54.787704
1426797910.783,-46.658478
1426797910.799,-39.24421
1426797910.814,-33.015564
1426797910.83,-27.701773
1426797910.846,-22.445183
1426797910.861,-16.280735
1426797910.877,-8.645531
1426797910.892,0.34223175
1426797910.908,10.033932
1426797910.924,19.476587
1426797910.939,27.93456
1426797910.955,34.895275
1426797910.971,40.12854
1426797910.986,43.37886
1426797911.002,44.318657
1426797911.017,42.629723
1426797911.033,38.14221
1426797911.049,31.06837
1426797911.064,22.15191
1426797911.08,12.517508
1426797911.096,3.4138947
1426797911.111,-4.193228
1426797911.127,-9.887823
1426797911.142,-13.776932
1426797911.158,-16.250431
1426797911.174,-17.711628
1426797911.189,-18.256767
1426797911.205,-17.675152
1426797911.221,-15.614456
1426797911.236,-11.886852
1426797911.252,-6.843128
1426797911.267,-1.2618332
1426797911.283,3.8926468
1426797911.299,7.9162674
1426797911.314,10.647652
1426797911.33,12.52845
1426797911.346,14.311417
1426797911.361,16.592613
1426797911.377,19.477432
1426797911.392,22.543434
1426797911.408,25.220718
1426797911.424,27.134537
1426797911.439,28.546432
1426797911.455,30.084175
1426797911.471,32.507187
1426797911.486,36.203415
1426797911.502,40.79538
1426797911.517,45.4551
1426797911.533,49.277092
1426797911.549,51.83429
1426797911.564,53.465164
1426797911.58,55.142433
1426797911.596,57.94964
1426797911.611,62.544754
1426797911.627,68.71883
1426797911.642,75.38052
1426797911.658,81.00079
1426797911.674,84.11911
1426797911.689,83.97633
1426797911.705,80.585266
1426797911.721,74.62451
1426797911.736,67.01571
1426797911.752,58.41233
1426797911.767,49.060677
1426797911.783,38.850616
1426797911.799,27.724113
1426797911.814,15.914909
1426797911.83,4.1901474
1426797911.846,-6.4845734
1426797911.861,-15.267471
1426797911.877,-21.904984
1426797911.892,-26.678024
1426797911.908,-30.32499
1426797911.924,-33.52571
1426797911.939,-36.515694
1426797911.955,-39.05461
1426797911.971,-40.539772
1426797911.986,-40.440422
1426797912.002,-38.624214
1426797912.017,-35.569405
1426797912.033,-32.084717
1426797912.049,-28.954758
1426797912.064,-26.4645
1426797912.08,-24.264519
1426797912.096,-21.589928
1426797912.111,-17.652496
1426797912.127,-12.189133
1426797912.142,-5.5434647
1426797912.158,1.4477692
1426797912.174,7.901535
1426797912.189,13.361618
1426797912.205,18.050213
1426797912.221,22.653141
1426797912.236,27.937077
1426797912.252,34.361427
1426797912.267,41.83799
1426797912.283,49.976265
1426797912.299,58.24501
1426797912.314,66.323105
1426797912.33,73.985504
1426797912.346,81.06291
1426797912.361,87.01178
1426797912.377,90.87283
1426797912.392,91.47439
1426797912.408,87.78143
1426797912.424,79.44637
1426797912.439,67.02893
1426797912.455,51.893482
1426797912.471,35.783096
1426797912.486,20.151928
1426797912.502,5.6771016
1426797912.517,-7.8441935
1426797912.533,-21.066765
1426797912.549,-34.697495
1426797912.564,-48.777756
1426797912.58,-62.570305
1426797912.596,-74.825096
1426797912.611,-84.381546
1426797912.627,-90.77795
1426797912.642,-94.45511
1426797912.658,-96.44146
1426797912.674,-97.799614
1426797912.689,-99.09154
1426797912.705,-100.17789
1426797912.721,-100.5034
1426797912.736,-99.56475
1426797912.752,-97.32189
1426797912.767,-94.27625
1426797912.783,-91.235825
1426797912.799,-88.8116
1426797912.814,-87.07504
1426797912.83,-85.52864
1426797912.846,-83.18964
1426797912.861,-79.19319
1426797912.877,-73.082245
1426797912.892,-65.00719
1426797912.908,-55.57032
1426797912.924,-45.520042
1426797912.939,-35.2998
1426797912.955,-24.83236
1426797912.971,-13.661297
1426797912.986,-1.205246
1426797913.002,12.78035
1426797913.018,27.941032
1426797913.033,43.46459
1426797913.049,58.265316
1426797913.064,71.32103
1426797913.08,81.91884
1426797913.096,89.76846
1426797913.111,94.82147
1426797913.127,97.086296
1426797913.143,96.4993
1426797913.158,92.976395
1426797913.174,86.52381
1426797913.189,77.47547
1426797913.205,66.57738
1426797913.221,54.771236
1426797913.236,42.983025
1426797913.252,31.7461
1426797913.268,21.151806
1426797913.283,10.969282
1426797913.299,1.0035496
1426797913.314,-8.564108
1426797913.33,-17.130476
1426797913.346,-23.818647
1426797913.361,-28.016884
1426797913.377,-29.712595
1426797913.393,-29.543474
1426797913.408,-28.511797
1426797913.424,-27.496529
1426797913.439,-26.866745
1426797913.455,-26.401136
1426797913.471,-25.599567
1426797913.486,-23.951328
1426797913.502,-21.461014
1426797913.518,-18.519377
1426797913.533,-15.717173
1426797913.549,-13.457842
1426797913.564,-11.65308
1426797913.58,-9.807329
1426797913.596,-7.266245
1426797913.611,-3.5282993
1426797913.627,1.391222
1426797913.643,6.9844437
1426797913.658,12.587536
1426797913.674,17.629772
1426797913.689,22.011734
1426797913.705,26.225468
1426797913.721,31.10287
1426797913.736,37.451744
1426797913.752,45.577744
1426797913.768,54.919827
1426797913.783,64.15248
1426797913.799,71.660194
1426797913.814,76.0812
1426797913.83,76.75693
1426797913.846,73.920525
1426797913.861,68.40004
1426797913.877,61.063225
1426797913.893,52.375668
1426797913.908,42.38072
1426797913.924,30.870522
1426797913.939,17.897232
1426797913.955,4.05365
1426797913.971,-9.636269
1426797913.986,-22.028915
1426797914.002,-32.40252
1426797914.018,-40.643013
1426797914.033,-47.11445
1426797914.049,-52.339706
1426797914.064,-56.52745
1426797914.08,-59.475677
1426797914.096,-60.796288
1426797914.111,-60.09687
1426797914.127,-57.490097
1426797914.143,-53.6634
1426797914.158,-49.60048
1426797914.174,-46.210846
1426797914.189,-43.910965
1426797914.205,-42.438934
1426797914.221,-41.003548
1426797914.236,-38.798553
1426797914.252,-35.26397
1426797914.268,-30.509445
1426797914.283,-25.131905
1426797914.299,-19.890892
1426797914.314,-15.27095
1426797914.33,-11.190697
1426797914.346,-7.1747284
1426797914.361,-2.5498047
1426797914.377,3.0720825
1426797914.393,9.506332
1426797914.408,16.109566
1426797914.424,22.119453
1426797914.439,27.173325
1426797914.455,31.49009
1426797914.471,35.811775
1426797914.486,40.83036
1426797914.502,46.64422
1426797914.518,52.440773
1426797914.533,56.804604
1426797914.549,58.25927
1426797914.564,56.07103
1426797914.58,50.591957
1426797914.596,42.945656
1426797914.611,34.51458
1426797914.627,26.179863
1426797914.643,18.042984
1426797914.658,9.523048
1426797914.674,0.01550293
1426797914.689,-10.586891
1426797914.705,-21.630867
1426797914.721,-31.863388
1426797914.736,-40.02439
1426797914.752,-45.425873
1426797914.768,-48.206726
1426797914.783,-49.149567
1426797914.799,-49.301605
1426797914.814,-49.418198
1426797914.83,-49.62799
1426797914.846,-49.510773
1426797914.861,-48.44278
1426797914.877,-46.060272
1426797914.893,-42.481674
1426797914.908,-38.29074
1426797914.924,-34.29776
1426797914.939,-31.013733
1426797914.955,-28.37799
1426797914.971,-25.794006
1426797914.986,-22.398819
1426797915.002,-17.572998
1426797915.018,-11.332748
1426797915.033,-4.309662
1426797915.049,2.500183
1426797915.064,8.2938385
1426797915.08,12.906982
1426797915.096,16.884186
1426797915.111,21.140701
1426797915.127,26.424911
1426797915.143,32.94249
1426797915.158,40.281586
1426797915.174,47.58777
1426797915.189,54.151184
1426797915.205,59.575104
1426797915.221,63.747177
1426797915.236,66.59871
1426797915.252,67.74791
1426797915.268,66.5302
1426797915.283,62.248215
1426797915.299,54.63414
1426797915.314,44.076355
1426797915.33,31.60608
1426797915.346,18.535095
1426797915.361,6.003235
1426797915.377,-5.3945923
1426797915.393,-15.71109
1426797915.408,-25.335129
1426797915.424,-34.623825
1426797915.439,-43.549057
1426797915.455,-51.541412
1426797915.471,-57.764313
1426797915.486,-61.424362
1426797915.502,-62.257843
1426797915.518,-60.652115
1426797915.533,-57.47107
1426797915.549,-53.75972
1426797915.564,-50.14415
1426797915.58,-46.73958
1426797915.596,-43.167892
1426797915.611,-38.999115
1426797915.627,-34.062347
1426797915.643,-28.74202
1426797915.658,-23.601898
1426797915.674,-19.19397
1426797915.69,-15.68219
1426797915.705,-12.661438
1426797915.721,-9.407715
1426797915.736,-5.274063
1426797915.752,-0.11772156
1426797915.768,5.695877
1426797915.783,11.377167
1426797915.799,16.269897
1426797915.815,20.133926
1426797915.83,23.338867
1426797915.846,26.770035
1426797915.861,31.395538
1426797915.877,37.79117
1426797915.893,45.729843
1426797915.908,54.27272
1426797915.924,61.999115
1426797915.94,67.56854
1426797915.955,70.125916
1426797915.971,69.518845
1426797915.986,66.20091
1426797916.002,60.828217
1426797916.018,53.908813
1426797916.033,45.672974
1426797916.049,36.036926
1426797916.065,24.990753
1426797916.08,12.802872
1426797916.096,0.10328674
1426797916.111,-12.299591
1426797916.127,-23.667313
1426797916.143,-33.64299
1426797916.158,-42.23143
1426797916.174,-49.53801
1426797916.19,-55.671738
1426797916.205,-60.41684
1426797916.221,-63.393677
1426797916.236,-64.266235
1426797916.252,-62.98784
1426797916.268,-59.987137
1426797916.283,-56.026077
1426797916.299,-51.974533
1426797916.315,-48.34456
1426797916.33,-45.18579
1426797916.346,-42.087692
1426797916.361,-38.484894
1426797916.377,-33.962097
1426797916.393,-28.564453
1426797916.408,-22.663055
1426797916.424,-16.81717
1426797916.44,-11.380859
1426797916.455,-6.277069
1426797916.471,-1.1555786
1426797916.486,4.435501
1426797916.502,10.684235
1426797916.518,17.390167
1426797916.533,24.075195
1426797916.549,30.328598
1426797916.565,36.121918
1426797916.58,41.84314
1426797916.596,48.188843
1426797916.611,55.54796
1426797916.627,63.689392
1426797916.643,71.644196
1426797916.658,77.92674
1426797916.674,81.152374
1426797916.69,80.51341
1426797916.705,76.14087
1426797916.721,68.81705
1426797916.736,59.61902
1426797916.752,49.372055
1426797916.768,38.39241
1426797916.783,26.6622
1426797916.799,13.983032
1426797916.815,0.4179077
1426797916.83,-13.558273
1426797916.846,-27.084976
1426797916.861,-39.204163
1426797916.877,-49.169968
1426797916.893,-56.711304
1426797916.908,-62.004135
1426797916.924,-65.499985
1426797916.94,-67.72002
1426797916.955,-68.85539
1426797916.971,-68.70691
1426797916.986,-66.90944
1426797917.002,-63.210693
1426797917.018,-57.746597
1426797917.033,-51.214752
1426797917.049,-44.60565
1426797917.065,-38.790115
1426797917.08,-34.12442
1426797917.096,-30.278961
1426797917.111,-26.479996
1426797917.127,-21.990692
1426797917.143,-16.5766
1426797917.158,-10.52652
1426797917.174,-4.505356
1426797917.19,0.79751587
1426797917.205,5.2041473
1426797917.221,9.022461
1426797917.236,12.83577
1426797917.252,17.232971
1426797917.268,22.392395
1426797917.283,28.1391
1426797917.299,34.13614
1426797917.315,40.171875
1426797917.33,46.251785
1426797917.346,52.481476
1426797917.361,58.738235
1426797917.377,64.452515
1426797917.393,68.59842
1426797917.408,70.01143
1426797917.424,67.84621
1426797917.44,62.008835
1426797917.455,53.206406
1426797917.471,42.698868
1426797917.486,31.794373
1426797917.502,21.264969
1426797917.518,11.162048
1426797917.533,1.003067
1426797917.549,-9.762756
1426797917.565,-21.228989
1426797917.58,-32.75807
1426797917.596,-43.138184
1426797917.611,-51.10858
1426797917.627,-55.942917
1426797917.643,-57.775787
1426797917.658,-57.497086
1426797917.674,-56.274628
1426797917.69,-55.01465
1426797917.705,-53.92253
1426797917.721,-52.594513
1426797917.736,-50.440887
1426797917.752,-47.084488
1426797917.768,-42.769302
1426797917.783,-38.106674
1426797917.799,-33.77359
1426797917.815,-30.010986
1426797917.83,-26.483307
1426797917.846,-22.40512
1426797917.861,-17.071106
1426797917.877,-10.297989
1426797917.893,-2.5841217
1426797917.908,5.0999756
1426797917.924,11.752487
1426797917.94,16.817566
1426797917.955,20.49292
1426797917.971,23.563293
1426797917.986,27.081818
1426797918.002,31.87358
1426797918.018,38.11696
1426797918.033,45.322174
1426797918.049,52.470856
1426797918.065,58.377228
1426797918.08,62.154633
1426797918.096,63.418854
1426797918.111,62.29869
1426797918.127,59.118896
1426797918.143,54.054733
1426797918.158,47.091278
1426797918.174,38.123184
1426797918.19,27.214523
1426797918.205,14.8823395
1426797918.221,2.0698242
1426797918.236,-10.199249
1426797918.252,-21.068192
1426797918.268,-30.244522
1426797918.283,-37.882782
1426797918.299,-44.285095
1426797918.315,-49.546844
1426797918.33,-53.505905
1426797918.346,-55.787476
1426797918.362,-56.1373
1426797918.377,-54.677338
1426797918.393,-51.930573
1426797918.408,-48.655533
1426797918.424,-45.49518
1426797918.44,-42.77971
1426797918.455,-40.325974
1426797918.471,-37.735
1426797918.486,-34.59857
1426797918.502,-30.764618
1426797918.518,-26.45398
1426797918.533,-22.067596
1426797918.549,-17.907394
1426797918.565,-13.969315
1426797918.58,-9.854355
1426797918.596,-4.9529266
1426797918.612,1.1313629
1426797918.627,8.356873
1426797918.643,16.133682
1426797918.658,23.537292
1426797918.674,29.793533
1426797918.69,34.66707
1426797918.705,38.624817
1426797918.721,42.618683
1426797918.737,47.561554
1426797918.752,53.780365
1426797918.768,60.751343
1426797918.783,67.270645
1426797918.799,71.84065
1426797918.815,73.31799
1426797918.83,71.34404
1426797918.846,66.30275
1426797918.862,58.942688
1426797918.877,50.04294
1426797918.893,40.006195
1426797918.908,28.957123
1426797918.924,16.915726
1426797918.94,4.1011047
1426797918.955,-8.896652
1426797918.971,-21.234375
1426797918.987,-32.05516
1426797919.002,-40.79712
1426797919.018,-47.338974
1426797919.033,-51.876465
1426797919.049,-54.85994
1426797919.065,-56.681763
1426797919.08,-57.58011
1426797919.096,-57.469406
1426797919.112,-56.18811
1426797919.127,-53.671356
1426797919.143,-50.195435
1426797919.158,-46.36023
1426797919.174,-42.851563
1426797919.19,-40.1492
1426797919.205,-38.204605
1426797919.221,-36.41925
1426797919.237,-33.865875
1426797919.252,-29.79718
1426797919.268,-24.049713
1426797919.283,-17.107407
1426797919.299,-9.795715
1426797919.315,-2.927124
1426797919.33,3.1776733
1426797919.346,8.766342
1426797919.362,14.350571
1426797919.377,20.278671
1426797919.393,26.522308
1426797919.408,32.694565
1426797919.424,38.339676
1426797919.44,43.333572
1426797919.455,48.042633
1426797919.471,52.984283
1426797919.487,58.464294
1426797919.502,64.1295
1426797919.518,68.837326
1426797919.533,71.187744
1426797919.549,70.080414
1426797919.565,65.31265
1426797919.58,57.579697
1426797919.596,48.222748
1426797919.612,38.52124
1426797919.627,29.17865
1426797919.643,20.211578
1426797919.658,11.100998
1426797919.674,1.3650818
1426797919.69,-9.083008
1426797919.705,-19.646255
1426797919.721,-29.31131
1426797919.737,-37.0085
1426797919.752,-42.03885
1426797919.768,-44.405716
1426797919.783,-44.713135
1426797919.799,-43.887146
1426797919.815,-42.697983
1426797919.83,-41.457596
1426797919.846,-39.898727
1426797919.862,-37.446014
1426797919.877,-33.74283
1426797919.893,-28.952545
1426797919.908,-23.753174
1426797919.924,-19.036453
1426797919.94,-15.42511
1426797919.955,-12.77153
1426797919.971,-10.377289
1426797919.987,-7.224518
1426797920.002,-2.6301117
1426797920.018,3.3851318
1426797920.033,10.060242
1426797920.049,16.355453
1426797920.065,21.525269
1426797920.08,25.427246
1426797920.096,28.66394
1426797920.112,32.10823
1426797920.127,36.460617
1426797920.143,41.89592
1426797920.158,48.125275
1426797920.174,54.608963
1426797920.19,60.770523
1426797920.205,66.30318
1426797920.221,70.97417
1426797920.237,74.457184
1426797920.252,76.10344
1426797920.268,74.95851
1426797920.283,70.03252
1426797920.299,60.77768
1426797920.315,47.390762
1426797920.33,30.913803
1426797920.346,12.999435
1426797920.362,-4.6137695
1426797920.377,-20.662903
1426797920.393,-34.77089
1426797920.408,-47.34439
1426797920.424,-59.152878
1426797920.44,-70.71677
1426797920.455,-81.87637
1426797920.471,-91.864944
1426797920.487,-99.707214
1426797920.502,-104.800644
1426797920.518,-107.23543
1426797920.533,-107.73917
1426797920.549,-107.309586
1426797920.565,-106.66107
1426797920.58,-105.92795
1426797920.596,-104.76135
1426797920.612,-102.626144
1426797920.627,-99.197296
1426797920.643,-94.68315
1426797920.658,-89.58191
1426797920.674,-84.376465
1426797920.69,-79.21588
1426797920.705,-73.69957
1426797920.721,-67.06476
1426797920.737,-58.61461
1426797920.752,-48.131516
1426797920.768,-36.179016
1426797920.783,-23.86232
1426797920.799,-12.37117
1426797920.815,-2.3433304
1426797920.83,6.40226
1426797920.846,14.787689
1426797920.862,23.944687
1426797920.877,34.45584
1426797920.893,45.934036
1426797920.908,57.11232
1426797920.924,66.27515
1426797920.94,72.123985
1426797920.955,74.15334
1426797920.971,72.883736
1426797920.987,69.329796
1426797921.002,64.50242
1426797921.018,58.948997
1426797921.033,52.737663
1426797921.049,45.721992
1426797921.065,37.818275
1426797921.08,29.408226
1426797921.096,21.118412
1426797921.112,13.700268
1426797921.127,7.6390953
1426797921.143,3.0326195
1426797921.158,-0.35850525
1426797921.174,-2.9726524
1426797921.19,-5.086994
1426797921.205,-6.8910313
1426797921.221,-8.23299
1426797921.237,-8.969576
1426797921.252,-8.930487
1426797921.268,-8.274756
1426797921.284,-7.30373
1426797921.299,-6.474158
1426797921.315,-6.069646
1426797921.33,-5.9543962
1426797921.346,-5.688223
1426797921.362,-4.602162
1426797921.377,-2.1815968
1426797921.393,1.63029
1426797921.409,6.3934736
1426797921.424,11.380981
1426797921.44,15.911776
1426797921.455,19.640491
1426797921.471,22.742502
1426797921.487,25.738327
1426797921.502,29.13609
1426797921.518,33.164177
1426797921.534,37.786068
1426797921.549,42.685104
1426797921.565,47.55718
1426797921.58,52.243286
1426797921.596,56.614254
1426797921.612,60.557796
1426797921.627,63.763218
1426797921.643,65.5426
1426797921.659,65.111305
1426797921.674,61.787308
1426797921.69,55.36628
1426797921.705,46.210384
1426797921.721,35.366547
1426797921.737,24.005219
1426797921.752,13.115589
1426797921.768,3.0668182
1426797921.784,-6.349972
1426797921.799,-15.557072
1426797921.815,-24.811348
1426797921.83,-33.82469
1426797921.846,-41.80837
1426797921.862,-47.808144
1426797921.877,-51.152473
1426797921.893,-51.826744
1426797921.909,-50.433014
1426797921.924,-47.96351
1426797921.94,-45.191547
1426797921.955,-42.401836
1426797921.971,-39.459713
1426797921.987,-35.979057
1426797922.002,-31.756218
1426797922.018,-27.049171
1426797922.034,-22.477943
1426797922.049,-18.699368
1426797922.065,-16.054226
1426797922.08,-14.211334
1426797922.096,-12.325401
1426797922.112,-9.478676
1426797922.127,-5.078621
1426797922.143,0.7304535
1426797922.159,7.2286835
1426797922.174,13.462502
1426797922.19,18.827507
1426797922.205,23.228203
1426797922.221,27.166725
1426797922.237,31.380142
1426797922.252,36.456116
1426797922.268,42.536743
1426797922.284,49.1985
1426797922.299,55.61158
1426797922.315,60.852043
1426797922.33,64.22214
1426797922.346,65.36594
1426797922.362,64.28399
1426797922.377,61.185547
1426797922.393,56.19097
1426797922.409,49.38053
1426797922.424,40.679604
1426797922.44,30.13984
1426797922.455,18.12178
1426797922.471,5.359543
1426797922.487,-7.2417374
1426797922.502,-18.920578
1426797922.518,-29.292915
1426797922.534,-38.431206
1426797922.549,-46.50898
1426797922.565,-53.55577
1426797922.58,-59.177505
1426797922.596,-62.675255
1426797922.612,-63.379684
1426797922.627,-61.080284
1426797922.643,-56.277237
1426797922.659,-50.03665
1426797922.674,-43.59149
1426797922.69,-37.877174
1426797922.705,-33.261513
1426797922.721,-29.502945
1426797922.737,-26.044197
1426797922.752,-22.426842
1426797922.768,-18.546684
1426797922.784,-14.664688
1426797922.799,-11.171921
1426797922.815,-8.302856
1426797922.83,-5.8983
1426797922.846,-3.4574509
1426797922.862,-0.35075378
1426797922.877,3.866516
1426797922.893,9.158432
1426797922.909,15.051651
1426797922.924,20.884964
1426797922.94,26.241714
1426797922.955,31.255486
1426797922.971,36.480965
1426797922.987,42.570267
1426797923.002,49.709923
1426797923.018,57.23565
1426797923.034,63.75949
1426797923.049,67.57647
1426797923.065,67.47207
1426797923.08,63.16996
1426797923.096,55.525337
1426797923.112,46.010918
1426797923.127,35.980362
1426797923.143,26.187721
1426797923.159,16.57943
1426797923.174,6.6426773
1426797923.19,-3.987671
1426797923.205,-15.126678
1426797923.221,-25.988579
1426797923.237,-35.384438
1426797923.252,-42.29223
1426797923.268,-46.321358
1426797923.284,-47.800667
1426797923.299,-47.52137
1426797923.315,-46.33898
1426797923.33,-44.75142
1426797923.346,-42.7883
1426797923.362,-40.23117
1426797923.377,-36.904335
1426797923.393,-32.99922
1426797923.409,-29.019798
1426797923.424,-25.611671
1426797923.44,-23.16674
1426797923.455,-21.517746
1426797923.471,-20.042656
1426797923.487,-17.893616
1426797923.502,-14.459679
1426797923.518,-9.753021
1426797923.534,-4.322197
1426797923.549,0.9750595
1426797923.565,5.417183
1426797923.58,8.782959
1426797923.596,11.475105
1426797923.612,14.285728
1426797923.627,17.977547
1426797923.643,22.916939
1426797923.659,28.921638
1426797923.674,35.454742
1426797923.69,41.910324
1426797923.705,47.851982
1426797923.721,53.063828
1426797923.737,57.37706
1426797923.752,60.436028
1426797923.768,61.567062
1426797923.784,60.042847
1426797923.799,55.421608
1426797923.815,47.82965
1426797923.83,38.073982
1426797923.846,27.316048
1426797923.862,16.673103
1426797923.877,6.7828064
1426797923.893,-2.325241
1426797923.909,-11.052071
1426797923.924,-19.812004
1426797923.94,-28.659294
1426797923.956,-37.167473
1426797923.971,-44.454414
1426797923.987,-49.615036
1426797924.002,-52.0486
1426797924.018,-51.79821
1426797924.034,-49.53408
1426797924.049,-46.23516
1426797924.065,-42.837364
1426797924.081,-39.794342
1426797924.096,-37.067757
1426797924.112,-34.19906
1426797924.127,-30.816116
1426797924.143,-26.922302
1426797924.159,-22.97651
1426797924.174,-19.639397
1426797924.19,-17.285934
1426797924.206,-15.751709
1426797924.221,-14.315422
1426797924.237,-11.999428
1426797924.252,-8.075035
1426797924.268,-2.616806
1426797924.284,3.629692
1426797924.299,9.617035
1426797924.315,14.553238
1426797924.331,18.402359
1426797924.346,21.85942
1426797924.362,26.00241
1426797924.377,31.617142
1426797924.393,38.804443
1426797924.409,46.760803
1426797924.424,54.07425
1426797924.44,59.391678
1426797924.456,61.828583
1426797924.471,61.235214
1426797924.487,58.13057
1426797924.502,53.212753
1426797924.518,46.959366
1426797924.534,39.472565
1426797924.549,30.5307
1426797924.565,19.957367
1426797924.581,8.005692
1426797924.596,-4.555664
1426797924.612,-16.667511
1426797924.627,-27.242554
1426797924.643,-35.74048
1426797924.659,-42.135986
1426797924.674,-46.859146
1426797924.69,-50.387573
1426797924.706,-52.87761
1426797924.721,-54.13977
1426797924.737,-53.7827
1426797924.752,-51.5903
1426797924.768,-47.745667
1426797924.784,-42.916656
1426797924.799,-37.906143
1426797924.815,-33.38614
1426797924.831,-29.616272
1426797924.846,-26.383713
1426797924.862,-23.200394
1426797924.877,-19.62062
1426797924.893,-15.522354
1426797924.909,-11.097137
1426797924.924,-6.7301636
1426797924.94,-2.7883759
1426797924.956,0.7574768
1426797924.971,4.1749115
1426797924.987,7.954056
1426797925.002,12.476654
1426797925.018,17.743774
1426797925.034,23.407959
1426797925.049,28.9142
1426797925.065,33.886322
1426797925.081,38.338943
1426797925.096,42.716034
1426797925.112,47.609634
1426797925.127,53.360626
1426797925.143,59.65042
1426797925.159,65.435425
1426797925.174,69.34151
1426797925.19,70.13818
1426797925.206,67.27417
1426797925.221,61.039246
1426797925.237,52.438416
1426797925.252,42.615067
1426797925.268,32.390366
1426797925.284,21.966888
1426797925.299,11.0746155
1426797925.315,-0.59703064
1426797925.331,-12.97757
1426797925.346,-25.364655
1426797925.362,-36.61618
1426797925.377,-45.533096
1426797925.393,-51.390045
1426797925.409,-54.19287
1426797925.424,-54.579056
1426797925.44,-53.475174
1426797925.456,-51.644714
1426797925.471,-49.385147
1426797925.487,-46.5645
1426797925.502,-42.965897
1426797925.518,-38.63051
1426797925.534,-34.00482
1426797925.549,-29.80252
1426797925.565,-26.676315
1426797925.581,-24.803955
1426797925.596,-23.783249
1426797925.612,-22.832245
1426797925.627,-21.133896
1426797925.643,-18.241776
1426797925.659,-14.218964
1426797925.674,-9.533569
1426797925.69,-4.731201
1426797925.706,-0.15834045
1426797925.721,4.2007904
1426797925.737,8.584244
1426797925.752,13.355408
1426797925.768,18.66426
1426797925.784,24.42305
1426797925.799,30.343063
1426797925.815,36.083893
1426797925.831,41.498108
1426797925.846,46.629044
1426797925.862,51.56903
1426797925.877,56.174408
1426797925.893,59.89174
1426797925.909,61.757996
1426797925.924,60.675446
1426797925.94,56.055176
1426797925.956,48.001648
1426797925.971,37.511246
1426797925.987,26.067627
1426797926.002,15.070389
1426797926.018,5.311783
1426797926.034,-3.233841
1426797926.049,-11.136444
1426797926.065,-19.023651
1426797926.081,-26.983139
1426797926.096,-34.48828
1426797926.112,-40.591873
1426797926.127,-44.469986
1426797926.143,-45.919586
1426797926.159,-45.475723
1426797926.174,-44.131287
1426797926.19,-42.834244
1426797926.206,-42.038956
1426797926.221,-41.406174
1426797926.237,-40.237534
1426797926.252,-37.888306
1426797926.268,-34.29976
1426797926.284,-30.051666
1426797926.299,-26.057999
1426797926.315,-23.059982
1426797926.331,-21.088715
1426797926.346,-19.465942
1426797926.362,-17.143738
1426797926.377,-13.367508
1426797926.393,-8.132416
1426797926.409,-2.1711884
1426797926.424,3.4113007
1426797926.44,7.8914948
1426797926.456,11.322037
1426797926.471,14.612015
1426797926.487,19.060577
1426797926.502,25.602142
1426797926.518,34.295944
1426797926.534,44.22696
1426797926.549,53.86061
1426797926.565,61.646133
1426797926.581,66.61464
1426797926.596,68.521835
1426797926.612,67.73831
1426797926.628,64.86957
1426797926.643,60.269547
1426797926.659,53.976456
1426797926.674,45.847687
1426797926.69,35.816986
1426797926.706,24.2128
1426797926.721,11.799347
1426797926.737,-0.38653564
1426797926.753,-11.421539
1426797926.768,-20.857498
1426797926.784,-28.750168
1426797926.799,-35.462173
1426797926.815,-41.262085
1426797926.831,-46.050354
1426797926.846,-49.322235
1426797926.862,-50.491882
1426797926.878,-49.28932
1426797926.893,-46.129745
1426797926.909,-42.016937
1426797926.924,-38.104294
1426797926.94,-35.262543
1426797926.956,-33.64119
1426797926.971,-32.67659
1426797926.987,-31.51181
1426797927.003,-29.353592
1426797927.018,-25.905258
1426797927.034,-21.356705
1426797927.049,-16.202927
1426797927.065,-10.883728
1426797927.081,-5.5621185
1426797927.096,-0.12475586
1426797927.112,5.6712036
1426797927.128,11.978683
1426797927.143,18.61081
1426797927.159,25.086151
1426797927.174,30.891098
1426797927.19,35.743927
1426797927.206,39.790405
1426797927.221,43.647125
1426797927.237,47.98198
1426797927.253,53.179947
1426797927.268,58.89978
1426797927.284,64.121994
1426797927.299,67.39838
1426797927.315,67.577286
1426797927.331,64.17439
1426797927.346,57.62613
1426797927.362,48.98819
1426797927.378,39.40892
1426797927.393,29.608536
1426797927.409,19.716782
1426797927.424,9.459503
1426797927.44,-1.4168549
1426797927.456,-12.737793
1426797927.471,-23.765076
1426797927.487,-33.52591
1426797927.503,-41.145584
1426797927.518,-46.289764
1426797927.534,-49.23639
1426797927.549,-50.741745
1426797927.565,-51.537247
1426797927.581,-51.990585
1426797927.596,-51.974274
1426797927.612,-51.089813
1426797927.628,-48.97107
1426797927.643,-45.626144
1426797927.659,-41.559082
1426797927.674,-37.58577
1426797927.69,-34.471283
1426797927.706,-32.56604
1426797927.721,-31.590439
1426797927.737,-30.73288
1426797927.753,-29.02269
1426797927.768,-25.83023
1426797927.784,-21.040405
1426797927.799,-15.122055
1426797927.815,-8.837051
1426797927.831,-2.779831
1426797927.846,2.8843079
1426797927.862,8.420776
1426797927.878,14.294998
1426797927.893,20.762726
1426797927.909,27.73021
1426797927.924,34.820557
1426797927.94,41.617523
1426797927.956,47.841522
1426797927.971,53.48419
1426797927.987,58.539566
1426797928.003,62.86563
1426797928.018,65.90988
1426797928.034,66.857956
1426797928.049,64.93732
1426797928.065,59.795258
1426797928.081,51.69255
1426797928.096,41.52539
1426797928.112,30.450714
1426797928.128,19.50505
1426797928.143,9.219467
1426797928.159,-0.4581604
1426797928.174,-9.919922
1426797928.19,-19.477692
1426797928.206,-28.916763
1426797928.221,-37.493546
1426797928.237,-44.17424
1426797928.253,-48.17476
1426797928.268,-49.421783
1426797928.284,-48.61264
1426797928.299,-46.847443
1426797928.315,-45.136993
1426797928.331,-43.880234
1426797928.346,-42.78444
1426797928.362,-41.181183
1426797928.378,-38.481537
1426797928.393,-34.655945
1426797928.409,-30.24205
1426797928.424,-26.10785
1426797928.44,-22.879532
1426797928.456,-20.564667
1426797928.471,-18.54657
1426797928.487,-15.851898
1426797928.503,-11.70993
1426797928.518,-5.973587
1426797928.534,0.72535706
1426797928.549,7.3592834
1426797928.565,12.967499
1426797928.581,17.15805
1426797928.596,20.361938
1426797928.612,23.554794
1426797928.628,27.766006
1426797928.643,33.469345
1426797928.659,40.45114
1426797928.674,47.78871
1426797928.69,54.38408
1426797928.706,59.3293
1426797928.721,62.242615
1426797928.737,63.084152
1426797928.753,61.98578
1426797928.768,58.840065
1426797928.784,53.337593
1426797928.799,45.238045
1426797928.815,34.539413
1426797928.831,21.88852
1426797928.846,8.399933
1426797928.862,-4.5851364
1426797928.878,-15.910416
1426797928.893,-25.00235
1426797928.909,-31.843857
1426797928.924,-36.87001
1426797928.94,-40.61554
1426797928.956,-43.47328
1426797928.971,-45.474045
1426797928.987,-46.446335
1426797929.003,-46.14383
1426797929.018,-44.575874
1426797929.034,-42.176727
1426797929.049,-39.682632
1426797929.065,-37.774925
1426797929.081,-36.79904
1426797929.096,-36.578667
1426797929.112,-36.468918
1426797929.128,-35.701958
1426797929.143,-33.824577
1426797929.159,-30.830948
1426797929.174,-27.102509
1426797929.19,-23.03424
1426797929.206,-18.789772
1426797929.221,-14.122833
1426797929.237,-8.565445
1426797929.253,-1.799736
1426797929.268,6.0406723
1426797929.284,14.307625
1426797929.3,22.058403
1426797929.315,28.522583
1426797929.331,33.54692
1426797929.346,37.665207
1426797929.362,41.81028
1426797929.378,46.8572
1426797929.393,52.91298
1426797929.409,59.205193
1426797929.424,64.25964
1426797929.44,66.605255
1426797929.456,65.41149
1426797929.471,60.883987
1426797929.487,53.93695
1426797929.503,45.794975
1426797929.518,37.25251
1426797929.534,28.424797
1426797929.55,18.916626
1426797929.565,8.359543
1426797929.581,-3.1560364
1426797929.596,-14.885361
1426797929.612,-25.647682
1426797929.628,-34.342323
1426797929.643,-40.40764
1426797929.659,-43.944946
1426797929.675,-45.576492
1426797929.69,-46.083435
1426797929.706,-45.95565
1426797929.721,-45.36882
1426797929.737,-44.14219
1426797929.753,-42.042534
1426797929.768,-39.13746
1426797929.784,-35.80893
1426797929.8,-32.668373
1426797929.815,-30.324478
1426797929.831,-29.012611
1426797929.846,-28.326263
1426797929.862,-27.482079
1426797929.878,-25.551468
1426797929.893,-21.971199
1426797929.909,-16.827461
1426797929.925,-10.735603
1426797929.94,-4.5927887
1426797929.956,0.95690155
1426797929.971,5.812454
1426797929.987,10.408165
1426797930.003,15.374672
1426797930.018,21.179756
1426797930.034,27.839577
1426797930.05,34.917267
1426797930.065,41.866745
1426797930.081,48.22412
1426797930.096,53.817604
1426797930.112,58.637993
1426797930.128,62.642616
1426797930.143,65.415016
1426797930.159,66.29965
1426797930.175,64.55628
1426797930.19,59.68743
1426797930.206,51.761597
1426797930.221,41.502434
1426797930.237,30.03215
1426797930.253,18.529373
1426797930.268,7.751175
1426797930.284,-2.1806107
1426797930.3,-11.584351
1426797930.315,-20.819061
1426797930.331,-29.935097
1426797930.346,-38.426704
1426797930.362,-45.395363
1426797930.378,-50.010185
1426797930.393,-51.91234
1426797930.409,-51.528236
1426797930.425,-49.738113
1426797930.44,-47.546547
1426797930.456,-45.469604
1426797930.471,-43.460182
1426797930.487,-41.02516
1426797930.503,-37.73964
1426797930.518,-33.61654
1426797930.534,-29.172081
1426797930.55,-25.20768
1426797930.565,-22.33818
1426797930.581,-20.614464
1426797930.596,-19.468666
1426797930.612,-17.861603
1426797930.628,-14.857368
1426797930.643,-10.054878
1426797930.659,-3.77697
1426797930.675,3.174469
1426797930.69,9.878288
1426797930.706,15.740158
1426797930.721,20.830406
1426797930.737,25.710945
1426797930.753,31.196007
1426797930.768,37.83866
1426797930.784,45.61766
1426797930.8,53.774582
1426797930.815,61.082962
1426797930.831,66.36599
1426797930.846,68.85745
1426797930.862,68.46473
1426797930.878,65.58057
1426797930.893,60.82511
1426797930.909,54.603172
1426797930.925,47.01257
1426797930.94,37.914917
1426797930.956,27.25095
1426797930.971,15.356827
1426797930.987,3.049965
1426797931.003,-8.6335945
1426797931.018,-18.906212
1426797931.034,-27.470604
1426797931.05,-34.57419
1426797931.065,-40.65437
1426797931.081,-45.954796
1426797931.096,-50.31599
1426797931.112,-53.247677
1426797931.128,-54.200863
1426797931.143,-53.075245
1426797931.159,-50.366325
1426797931.175,-47.007206
1426797931.19,-43.994656
1426797931.206,-41.986115
1426797931.221,-40.90627
1426797931.237,-40.12103
1426797931.253,-38.830788
1426797931.268,-36.466152
1426797931.284,-32.91765
1426797931.3,-28.549664
1426797931.315,-23.868275
1426797931.331,-19.219318
1426797931.346,-14.577827
1426797931.362,-9.641006
1426797931.378,-4.0133476
1426797931.393,2.3409882
1426797931.409,9.04269
1426797931.425,15.53046
1426797931.44,21.349789
1426797931.456,26.516731
1426797931.471,31.524944
1426797931.487,37.11935
1426797931.503,43.76078
1426797931.518,51.226875
1426797931.534,58.501884
1426797931.55,64.07179
1426797931.565,66.52085
1426797931.581,65.09772
1426797931.596,60.022167
1426797931.612,52.292923
1426797931.628,43.22439
1426797931.643,33.7772
1426797931.659,24.285835
1426797931.675,14.547064
1426797931.69,4.2372303
1426797931.706,-6.7076797
1426797931.721,-17.65728
1426797931.737,-27.458052
1426797931.753,-34.869564
1426797931.768,-39.217022
1426797931.784,-40.64999
1426797931.8,-40.137028
1426797931.815,-38.933052
1426797931.831,-38.012077
1426797931.846,-37.650764
1426797931.862,-37.531616
1426797931.878,-36.98517
1426797931.893,-35.54326
1426797931.909,-33.34202
1426797931.925,-30.967333
1426797931.94,-29.147484
1426797931.956,-28.24
1426797931.972,-27.969599
1426797931.987,-27.511787
1426797932.003,-25.896608
1426797932.018,-22.506884
1426797932.034,-17.456278
1426797932.05,-11.417222
1426797932.065,-5.3123913
1426797932.081,0.15296745
1426797932.096,4.8263035
1426797932.112,9.105998
1426797932.128,13.663243
1426797932.143,19.026636
1426797932.159,25.373796
1426797932.175,32.463154
1426797932.19,39.86543
1426797932.206,47.129074
1426797932.222,53.849472
1426797932.237,59.684624
1426797932.253,64.22871
1426797932.268,66.88037
1426797932.284,66.924706
1426797932.3,63.768364
1426797932.315,57.15
1426797932.331,47.314857
1426797932.347,35.16553
1426797932.362,21.89824
1426797932.378,8.751643
1426797932.393,-3.4326465
1426797932.409,-14.349122
1426797932.425,-24.162804
1426797932.44,-33.07838
1426797932.456,-41.091183
1426797932.472,-47.775166
1426797932.487,-52.442932
1426797932.503,-54.51353
1426797932.518,-53.902477
1426797932.534,-51.182686
1426797932.55,-47.40402
1426797932.565,-43.66275
1426797932.581,-40.72137
1426797932.597,-38.70218
1426797932.612,-37.27211
1426797932.628,-35.79127
1426797932.643,-33.8181
1426797932.659,-31.226112
1426797932.675,-28.184738
1426797932.69,-24.994026
1426797932.706,-21.717234
1426797932.722,-18.09915
1426797932.737,-13.692744
1426797932.753,-8.115151
1426797932.768,-1.2670479
1426797932.784,6.382616
1426797932.8,14.096038
1426797932.815,21.21432
1426797932.831,27.370098
1426797932.847,32.90771
1426797932.862,38.561142
1426797932.878,45.131004
1426797932.893,52.810555
1426797932.909,61.136696
1426797932.925,68.73842
1426797932.94,74.001015
1426797932.956,75.68202
1426797932.972,73.24636
1426797932.987,67.15326
1426797933.003,58.50874
1426797933.018,48.504616
1426797933.034,37.942516
1426797933.05,27.072115
1426797933.065,15.717649
1426797933.081,3.7482624
1426797933.097,-8.493929
1426797933.112,-20.24042
1426797933.128,-30.44513
1426797933.143,-38.280987
1426797933.159,-43.557465
1426797933.175,-46.668644
1426797933.19,-48.389366
1426797933.206,-49.431355
1426797933.222,-50.05548
1426797933.237,-50.037918
1426797933.253,-48.998688
1426797933.268,-46.76849
1426797933.284,-43.604614
1426797933.3,-40.28865
1426797933.315,-37.608986
1426797933.331,-36.072113
1426797933.347,-35.467575
1426797933.362,-34.953632
1426797933.378,-33.368256
1426797933.393,-29.949924
1426797933.409,-24.595848
1426797933.425,-17.935509
1426797933.44,-11.094711
1426797933.456,-4.9524918
1426797933.472,0.16928482
1426797933.487,4.6096306
1426797933.503,9.100365
1426797933.518,14.230503
1426797933.534,20.09578
1426797933.55,26.33392
1426797933.565,32.459152
1426797933.581,38.182987
1426797933.597,43.691208
1426797933.612,49.31043
1426797933.628,55.15128
1426797933.643,60.70848
1426797933.659,64.80583
1426797933.675,66.05014
1426797933.69,63.401978
1426797933.706,56.75599
1426797933.722,46.931034
1426797933.737,35.446537
1426797933.753,23.8046
1426797933.768,12.861027
1426797933.784,2.73518
1426797933.8,-7.0449257
1426797933.815,-16.891308
1426797933.831,-26.796207
1426797933.847,-36.004616
1426797933.862,-43.451263
1426797933.878,-48.170288
1426797933.893,-49.851433
1426797933.909,-49.102207
1426797933.925,-47.110783
1426797933.94,-45.140915
1426797933.956,-43.921555
1426797933.972,-43.3776
1426797933.987,-42.800617
1426797934.003,-41.345734
1426797934.018,-38.564667
1426797934.034,-34.69495
1426797934.05,-30.537563
1426797934.065,-26.976978
1426797934.081,-24.51936
1426797934.097,-22.966362
1426797934.112,-21.453705
1426797934.128,-18.954727
1426797934.143,-14.780754
1426797934.159,-9.0130005
1426797934.175,-2.4021378
1426797934.19,3.9828415
1426797934.206,9.408058
1426797934.222,13.82959
1426797934.237,17.85511
1426797934.253,22.545998
1426797934.268,28.605614
1426797934.284,36.100014
1426797934.3,44.228394
1426797934.315,51.769005
1426797934.331,57.51194
1426797934.347,60.781067
1426797934.362,61.51532
1426797934.378,60.06887
1426797934.393,56.87233
1426797934.409,52.107895
1426797934.425,45.668083
1426797934.44,37.347473
1426797934.456,27.227615
1426797934.472,15.858337
1426797934.487,4.1584396
1426797934.503,-6.8849335
1426797934.518,-16.617859
1426797934.534,-24.841858
1426797934.55,-31.81987
1426797934.565,-37.933945
1426797934.581,-43.365555
1426797934.597,-47.95076
1426797934.612,-51.226448
1426797934.628,-52.712166
1426797934.643,-52.178154
1426797934.659,-49.84456
1426797934.675,-46.324257
1426797934.69,-42.45636
1426797934.706,-38.9831
1426797934.722,-36.218582
1426797934.737,-34.00022
1426797934.753,-31.763596
1426797934.768,-28.880974
1426797934.784,-25.007309
1426797934.8,-20.241173
1426797934.815,-15.06414
1426797934.831,-10.104355
1426797934.847,-5.652878
1426797934.862,-1.5687027
1426797934.878,2.595459
1426797934.894,7.285263
1426797934.909,12.638924
1426797934.925,18.334633
1426797934.94,23.839424
1426797934.956,28.77871
1426797934.972,33.194923
1426797934.987,37.66089
1426797935.003,42.87143
1426797935.019,49.1103
1426797935.034,55.899612
1426797935.05,61.978485
1426797935.065,65.75164
1426797935.081,65.95791
1426797935.097,62.245117
1426797935.112,55.246437
1426797935.128,46.277496
1426797935.144,36.67594
1426797935.159,27.157272
1426797935.175,17.716537
1426797935.19,7.878723
1426797935.206,-2.6582565
1426797935.222,-13.636635
1426797935.237,-24.163826
1426797935.253,-33.040886
1426797935.269,-39.340202
1426797935.284,-42.845627
1426797935.3,-44.177094
1426797935.315,-44.288773
1426797935.331,-44.1298
1426797935.347,-44.043427
1426797935.362,-43.832047
1426797935.378,-42.99919
1426797935.394,-41.22985
1426797935.409,-38.588615
1426797935.425,-35.59555
1426797935.44,-32.907883
1426797935.456,-30.816216
1426797935.472,-29.168823
1426797935.487,-27.279427
1426797935.503,-24.261642
1426797935.519,-19.554512
1426797935.534,-13.204552
1426797935.55,-5.915436
1426797935.565,1.2570648
1426797935.581,7.365982
1426797935.597,12.061516
1426797935.612,15.629784
1426797935.628,18.91787
1426797935.644,22.88607
1426797935.659,28.215256
1426797935.675,35.01004
1426797935.69,42.73217
1426797935.706,50.49794
1426797935.722,57.431038
1426797935.737,62.861244
1426797935.753,66.399414
1426797935.769,67.79767
1426797935.784,66.82347
1426797935.8,63.197456
1426797935.815,56.75444
1426797935.831,47.557945
1426797935.847,36.08322
1426797935.862,23.229172
1426797935.878,10.038025
1426797935.894,-2.6020584
1426797935.909,-14.167526
1426797935.925,-24.568367
1426797935.94,-33.935776
1426797935.956,-42.289474
1426797935.972,-49.354317
1426797935.987,-54.65605
1426797936.003,-57.67179
1426797936.019,-58.20233
1426797936.034,-56.56035
1426797936.05,-53.444534
1426797936.065,-49.68509
1426797936.081,-45.933838
1426797936.097,-42.36586
1426797936.112,-38.766907
1426797936.128,-34.734062
1426797936.144,-29.990448
1426797936.159,-24.596931
1426797936.175,-18.937492
1426797936.19,-13.475914
1426797936.206,-8.540527
1426797936.222,-4.024193
1426797936.237,0.5140228
1426797936.253,5.674034
1426797936.269,11.809418
1426797936.284,18.79274
1426797936.3,26.076363
1426797936.315,32.918526
1426797936.331,38.834
1426797936.347,43.88996
1426797936.362,48.774773
1426797936.378,54.47152
1426797936.394,61.726776
1426797936.409,70.5371
1426797936.425,79.961105
1426797936.44,88.49498
1426797936.456,94.458984
1426797936.472,96.855515
1426797936.487,95.52779
1426797936.503,91.193146
1426797936.519,84.872986
1426797936.534,77.36534
1426797936.55,68.88602
1426797936.565,59.1333
1426797936.581,47.814606
1426797936.597,34.964996
1426797936.612,21.320892
1426797936.628,8.007568
1426797936.644,-3.869873
1426797936.659,-13.691345
1426797936.675,-21.51892
1426797936.69,-27.91777
1426797936.706,-33.561417
1426797936.722,-38.75522
1426797936.737,-43.377655
1426797936.753,-46.88347
1426797936.769,-48.83113
1426797936.784,-49.220383
1426797936.8,-48.612427
1426797936.815,-47.945923
1426797936.831,-48.127365
1426797936.847,-49.5549
1426797936.862,-51.93495
1426797936.878,-54.452423
1426797936.894,-56.10663
1426797936.909,-56.29294
1426797936.925,-55.022446
1426797936.94,-52.7507
1426797936.956,-50.16548
1426797936.972,-47.713577
1426797936.987,-45.46295
1426797937.003,-43.12047
1426797937.019,-40.3519
1426797937.034,-37.003082
1426797937.05,-33.248886
1426797937.065,-29.370667
1426797937.081,-25.505463
1426797937.097,-21.33406
1426797937.112,-16.262436
1426797937.128,-9.753754
1426797937.144,-1.792572
1426797937.159,6.76709
1426797937.175,14.375107
1426797937.19,19.279053
1426797937.206,20.218826
1426797937.222,16.973007
1426797937.237,10.34166
1426797937.253,1.8485107
1426797937.269,-7.0180054
1426797937.284,-15.287308
1426797937.3,-22.728088
1426797937.315,-29.566055
1426797937.331,-36.032684
1426797937.347,-41.963455
1426797937.362,-46.705902
1426797937.378,-49.425034
1426797937.394,-49.473557
1426797937.409,-46.82199
1426797937.425,-42.168808
1426797937.44,-36.56682
1426797937.456,-31.143723
1426797937.472,-26.584732
1426797937.487,-22.960464
1426797937.503,-19.850327
1426797937.519,-16.840057
1426797937.534,-13.754578
1426797937.55,-10.892014
1426797937.566,-8.775024
1426797937.581,-7.8040924
1426797937.597,-7.7865295
1426797937.612,-7.9779053
1426797937.628,-7.277817
1426797937.644,-4.8449554
1426797937.659,-0.53686523
1426797937.675,5.0111237
1426797937.691,10.74678
1426797937.706,15.75769
1426797937.722,19.747131
1426797937.737,23.188034
1426797937.753,26.938522
1426797937.769,31.820847
1426797937.784,38.094986
1426797937.8,45.351074
1426797937.816,52.606277
1426797937.831,58.726685
1426797937.847,62.70848
1426797937.862,64.06044
1426797937.878,62.80742
1426797937.894,59.304413
1426797937.909,54.02585
1426797937.925,47.18602
1426797937.941,38.852646
1426797937.956,28.943039
1426797937.972,17.585266
1426797937.987,5.227371
1426797938.003,-7.2790375
1426797938.019,-18.93428
1426797938.034,-29.022186
1426797938.05,-37.18518
1426797938.066,-43.60054
1426797938.081,-48.63385
1426797938.097,-52.48059
1426797938.112,-54.984802
1426797938.128,-55.746567
1426797938.144,-54.41568
1426797938.159,-51.082855
1426797938.175,-46.467194
1426797938.191,-41.523193
1426797938.206,-37.18045
1426797938.222,-33.891754
1426797938.237,-31.429016
1426797938.253,-29.109894
1426797938.269,-26.141693
1426797938.284,-22.08928
1426797938.3,-17.040451
1426797938.316,-11.583267
1426797938.331,-6.2857513
1426797938.347,-1.5467377
1426797938.362,2.751709
1426797938.378,7.098633
1426797938.394,11.981873
1426797938.409,17.626984
1426797938.425,23.796188
1426797938.441,30.033546
1426797938.456,35.90561
1426797938.472,41.41484
1426797938.487,46.9321
1426797938.503,52.904152
1426797938.519,59.467415
1426797938.534,65.91094
1426797938.55,70.8782
1426797938.566,72.810555
1426797938.581,70.602036
1426797938.597,64.11105
1426797938.612,54.217857
1426797938.628,42.397774
1426797938.644,30.079689
1426797938.659,18.15615
1426797938.675,6.758606
1426797938.691,-4.3899536
1426797938.706,-15.51059
1426797938.722,-26.392601
1426797938.737,-36.292984
1426797938.753,-44.191307
1426797938.769,-49.25049
1426797938.784,-51.23259
1426797938.8,-50.598885
1426797938.816,-48.331955
1426797938.831,-45.468964
1426797938.847,-42.658455
1426797938.862,-40.015694
1426797938.878,-37.199203
1426797938.894,-33.73649
1426797938.909,-29.447456
1426797938.925,-24.641586
1426797938.941,-19.957924
1426797938.956,-16.063187
1426797938.972,-13.255096
1426797938.987,-11.260376
1426797939.003,-9.392387
1426797939.019,-6.8589478
1426797939.034,-3.1167374
1426797939.05,1.795433
1426797939.066,7.430954
1426797939.081,13.147507
1426797939.097,18.477615
1426797939.112,23.42205
1426797939.128,28.464897
1426797939.144,34.355118
1426797939.159,41.69436
1426797939.175,50.638763
1426797939.191,60.736626
1426797939.206,71.02791
1426797939.222,80.32487
1426797939.237,87.537155
1426797939.253,91.98994
1426797939.269,93.52647
1426797939.284,92.35218
1426797939.3,88.82887
1426797939.316,83.36395
1426797939.331,76.244736
1426797939.347,67.85488
1426797939.362,58.80329
1426797939.378,49.955505
1426797939.394,42.202423
1426797939.409,36.12889
1426797939.425,31.695816
1426797939.441,28.304962
1426797939.456,25.106522
1426797939.472,21.554047
1426797939.487,17.847725
1426797939.503,14.686447
1426797939.519,12.783546
1426797939.534,12.158386
1426797939.55,11.766708
1426797939.566,9.764221
1426797939.581,4.3079376
1426797939.597,-5.549057
1426797939.612,-19.325241
1426797939.628,-35.11055
1426797939.644,-50.402847
1426797939.659,-62.942017
1426797939.675,-71.504425
1426797939.691,-76.05296
1426797939.706,-77.4238
1426797939.722,-76.65085
1426797939.737,-74.445175
1426797939.753,-71.01607
1426797939.769,-66.16086
1426797939.784,-59.70572
1426797939.8,-51.86931
1426797939.816,-43.192657
1426797939.831,-34.3497
1426797939.847,-25.688248
1426797939.862,-16.959274
1426797939.878,-7.5346527
1426797939.894,3.1296234
1426797939.909,14.914841
1426797939.925,26.669586
1426797939.941,36.667572
1426797939.956,43.177185
1426797939.972,45.237427
1426797939.987,43.128113
1426797940.003,38.112656
1426797940.019,31.80008
1426797940.034,25.375626
1426797940.05,19.233078
1426797940.066,12.905487
1426797940.081,5.5809937
1426797940.097,-3.1961975
1426797940.112,-13.277573
1426797940.128,-23.728271
1426797940.144,-33.28952
1426797940.159,-40.929718
1426797940.175,-46.27945
1426797940.191,-49.65477
1426797940.206,-51.86429
1426797940.222,-53.758316
1426797940.238,-55.791855
1426797940.253,-57.96338
1426797940.269,-59.950943
1426797940.284,-61.5047
1426797940.3,-62.700455
1426797940.316,-63.886917
1426797940.331,-65.40831
1426797940.347,-67.29483
1426797940.362,-69.00989
1426797940.378,-69.653
1426797940.394,-68.43355
1426797940.409,-65.01779
1426797940.425,-59.80812
1426797940.441,-53.664413
1426797940.456,-47.556015
1426797940.472,-42.022568
1426797940.488,-37.026123
1426797940.503,-31.875107
1426797940.519,-25.615463
1426797940.534,-17.466064
1426797940.55,-7.196945
1426797940.566,4.82605
1426797940.581,17.589584
1426797940.597,29.826065
1426797940.613,40.44644
1426797940.628,48.792206
1426797940.644,54.754517
1426797940.659,58.529022
1426797940.675,60.264862
1426797940.691,59.806152
1426797940.706,56.77719
1426797940.722,50.893845
1426797940.738,42.44496
1426797940.753,32.363586
1426797940.769,21.981827
1426797940.784,12.500671
1426797940.8,4.395279
1426797940.816,-2.5841217
1426797940.831,-9.08667
1426797940.847,-15.500015
1426797940.863,-21.464615
1426797940.878,-25.864288
1426797940.894,-27.41716
1426797940.909,-25.332153
1426797940.925,-19.80774
1426797940.941,-11.897186
1426797940.956,-2.9960022
1426797940.972,5.75914
1426797940.988,13.9618225
1426797941.003,21.812546
1426797941.019,29.793472
1426797941.034,38.195816
1426797941.05,46.824646
1426797941.066,55.10949
1426797941.081,62.32077
1426797941.097,67.85169
1426797941.113,71.4263
1426797941.128,73.08472
1426797941.144,73.134125
1426797941.159,71.96426
1426797941.175,69.86252
1426797941.191,67.04964
1426797941.206,63.71901
1426797941.222,60.10511
1426797941.238,56.644043
1426797941.253,53.898575
1426797941.269,52.218964
1426797941.284,51.522675
1426797941.3,50.9926
1426797941.316,49.284378
1426797941.331,44.94722
1426797941.347,37.07553
1426797941.363,25.704834
1426797941.378,11.977661
1426797941.394,-2.4634094
1426797941.409,-16.220657
1426797941.425,-28.692047
1426797941.441,-40.182617
1426797941.456,-51.41194
1426797941.472,-62.996033
1426797941.488,-74.76077
1426797941.503,-85.86711
1426797941.519,-95.02101
1426797941.534,-101.21295
1426797941.55,-104.11827
1426797941.566,-104.26843
1426797941.581,-102.69795
1426797941.597,-100.45764
1426797941.613,-98.12608
1426797941.628,-95.66748
1426797941.644,-92.716965
1426797941.659,-88.88634
1426797941.675,-84.23622
1426797941.691,-79.321686
1426797941.706,-74.867386
1426797941.722,-71.3696
1426797941.738,-68.77114
1426797941.753,-66.43246
1426797941.769,-63.40554
1426797941.784,-58.919983
1426797941.8,-52.770798
1426797941.816,-45.3758
1426797941.831,-37.515137
1426797941.847,-29.79889
1426797941.863,-22.352974
1426797941.878,-14.674034
1426797941.894,-5.9544907
1426797941.909,4.3628235
1426797941.925,16.070778
1426797941.941,28.129074
1426797941.956,38.93138
1426797941.972,46.896477
1426797941.988,51.139915
1426797942.003,51.56414
1426797942.019,48.836983
1426797942.034,43.931644
1426797942.05,37.69519
1426797942.066,30.53331
1426797942.081,22.635876
1426797942.097,14.188969
1426797942.113,5.6354866
1426797942.128,-2.1923504
1426797942.144,-8.400179
1426797942.159,-12.212782
1426797942.175,-13.390673
1426797942.191,-12.258237
1426797942.206,-9.549967
1426797942.222,-6.0942574
1426797942.238,-2.4161243
1426797942.253,1.339076
1426797942.269,5.333872
1426797942.284,9.689093
1426797942.3,14.292564
1426797942.316,18.632788
1426797942.331,21.981497
1426797942.347,23.726505
1426797942.363,23.734821
1426797942.378,22.497334
1426797942.394,21.028446
1426797942.409,20.456425
1426797942.425,21.510754
1426797942.441,24.304604
1426797942.456,28.288433
1426797942.472,32.5725
1426797942.488,36.531044
1426797942.503,40.04016
1426797942.519,43.488525
1426797942.534,47.52916
1426797942.55,52.605675
1426797942.566,58.63466
1426797942.581,65.134026
1426797942.597,71.46067
1426797942.613,77.08227
1426797942.628,81.78992
1426797942.644,85.432335
1426797942.659,87.76069
1426797942.675,88.19886
1426797942.691,85.97431
1426797942.706,80.44433
1426797942.722,71.44617
1426797942.738,59.473816
1426797942.753,45.591446
1426797942.769,31.09732
1426797942.784,17.05188
1426797942.8,3.9574127
1426797942.816,-8.187904
1426797942.831,-19.76651
1426797942.847,-31.032318
1426797942.863,-41.817245
1426797942.878,-51.432785
1426797942.894,-58.889572
1426797942.91,-63.310608
1426797942.925,-64.41985
1426797942.941,-62.733856
1426797942.956,-59.34075
1426797942.972,-55.484116
1426797942.988,-51.998207
1426797943.003,-49.028625
1426797943.019,-46.251244
1426797943.034,-43.19068
1426797943.05,-39.586433
1426797943.066,-35.639572
1426797943.081,-31.823418
1426797943.097,-28.452362
1426797943.113,-25.429016
1426797943.128,-22.150406
1426797943.144,-17.806313
1426797943.16,-11.835228
1426797943.175,-4.270584
1426797943.191,4.324112
1426797943.206,13.132355
1426797943.222,21.52462
1426797943.238,29.450172
1426797943.253,37.47928
1426797943.269,46.503304
1426797943.285,57.220657
1426797943.3,69.57545
1426797943.316,82.62288
1426797943.331,94.6533
1426797943.347,103.78259
1426797943.363,108.57156
1426797943.378,108.51472
1426797943.394,104.02461
1426797943.41,96.12415
1426797943.425,85.81908
1426797943.441,73.737
1426797943.456,59.996254
1426797943.472,44.610443
1426797943.488,27.787994
1426797943.503,10.292809
1426797943.519,-6.647972
1426797943.535,-21.808144
1426797943.55,-34.343636
1426797943.566,-44.054092
1426797943.581,-51.2956
1426797943.597,-56.63745
1426797943.613,-60.50995
1426797943.628,-63.016056
1426797943.644,-63.997826
1426797943.66,-63.261227
1426797943.675,-60.957226
1426797943.691,-57.651367
1426797943.706,-54.08217
1426797943.722,-50.937202
1426797943.738,-48.490932
1426797943.753,-46.455765
1426797943.769,-44.10656
1426797943.785,-40.68144
1426797943.8,-35.812737
1426797943.816,-29.753712
1426797943.831,-23.279
1426797943.847,-17.262371
1426797943.863,-12.249729
1426797943.878,-8.119999
1426797943.894,-4.2323074
1426797943.91,0.2520485
1426797943.925,5.8311615
1426797943.941,12.516758
1426797943.956,19.870708
1426797943.972,27.384155
1426797943.988,34.719025
1426797944.003,41.80166
1426797944.019,48.634575
1426797944.035,54.93782
1426797944.05,59.949013
1426797944.066,62.605072
1426797944.081,61.881042
1426797944.097,57.24198
1426797944.113,48.90346
1426797944.128,37.887035
1426797944.144,25.543434
1426797944.16,13.18099
1426797944.175,1.5425301
1426797944.191,-9.249638
1426797944.206,-19.512022
1426797944.222,-29.50124
1426797944.238,-39.130352
1426797944.253,-47.75882
1426797944.269,-54.405376
1426797944.285,-58.2079
1426797944.3,-58.913734
1426797944.316,-57.051117
1426797944.331,-53.680004
1426797944.347,-50.007713
1426797944.363,-46.76589
1426797944.378,-44.080826
1426797944.394,-41.543377
1426797944.41,-38.60856
1426797944.425,-34.991394
1426797944.441,-30.847992
1426797944.456,-26.64917
1426797944.472,-22.788904
1426797944.488,-19.333221
1426797944.503,-15.883944
1426797944.519,-11.79166
1426797944.535,-6.5419207
1426797944.55,-0.11973286
1426797944.566,6.9354343
1426797944.581,13.787785
1426797944.597,19.678675
1426797944.613,24.322456
1426797944.628,28.086262
1426797944.644,31.861958
1426797944.66,36.696068
1426797944.675,43.138103
1426797944.691,50.92585
1426797944.706,58.941074
1426797944.722,65.60513
1426797944.738,69.401886
1426797944.753,69.50502
1426797944.769,65.89918
1426797944.785,59.32002
1426797944.8,50.75062
1426797944.816,40.92718
1426797944.831,30.22773
1426797944.847,18.692108
1426797944.863,6.3852377
1426797944.878,-6.308176
1426797944.894,-18.585426
1426797944.91,-29.45131
1426797944.925,-38.156975
1426797944.941,-44.396954
1426797944.956,-48.4313
1426797944.972,-50.768005
1426797944.988,-51.906746
1426797945.003,-52.011345
1426797945.019,-50.958656
1426797945.035,-48.482803
1426797945.05,-44.572056
1426797945.066,-39.675014
1426797945.081,-34.545742
1426797945.097,-30.062054
1426797945.113,-26.767914
1426797945.128,-24.581043
1426797945.144,-22.92113
1426797945.16,-20.943521
1426797945.175,-17.914095
1426797945.191,-13.592891
1426797945.206,-8.296082
1426797945.222,-2.6383777
1426797945.238,2.7008085
1426797945.253,7.4542875
1426797945.269,11.77998
1426797945.285,16.253128
1426797945.3,21.467361
1426797945.316,27.75787
1426797945.331,35.038506
1426797945.347,42.906616
1426797945.363,50.91409
1426797945.378,58.69561
1426797945.394,66.06099
1426797945.41,72.80404
1426797945.425,78.44182
1426797945.441,82.157936
1426797945.456,83.05313
1426797945.472,80.45387
1426797945.488,74.25976
1426797945.503,65.16417
1426797945.519,54.39992
1426797945.535,43.362297
1426797945.55,33.136276
1426797945.566,24.07889
1426797945.581,15.959913
1426797945.597,8.214184
1426797945.613,0.34779358
1426797945.628,-7.632126
1426797945.644,-15.071251
1426797945.66,-20.970673
1426797945.675,-24.298481
1426797945.691,-24.540497
1426797945.706,-21.91449
1426797945.722,-17.124165
1426797945.738,-11.096142
1426797945.753,-4.5305176
1426797945.769,2.2933273
1426797945.785,9.439804
1426797945.8,16.945839
1426797945.816,24.586746
1426797945.832,31.806404
1426797945.847,37.990707
1426797945.863,42.86418
1426797945.878,46.78649
1426797945.894,50.528725
1426797945.91,54.857063
1426797945.925,60.02282
1426797945.941,65.31748
1426797945.957,69.39934
1426797945.972,70.82214
1426797945.988,68.70323
1426797946.003,63.176086
1426797946.019,55.27742
1426797946.035,46.530365
1426797946.05,38.281815
1426797946.066,31.266891
1426797946.082,25.44046
1426797946.097,20.235321
1426797946.113,14.909241
1426797946.128,8.864334
1426797946.144,1.7917023
1426797946.16,-6.4259186
1426797946.175,-15.816116
1426797946.191,-26.52684
1426797946.207,-38.783646
1426797946.222,-52.822052
1426797946.238,-68.57391
1426797946.253,-85.478134
1426797946.269,-102.50171
1426797946.285,-118.30493
1426797946.3,-131.7044
1426797946.316,-142.02318
1426797946.332,-149.24576
1426797946.347,-153.86168
1426797946.363,-156.58118
1426797946.378,-157.86972
1426797946.394,-157.8274
1426797946.41,-156.26666
1426797946.425,-152.91069
1426797946.441,-147.8545
1426797946.457,-141.5659
1426797946.472,-134.93553
1426797946.488,-128.82167
1426797946.503,-123.756256
1426797946.519,-119.79167
1426797946.535,-116.585144
1426797946.55,-113.73653
1426797946.566,-111.034744
1426797946.582,-108.56889
1426797946.597,-106.460815
1426797946.613,-104.58394
1426797946.628,-102.252426
1426797946.644,-98.27373
1426797946.66,-91.408844
1426797946.675,-80.83302
1426797946.691,-66.63504
1426797946.707,-49.717407
1426797946.722,-31.433304
1426797946.738,-12.908524
1426797946.753,5.3687744
1426797946.769,23.57167
1426797946.785,42.09912
1426797946.8,60.97847
1426797946.816,79.37056
1426797946.832,95.64885
1426797946.847,108.01788
1426797946.863,115.1774
1426797946.878,116.9473
1426797946.894,114.22688
1426797946.91,108.55615
1426797946.925,101.373344
1426797946.941,93.44354
1426797946.957,84.784775
1426797946.972,75.03051
1426797946.988,63.97004
1426797947.003,52.011665
1426797947.019,40.231606
1426797947.035,29.961945
1426797947.05,22.205166
1426797947.066,17.189346
1426797947.082,14.299812
1426797947.097,12.491455
1426797947.113,10.78912
1426797947.128,8.801281
1426797947.144,6.775076
1426797947.16,5.347433
1426797947.175,4.9739113
1426797947.191,5.6519585
1426797947.207,6.8336067
1426797947.222,7.7690334
1426797947.238,7.985452
1426797947.253,7.611577
1426797947.269,7.372431
1426797947.285,8.163546
1426797947.3,10.6757555
1426797947.316,14.906436
1426797947.332,20.27002
1426797947.347,25.86926
1426797947.363,31.024372
1426797947.378,35.52775
1426797947.394,39.78536
1426797947.41,44.542805
1426797947.425,50.428257
1426797947.441,57.71131
1426797947.457,65.988914
1426797947.472,74.43431
1426797947.488,81.96606
1426797947.503,87.6595
1426797947.519,90.85735
1426797947.535,91.31744
1426797947.55,89.062485
1426797947.566,84.2084
1426797947.582,76.88572
1426797947.597,67.14725
1426797947.613,55.180275
1426797947.628,41.47119
1426797947.644,26.879276
1426797947.66,12.5550995
1426797947.675,-0.42946815
1426797947.691,-11.455084
1426797947.707,-20.482311
1426797947.722,-27.86538
1426797947.738,-34.112755
1426797947.753,-39.475876
1426797947.769,-43.7978
1426797947.785,-46.707577
1426797947.8,-47.895416
1426797947.816,-47.46933
1426797947.832,-45.995296
1426797947.847,-44.293724
1426797947.863,-43.049324
1426797947.878,-42.565575
1426797947.894,-42.579857
1426797947.91,-42.516205
1426797947.925,-41.72793
1426797947.941,-39.800713
1426797947.957,-36.75351
1426797947.972,-32.95253
1426797947.988,-28.839638
1426797948.003,-24.636877
1426797948.019,-20.207012
1426797948.035,-15.04944
1426797948.05,-8.683589
1426797948.066,-1.0219564
1426797948.082,7.53129
1426797948.097,16.182861
1426797948.113,24.1213
1426797948.128,31.07483
1426797948.144,37.34451
1426797948.16,43.691284
