1425334251.67,0.0
1425334251.686,0.0
1425334251.702,0.0
1425334251.717,0.0
1425334251.733,0.0
1425334251.749,0.0
1425334251.764,0.0
1425334251.78,0.0
1425334251.795,0.0
1425334251.811,0.0022315353
1425334251.827,-0.0045169927
1425334251.842,-0.011265522
1425334251.858,-0.011383951
1425334251.874,0.0011864507
1425334251.889,0.025910312
1425334251.905,0.050634187
1425334251.92,0.051362894
1425334251.936,-0.0014929791
1425334251.952,-0.1302426
1425334251.967,-0.35562757
1425334251.983,-0.6591247
1425334251.999,-1.0095103
1425334252.014,-1.3709826
1425334252.03,-1.7197359
1425334252.045,-2.0551105
1425334252.061,-2.39945
1425334252.077,-2.7866635
1425334252.092,-3.2399073
1425334252.108,-3.796012
1425334252.124,-4.418684
1425334252.139,-5.0592937
1425334252.155,-5.6644096
1425334252.17,-6.2021537
1425334252.186,-6.6808796
1425334252.202,-7.149598
1425334252.217,-7.6782336
1425334252.233,-8.310739
1425334252.249,-9.143657
1425334252.264,-10.089731
1425334252.28,-11.041313
1425334252.295,-11.8842125
1425334252.311,-12.564316
1425334252.327,-13.13563
1425334252.342,-13.760044
1425334252.358,-14.65232
1425334252.374,-15.962056
1425334252.389,-17.914442
1425334252.405,-20.317299
1425334252.42,-22.903854
1425334252.436,-25.37947
1425334252.452,-27.578028
1425334252.467,-29.57246
1425334252.483,-31.675173
1425334252.499,-34.3178
1425334252.514,-37.813618
1425334252.53,-42.541233
1425334252.545,-48.1463
1425334252.561,-54.104755
1425334252.577,-59.83309
1425334252.592,-64.972374
1425334252.608,-69.58293
1425334252.624,-74.14353
1425334252.639,-79.344986
1425334252.655,-85.70726
1425334252.67,-93.76193
1425334252.686,-102.99779
1425334252.702,-112.61757
1425334252.717,-121.73034
1425334252.733,-129.76602
1425334252.749,-136.75102
1425334252.764,-143.30344
1425334252.78,-150.74623
1425334252.795,-157.77356
1425334252.811,-166.64323
1425334252.827,-177.94798
1425334252.842,-191.79102
1425334252.858,-206.96808
1425334252.874,-220.56592
1425334252.889,-228.24644
1425334252.905,-225.36154
1425334252.92,-208.53198
1425334252.936,-176.87024
1425334252.952,-132.76222
1425334252.967,-80.04997
1425334252.983,-23.069275
1425334252.999,34.94339
1425334253.014,92.43695
1425334253.03,149.15695
1425334253.045,205.22772
1425334253.061,260.36963
1425334253.077,313.74133
1425334253.092,363.87396
1425334253.108,409.83353
1425334253.124,450.90775
1425334253.139,486.50244
1425334253.155,515.73865
1425334253.17,537.2274
1425334253.186,549.22
1425334253.202,549.9613
1425334253.217,538.367
1425334253.233,514.2055
1425334253.249,478.674
1425334253.264,433.87952
1425334253.28,382.45126
1425334253.295,327.02106
1425334253.311,269.84186
1425334253.327,212.63379
1425334253.342,156.6594
1425334253.358,102.95233
1425334253.374,52.373596
1425334253.389,5.9046936
1425334253.405,-35.580414
1425334253.42,-71.42584
1425334253.436,-101.35184
1425334253.452,-125.50113
1425334253.467,-144.3797
1425334253.483,-158.69403
1425334253.499,-169.15071
1425334253.514,-176.3711
1425334253.53,-180.75139
1425334253.546,-182.57419
1425334253.561,-182.06863
1425334253.577,-179.5066
1425334253.592,-175.23325
1425334253.608,-169.65286
1425334253.624,-163.17691
1425334253.639,-156.14568
1425334253.655,-148.80681
1425334253.671,-141.29686
1425334253.686,-133.68983
1425334253.702,-126.01962
1425334253.717,-118.33268
1425334253.733,-110.68864
1425334253.749,-103.15572
1425334253.764,-95.80455
1425334253.78,-88.684166
1425334253.796,-81.82744
1425334253.811,-75.24594
1425334253.827,-68.9526
1425334253.842,-62.949062
1425334253.858,-57.247356
1425334253.874,-51.85681
1425334253.889,-46.78215
1425334253.905,-42.026722
1425334253.921,-37.583805
1425334253.936,-33.450207
1425334253.952,-29.61268
1425334253.967,-26.071066
1425334253.983,-22.811638
1425334253.999,-19.832685
1425334254.014,-17.128603
1425334254.03,-14.692566
1425334254.046,-12.520074
1425334254.061,-10.59806
1425334254.077,-8.916462
1425334254.092,-7.458142
1425334254.108,-6.2097774
1425334254.124,-5.151243
1425334254.139,-4.263123
1425334254.155,-3.5260158
1425334254.171,-2.9237652
1425334254.186,-2.436642
1425334254.202,-2.045923
1425334254.217,-1.7409465
1425334254.233,-1.5072886
1425334254.249,-1.3347634
1425334254.264,-1.2105397
1425334254.28,-1.1287585
1425334254.296,-1.0820823
1425334254.311,-1.0630019
1425334254.327,-1.0725108
1425334254.342,-1.1013737
1425334254.358,-1.1492445
1425334254.374,-1.2135328
1425334254.389,-1.296334
1425334254.405,-1.3984203
1425334254.421,-1.5149456
1425334254.436,-1.6501565
1425334254.452,-1.8043666
1425334254.467,-1.9791808
1425334254.483,-2.1765947
1425334254.499,-2.394911
1425334254.514,-2.6389227
1425334254.53,-2.9052536
1425334254.546,-3.2055504
1425334254.561,-3.5311234
1425334254.577,-3.8902721
1425334254.592,-4.2816086
1425334254.608,-4.711647
1425334254.624,-5.1742754
1425334254.639,-5.674725
1425334254.655,-6.212199
1425334254.671,-6.792254
1425334254.686,-7.415689
1425334254.702,-8.083057
1425334254.717,-8.793203
1425334254.733,-9.549405
1425334254.749,-10.350121
1425334254.764,-11.194712
1425334254.78,-12.083791
1425334254.796,-13.012016
1425334254.811,-13.990131
1425334254.827,-15.030087
1425334254.842,-16.130596
1425334254.858,-17.285675
1425334254.874,-18.491798
1425334254.889,-19.743664
1425334254.905,-20.990974
1425334254.921,-22.187794
1425334254.936,-23.252848
1425334254.952,-24.093994
1425334254.967,-24.58407
1425334254.983,-24.609777
1425334254.999,-24.06179
1425334255.014,-22.849018
1425334255.03,-20.925549
1425334255.046,-18.290749
1425334255.061,-15.009628
1425334255.077,-11.151196
1425334255.092,-6.880558
1425334255.108,-2.4026146
1425334255.124,2.0960808
1425334255.139,6.38818
1425334255.155,10.298698
1425334255.171,13.673935
1425334255.186,16.41663
1425334255.202,18.466972
1425334255.217,19.836262
1425334255.233,20.547283
1425334255.249,20.680542
1425334255.264,20.344566
1425334255.28,19.640072
1425334255.296,18.660358
1425334255.311,17.498905
1425334255.327,16.232178
1425334255.342,14.893829
1425334255.358,13.5214
1425334255.374,12.122459
1425334255.389,10.72496
1425334255.405,9.3591
1425334255.421,8.026382
1425334255.436,6.7261276
1425334255.452,5.463249
1425334255.467,4.2258835
1425334255.483,2.9905548
1425334255.499,1.7262802
1425334255.514,0.38516235
1425334255.53,-1.0156631
1425334255.546,-2.4561005
1425334255.561,-3.9283447
1425334255.577,-5.435234
1425334255.592,-6.9658203
1425334255.608,-8.517471
1425334255.624,-10.0905075
1425334255.639,-11.725197
1425334255.655,-13.497887
1425334255.671,-15.350876
1425334255.686,-17.283173
1425334255.702,-19.34076
1425334255.717,-21.62458
1425334255.733,-24.239655
1425334255.749,-27.317795
1425334255.764,-31.037537
1425334255.78,-35.557053
1425334255.796,-41.129272
1425334255.811,-47.689392
1425334255.827,-55.22052
1425334255.842,-63.638626
1425334255.858,-72.83026
1425334255.874,-82.555786
1425334255.889,-92.5421
1425334255.905,-102.45009
1425334255.921,-111.985794
1425334255.936,-120.95175
1425334255.952,-128.87654
1425334255.967,-135.4302
1425334255.983,-140.4007
1425334255.999,-143.59468
1425334256.014,-144.81859
1425334256.03,-143.79948
1425334256.046,-140.10643
1425334256.061,-132.96268
1425334256.077,-123.90903
1425334256.092,-113.632385
1425334256.108,-102.7991
1425334256.124,-91.98236
1425334256.139,-81.67569
1425334256.155,-72.16147
1425334256.171,-63.557526
1425334256.186,-55.837067
1425334256.202,-48.892914
1425334256.218,-42.719604
1425334256.233,-37.06711
1425334256.249,-31.858826
1425334256.264,-27.121643
1425334256.28,-22.785583
1425334256.296,-18.666077
1425334256.311,-14.392395
1425334256.327,-9.5442505
1425334256.343,-3.7811584
1425334256.358,2.9041748
1425334256.374,10.461578
1425334256.389,18.480408
1425334256.405,26.431824
1425334256.421,33.933716
1425334256.436,40.989136
1425334256.452,48.026
1425334256.468,55.764404
1425334256.483,64.92493
1425334256.499,75.90051
1425334256.514,88.79639
1425334256.53,103.29254
1425334256.546,118.80365
1425334256.561,134.84406
1425334256.577,151.18872
1425334256.593,167.98273
1425334256.608,185.6673
1425334256.624,204.961
1425334256.639,226.67609
1425334256.655,251.58936
1425334256.671,279.82526
1425334256.686,310.26093
1425334256.702,340.15784
1425334256.718,365.4663
1425334256.733,381.82977
1425334256.749,386.1275
1425334256.764,377.74628
1425334256.78,358.98065
1425334256.796,334.22577
1425334256.811,308.37103
1425334256.827,285.11108
1425334256.843,266.09424
1425334256.858,250.99066
1425334256.874,238.32556
1425334256.889,226.29858
1425334256.905,213.30396
1425334256.921,197.98895
1425334256.936,179.19324
1425334256.952,156.14215
1425334256.968,128.86316
1425334256.983,98.43945
1425334256.999,66.93799
1425334257.014,36.765137
1425334257.03,9.928284
1425334257.046,-12.670288
1425334257.061,-31.27124
1425334257.077,-46.96698
1425334257.093,-60.97754
1425334257.108,-74.186615
1425334257.124,-86.88815
1425334257.139,-98.94531
1425334257.155,-109.89957
1425334257.171,-119.30844
1425334257.186,-126.756226
1425334257.202,-131.9859
1425334257.218,-134.94449
1425334257.233,-135.83533
1425334257.249,-135.1506
1425334257.264,-133.49658
1425334257.28,-131.38242
1425334257.296,-128.98355
1425334257.311,-126.12961
1425334257.327,-122.43161
1425334257.343,-117.53735
1425334257.358,-111.42273
1425334257.374,-104.319214
1425334257.389,-96.675766
1425334257.405,-88.89986
1425334257.421,-81.20804
1425334257.436,-73.54814
1425334257.452,-65.8069
1425334257.468,-57.929718
1425334257.483,-50.086258
1425334257.499,-42.655045
1425334257.514,-36.166367
1425334257.53,-31.156204
1425334257.546,-28.016205
1425334257.561,-26.87706
1425334257.577,-27.584053
1425334257.593,-29.696465
1425334257.608,-32.625015
1425334257.624,-35.726143
1425334257.639,-38.531525
1425334257.655,-40.70646
1425334257.671,-42.11715
1425334257.686,-42.792023
1425334257.702,-42.86428
1425334257.718,-42.523674
1425334257.733,-42.046387
1425334257.749,-41.646626
1425334257.764,-41.43289
1425334257.78,-41.35955
1425334257.796,-41.192978
1425334257.811,-40.632076
1425334257.827,-39.506763
1425334257.843,-37.791145
1425334257.858,-35.687927
1425334257.874,-33.495346
1425334257.889,-31.497478
1425334257.905,-29.81731
1425334257.921,-28.447332
1425334257.936,-27.254807
1425334257.952,-26.052479
1425334257.968,-24.673677
1425334257.983,-23.017662
1425334257.999,-20.989687
1425334258.014,-18.540253
1425334258.03,-15.705914
1425334258.046,-12.580299
1425334258.061,-9.3148
1425334258.077,-6.1012
1425334258.093,-3.0418282
1425334258.108,-0.16110611
1425334258.124,2.675991
1425334258.139,5.6750374
1425334258.155,9.021126
1425334258.171,12.670166
1425334258.186,16.360405
1425334258.202,19.532066
1425334258.218,21.579056
1425334258.233,21.972534
1425334258.249,20.471481
1425334258.264,17.198067
1425334258.28,12.581352
1425334258.296,7.2171707
1425334258.311,1.7158966
1425334258.327,-3.4757233
1425334258.343,-8.113213
1425334258.358,-12.182823
1425334258.374,-15.755486
1425334258.389,-18.995132
1425334258.405,-22.008484
1425334258.421,-24.874367
1425334258.436,-27.563797
1425334258.452,-29.978233
1425334258.468,-31.970215
1425334258.483,-33.40515
1425334258.499,-34.220818
1425334258.514,-34.425644
1425334258.53,-34.14621
1425334258.546,-33.61802
1425334258.561,-33.14601
1425334258.577,-32.988785
1425334258.593,-33.21901
1425334258.608,-33.73883
1425334258.624,-34.27913
1425334258.639,-34.586777
1425334258.655,-34.445663
1425334258.671,-33.843872
1425334258.686,-32.86148
1425334258.702,-31.645035
1425334258.718,-30.238373
1425334258.733,-28.57257
1425334258.749,-26.509598
1425334258.764,-23.925323
1425334258.78,-20.847122
1425334258.796,-17.41034
1425334258.811,-13.826614
1425334258.827,-10.2417755
1425334258.843,-6.664505
1425334258.858,-3.022766
1425334258.874,0.84332275
1425334258.89,5.0283813
1425334258.905,9.588806
1425334258.921,14.422989
1425334258.936,19.359512
1425334258.952,24.15831
1425334258.968,28.621857
1425334258.983,32.537598
1425334258.999,35.691788
1425334259.014,37.805267
1425334259.03,38.537292
1425334259.046,37.585052
1425334259.061,34.799423
1425334259.077,30.332397
1425334259.093,24.613495
1425334259.108,18.309708
1425334259.124,12.123062
1425334259.14,6.540146
1425334259.155,1.8513184
1425334259.171,-1.9788971
1425334259.186,-5.1374207
1425334259.202,-7.8750916
1425334259.218,-10.361969
1425334259.233,-12.674622
1425334259.249,-14.787415
1425334259.265,-16.611511
1425334259.28,-18.046997
1425334259.296,-19.00824
1425334259.311,-19.467285
1425334259.327,-19.491547
1425334259.343,-19.255264
1425334259.358,-18.962051
1425334259.374,-18.86467
1425334259.39,-19.150894
1425334259.405,-19.851746
1425334259.421,-20.831299
1425334259.436,-21.741425
1425334259.452,-22.175552
1425334259.468,-21.823288
1425334259.483,-20.64853
1425334259.499,-18.874908
1425334259.515,-16.88086
1425334259.53,-14.992157
1425334259.546,-13.374741
1425334259.561,-12.0147705
1425334259.577,-10.7300415
1425334259.593,-9.397537
1425334259.608,-7.953903
1425334259.624,-6.3713684
1425334259.64,-4.64534
1425334259.655,-2.707199
1425334259.671,-0.5042572
1425334259.686,1.9670258
1425334259.702,4.605179
1425334259.718,7.2411804
1425334259.733,9.700516
1425334259.749,11.970673
1425334259.765,14.194717
1425334259.78,16.61174
1425334259.796,19.379349
1425334259.811,22.49759
1425334259.827,25.651688
1425334259.843,28.2639
1425334259.858,29.658676
1425334259.874,29.303024
1425334259.89,27.000229
1425334259.905,23.037766
1425334259.921,17.986801
1425334259.936,12.568176
1425334259.952,7.317337
1425334259.968,2.5199585
1425334259.983,-1.8464508
1425334259.999,-5.8916626
1425334260.015,-9.690399
1425334260.03,-13.178375
1425334260.046,-16.233124
1425334260.061,-18.748672
1425334260.077,-20.69342
1425334260.093,-22.125214
1425334260.108,-23.121262
1425334260.124,-23.72136
1425334260.14,-23.91423
1425334260.155,-23.6866
1425334260.171,-23.095375
1425334260.186,-22.280243
1425334260.202,-21.468948
1425334260.218,-20.83184
1425334260.233,-20.425774
1425334260.249,-20.141129
1425334260.265,-19.77919
1425334260.28,-19.04831
1425334260.296,-17.785301
1425334260.311,-15.963486
1425334260.327,-13.742226
1425334260.343,-11.399185
1425334260.358,-9.246292
1425334260.374,-7.4742126
1425334260.39,-6.142929
1425334260.405,-5.1795654
1425334260.421,-4.478821
1425334260.436,-3.9303207
1425334260.452,-3.4744263
1425334260.468,-2.970108
1425334260.483,-2.2343216
1425334260.499,-1.0380173
1425334260.515,0.77802277
1425334260.53,3.215454
1425334260.546,6.0437546
1425334260.561,8.950203
1425334260.577,11.6260605
1425334260.593,13.987694
1425334260.608,16.183899
1425334260.624,18.5195
1425334260.64,21.18338
1425334260.655,24.13578
1425334260.671,26.92656
1425334260.686,28.908112
1425334260.702,29.449196
1425334260.718,28.214737
1425334260.733,25.293343
1425334260.749,21.157951
1425334260.765,16.40371
1425334260.78,11.578026
1425334260.796,6.995682
1425334260.811,2.7548828
1425334260.827,-1.186348
1425334260.843,-4.831085
1425334260.858,-8.09761
1425334260.874,-10.834572
1425334260.89,-12.939003
1425334260.905,-14.412544
1425334260.921,-15.324066
1425334260.936,-15.741287
1425334260.952,-15.748032
1425334260.968,-15.362736
1425334260.983,-14.629166
1425334260.999,-13.677937
1425334261.015,-12.711456
1425334261.03,-11.915451
1425334261.046,-11.410988
1425334261.061,-11.129971
1425334261.077,-10.898525
1425334261.093,-10.501736
1425334261.108,-9.822338
1425334261.124,-8.896782
1425334261.14,-7.9453964
1425334261.155,-7.1511917
1425334261.171,-6.657219
1425334261.186,-6.371975
1425334261.202,-6.06921
1425334261.218,-5.50436
1425334261.233,-4.4800453
1425334261.249,-2.9558258
1425334261.265,-0.9958267
1425334261.28,1.2691002
1425334261.296,3.7300797
1425334261.311,6.3569717
1425334261.327,9.124714
1425334261.343,11.966488
1425334261.358,14.716223
1425334261.374,17.21311
1425334261.39,19.315422
1425334261.405,21.067686
1425334261.421,22.657396
1425334261.436,24.332785
1425334261.452,26.146194
1425334261.468,27.854362
1425334261.483,28.891544
1425334261.499,28.60992
1425334261.515,26.51093
1425334261.53,22.579891
1425334261.546,17.288792
1425334261.562,11.44253
1425334261.577,5.8822546
1425334261.593,1.2220764
1425334261.608,-2.3354645
1425334261.624,-4.9422445
1425334261.64,-6.9819117
1425334261.655,-8.80221
1425334261.671,-10.650263
1425334261.686,-12.541475
1425334261.702,-14.278614
1425334261.718,-15.582577
1425334261.733,-16.220377
1425334261.749,-16.047672
1425334261.765,-15.163411
1425334261.78,-13.811798
1425334261.796,-12.335011
1425334261.812,-11.004957
1425334261.827,-10.020492
1425334261.843,-9.417196
1425334261.858,-9.227936
1425334261.874,-9.437252
1425334261.89,-10.055344
1425334261.905,-11.020624
1425334261.921,-12.16082
1425334261.937,-13.1301565
1425334261.952,-13.60396
1425334261.968,-13.389325
1425334261.983,-12.490728
1425334261.999,-11.171915
1425334262.015,-9.788204
1425334262.03,-8.548208
1425334262.046,-7.42272
1425334262.062,-6.112404
1425334262.077,-4.266361
1425334262.093,-1.6846809
1425334262.108,1.5248356
1425334262.124,5.0320168
1425334262.14,8.442465
1425334262.155,11.530716
1425334262.171,14.321426
1425334262.187,16.999268
1425334262.202,19.807821
1425334262.218,22.90448
1425334262.233,26.242985
1425334262.249,29.672611
1425334262.265,32.89272
1425334262.28,35.520264
1425334262.296,37.09879
1425334262.312,37.250187
1425334262.327,35.709835
1425334262.343,32.51181
1425334262.358,27.949448
1425334262.374,22.578907
1425334262.39,16.975365
1425334262.405,11.639099
1425334262.421,6.8656006
1425334262.437,2.7591248
1425334262.452,-0.68751526
1425334262.468,-3.5538864
1425334262.483,-5.915104
1425334262.499,-7.862522
1425334262.515,-9.529655
1425334262.53,-11.016548
1425334262.546,-12.388924
1425334262.562,-13.591423
1425334262.577,-14.531792
1425334262.593,-15.100376
1425334262.608,-15.2685585
1425334262.624,-15.067413
1425334262.64,-14.6251335
1425334262.655,-14.1238365
1425334262.671,-13.688942
1425334262.687,-13.410679
1425334262.702,-13.304852
1425334262.718,-13.303711
1425334262.733,-13.294773
1425334262.749,-13.1028595
1425334262.765,-12.559261
1425334262.78,-11.517303
1425334262.796,-10.048187
1425334262.812,-8.271507
1425334262.827,-6.4598465
1425334262.843,-4.803589
1425334262.858,-3.3955345
1425334262.874,-2.0807838
1425334262.89,-0.6076088
1425334262.905,1.2309036
1425334262.921,3.5349922
1425334262.937,6.188263
1425334262.952,8.993778
1425334262.968,11.732063
1425334262.983,14.288452
1425334262.999,16.65847
1425334263.015,18.953484
1425334263.03,21.330162
1425334263.046,23.966217
1425334263.062,27.02378
1425334263.077,30.49775
1425334263.093,34.228394
1425334263.108,37.738968
1425334263.124,40.378044
1425334263.14,41.42978
1425334263.155,40.410324
1425334263.171,37.205795
1425334263.187,32.12265
1425334263.202,25.821953
1425334263.218,19.037186
1425334263.233,12.391365
1425334263.249,6.307583
1425334263.265,0.9235916
1425334263.28,-3.7054977
1425334263.296,-7.6525345
1425334263.312,-10.895988
1425334263.327,-13.378677
1425334263.343,-14.998917
1425334263.358,-15.7481
1425334263.374,-15.72094
1425334263.39,-15.212994
1425334263.405,-14.5918045
1425334263.421,-14.194935
1425334263.437,-14.1820755
1425334263.452,-14.479496
1425334263.468,-14.85939
1425334263.483,-15.090061
1425334263.499,-15.06242
1425334263.515,-14.810276
1425334263.53,-14.43227
1425334263.546,-14.023006
1425334263.562,-13.50383
1425334263.577,-12.776474
1425334263.593,-11.67178
1425334263.608,-10.130325
1425334263.624,-8.20071
1425334263.64,-5.958458
1425334263.655,-3.5022087
1425334263.671,-0.93447495
1425334263.687,1.6303024
1425334263.702,4.107418
1425334263.718,6.387985
1425334263.733,8.416115
1425334263.749,10.331863
1425334263.765,12.325466
1425334263.78,14.681183
1425334263.796,17.566444
1425334263.812,21.052402
1425334263.827,24.97298
1425334263.843,29.051712
1425334263.858,32.85429
1425334263.874,35.96827
1425334263.89,37.958023
1425334263.905,38.48227
1425334263.921,37.32625
1425334263.937,34.48727
1425334263.952,30.180477
1425334263.968,24.829445
1425334263.983,19.0117
1425334263.999,13.23465
1425334264.015,7.840397
1425334264.03,2.9974976
1425334264.046,-1.3384552
1425334264.062,-5.185894
1425334264.077,-8.587147
1425334264.093,-11.455387
1425334264.108,-13.760599
1425334264.124,-15.573074
1425334264.14,-17.041437
1425334264.155,-18.325855
1425334264.171,-19.504116
1425334264.187,-20.53112
1425334264.202,-21.262047
1425334264.218,-21.546856
1425334264.233,-21.352303
1425334264.249,-20.667004
1425334264.265,-19.527716
1425334264.28,-17.960386
1425334264.296,-16.079319
1425334264.312,-14.031851
1425334264.327,-12.072718
1425334264.343,-10.452349
1425334264.358,-9.3449
1425334264.374,-8.660053
1425334264.39,-8.158796
1425334264.405,-7.487709
1425334264.421,-6.4119444
1425334264.437,-4.80715
1425334264.452,-2.719893
1425334264.468,-0.20175838
1425334264.484,2.6856725
1425334264.499,5.862345
1425334264.515,9.254601
1425334264.53,12.74119
1425334264.546,16.19894
1425334264.562,19.607574
1425334264.577,23.031599
1425334264.593,26.659966
1425334264.609,30.590193
1425334264.624,34.759857
1425334264.64,38.765377
1425334264.655,41.939423
1425334264.671,43.48075
1425334264.687,42.74462
1425334264.702,39.44091
1425334264.718,33.849426
1425334264.734,26.637756
1425334264.749,18.73687
1425334264.765,11.0168705
1425334264.78,4.1179714
1425334264.796,-1.6938972
1425334264.812,-6.38381
1425334264.827,-10.078127
1425334264.843,-12.954849
1425334264.859,-15.216923
1425334264.874,-17.053009
1425334264.89,-18.675709
1425334264.905,-20.21598
1425334264.921,-21.716972
1425334264.937,-23.132484
1425334264.952,-24.345375
1425334264.968,-25.239494
1425334264.984,-25.788277
1425334264.999,-26.04144
1425334265.015,-26.098423
1425334265.03,-26.043339
1425334265.046,-25.898949
1425334265.062,-25.594086
1425334265.077,-25.02998
1425334265.093,-24.122055
1425334265.109,-22.853642
1425334265.124,-21.28481
1425334265.14,-19.518154
1425334265.155,-17.627106
1425334265.171,-15.595356
1425334265.187,-13.316681
1425334265.202,-10.674484
1425334265.218,-7.5787354
1425334265.234,-4.1219635
1425334265.249,-0.4924698
1425334265.265,3.0129776
1425334265.28,6.224968
1425334265.296,9.111313
1425334265.312,11.85585
1425334265.327,14.722397
1425334265.343,18.004387
1425334265.359,21.89849
1425334265.374,26.4805
1425334265.39,31.567924
1425334265.405,36.76793
1425334265.421,41.42301
1425334265.437,44.697456
1425334265.452,45.78836
1425334265.468,44.16449
1425334265.484,39.736908
1425334265.499,32.92401
1425334265.515,24.550583
1425334265.53,15.594406
1425334265.546,6.921402
1425334265.562,-0.8069458
1425334265.577,-7.2885513
1425334265.593,-12.439476
1425334265.609,-16.460625
1425334265.624,-19.625008
1425334265.64,-22.232239
1425334265.655,-24.541916
1425334265.671,-26.654861
1425334265.687,-28.53646
1425334265.702,-30.079117
1425334265.718,-31.118317
1425334265.734,-31.608154
1425334265.749,-31.56768
1425334265.765,-31.15525
1425334265.78,-30.560555
1425334265.796,-29.957756
1425334265.812,-29.371834
1425334265.827,-28.746841
1425334265.843,-27.965645
1425334265.859,-26.967857
1425334265.874,-25.779648
1425334265.89,-24.509445
1425334265.905,-23.24414
1425334265.921,-21.955727
1425334265.937,-20.475609
1425334265.952,-18.595871
1425334265.968,-16.15593
1425334265.984,-13.209312
1425334265.999,-9.953857
1425334266.015,-6.6800537
1425334266.03,-3.559044
1425334266.046,-0.6316223
1425334266.062,2.1960297
1425334266.077,5.023758
1425334266.093,7.95755
1425334266.109,10.993332
1425334266.124,14.16362
1425334266.14,17.542221
1425334266.155,21.296112
1425334266.171,25.603027
1425334266.187,30.517532
1425334266.202,35.82202
1425334266.218,40.979065
1425334266.234,45.20343
1425334266.249,47.66472
1425334266.265,47.708176
1425334266.28,45.097992
1425334266.296,40.04666
1425334266.312,33.199234
1425334266.327,25.378174
1425334266.343,17.391617
1425334266.359,9.84343
1425334266.374,3.0946198
1425334266.39,-2.717804
1425334266.405,-7.562958
1425334266.421,-11.522003
1425334266.437,-14.703217
1425334266.452,-17.28508
1425334266.468,-19.385254
1425334266.484,-21.09906
1425334266.499,-22.378555
1425334266.515,-23.156128
1425334266.53,-23.426971
1425334266.546,-23.336105
1425334266.562,-23.125412
1425334266.577,-23.08197
1425334266.593,-23.327972
1425334266.609,-23.81282
1425334266.624,-24.325424
1425334266.64,-24.68254
1425334266.655,-24.774048
1425334266.671,-24.603683
1425334266.687,-24.16719
1425334266.702,-23.437653
1425334266.718,-22.348953
1425334266.734,-20.953552
1425334266.749,-19.418976
1425334266.765,-17.988937
1425334266.78,-16.783615
1425334266.796,-15.684036
1425334266.812,-14.328995
1425334266.827,-12.29422
1425334266.843,-9.379028
1425334266.859,-5.7733307
1425334266.874,-1.9249268
1425334266.89,1.648056
1425334266.905,4.6750946
1425334266.921,7.2069855
1425334266.937,9.640961
1425334266.952,12.452301
1425334266.968,16.0596
1425334266.984,20.614029
1425334266.999,25.942963
1425334267.015,31.562378
1425334267.03,36.737335
1425334267.046,40.61934
1425334267.062,42.539642
1425334267.077,42.070084
1425334267.093,39.19005
1425334267.109,34.17958
1425334267.124,27.613327
1425334267.14,20.196213
1425334267.156,12.643738
1425334267.171,5.567215
1425334267.187,-0.59272766
1425334267.202,-5.6785736
1425334267.218,-9.7573395
1425334267.234,-13.066483
1425334267.249,-15.850098
1425334267.265,-18.271805
1425334267.281,-20.373917
1425334267.296,-22.09259
1425334267.312,-23.360764
1425334267.327,-24.152222
1425334267.343,-24.464508
1425334267.359,-24.405136
1425334267.374,-24.127228
1425334267.39,-23.865326
1425334267.406,-23.812576
1425334267.421,-24.127228
1425334267.437,-24.714554
1425334267.452,-25.303055
1425334267.468,-25.543411
1425334267.484,-25.124939
1425334267.499,-23.960922
1425334267.515,-22.16092
1425334267.531,-19.929657
1425334267.546,-17.455887
1425334267.562,-14.857529
1425334267.577,-12.224884
1425334267.593,-9.687576
1425334267.609,-7.4434967
1425334267.624,-5.6361847
1425334267.64,-4.269211
1425334267.656,-3.1438751
1425334267.671,-2.0049438
1425334267.687,-0.5975342
1425334267.702,1.1334381
1425334267.718,3.0774994
1425334267.734,5.040283
1425334267.749,6.935028
1425334267.765,8.864685
1425334267.781,11.108536
1425334267.796,14.03009
1425334267.812,17.943054
1425334267.827,22.88861
1425334267.843,28.512299
1425334267.859,34.012833
1425334267.874,38.316177
1425334267.89,40.281433
1425334267.906,39.149277
1425334267.921,34.76451
1425334267.937,27.678314
1425334267.952,19.0103
1425334267.968,9.989105
1425334267.984,1.6604462
1425334267.999,-5.37088
1425334268.015,-11.017807
1425334268.031,-15.537552
1425334268.046,-19.300598
1425334268.062,-22.633392
1425334268.077,-25.729233
1425334268.093,-28.570557
1425334268.109,-31.040863
1425334268.124,-32.983826
1425334268.14,-34.29332
1425334268.156,-34.96286
1425334268.171,-35.03772
1425334268.187,-34.55159
1425334268.202,-33.52961
1425334268.218,-32.08233
1425334268.234,-30.441246
1425334268.249,-28.974464
1425334268.265,-28.135674
1425334268.281,-28.13498
1425334268.296,-28.963852
1425334268.312,-30.268112
1425334268.327,-31.617294
1425334268.343,-32.658157
1425334268.359,-33.360703
1425334268.374,-33.79904
1425334268.39,-34.07515
1425334268.406,-34.103577
1425334268.421,-33.566307
1425334268.437,-32.099
1425334268.452,-29.36644
1425334268.468,-25.239159
1425334268.484,-19.701767
1425334268.499,-12.791321
1425334268.515,-4.57209
1425334268.531,4.868088
1425334268.546,15.273933
1425334268.562,26.32904
1425334268.577,37.616287
1425334268.593,48.75831
1425334268.609,59.363693
1425334268.624,68.98668
1425334268.64,76.967285
1425334268.656,82.52337
1425334268.671,84.90016
1425334268.687,83.68984
1425334268.702,79.097404
1425334268.718,71.86505
1425334268.734,63.152103
1425334268.749,54.157333
1425334268.765,45.78626
1425334268.781,38.55633
1425334268.796,32.52625
1425334268.812,27.508644
1425334268.827,23.180023
1425334268.843,19.295269
1425334268.859,15.686718
1425334268.874,12.275639
1425334268.89,9.030022
1425334268.906,5.970436
1425334268.921,3.1586723
1425334268.937,0.68611526
1425334268.952,-1.3329506
1425334268.968,-2.8433685
1425334268.984,-3.8937454
1425334268.999,-4.6532364
1425334269.015,-5.4054184
1425334269.031,-6.397953
1425334269.046,-7.7795105
1425334269.062,-9.53685
1425334269.077,-11.524612
1425334269.093,-13.493092
1425334269.109,-15.251411
1425334269.124,-16.616081
1425334269.14,-17.468529
1425334269.156,-17.65392
1425334269.171,-17.131863
1425334269.187,-15.879032
1425334269.202,-13.9430275
1425334269.218,-11.454399
1425334269.234,-8.553101
1425334269.249,-5.3891907
1425334269.265,-2.1226997
1425334269.281,1.1093636
1425334269.296,4.168129
1425334269.312,6.997753
1425334269.327,9.686665
1425334269.343,12.367706
1425334269.359,15.255852
1425334269.374,18.508537
1425334269.39,22.168533
1425334269.406,26.11142
1425334269.421,29.997124
1425334269.437,33.273895
1425334269.452,35.267365
1425334269.468,35.350555
1425334269.484,33.121696
1425334269.499,28.66677
1425334269.515,22.50457
1425334269.531,15.50827
1425334269.546,8.570641
1425334269.562,2.3598251
1425334269.577,-2.88414
1425334269.593,-7.2119293
1425334269.609,-10.838142
1425334269.624,-13.942802
1425334269.64,-16.59504
1425334269.656,-18.743889
1425334269.671,-20.375977
1425334269.687,-21.527702
1425334269.702,-22.274017
1425334269.718,-22.673912
1425334269.734,-22.737167
1425334269.749,-22.442108
1425334269.765,-21.80449
1425334269.781,-20.86541
1425334269.796,-19.753258
1425334269.812,-18.654251
1425334269.828,-17.756004
1425334269.843,-17.211304
1425334269.859,-17.099045
1425334269.874,-17.369652
1425334269.89,-17.830826
1425334269.906,-18.203857
1425334269.921,-18.093124
1425334269.937,-17.14859
1425334269.952,-15.158371
1425334269.968,-12.087044
1425334269.984,-8.189705
1425334269.999,-3.8344498
1425334270.015,0.54133606
1425334270.031,4.6539
1425334270.046,8.401039
1425334270.062,11.931793
1425334270.078,15.48568
1425334270.093,19.303848
1425334270.109,23.431915
1425334270.124,27.813507
1425334270.14,32.1933
1425334270.156,36.24259
1425334270.171,39.567802
1425334270.187,41.686073
1425334270.203,42.123512
1425334270.218,40.502113
1425334270.234,36.78808
1425334270.249,31.369614
1425334270.265,24.945755
1425334270.281,18.336647
1425334270.296,12.139183
1425334270.312,6.6045456
1425334270.328,1.6346512
1425334270.343,-2.9778519
1425334270.359,-7.3517456
1425334270.374,-11.393929
1425334270.39,-14.896683
1425334270.406,-17.657578
1425334270.421,-19.619438
1425334270.437,-20.811974
1425334270.453,-21.364075
1425334270.468,-21.381958
1425334270.484,-20.99942
1425334270.499,-20.373573
1425334270.515,-19.69503
1425334270.531,-19.178513
1425334270.546,-18.95288
1425334270.562,-19.018463
1425334270.578,-19.205025
1425334270.593,-19.232498
1425334270.609,-18.934418
1425334270.624,-18.168396
1425334270.64,-17.005249
1425334270.656,-15.561432
1425334270.671,-13.945847
1425334270.687,-12.139252
1425334270.703,-10.042709
1425334270.718,-7.505615
1425334270.734,-4.5125427
1425334270.749,-1.1943054
1425334270.765,2.1425934
1425334270.781,5.243271
1425334270.796,8.0342865
1425334270.812,10.791077
1425334270.828,13.982315
1425334270.843,18.069687
1425334270.859,23.210068
1425334270.874,29.155365
1425334270.89,35.240448
1425334270.906,40.649017
1425334270.921,44.53203
1425334270.937,46.270905
1425334270.953,45.546173
1425334270.968,42.334198
1425334270.984,36.969147
1425334270.999,30.05951
1425334271.015,22.36621
1425334271.031,14.675095
1425334271.046,7.615402
1425334271.062,1.5723877
1425334271.078,-3.4054565
1425334271.093,-7.43309
1425334271.109,-10.829208
1425334271.124,-13.890076
1425334271.14,-16.803543
1425334271.156,-19.55989
1425334271.171,-21.97583
1425334271.187,-23.685822
1425334271.203,-24.399948
1425334271.218,-24.0233
1425334271.234,-22.761261
1425334271.249,-21.055557
1425334271.265,-19.410645
1425334271.281,-18.171646
1425334271.296,-17.468048
1425334271.312,-17.200302
1425334271.328,-17.172363
1425334271.343,-17.203278
1425334271.359,-17.207779
1425334271.374,-17.068436
1425334271.39,-16.75534
1425334271.406,-16.147232
1425334271.421,-15.163773
1425334271.437,-13.7682495
1425334271.453,-11.983337
1425334271.468,-9.836273
1425334271.484,-7.3908844
1425334271.499,-4.6674957
1425334271.515,-1.7378082
1425334271.531,1.3301697
1425334271.546,4.467346
1425334271.562,7.7257385
1425334271.578,11.203934
1425334271.593,15.072632
1425334271.609,19.403854
1425334271.624,24.199112
1425334271.64,29.300476
1425334271.656,34.5316
1425334271.671,39.565323
1425334271.687,43.95009
1425334271.703,47.03485
1425334271.718,48.07933
1425334271.734,46.509125
1425334271.749,42.210403
1425334271.765,35.640152
1425334271.781,27.726517
1425334271.796,19.494171
1425334271.812,11.672028
1425334271.828,4.545929
1425334271.843,-1.9489288
1425334271.859,-7.947098
1425334271.874,-13.37619
1425334271.89,-18.026672
1425334271.906,-21.647537
1425334271.921,-24.186234
1425334271.937,-25.786652
1425334271.953,-26.750671
1425334271.968,-27.290695
1425334271.984,-27.50676
1425334271.999,-27.358261
1425334272.015,-26.815018
1425334272.031,-25.986084
1425334272.046,-25.165268
1425334272.062,-24.696564
1425334272.078,-24.813812
1425334272.093,-25.508438
1425334272.109,-26.525665
1425334272.124,-27.372147
1425334272.14,-27.656754
1425334272.156,-27.095123
1425334272.171,-25.71077
1425334272.187,-23.73935
1425334272.203,-21.528427
1425334272.218,-19.330307
1425334272.234,-17.217072
1425334272.249,-15.098358
1425334272.265,-12.820801
1425334272.281,-10.245056
1425334272.296,-7.339203
1425334272.312,-4.1026917
1425334272.328,-0.6027527
1425334272.343,3.1137695
1425334272.359,6.8930054
1425334272.374,10.584045
1425334272.39,14.019684
1425334272.406,17.17276
1425334272.421,20.197601
1425334272.437,23.452972
1425334272.453,27.315674
1425334272.468,32.011475
1425334272.484,37.411163
1425334272.5,42.952362
1425334272.515,47.753662
1425334272.531,50.843964
1425334272.546,51.439728
1425334272.562,49.176086
1425334272.578,44.24182
1425334272.593,37.262756
1425334272.609,29.04599
1425334272.624,20.393616
1425334272.64,11.855408
1425334272.656,3.7094727
1425334272.671,-3.9362183
1425334272.687,-10.954346
1425334272.703,-17.199066
1425334272.718,-22.506714
1425334272.734,-26.79892
1425334272.75,-30.170807
1425334272.765,-32.81961
1425334272.781,-34.874115
1425334272.796,-36.37274
1425334272.812,-37.16272
1425334272.828,-37.193207
1425334272.843,-36.51355
1425334272.859,-35.405853
1425334272.875,-34.21881
1425334272.89,-33.269653
1425334272.906,-32.720825
1425334272.921,-32.558655
1425334272.937,-32.66864
1425334272.953,-32.866913
1425334272.968,-32.890137
1425334272.984,-32.45291
1425334273,-31.277283
1425334273.015,-29.19806
1425334273.031,-26.260773
1425334273.046,-22.726349
1425334273.062,-18.87387
1425334273.078,-14.935577
1425334273.093,-10.947113
1425334273.109,-6.8440247
1425334273.125,-2.5701294
1425334273.14,1.8051147
1425334273.156,6.0715027
1425334273.171,9.968597
1425334273.187,13.332306
1425334273.203,16.181824
1425334273.218,18.700958
1425334273.234,21.204742
1425334273.25,24.12555
1425334273.265,27.83319
1425334273.281,32.516144
1425334273.296,37.91205
1425334273.312,43.324005
1425334273.328,47.623383
1425334273.343,49.64383
1425334273.359,48.57602
1425334273.375,44.302307
1425334273.39,37.45642
1425334273.406,29.164581
1425334273.421,20.667023
1425334273.437,12.96698
1425334273.453,6.542938
1425334273.468,1.4404907
1425334273.484,-2.6340637
1425334273.5,-6.1449585
1425334273.515,-9.516052
1425334273.531,-12.97998
1425334273.546,-16.571411
1425334273.562,-20.057434
1425334273.578,-23.081146
1425334273.593,-25.291779
1425334273.609,-26.539246
1425334273.625,-26.872375
1425334273.64,-26.564758
1425334273.656,-25.938599
1425334273.671,-25.28955
1425334273.687,-24.725555
1425334273.703,-24.240387
1425334273.718,-23.713348
1425334273.734,-22.995178
1425334273.75,-22.056854
1425334273.765,-20.933868
1425334273.781,-19.722504
1425334273.796,-18.502472
1425334273.812,-17.176361
1425334273.828,-15.561493
1425334273.843,-13.449188
1425334273.859,-10.793762
1425334273.875,-7.7769775
1425334273.89,-4.7757874
1425334273.906,-2.1358643
1425334273.921,-0.04071045
1425334273.937,1.6425476
1425334273.953,3.2504578
1425334273.968,5.188507
1425334273.984,7.700989
1425334274,10.87439
1425334274.015,14.6909485
1425334274.031,19.148315
1425334274.046,24.263062
1425334274.062,30.008606
1425334274.078,36.087585
1425334274.093,41.86685
1425334274.109,46.360626
1425334274.125,48.555817
1425334274.14,47.733
1425334274.156,43.764862
1425334274.171,37.110107
1425334274.187,28.790253
1425334274.203,19.922821
1425334274.218,11.428314
1425334274.234,3.8309326
1425334274.25,-2.7716675
1425334274.265,-8.516052
1425334274.281,-13.556122
1425334274.296,-17.977783
1425334274.312,-21.7789
1425334274.328,-24.944366
1425334274.343,-27.548737
1425334274.359,-29.715973
1425334274.375,-31.466888
1425334274.39,-32.752106
1425334274.406,-33.427917
1425334274.421,-33.47592
1425334274.437,-33.029633
1425334274.453,-32.423553
1425334274.468,-31.966125
1425334274.484,-31.844147
1425334274.5,-31.98883
1425334274.515,-32.17807
1425334274.531,-32.152283
1425334274.546,-31.733002
1425334274.562,-30.82022
1425334274.578,-29.421417
1425334274.593,-27.508484
1425334274.609,-25.167664
1425334274.625,-22.569489
1425334274.64,-20.026245
1425334274.656,-17.831482
1425334274.671,-16.14383
1425334274.687,-14.837524
1425334274.703,-13.5354
1425334274.718,-11.764801
1425334274.734,-9.180664
1425334274.75,-5.6207886
1425334274.765,-1.221405
1425334274.781,3.778534
1425334274.796,9.032745
1425334274.812,14.21048
1425334274.828,19.08194
1425334274.843,23.62857
1425334274.859,28.00943
1425334274.875,32.500824
1425334274.89,37.358246
1425334274.906,42.577545
1425334274.921,47.690674
1425334274.937,51.893646
1425334274.953,54.214844
1425334274.968,53.93286
1425334274.984,50.828796
1425334275,45.315186
1425334275.015,38.2547
1425334275.031,30.61621
1425334275.046,23.134705
1425334275.062,16.135376
1425334275.078,9.628174
1425334275.093,3.4996338
1425334275.109,-2.2756653
1425334275.125,-7.5105896
1425334275.14,-11.978577
1425334275.156,-15.555176
1425334275.171,-18.366302
1425334275.187,-20.735199
1425334275.203,-23.027863
1425334275.218,-25.36142
1425334275.234,-27.62268
1425334275.25,-29.496964
1425334275.265,-30.765152
1425334275.281,-31.447662
1425334275.296,-31.787613
1425334275.312,-32.012344
1425334275.328,-32.218765
1425334275.343,-32.279266
1425334275.359,-31.91452
1425334275.375,-30.975754
1425334275.39,-29.536118
1425334275.406,-27.848648
1425334275.422,-26.20488
1425334275.437,-24.780365
1425334275.453,-23.494522
1425334275.468,-22.139465
1425334275.484,-20.504562
1425334275.5,-18.418396
1425334275.515,-15.865097
1425334275.531,-12.892883
1425334275.547,-9.585892
1425334275.562,-6.059845
1425334275.578,-2.4224548
1425334275.593,1.2165375
1425334275.609,4.7254333
1425334275.625,7.9698486
1425334275.64,10.863861
1425334275.656,13.344482
1425334275.672,15.457077
1425334275.687,17.457947
1425334275.703,19.686462
1425334275.718,22.532288
1425334275.734,26.157318
1425334275.75,30.378265
1425334275.765,34.5446
1425334275.781,37.808792
1425334275.797,39.270752
1425334275.812,38.38008
1425334275.828,35.03479
1425334275.843,29.605957
1425334275.859,22.783218
1425334275.875,15.427353
1425334275.89,8.334991
1425334275.906,2.0480194
1425334275.922,-3.1875916
1425334275.937,-7.516449
1425334275.953,-11.275101
1425334275.968,-14.820343
1425334275.984,-18.380661
1425334276,-21.962418
1425334276.015,-25.465073
1425334276.031,-28.744766
1425334276.047,-31.827698
1425334276.062,-34.836227
1425334276.078,-37.983353
1425334276.093,-41.376755
1425334276.109,-44.923553
1425334276.125,-48.397583
1425334276.14,-51.502884
1425334276.156,-54.02362
1425334276.172,-55.962097
1425334276.187,-57.54744
1425334276.203,-59.11949
1425334276.218,-61.000282
1425334276.234,-63.321114
1425334276.25,-65.83857
1425334276.265,-68.120255
1425334276.281,-69.647316
1425334276.297,-70.15341
1425334276.312,-69.6789
1425334276.328,-68.70986
1425334276.343,-67.770195
1425334276.359,-67.347496
1425334276.375,-67.58855
1425334276.39,-68.27652
1425334276.406,-68.884674
1425334276.422,-68.5828
1425334276.437,-66.348175
1425334276.453,-61.10555
1425334276.468,-51.940517
1425334276.484,-38.407776
1425334276.5,-20.819565
1425334276.515,-0.4011879
1425334276.531,20.909763
1425334276.547,40.881504
1425334276.562,57.53238
1425334276.578,69.65023
1425334276.593,76.99634
1425334276.609,80.21598
1425334276.625,80.58027
1425334276.64,79.43271
1425334276.656,77.88009
1425334276.672,76.51188
1425334276.687,75.410706
1425334276.703,74.27874
1425334276.718,72.74794
1425334276.734,70.56498
1425334276.75,67.66951
1425334276.765,64.11833
1425334276.781,59.997665
1425334276.797,55.283417
1425334276.812,50.047203
1425334276.828,44.490578
1425334276.843,39.097748
1425334276.859,34.53714
1425334276.875,31.443367
1425334276.89,30.213234
1425334276.906,30.922447
1425334276.922,33.32769
1425334276.937,37.081886
1425334276.953,41.83896
1425334276.968,47.268982
1425334276.984,52.937653
1425334277,58.293808
1425334277.015,62.696686
1425334277.031,65.635635
1425334277.047,66.91243
1425334277.062,66.866
1425334277.078,66.271454
1425334277.093,66.1463
1425334277.109,67.36859
1425334277.125,70.37955
1425334277.14,74.95029
1425334277.156,80.215195
1425334277.172,84.8474
1425334277.187,87.494354
1425334277.203,87.04619
1425334277.218,82.981155
1425334277.234,75.38562
1425334277.25,64.8996
1425334277.265,52.492554
1425334277.281,39.29869
1425334277.297,26.405563
1425334277.312,14.649628
1425334277.328,4.5463943
1425334277.343,-3.7951813
1425334277.359,-10.555283
1425334277.375,-16.013016
1425334277.39,-20.419952
1425334277.406,-23.868912
1425334277.422,-26.42109
1425334277.437,-28.152542
1425334277.453,-29.260086
1425334277.468,-29.90075
1425334277.484,-30.201515
1425334277.5,-30.167831
1425334277.515,-29.821022
1425334277.531,-29.21202
1425334277.547,-28.593842
1425334277.562,-28.197533
1425334277.578,-28.148972
1425334277.593,-28.301163
1425334277.609,-28.260231
1425334277.625,-27.556229
1425334277.64,-25.82357
1425334277.656,-22.962723
1425334277.672,-19.172127
1425334277.687,-14.862625
1425334277.703,-10.520771
1425334277.718,-6.575264
1425334277.734,-3.282528
1425334277.75,-0.5796318
1425334277.765,1.8222427
1425334277.781,4.4383125
1425334277.797,7.7484283
1425334277.812,12.089676
1425334277.828,17.480762
1425334277.843,23.656355
1425334277.859,30.053547
1425334277.875,35.919468
1425334277.89,40.340996
1425334277.906,42.42039
1425334277.922,41.526966
1425334277.937,37.571827
1425334277.953,31.085781
1425334277.968,23.112352
1425334277.984,14.842375
1425334278,7.1948423
1425334278.015,0.5744364
1425334278.031,-5.1014705
1425334278.047,-10.156462
1425334278.062,-14.887242
1425334278.078,-19.399986
1425334278.094,-23.622839
1425334278.109,-27.403765
1425334278.125,-30.560793
1425334278.14,-32.96109
1425334278.156,-34.46131
1425334278.172,-34.96078
1425334278.187,-34.501106
1425334278.203,-33.30636
1425334278.219,-31.775257
1425334278.234,-30.33892
1425334278.25,-29.325687
1425334278.265,-28.846214
1425334278.281,-28.824383
1425334278.297,-29.070606
1425334278.312,-29.300156
1425334278.328,-29.26825
1425334278.344,-28.753304
1425334278.359,-27.664753
1425334278.375,-26.021355
1425334278.39,-24.037277
1425334278.406,-21.965824
1425334278.422,-20.029377
1425334278.437,-18.25491
1425334278.453,-16.478703
1425334278.469,-14.397331
1425334278.484,-11.708832
1425334278.5,-8.197723
1425334278.515,-3.8332977
1425334278.531,1.180687
1425334278.547,6.4603577
1425334278.562,11.543243
1425334278.578,16.037926
1425334278.594,19.822899
1425334278.609,23.131218
1425334278.625,26.448242
1425334278.64,30.242287
1425334278.656,34.593346
1425334278.672,39.022858
1425334278.687,42.64421
1425334278.703,44.460953
1425334278.719,43.759377
1425334278.734,40.373398
1425334278.75,34.694366
1425334278.765,27.388123
1425334278.781,19.20581
1425334278.797,10.7578125
1425334278.812,2.4954681
1425334278.828,-5.2495193
1425334278.844,-12.234177
1425334278.859,-18.294693
1425334278.875,-23.300072
1425334278.89,-27.233322
1425334278.906,-30.214035
1425334278.922,-32.46257
1425334278.937,-34.29637
1425334278.953,-35.99453
1425334278.969,-37.695595
1425334278.984,-39.32859
1425334279,-40.57167
1425334279.015,-41.103012
1425334279.031,-40.710518
1425334279.047,-39.540535
1425334279.062,-37.912987
1425334279.078,-36.242767
1425334279.094,-34.784508
1425334279.109,-33.53672
1425334279.125,-32.292824
1425334279.14,-30.819427
1425334279.156,-28.955925
1425334279.172,-26.755417
1425334279.187,-24.413788
1425334279.203,-22.103447
1425334279.219,-19.877876
1425334279.234,-17.672249
1425334279.25,-15.204056
1425334279.265,-12.224419
1425334279.281,-8.5887985
1425334279.297,-4.35717
1425334279.312,0.1985321
1425334279.328,4.6833267
1425334279.344,8.722755
1425334279.359,12.102356
1425334279.375,14.812851
1425334279.39,17.023415
1425334279.406,19.03096
1425334279.422,21.18811
1425334279.437,23.851791
1425334279.453,27.277557
1425334279.469,31.54776
1425334279.484,36.33255
1425334279.5,40.942
1425334279.515,44.349144
1425334279.531,45.580803
1425334279.547,43.93821
1425334279.562,39.3245
1425334279.578,32.24827
1425334279.594,23.639145
1425334279.609,14.538673
1425334279.625,5.887642
1425334279.64,-1.6967316
1425334279.656,-7.8882446
1425334279.672,-12.742928
1425334279.687,-16.487175
1425334279.703,-19.519173
1425334279.719,-22.157997
1425334279.734,-24.639687
1425334279.75,-27.009605
1425334279.765,-29.182419
1425334279.781,-31.00515
1425334279.797,-32.260986
1425334279.812,-32.754158
1425334279.828,-32.364586
1425334279.844,-31.09874
1425334279.859,-29.206253
1425334279.875,-27.09684
1425334279.89,-25.265327
1425334279.906,-24.061218
1425334279.922,-23.576408
1425334279.937,-23.529686
1425334279.953,-23.493141
1425334279.969,-23.013275
1425334279.984,-21.884773
1425334280,-20.134705
1425334280.015,-18.031326
1425334280.031,-15.837761
1425334280.047,-13.7000885
1425334280.062,-11.621353
1425334280.078,-9.493492
1425334280.094,-7.1834946
1425334280.109,-4.6574554
1425334280.125,-1.971756
1425334280.14,0.6859665
1425334280.156,3.20755
1425334280.172,5.544113
1425334280.187,7.862076
1425334280.203,10.422005
1425334280.219,13.536362
1425334280.234,17.378517
1425334280.25,21.889572
1425334280.265,26.743698
1425334280.281,31.381744
1425334280.297,35.066154
1425334280.312,37.107376
1425334280.328,36.958584
1425334280.344,34.461243
1425334280.359,29.862236
1425334280.375,23.857307
1425334280.39,17.303303
1425334280.406,10.994774
1425334280.422,5.327133
1425334280.437,0.33857346
1425334280.453,-4.2036324
1425334280.469,-8.506279
1425334280.484,-12.553833
1425334280.5,-16.075851
1425334280.515,-18.737556
1425334280.531,-20.39048
1425334280.547,-21.20203
1425334280.562,-21.501495
1425334280.578,-21.682007
1425334280.594,-21.918411
1425334280.609,-22.248127
1425334280.625,-22.540867
1425334280.64,-22.736662
1425334280.656,-22.808083
1425334280.672,-22.7805
1425334280.687,-22.607868
1425334280.703,-22.211985
1425334280.719,-21.484869
1425334280.734,-20.381853
1425334280.75,-18.969023
1425334280.766,-17.333128
1425334280.781,-15.50453
1425334280.797,-13.435425
1425334280.812,-11.072196
1425334280.828,-8.446293
1425334280.844,-5.649274
1425334280.859,-2.864089
1425334280.875,-0.20030546
1425334280.891,2.3141766
1425334280.906,4.7773376
1425334280.922,7.2410755
1425334280.937,9.748769
1425334280.953,12.296831
1425334280.969,14.936441
1425334280.984,17.781696
1425334281,21.020592
1425334281.016,24.724289
1425334281.031,28.706255
1425334281.047,32.472046
1425334281.062,35.309223
1425334281.078,36.516006
1425334281.094,35.67648
1425334281.109,32.802383
1425334281.125,28.355452
1425334281.141,22.987955
1425334281.156,17.40737
1425334281.172,12.008152
1425334281.187,6.9766693
1425334281.203,2.2694016
1425334281.219,-2.1334229
1425334281.234,-6.1505585
1425334281.25,-9.673977
1425334281.266,-12.580204
1425334281.281,-14.913425
1425334281.297,-16.742767
1425334281.312,-18.059723
1425334281.328,-18.795292
1425334281.344,-18.75821
1425334281.359,-17.91146
1425334281.375,-16.392605
1425334281.391,-14.605877
1425334281.406,-12.991558
1425334281.422,-11.889263
1425334281.437,-11.423035
1425334281.453,-11.473846
1425334281.469,-11.77729
1425334281.484,-12.066002
1425334281.5,-12.059349
1425334281.516,-11.534767
1425334281.531,-10.359459
1425334281.547,-8.6254425
1425334281.562,-6.6065674
1425334281.578,-4.7471466
1425334281.594,-3.3515854
1425334281.609,-2.476097
1425334281.625,-1.7830124
1425334281.641,-0.8161316
1425334281.656,0.7523041
1425334281.672,2.8945313
1425334281.687,5.2817307
1425334281.703,7.494911
1425334281.719,9.265991
1425334281.734,10.6699295
1425334281.75,11.993057
1425334281.766,13.630127
1425334281.781,15.918396
1425334281.797,18.914314
1425334281.812,22.457817
1425334281.828,26.11267
1425334281.844,29.277374
1425334281.859,31.23211
1425334281.875,31.494522
1425334281.891,29.825035
1425334281.906,26.43029
1425334281.922,21.795479
1425334281.937,16.591263
1425334281.953,11.399918
1425334281.969,6.6280594
1425334281.984,2.466034
1425334282,-1.0790024
1425334282.016,-4.1114426
1425334282.031,-6.7541885
1425334282.047,-9.130089
1425334282.062,-11.185989
1425334282.078,-12.800034
1425334282.094,-13.771149
1425334282.109,-14.047256
1425334282.125,-13.778732
1425334282.141,-13.307495
1425334282.156,-12.995926
1425334282.172,-13.088333
1425334282.187,-13.543686
1425334282.203,-14.140457
1425334282.219,-14.68013
1425334282.234,-15.123398
1425334282.25,-15.591492
1425334282.266,-16.241943
1425334282.281,-17.043304
1425334282.297,-17.776459
1425334282.312,-18.116165
1425334282.328,-17.858185
1425334282.344,-16.991058
1425334282.359,-15.731125
1425334282.375,-14.324036
1425334282.391,-12.931747
1425334282.406,-11.530457
1425334282.422,-9.992996
1425334282.437,-8.072388
1425334282.453,-5.61351
1425334282.469,-2.588028
1425334282.484,0.82347107
1425334282.5,4.243515
1425334282.516,7.187683
1425334282.531,9.274948
1425334282.547,10.351837
1425334282.562,10.554169
1425334282.578,10.335953
1425334282.594,10.288925
1425334282.609,11.015869
1425334282.625,12.955063
1425334282.641,16.209625
1425334282.656,20.528717
1425334282.672,25.22676
1425334282.687,29.387817
1425334282.703,32.09822
1425334282.719,32.76953
1425334282.734,31.329895
1425334282.75,28.260971
1425334282.766,24.389038
1425334282.781,20.53865
1425334282.797,17.23909
1425334282.812,14.70076
1425334282.828,12.829346
1425334282.844,11.373276
1425334282.859,9.991562
1425334282.875,8.365829
1425334282.891,6.1954803
1425334282.906,3.4000854
1425334282.922,0.087265015
1425334282.937,-3.3764343
1425334282.953,-6.5318756
1425334282.969,-9.015121
1425334282.984,-10.715332
1425334283,-11.631805
1425334283.016,-11.907913
1425334283.031,-11.672379
1425334283.047,-11.0273285
1425334283.062,-10.123749
1425334283.078,-9.200989
1425334283.094,-8.492279
1425334283.109,-8.133545
1425334283.125,-8.079773
1425334283.141,-8.07666
1425334283.156,-7.822052
1425334283.172,-7.104889
1425334283.187,-5.8728943
1425334283.203,-4.2412415
1425334283.219,-2.3557281
1425334283.234,-0.32444763
1425334283.25,1.811615
1425334283.266,4.057907
1425334283.281,6.427536
1425334283.297,8.911804
1425334283.312,11.460953
1425334283.328,14.035095
1425334283.344,16.598434
1425334283.359,19.113983
1425334283.375,21.627274
1425334283.391,24.102768
1425334283.406,26.415314
1425334283.422,28.259125
1425334283.438,29.134033
1425334283.453,28.529907
1425334283.469,26.185211
1425334283.484,22.216553
1425334283.5,17.157837
1425334283.516,11.77533
1425334283.531,6.791748
1425334283.547,2.621704
1425334283.562,-0.63482666
1425334283.578,-3.1515808
1425334283.594,-5.1784363
1425334283.609,-6.88031
1425334283.625,-8.318176
1425334283.641,-9.459259
1425334283.656,-10.26001
1425334283.672,-10.737946
1425334283.688,-10.998596
1425334283.703,-11.238464
1425334283.719,-11.687897
1425334283.734,-12.545685
1425334283.75,-13.758026
1425334283.766,-15.123138
1425334283.781,-16.229462
1425334283.797,-16.718903
1425334283.813,-16.420197
1425334283.828,-15.4027405
1425334283.844,-13.944885
1425334283.859,-12.369537
1425334283.875,-10.908966
1425334283.891,-9.606873
1425334283.906,-8.384186
1425334283.922,-7.102295
1425334283.938,-5.59552
1425334283.953,-3.8139343
1425334283.969,-1.7348938
1425334283.984,0.5609741
1425334284,2.9923096
1425334284.016,5.401184
1425334284.031,7.6921387
1425334284.047,9.7778015
1425334284.063,11.6145935
1425334284.078,13.257965
1425334284.094,14.789124
1425334284.109,16.430634
1425334284.125,18.519958
1425334284.141,21.326538
1425334284.156,24.91336
1425334284.172,28.94339
1425334284.188,32.62784
1425334284.203,35.01288
1425334284.219,35.331085
1425334284.234,33.211517
1425334284.25,28.930481
1425334284.266,23.096191
1425334284.281,16.541351
1425334284.297,9.99585
1425334284.313,4.046234
1425334284.328,-0.93927
1425334284.344,-4.756958
1425334284.359,-7.4482727
1425334284.375,-9.313171
1425334284.391,-10.825134
1425334284.406,-12.459747
1425334284.422,-14.501709
1425334284.438,-16.874817
1425334284.453,-19.17276
1425334284.469,-20.882568
1425334284.484,-21.606598
1425334284.5,-21.087769
1425334284.516,-19.390259
1425334284.531,-16.805054
1425334284.547,-13.843201
1425334284.563,-11.10498
1425334284.578,-9.141815
1425334284.594,-8.250824
1425334284.609,-8.40332
1425334284.625,-9.198181
1425334284.641,-10.097412
1425334284.656,-10.631714
1425334284.672,-10.613037
1425334284.688,-10.062195
1425334284.703,-9.11908
1425334284.719,-7.884918
1425334284.734,-6.3852844
1425334284.75,-4.569153
1425334284.766,-2.4978638
1425334284.781,-0.24923706
1425334284.797,2.0174866
1425334284.813,4.2099
1425334284.828,6.330078
1425334284.844,8.472809
1425334284.859,10.712524
1425334284.875,13.152527
1425334284.891,15.823273
1425334284.906,18.757751
1425334284.922,21.99408
1425334284.938,25.504028
1425334284.953,29.132843
1425334284.969,32.56436
1425334284.984,35.273285
1425334285,36.69403
1425334285.016,36.357574
1425334285.031,34.08435
1425334285.047,30.011017
1425334285.063,24.64859
1425334285.078,18.69104
1425334285.094,12.865814
1425334285.109,7.6720886
1425334285.125,3.358429
1425334285.141,-0.1546936
1425334285.156,-3.0849304
1425334285.172,-5.7080383
1425334285.188,-8.188812
1425334285.203,-10.522369
1425334285.219,-12.559357
1425334285.234,-14.090912
1425334285.25,-14.874176
1425334285.266,-14.814606
1425334285.281,-13.95874
1425334285.297,-12.562286
1425334285.313,-10.939514
1425334285.328,-9.470825
1425334285.344,-8.368378
1425334285.359,-7.7463074
1425334285.375,-7.5596924
1425334285.391,-7.71167
1425334285.406,-8.112366
1425334285.422,-8.64093
1425334285.438,-9.074768
1425334285.453,-9.124603
1425334285.469,-8.372711
1425334285.484,-6.5781555
1425334285.5,-3.7435303
1425334285.516,-0.24993896
1425334285.531,3.3458252
1425334285.547,6.46994
1425334285.563,8.765564
1425334285.578,10.211731
1425334285.594,11.098907
1425334285.609,11.8836975
1425334285.625,13.146759
1425334285.641,15.329346
1425334285.656,18.6456
1425334285.672,22.894257
1425334285.688,27.40866
1425334285.703,31.212128
1425334285.719,33.332672
1425334285.734,33.111145
1425334285.75,30.488861
1425334285.766,25.959045
1425334285.781,20.35849
1425334285.797,14.508331
1425334285.813,9.129486
1425334285.828,4.6307983
1425334285.844,1.2001648
1425334285.859,-1.2675476
1425334285.875,-3.0799255
1425334285.891,-4.647522
1425334285.906,-6.3661804
1425334285.922,-8.447754
1425334285.938,-10.818787
1425334285.953,-13.281113
1425334285.969,-15.530487
1425334285.984,-17.398605
1425334286,-18.798904
1425334286.016,-19.753433
1425334286.031,-20.216263
1425334286.047,-20.16687
1425334286.063,-19.605438
1425334286.078,-18.640732
1425334286.094,-17.42186
1425334286.109,-16.152634
1425334286.125,-14.9375
1425334286.141,-13.794998
1425334286.156,-12.629135
1425334286.172,-11.34111
1425334286.188,-9.815399
1425334286.203,-7.9699097
1425334286.219,-5.756119
1425334286.234,-3.241562
1425334286.25,-0.52388
1425334286.266,2.2003784
1425334286.281,4.8052673
1425334286.297,7.2109833
1425334286.313,9.45903
1425334286.328,11.636429
1425334286.344,13.877869
1425334286.36,16.311142
1425334286.375,19.077255
1425334286.391,22.357819
1425334286.406,26.20816
1425334286.422,30.49907
1425334286.438,34.815216
1425334286.453,38.431595
1425334286.469,40.559143
1425334286.485,40.52559
1425334286.5,38.04312
1425334286.516,33.295242
1425334286.531,26.85254
1425334286.547,19.505615
1425334286.563,12.088959
1425334286.578,5.1854553
1425334286.594,-0.84194946
1425334286.61,-5.962555
1425334286.625,-10.303223
1425334286.641,-14.09288
1425334286.656,-17.49208
1425334286.672,-20.53656
1425334286.688,-23.18045
1425334286.703,-25.283325
1425334286.719,-26.747757
1425334286.735,-27.53093
1425334286.75,-27.622116
1425334286.766,-27.077072
1425334286.781,-26.01358
1425334286.797,-24.661728
1425334286.813,-23.27887
1425334286.828,-22.186264
1425334286.844,-21.574814
1425334286.86,-21.479782
1425334286.875,-21.759598
1425334286.891,-22.136826
1425334286.906,-22.301544
1425334286.922,-21.99173
1425334286.938,-20.96962
1425334286.953,-19.085571
1425334286.969,-16.300797
1425334286.985,-12.68605
1425334287,-8.515076
1425334287.016,-4.156372
1425334287.031,-0.020492554
1425334287.047,3.5719147
1425334287.063,6.4798737
1425334287.078,8.688126
1425334287.094,10.354172
1425334287.11,11.653183
1425334287.125,12.859802
1425334287.141,14.267105
1425334287.156,16.215622
1425334287.172,18.98236
1425334287.188,22.615082
1425334287.203,26.823364
1425334287.219,30.97406
1425334287.235,34.23523
1425334287.25,35.82231
1425334287.266,35.2715
1425334287.281,32.565765
1425334287.297,28.098373
1425334287.313,22.553452
1425334287.328,16.611862
1425334287.344,10.817932
1425334287.36,5.431534
1425334287.375,0.5036621
1425334287.391,-4.023926
1425334287.406,-8.185898
1425334287.422,-11.954086
1425334287.438,-15.280777
1425334287.453,-18.10962
1425334287.469,-20.47409
1425334287.485,-22.432938
1425334287.5,-24.030243
1425334287.516,-25.230148
1425334287.531,-25.937744
1425334287.547,-26.049347
1425334287.563,-25.480148
1425334287.578,-24.273315
1425334287.594,-22.56131
1425334287.61,-20.601723
1425334287.625,-18.662514
1425334287.641,-17.014091
1425334287.656,-15.758446
1425334287.672,-14.770721
1425334287.688,-13.706879
1425334287.703,-12.103386
1425334287.719,-9.60186
1425334287.735,-6.1587524
1425334287.75,-2.0826416
1425334287.766,2.006546
1425334287.781,5.5241547
1425334287.797,8.098221
1425334287.813,9.7591095
1425334287.828,10.836021
1425334287.844,11.894234
1425334287.86,13.4526825
1425334287.875,15.954788
1425334287.891,19.57106
1425334287.906,24.11322
1425334287.922,28.938995
1425334287.938,33.01986
1425334287.953,35.233017
1425334287.969,34.744514
1425334287.985,31.329956
1425334288,25.457367
1425334288.016,18.094345
1425334288.031,10.266518
1425334288.047,2.758049
1425334288.063,-3.9714127
1425334288.078,-9.724831
1425334288.094,-14.387093
1425334288.11,-17.89357
1425334288.125,-20.283623
1425334288.141,-21.821136
1425334288.156,-22.933678
1425334288.172,-24.090912
1425334288.188,-25.587059
1425334288.203,-27.421104
1425334288.219,-29.330414
1425334288.235,-30.944435
1425334288.25,-31.881203
1425334288.266,-31.956573
1425334288.281,-31.14347
1425334288.297,-29.583656
1425334288.313,-27.554504
1425334288.328,-25.44336
1425334288.344,-23.556389
1425334288.36,-22.11605
1425334288.375,-21.072693
1425334288.391,-20.17855
1425334288.406,-19.000061
1425334288.422,-17.178886
1425334288.438,-14.468964
1425334288.453,-10.831963
1425334288.469,-6.3615723
1425334288.485,-1.2032547
1425334288.5,4.4494476
1425334288.516,10.375252
1425334288.531,16.235336
1425334288.547,21.659775
1425334288.563,26.3703
1425334288.578,30.349861
1425334288.594,33.876892
1425334288.61,37.428864
1425334288.625,41.42318
1425334288.641,45.810547
1425334288.656,49.977333
1425334288.672,52.82209
1425334288.688,53.19825
1425334288.703,50.40393
1425334288.719,44.579346
1425334288.735,36.61656
1425334288.75,27.856392
1425334288.766,19.5103
1425334288.781,12.214981
1425334288.797,6.055855
1425334288.813,0.72055817
1425334288.828,-4.077896
1425334288.844,-8.342308
1425334288.86,-11.855103
1425334288.875,-14.325264
1425334288.891,-15.750168
1425334288.906,-16.389889
1425334288.922,-16.70544
1425334288.938,-17.072037
1425334288.953,-17.554096
1425334288.969,-17.85773
1425334288.985,-17.50859
1425334289,-16.00739
1425334289.016,-13.113239
1425334289.032,-8.938721
1425334289.047,-3.9584389
1425334289.063,1.1869049
1425334289.078,5.914406
1425334289.094,9.898689
1425334289.11,13.223434
1425334289.125,16.299416
1425334289.141,19.714394
1425334289.157,23.984081
1425334289.172,29.279833
1425334289.188,35.437798
1425334289.203,42.01401
1425334289.219,48.51172
1425334289.235,54.50933
1425334289.25,59.83713
1425334289.266,64.594086
1425334289.282,69.15947
1425334289.297,74.13382
1425334289.313,80.23726
1425334289.328,88.002846
1425334289.344,97.43328
1425334289.36,107.74584
1425334289.375,117.39258
1425334289.391,124.22962
1425334289.407,126.06908
1425334289.422,121.228195
1425334289.438,108.88718
1425334289.453,89.35499
1425334289.469,64.03427
1425334289.485,35.200592
1425334289.5,5.6113205
1425334289.516,-22.054794
1425334289.532,-45.682083
1425334289.547,-64.1081
1425334289.563,-77.11511
1425334289.578,-85.20667
1425334289.594,-89.15839
1425334289.61,-89.78708
1425334289.625,-87.80157
1425334289.641,-83.94537
1425334289.657,-79.09232
1425334289.672,-74.138565
1425334289.688,-69.925354
1425334289.703,-66.94629
1425334289.719,-65.40651
1425334289.735,-65.22443
1425334289.75,-66.230896
1425334289.766,-68.31389
1425334289.782,-71.45714
1425334289.797,-75.70291
1425334289.813,-81.03317
1425334289.828,-87.331665
1425334289.844,-94.34679
1425334289.86,-101.710266
1425334289.875,-109.00105
1425334289.891,-115.762054
1425334289.907,-121.70772
1425334289.922,-126.78598
1425334289.938,-131.20659
1425334289.953,-135.46248
1425334289.969,-140.16434
1425334289.985,-145.81952
1425334290,-152.6509
1425334290.016,-160.50633
1425334290.032,-168.87073
1425334290.047,-176.91011
1425334290.063,-183.4655
1425334290.078,-187.05342
1425334290.094,-185.8828
1425334290.11,-178.19434
1425334290.125,-162.7754
1425334290.141,-139.689
1425334290.157,-110.64176
1425334290.172,-78.73756
1425334290.188,-47.63581
1425334290.203,-20.381592
1425334290.219,1.3501816
1425334290.235,17.302864
1425334290.25,28.117878
1425334290.266,34.668766
1425334290.282,37.75537
1425334290.297,38.22876
1425334290.313,37.337852
1425334290.328,36.659634
1425334290.344,37.692833
1425334290.36,41.236706
1425334290.375,47.026928
1425334290.391,54.031364
1425334290.407,61.17331
1425334290.422,67.98502
1425334290.438,74.89518
1425334290.453,82.73612
1425334290.469,92.11283
1425334290.485,102.763275
1425334290.5,113.5873
1425334290.516,122.97933
1425334290.532,129.54791
1425334290.547,132.63797
1425334290.563,132.71524
1425334290.578,131.25174
1425334290.594,130.31447
1425334290.61,131.8511
1425334290.625,137.0076
1425334290.641,145.72345
1425334290.657,156.83707
1425334290.672,168.60345
1425334290.688,179.39374
1425334290.703,188.03717
1425334290.719,193.96404
1425334290.735,196.88797
1425334290.75,196.68362
1425334290.766,193.37463
1425334290.782,187.4831
1425334290.797,180.12076
1425334290.813,172.70758
1425334290.828,166.26547
1425334290.844,160.638
1425334290.86,154.24263
1425334290.875,144.54648
1425334290.891,129.1616
1425334290.907,106.89062
1425334290.922,78.29467
1425334290.938,45.46299
1425334290.953,11.212608
1425334290.969,-21.675278
1425334290.985,-51.002262
1425334291,-75.1965
1425334291.016,-93.2218
1425334291.032,-104.519104
1425334291.047,-109.181984
1425334291.063,-108.08858
1425334291.078,-102.925026
1425334291.094,-95.860756
1425334291.11,-88.92627
1425334291.125,-83.51599
1425334291.141,-80.123474
1425334291.157,-78.42364
1425334291.172,-77.65787
1425334291.188,-77.038124
1425334291.203,-76.032135
1425334291.219,-74.39998
1425334291.235,-72.117294
1425334291.25,-69.169785
1425334291.266,-65.57582
1425334291.282,-61.347633
1425334291.297,-56.539772
1425334291.313,-51.31961
1425334291.328,-45.888695
1425334291.344,-40.419052
1425334291.36,-35.02591
1425334291.375,-29.763885
1425334291.391,-24.646835
1425334291.407,-19.685364
1425334291.422,-14.894409
1425334291.438,-10.241768
1425334291.453,-5.694153
1425334291.469,-1.1913605
1425334291.485,3.2668304
1425334291.5,7.5200806
1425334291.516,11.182465
1425334291.532,13.667938
1425334291.547,14.278122
1425334291.563,12.435257
1425334291.578,7.9385223
1425334291.594,1.0345764
1425334291.61,-7.5888977
1425334291.625,-16.951828
1425334291.641,-26.11586
1425334291.657,-34.35295
1425334291.672,-41.302536
1425334291.688,-46.94043
1425334291.704,-51.460464
1425334291.719,-55.085632
1425334291.735,-58.04155
1425334291.75,-60.45952
1425334291.766,-62.401566
1425334291.782,-63.912308
1425334291.797,-64.92374
1425334291.813,-65.31731
1425334291.829,-65.00493
1425334291.844,-64.01027
1425334291.86,-62.58925
1425334291.875,-61.139114
1425334291.891,-60.088882
1425334291.907,-59.67221
1425334291.922,-59.84677
1425334291.938,-60.347992
1425334291.954,-60.742493
1425334291.969,-60.63054
1425334291.985,-59.682083
1425334292,-57.642654
1425334292.016,-54.33986
1425334292.032,-49.604233
1425334292.047,-43.335754
1425334292.063,-35.470062
1425334292.079,-26.048157
1425334292.094,-15.20578
1425334292.11,-3.2340088
1425334292.125,9.415039
1425334292.141,22.07898
1425334292.157,33.965042
1425334292.172,44.254776
1425334292.188,52.382324
1425334292.204,58.03723
1425334292.219,61.24771
1425334292.235,62.238693
1425334292.25,61.374084
1425334292.266,59.067703
1425334292.282,55.826904
1425334292.297,52.194748
1425334292.313,48.608032
1425334292.329,45.294617
1425334292.344,42.214783
1425334292.36,39.127586
1425334292.375,35.911766
1425334292.391,32.658882
1425334292.407,29.741585
1425334292.422,27.596886
1425334292.438,26.433159
1425334292.454,26.045708
1425334292.469,25.984062
1425334292.485,25.827019
1425334292.5,25.44329
1425334292.516,25.05072
1425334292.532,24.973083
1425334292.547,25.354156
1425334292.563,26.023865
1425334292.579,26.595787
1425334292.594,26.717583
1425334292.61,26.30796
1425334292.625,25.605377
1425334292.641,24.98539
1425334292.657,24.819244
1425334292.672,25.233986
1425334292.688,26.201843
1425334292.704,27.616577
1425334292.719,29.395782
1425334292.735,31.468826
1425334292.75,33.741524
1425334292.766,35.88684
1425334292.782,37.35116
1425334292.797,37.421127
1425334292.813,35.460106
1425334292.829,31.206512
1425334292.844,24.914963
1425334292.86,17.288483
1425334292.875,9.279129
1425334292.891,1.7063141
1425334292.907,-4.93486
1425334292.922,-10.606537
1425334292.938,-15.470428
1425334292.954,-19.697556
1425334292.969,-23.306763
1425334292.985,-26.157791
1425334293,-28.093323
1425334293.016,-29.00914
1425334293.032,-28.965973
1425334293.047,-28.176422
1425334293.063,-26.935913
1425334293.079,-25.549911
1425334293.094,-24.232117
1425334293.11,-23.085281
1425334293.125,-21.97174
1425334293.141,-20.65593
1425334293.157,-18.876541
1425334293.172,-16.549057
1425334293.188,-13.8320465
1425334293.204,-11.039642
1425334293.219,-8.424606
1425334293.235,-6.0429688
1425334293.25,-3.669693
1425334293.266,-0.95814514
1425334293.282,2.3876343
1425334293.297,6.427185
1425334293.313,11.078918
1425334293.329,16.214905
1425334293.344,21.735031
1425334293.36,27.491074
1425334293.375,33.075333
1425334293.391,37.742035
1425334293.407,40.504654
1425334293.422,40.4572
1425334293.438,37.16974
1425334293.454,30.912552
1425334293.469,22.618683
1425334293.485,13.503189
1425334293.5,4.719574
1425334293.516,-3.0805206
1425334293.532,-9.721558
1425334293.547,-15.397751
1425334293.563,-20.349106
1425334293.579,-24.669983
1425334293.594,-28.223206
1425334293.61,-30.840302
1425334293.625,-32.463577
1425334293.641,-33.22191
1425334293.657,-33.41774
1425334293.672,-33.347824
1425334293.688,-33.130524
1425334293.704,-32.734497
1425334293.719,-32.00441
1425334293.735,-30.86969
1425334293.75,-29.412338
1425334293.766,-27.885788
1425334293.782,-26.549759
1425334293.797,-25.602875
1425334293.813,-25.071579
1425334293.829,-24.832047
1425334293.844,-24.716232
1425334293.86,-24.480988
1425334293.875,-23.860352
1425334293.891,-22.605103
1425334293.907,-20.494385
1425334293.922,-17.486237
1425334293.938,-13.720703
1425334293.954,-9.487579
1425334293.969,-5.0429688
1425334293.985,-0.5684509
1425334294,3.9823303
1425334294.016,8.732941
1425334294.032,13.82663
1425334294.047,19.29657
1425334294.063,25.053192
1425334294.079,30.83789
1425334294.094,36.22049
1425334294.11,40.570374
1425334294.125,43.124756
1425334294.141,43.2247
1425334294.157,40.51648
1425334294.172,35.15271
1425334294.188,27.78128
1425334294.204,19.36969
1425334294.219,10.844208
1425334294.235,2.8717957
1425334294.25,-4.1944885
1425334294.266,-10.268768
1425334294.282,-15.348145
1425334294.297,-19.5206
1425334294.313,-22.86029
1425334294.329,-25.56894
1425334294.344,-27.84909
1425334294.36,-29.88095
1425334294.376,-31.731445
1425334294.391,-33.360382
1425334294.407,-34.62436
1425334294.422,-35.38925
1425334294.438,-35.539
1425334294.454,-35.101227
1425334294.469,-34.19388
1425334294.485,-33.09784
1425334294.5,-32.104095
1425334294.516,-31.465088
1425334294.532,-31.205017
1425334294.547,-31.166687
1425334294.563,-31.032013
1425334294.579,-30.47998
1425334294.594,-29.315521
1425334294.61,-27.56253
1425334294.626,-25.346619
1425334294.641,-22.831848
1425334294.657,-20.097626
1425334294.672,-17.138062
1425334294.688,-13.880524
1425334294.704,-10.251465
1425334294.719,-6.2658997
1425334294.735,-1.9821167
1425334294.751,2.478485
1425334294.766,6.9439087
1425334294.782,11.242401
1425334294.797,15.26416
1425334294.813,19.077606
1425334294.829,22.910599
1425334294.844,27.09143
1425334294.86,31.848877
1425334294.876,37.148315
1425334294.891,42.60164
1425334294.907,47.497284
1425334294.922,50.95247
1425334294.938,52.16275
1425334294.954,50.577103
1425334294.969,46.131058
1425334294.985,39.216644
1425334295.001,30.698227
1425334295.016,21.597733
1425334295.032,12.890991
1425334295.047,5.2136536
1425334295.063,-1.167984
1425334295.079,-6.4387817
1425334295.094,-10.905853
1425334295.11,-14.881592
1425334295.126,-18.517029
1425334295.141,-21.742188
1425334295.157,-24.398605
1425334295.172,-26.338074
1425334295.188,-27.478928
1425334295.204,-27.859818
1425334295.219,-27.59108
1425334295.235,-26.871933
1425334295.251,-25.95076
1425334295.266,-25.07872
1425334295.282,-24.482483
1425334295.297,-24.289566
1425334295.313,-24.47374
1425334295.329,-24.895386
1425334295.344,-25.264496
1425334295.36,-25.283203
1425334295.376,-24.635147
1425334295.391,-23.137146
1425334295.407,-20.733093
1425334295.422,-17.53955
1425334295.438,-13.778946
1425334295.454,-9.712112
1425334295.469,-5.5362396
1425334295.485,-1.4089355
1425334295.501,2.592514
1425334295.516,6.4261627
1425334295.532,10.070587
1425334295.547,13.440323
1425334295.563,16.544083
1425334295.579,19.36908
1425334295.594,22.037323
1425334295.61,24.736511
1425334295.626,27.688019
1425334295.641,31.022888
1425334295.657,34.683517
1425334295.672,38.295166
1425334295.688,41.212418
1425334295.704,42.59836
1425334295.719,41.68547
1425334295.735,38.05928
1425334295.751,31.897385
1425334295.766,23.874527
1425334295.782,15.0199585
1425334295.797,6.3384247
1425334295.813,-1.38974
1425334295.829,-7.7581177
1425334295.844,-12.668167
1425334295.86,-16.21643
1425334295.876,-18.594162
1425334295.891,-20.053482
1425334295.907,-20.864105
1425334295.922,-21.270355
1425334295.938,-21.427628
1425334295.954,-21.397583
1425334295.969,-21.095718
1425334295.985,-20.457657
1425334296.001,-19.47232
1425334296.016,-18.214249
1425334296.032,-16.786423
1425334296.047,-15.320999
1425334296.063,-13.878021
1425334296.079,-12.552948
1425334296.094,-11.481094
1425334296.11,-10.824905
1425334296.126,-10.599091
1425334296.141,-10.654343
1425334296.157,-10.643188
1425334296.172,-10.175476
1425334296.188,-8.960648
1425334296.204,-6.974365
1425334296.219,-4.3779144
1425334296.235,-1.5240784
1425334296.251,1.3024445
1425334296.266,3.889206
1425334296.282,6.174301
1425334296.297,8.190704
1425334296.313,10.12352
1425334296.329,12.213684
1425334296.344,14.755325
1425334296.36,18.043076
1425334296.376,22.143417
1425334296.391,26.817215
1425334296.407,31.479095
1425334296.422,35.23964
1425334296.438,37.16484
1425334296.454,36.548767
1425334296.469,33.18042
1425334296.485,27.43689
1425334296.501,20.243896
1425334296.516,12.704407
1425334296.532,5.8155975
1425334296.547,0.11228943
1425334296.563,-4.343582
1425334296.579,-7.8266754
1425334296.594,-10.664597
1425334296.61,-13.114929
1425334296.626,-15.226532
1425334296.641,-16.95607
1425334296.657,-18.273193
1425334296.672,-19.243973
1425334296.688,-19.897186
1425334296.704,-20.291092
1425334296.719,-20.382172
1425334296.735,-20.143234
1425334296.751,-19.536232
1425334296.766,-18.7033
1425334296.782,-17.822853
1425334296.797,-17.100906
1425334296.813,-16.617088
1425334296.829,-16.347084
1425334296.844,-16.161842
1425334296.86,-15.867813
1425334296.876,-15.217247
1425334296.891,-14.030907
1425334296.907,-12.215691
1425334296.922,-9.81488
1425334296.938,-6.9744415
1425334296.954,-3.9330292
1425334296.969,-0.9158478
1425334296.985,1.9103546
1425334297.001,4.50148
1425334297.016,6.8805313
1425334297.032,9.217056
1425334297.047,11.708305
1425334297.063,14.641876
1425334297.079,18.321793
1425334297.094,22.99614
1425334297.11,28.650406
1425334297.126,34.9541
1425334297.141,41.164253
1425334297.157,46.30861
1425334297.172,49.40061
1425334297.188,49.69037
1425334297.204,46.967545
1425334297.219,41.544876
1425334297.235,34.211563
1425334297.251,26.024345
1425334297.266,17.95565
1425334297.282,10.639679
1425334297.298,4.239609
1425334297.313,-1.3972931
1425334297.329,-6.600746
1425334297.344,-11.545387
1425334297.36,-16.168922
1425334297.376,-20.242752
1425334297.391,-23.490677
1425334297.407,-25.744385
1425334297.423,-27.030571
1425334297.438,-27.421722
1425334297.454,-27.021843
1425334297.469,-25.94812
1425334297.485,-24.370827
1425334297.501,-22.563942
1425334297.516,-20.883614
1425334297.532,-19.61058
1425334297.548,-18.850975
1425334297.563,-18.493439
1425334297.579,-18.26905
1425334297.594,-17.895775
1425334297.61,-17.215996
1425334297.626,-16.152039
1425334297.641,-14.759224
1425334297.657,-13.100258
1425334297.673,-11.213776
1425334297.688,-9.112061
1425334297.704,-6.7762527
1425334297.719,-4.1651764
1425334297.735,-1.2262039
1425334297.751,2.0105667
1425334297.766,5.4868164
1425334297.782,9.033028
1425334297.798,12.443428
1425334297.813,15.650764
1425334297.829,18.6763
1425334297.844,21.684105
1425334297.86,24.844257
1425334297.876,28.289318
1425334297.891,32.01709
1425334297.907,35.93913
1425334297.923,39.816628
1425334297.938,43.313404
1425334297.954,45.93514
1425334297.969,47.09694
1425334297.985,46.248924
1425334298.001,43.10292
1425334298.016,37.758545
1425334298.032,30.765522
1425334298.048,22.938847
1425334298.063,15.184391
1425334298.079,8.221615
1425334298.094,2.4603806
1425334298.11,-2.052414
1425334298.126,-5.4976616
1425334298.141,-8.2304535
1425334298.157,-10.5505295
1425334298.173,-12.674133
1425334298.188,-14.602337
1425334298.204,-16.236732
1425334298.219,-17.475845
1425334298.235,-18.29736
1425334298.251,-18.802353
1425334298.266,-19.130161
1425334298.282,-19.387474
1425334298.298,-19.593697
1425334298.313,-19.70132
1425334298.329,-19.70427
1425334298.344,-19.610775
1425334298.36,-19.495499
1425334298.376,-19.349136
1425334298.391,-19.082367
1425334298.407,-18.517948
1425334298.423,-17.51786
1425334298.438,-15.996517
1425334298.454,-13.986088
1425334298.469,-11.516438
1425334298.485,-8.671749
1425334298.501,-5.510029
1425334298.516,-2.1516724
1425334298.532,1.2529831
1425334298.548,4.542263
1425334298.563,7.692116
1425334298.579,10.867458
1425334298.594,14.420891
1425334298.61,18.674599
1425334298.626,23.781227
1425334298.641,29.522526
1425334298.657,35.37891
1425334298.673,40.544395
1425334298.688,44.161198
1425334298.704,45.51187
1425334298.719,44.17938
1425334298.735,40.18927
1425334298.751,34.04978
1425334298.766,26.624908
1425334298.782,18.890831
1425334298.798,11.693657
1425334298.813,5.53323
1425334298.829,0.4955368
1425334298.844,-3.5438461
1425334298.86,-6.8668556
1425334298.876,-9.650818
1425334298.891,-11.991959
1425334298.907,-13.887394
1425334298.923,-15.327274
1425334298.938,-16.311546
1425334298.954,-16.889069
1425334298.969,-17.094246
1425334298.985,-17.030312
1425334299.001,-16.803932
1425334299.016,-16.508324
1425334299.032,-16.214664
1425334299.048,-15.942936
1425334299.063,-15.717983
1425334299.079,-15.588425
1425334299.094,-15.596275
1425334299.11,-15.805397
1425334299.126,-16.081444
1425334299.141,-16.21186
1425334299.157,-15.856125
1425334299.173,-14.768837
1425334299.188,-12.818138
1425334299.204,-10.060974
1425334299.219,-6.682228
1425334299.235,-2.9151993
1425334299.251,1.024086
1425334299.266,4.95298
1425334299.282,8.676346
1425334299.298,12.062515
1425334299.313,15.14518
1425334299.329,18.061356
1425334299.344,21.179085
1425334299.36,24.816551
1425334299.376,29.13115
1425334299.391,33.875336
1425334299.407,38.389336
1425334299.423,41.75332
1425334299.438,43.10424
1425334299.454,41.895943
1425334299.469,38.1187
1425334299.485,32.278526
1425334299.501,25.220871
1425334299.516,17.773354
1425334299.532,10.581352
1425334299.548,3.9406662
1425334299.563,-2.1017685
1425334299.579,-7.6069183
1425334299.594,-12.553963
1425334299.61,-16.854492
1425334299.626,-20.347397
1425334299.641,-22.950348
1425334299.657,-24.715462
1425334299.673,-25.788239
1425334299.688,-26.299828
1425334299.704,-26.37252
1425334299.719,-26.065262
1425334299.735,-25.47612
1425334299.751,-24.751465
1425334299.766,-24.02163
1425334299.782,-23.348259
1425334299.798,-22.669556
1425334299.813,-21.81588
1425334299.829,-20.617813
1425334299.844,-19.0495
1425334299.86,-17.281761
1425334299.876,-15.525948
1425334299.891,-13.960739
1425334299.907,-12.57473
1425334299.923,-11.247818
1425334299.938,-9.771355
1425334299.954,-7.9906616
1425334299.97,-5.784233
1425334299.985,-3.134842
1425334300.001,-0.08383179
1425334300.016,3.267517
1425334300.032,6.785385
1425334300.048,10.324661
1425334300.063,13.84668
1425334300.079,17.432259
1425334300.095,21.281906
1425334300.11,25.623543
1425334300.126,30.629501
1425334300.141,36.271378
1425334300.157,42.244087
1425334300.173,47.888535
1425334300.188,52.25083
1425334300.204,54.282883
1425334300.22,53.1473
1425334300.235,48.56389
1425334300.251,41.011917
1425334300.266,31.593887
1425334300.282,21.667229
1425334300.298,12.393715
1425334300.313,4.388092
1425334300.329,-2.2626572
1425334300.345,-7.809395
1425334300.36,-12.559456
1425334300.376,-16.749184
1425334300.391,-20.50946
1425334300.407,-23.939201
1425334300.423,-27.173111
1425334300.438,-30.19629
1425334300.454,-32.8788
1425334300.47,-34.919838
1425334300.485,-35.959846
1425334300.501,-35.767097
1425334300.516,-34.399704
1425334300.532,-32.218292
1425334300.548,-29.8284
1425334300.563,-27.885193
1425334300.579,-26.854492
1425334300.595,-26.866837
1425334300.61,-27.611404
1425334300.626,-28.419159
1425334300.641,-28.556213
1425334300.657,-27.515396
1425334300.673,-25.221863
1425334300.688,-22.032806
1425334300.704,-18.553146
1425334300.72,-15.246155
1425334300.735,-12.274475
1425334300.751,-9.483597
1425334300.766,-6.5582275
1425334300.782,-3.29982
1425334300.798,0.29429626
1425334300.813,4.138214
1425334300.829,8.077362
1425334300.845,12.025269
1425334300.86,15.956116
1425334300.876,19.82457
1425334300.891,23.59639
1425334300.907,27.34056
1425334300.923,31.212448
1425334300.938,35.433273
1425334300.954,40.09149
1425334300.97,44.918167
1425334300.985,49.227173
1425334301.001,52.056046
1425334301.016,52.498947
1425334301.032,50.029556
1425334301.048,44.70497
1425334301.063,37.165573
1425334301.079,28.351013
1425334301.095,19.272232
1425334301.11,10.6831665
1425334301.126,3.0076294
1425334301.141,-3.629486
1425334301.157,-9.305679
1425334301.173,-14.180588
1425334301.188,-18.338257
1425334301.204,-21.785568
1425334301.22,-24.513367
1425334301.235,-26.50943
1425334301.251,-27.849716
1425334301.266,-28.644485
1425334301.282,-29.062836
1425334301.298,-29.260986
1425334301.313,-29.317535
1425334301.329,-29.289886
1425334301.345,-29.215134
1425334301.36,-29.15477
1425334301.376,-29.118256
1425334301.391,-29.082947
1425334301.407,-28.940063
1425334301.423,-28.550858
1425334301.438,-27.826752
1425334301.454,-26.743607
1425334301.47,-25.330673
1425334301.485,-23.602295
1425334301.501,-21.54892
1425334301.516,-19.107895
1425334301.532,-16.188797
1425334301.548,-12.804016
1425334301.563,-9.040482
1425334301.579,-5.114868
1425334301.595,-1.2249603
1425334301.61,2.391388
1425334301.626,5.6401978
1425334301.641,8.472031
1425334301.657,10.976181
1425334301.673,13.292847
1425334301.688,15.644638
1425334301.704,18.314728
1425334301.72,21.56546
1425334301.735,25.56984
1425334301.751,30.274231
1425334301.766,35.259933
1425334301.782,39.736755
1425334301.798,42.705338
1425334301.813,43.27217
1425334301.829,40.951874
1425334301.845,35.89421
1425334301.86,28.735199
1425334301.876,20.477509
1425334301.891,12.024918
1425334301.907,4.0597687
1425334301.923,-3.1000519
1425334301.938,-9.364319
1425334301.954,-14.796463
1425334301.97,-19.43843
1425334301.985,-23.360886
1425334302.001,-26.518036
1425334302.016,-28.8564
1425334302.032,-30.24765
1425334302.048,-30.602005
1425334302.063,-29.957413
1425334302.079,-28.538315
1425334302.095,-26.732635
1425334302.11,-24.971298
1425334302.126,-23.518784
1425334302.141,-22.456558
1425334302.157,-21.62761
1425334302.173,-20.85852
1425334302.188,-19.99823
1425334302.204,-18.988129
1425334302.22,-17.822891
1425334302.235,-16.544617
1425334302.251,-15.170456
1425334302.266,-13.760162
1425334302.282,-12.355255
1425334302.298,-11.028427
1425334302.313,-9.742126
1425334302.329,-8.399551
1425334302.345,-6.784668
1425334302.36,-4.767151
1425334302.376,-2.3126373
1425334302.391,0.48242188
1425334302.407,3.4136505
1425334302.423,6.308365
1425334302.438,9.125534
1425334302.454,11.907089
1425334302.47,14.8342285
1425334302.485,18.07425
1425334302.501,21.838028
1425334302.516,26.231827
1425334302.532,31.278214
1425334302.548,36.706055
1425334302.563,41.960373
1425334302.579,46.21306
1425334302.595,48.578537
1425334302.61,48.309097
1425334302.626,45.15074
1425334302.642,39.394394
1425334302.657,31.790466
1425334302.673,23.291794
1425334302.688,14.781937
1425334302.704,6.8573456
1425334302.72,-0.13978577
1425334302.735,-6.103821
1425334302.751,-11.006363
1425334302.767,-14.92186
1425334302.782,-17.953796
1425334302.798,-20.346725
1425334302.813,-22.344193
1425334302.829,-24.18457
1425334302.845,-25.95897
1425334302.86,-27.60495
1425334302.876,-28.97448
1425334302.892,-29.901108
1425334302.907,-30.352806
1425334302.923,-30.437279
1425334302.938,-30.285843
1425334302.954,-30.05207
1425334302.97,-29.777649
1425334302.985,-29.449158
1425334303.001,-28.95288
1425334303.017,-28.170853
1425334303.032,-26.968102
1425334303.048,-25.2781
1425334303.063,-23.079338
1425334303.079,-20.455261
1425334303.095,-17.538712
1425334303.11,-14.484718
1425334303.126,-11.397423
1425334303.142,-8.28698
1425334303.157,-5.0386963
1425334303.173,-1.5193176
1425334303.188,2.3417053
1425334303.204,6.449539
1425334303.22,10.582657
1425334303.235,14.393219
1425334303.251,17.601692
1425334303.267,20.094765
1425334303.282,22.035553
1425334303.298,23.81469
1425334303.313,25.99437
1425334303.329,29.129158
1425334303.345,33.534668
1425334303.36,39.049698
1425334303.376,44.94967
1425334303.392,50.077637
1425334303.407,53.12336
1425334303.423,53.050438
1425334303.438,49.490402
1425334303.454,42.820457
1425334303.47,34.068306
1425334303.485,24.485626
1425334303.501,15.20018
1425334303.517,6.921013
1425334303.532,-0.048431396
1425334303.548,-5.7705917
1425334303.563,-10.436203
1425334303.579,-14.284569
1425334303.595,-17.478584
1425334303.61,-20.174965
1425334303.626,-22.468155
1425334303.642,-24.46061
1425334303.657,-26.184921
1425334303.673,-27.644508
1425334303.688,-28.774254
1425334303.704,-29.48574
1425334303.72,-29.642792
1425334303.735,-29.23497
1425334303.751,-28.391235
1425334303.767,-27.39943
1425334303.782,-26.632523
1425334303.798,-26.329239
1425334303.813,-26.461456
1425334303.829,-26.785263
1425334303.845,-26.927055
1425334303.86,-26.601921
1425334303.876,-25.716888
1425334303.892,-24.352745
1425334303.907,-22.638084
1425334303.923,-20.706314
1425334303.938,-18.606407
1425334303.954,-16.392616
1425334303.97,-14.119217
1425334303.985,-11.8426895
1425334304.001,-9.485657
1425334304.017,-6.891449
1425334304.032,-3.7922134
1425334304.048,-0.017570496
1425334304.063,4.394615
1425334304.079,9.185745
1425334304.095,13.964447
1425334304.11,18.397224
1425334304.126,22.339745
1425334304.142,25.896275
1425334304.157,29.375034
1425334304.173,33.124805
1425334304.188,37.38118
1425334304.204,42.035465
1425334304.22,46.605972
1425334304.235,50.258053
1425334304.251,52.044834
1425334304.267,51.269287
1425334304.282,47.71483
1425334304.298,41.715298
1425334304.313,34.061474
1425334304.329,25.657429
1425334304.345,17.30592
1425334304.36,9.526768
1425334304.376,2.6510048
1425334304.392,-3.1699905
1425334304.407,-7.831806
1425334304.423,-11.367477
1425334304.438,-13.948631
1425334304.454,-15.846069
1425334304.47,-17.2911
1425334304.485,-18.36512
1425334304.501,-18.996914
1425334304.517,-19.059422
1425334304.532,-18.592556
1425334304.548,-17.83392
1425334304.563,-17.193707
1425334304.579,-17.037483
1425334304.595,-17.492859
1425334304.61,-18.431656
1425334304.626,-19.490108
1425334304.642,-20.297966
1425334304.657,-20.617928
1425334304.673,-20.437183
1425334304.688,-19.884388
1425334304.704,-19.170937
1425334304.72,-18.394043
1425334304.735,-17.517498
1425334304.751,-16.385895
1425334304.767,-14.810511
1425334304.782,-12.635878
1425334304.798,-9.862907
1425334304.813,-6.6099014
1425334304.829,-3.014904
1425334304.845,0.7662678
1425334304.86,4.627611
1425334304.876,8.516407
1425334304.892,12.361269
1425334304.907,16.04892
1425334304.923,19.486584
1425334304.938,22.679514
1425334304.954,25.76029
1425334304.97,29.013445
1425334304.985,32.682602
1425334305.001,36.766342
1425334305.017,40.868168
1425334305.032,44.17206
1425334305.048,45.644573
1425334305.063,44.446888
1425334305.079,40.21868
1425334305.095,33.271465
1425334305.11,24.517843
1425334305.126,15.113546
1425334305.142,6.0857983
1425334305.157,-1.91222
1425334305.173,-8.651491
1425334305.188,-14.162489
1425334305.204,-18.57585
1425334305.22,-21.937443
1425334305.235,-24.294989
1425334305.251,-25.73883
1425334305.267,-26.541508
1425334305.282,-26.95744
1425334305.298,-27.2471
1425334305.314,-27.462498
1425334305.329,-27.468592
1425334305.345,-27.04945
1425334305.36,-26.091265
1425334305.376,-24.652733
1425334305.392,-23.003195
1425334305.407,-21.470873
1425334305.423,-20.24195
1425334305.438,-19.342894
1425334305.454,-18.643238
1425334305.47,-17.950764
1425334305.485,-17.130249
1425334305.501,-16.12217
1425334305.517,-14.905388
1425334305.532,-13.398226
1425334305.548,-11.503828
1425334305.564,-9.032247
1425334305.579,-5.887113
1425334305.595,-2.1336985
1425334305.61,1.972126
1425334305.626,6.081329
1425334305.642,9.838704
1425334305.657,13.005545
1425334305.673,15.535002
1425334305.689,17.565422
1425334305.704,19.325714
1425334305.72,21.09761
1425334305.735,23.13251
1425334305.751,25.6833
1425334305.767,28.907124
1425334305.782,32.90524
1425334305.798,37.54375
1425334305.814,42.406948
1425334305.829,46.768124
1425334305.845,49.722427
1425334305.86,50.40896
1425334305.876,48.378593
1425334305.892,43.64702
1425334305.907,36.743988
1425334305.923,28.482311
1425334305.939,19.73152
1425334305.954,11.244829
1425334305.97,3.5867252
1425334305.985,-2.8788795
1425334306.001,-7.993845
1425334306.017,-11.799593
1425334306.032,-14.555298
1425334306.048,-16.698544
1425334306.064,-18.604372
1425334306.079,-20.515146
1425334306.095,-22.38254
1425334306.11,-24.01971
1425334306.126,-25.19595
1425334306.142,-25.79153
1425334306.157,-25.882471
1425334306.173,-25.728275
1425334306.189,-25.600208
1425334306.204,-25.715574
1425334306.22,-26.06161
1425334306.235,-26.436543
1425334306.251,-26.49591
1425334306.267,-25.990524
1425334306.282,-24.823792
1425334306.298,-23.145515
1425334306.314,-21.239092
1425334306.329,-19.298248
1425334306.345,-17.292118
1425334306.36,-15.0363655
1425334306.376,-12.27792
1425334306.392,-8.961025
1425334306.407,-5.2557564
1425334306.423,-1.5225658
1425334306.439,1.8740692
1425334306.454,4.753357
1425334306.47,7.1587734
1425334306.485,9.292524
1425334306.501,11.388079
1425334306.517,13.69417
1425334306.532,16.464272
1425334306.548,19.888687
1425334306.564,24.116486
1425334306.579,29.069126
1425334306.595,34.323555
1425334306.61,39.175728
1425334306.626,42.780464
1425334306.642,44.351337
1425334306.657,43.444298
1425334306.673,40.036373
1425334306.689,34.56535
1425334306.704,27.856766
1425334306.72,20.837273
1425334306.735,14.333801
1425334306.751,8.895908
1425334306.767,4.5891457
1425334306.782,1.1583977
1425334306.798,-1.8422661
1425334306.814,-4.7838287
1425334306.829,-7.8290405
1425334306.845,-10.856895
1425334306.86,-13.656376
1425334306.876,-16.000362
1425334306.892,-17.786015
1425334306.907,-19.027641
1425334306.923,-19.806412
1425334306.939,-20.188251
1425334306.954,-20.261692
1425334306.97,-20.138927
1425334306.985,-19.96413
1425334307.001,-19.913822
1425334307.017,-20.109589
1425334307.032,-20.503296
1425334307.048,-20.958618
1425334307.064,-21.270184
1425334307.079,-21.211643
1425334307.095,-20.69688
1425334307.11,-19.716125
1425334307.126,-18.31638
1425334307.142,-16.576916
1425334307.157,-14.537079
1425334307.173,-12.198986
1425334307.189,-9.5788765
1425334307.204,-6.7255783
1425334307.22,-3.7290764
1425334307.235,-0.737587
1425334307.251,2.2007828
1425334307.267,5.123848
1425334307.282,8.10944
1425334307.298,11.243687
1425334307.314,14.584179
1425334307.329,18.157768
1425334307.345,22.014534
1425334307.36,26.202103
1425334307.376,30.693726
1425334307.392,35.228783
1425334307.407,39.277683
1425334307.423,42.06206
1425334307.439,42.76463
1425334307.454,40.8412
1425334307.47,36.282986
1425334307.485,29.604218
1425334307.501,21.711761
1425334307.517,13.562431
1425334307.532,5.906616
1425334307.548,-0.84895706
1425334307.564,-6.5510254
1425334307.579,-11.217098
1425334307.595,-14.913776
1425334307.61,-17.717388
1425334307.626,-19.662617
1425334307.642,-20.81617
1425334307.657,-21.235287
1425334307.673,-21.090221
1425334307.689,-20.563156
1425334307.704,-19.897606
1425334307.72,-19.30278
1425334307.735,-18.91034
1425334307.751,-18.751534
1425334307.767,-18.776474
1425334307.782,-18.891724
1425334307.798,-19.065338
1425334307.814,-19.345627
1425334307.829,-19.748802
1425334307.845,-20.242874
1425334307.86,-20.652351
1425334307.876,-20.689072
1425334307.892,-20.040783
1425334307.907,-18.523148
1425334307.923,-16.126045
1425334307.939,-12.992035
1425334307.954,-9.418949
1425334307.97,-5.6587143
1425334307.986,-1.9628754
1425334308.001,1.5558739
1425334308.017,4.9272575
1425334308.032,8.282524
1425334308.048,11.763611
1425334308.064,15.458168
1425334308.079,19.417679
1425334308.095,23.556503
1425334308.11,27.728035
1425334308.126,31.678246
1425334308.142,34.976913
1425334308.157,37.059624
1425334308.173,37.290123
1425334308.189,35.26055
1425334308.204,30.986588
1425334308.22,25.01899
1425334308.236,18.266106
1425334308.251,11.712524
1425334308.267,6.0470276
1425334308.282,1.494545
1425334308.298,-2.093399
1425334308.314,-5.042839
1425334308.329,-7.609909
1425334308.345,-9.885773
1425334308.361,-11.824356
1425334308.376,-13.381844
1425334308.392,-14.532135
1425334308.407,-15.296181
1425334308.423,-15.747566
1425334308.439,-15.997704
1425334308.454,-16.21109
1425334308.47,-16.568886
1425334308.486,-17.19358
1425334308.501,-18.036911
1425334308.517,-18.93824
1425334308.532,-19.65007
1425334308.548,-20.03009
1425334308.564,-20.096817
1425334308.579,-19.942947
1425334308.595,-19.621368
1425334308.611,-19.09047
1425334308.626,-18.21463
1425334308.642,-16.855911
1425334308.657,-14.954216
1425334308.673,-12.606613
1425334308.689,-9.930748
1425334308.704,-7.047142
1425334308.72,-3.9380722
1425334308.736,-0.5730667
1425334308.751,3.048973
1425334308.767,6.8331757
1425334308.782,10.642487
1425334308.798,14.357254
1425334308.814,17.930443
1425334308.829,21.45124
1425334308.845,25.05722
1425334308.861,28.859634
1425334308.876,32.874657
1425334308.892,36.90423
1425334308.907,40.539375
1425334308.923,43.155296
1425334308.939,44.074867
1425334308.954,42.801308
1425334308.97,39.232826
1425334308.986,33.677155
1425334309.001,26.848328
1425334309.017,19.578033
1425334309.032,12.603134
1425334309.048,6.3911667
1425334309.064,1.1174393
1425334309.079,-3.299858
1425334309.095,-7.049904
1425334309.111,-10.323547
1425334309.126,-13.24736
1425334309.142,-15.915581
1425334309.157,-18.349472
1425334309.173,-20.551613
1425334309.189,-22.437881
1425334309.204,-23.944435
1425334309.22,-24.955597
1425334309.236,-25.442734
1425334309.251,-25.459892
1425334309.267,-25.182137
1425334309.282,-24.856506
1425334309.298,-24.71759
1425334309.314,-24.872139
1425334309.329,-25.182518
1425334309.345,-25.340317
1425334309.361,-24.973282
1425334309.376,-23.834206
1425334309.392,-21.929398
1425334309.407,-19.456131
1425334309.423,-16.699554
1425334309.439,-13.849297
1425334309.454,-10.981102
1425334309.47,-7.999115
1425334309.486,-4.841606
1425334309.501,-1.4862823
1425334309.517,1.9438705
1425334309.532,5.2440567
1425334309.548,8.211258
1425334309.564,10.751457
1425334309.579,12.878517
1425334309.595,14.726189
1425334309.611,16.52507
1425334309.626,18.550331
1425334309.642,21.05796
1425334309.657,24.240814
1425334309.673,28.097244
1425334309.689,32.455544
1425334309.704,36.839294
1425334309.72,40.617516
1425334309.736,43.042343
1425334309.751,43.49205
1425334309.767,41.581238
1425334309.782,37.38038
1425334309.798,31.343498
1425334309.814,24.21872
1425334309.829,16.867264
1425334309.845,9.984177
1425334309.861,3.9364014
1425334309.876,-1.218956
1425334309.892,-5.6633606
1425334309.907,-9.639908
1425334309.923,-13.368607
1425334309.939,-16.895592
1425334309.954,-20.1661
1425334309.97,-23.055595
1425334309.986,-25.447983
1425334310.001,-27.296272
1425334310.017,-28.64357
1425334310.032,-29.51056
1425334310.048,-29.936188
1425334310.064,-29.852585
1425334310.079,-29.205017
1425334310.095,-28.030212
1425334310.111,-26.513626
1425334310.126,-25.002106
1425334310.142,-23.863464
1425334310.157,-23.26538
1425334310.173,-23.112198
1425334310.189,-23.002151
1425334310.204,-22.4525
1425334310.22,-21.109955
1425334310.236,-18.94983
1425334310.251,-16.198792
1425334310.267,-13.238388
1425334310.282,-10.312027
1425334310.298,-7.503113
1425334310.314,-4.7389984
1425334310.329,-1.9247284
1425334310.345,0.94236755
1425334310.361,3.772766
1425334310.376,6.4489746
1425334310.392,8.847
1425334310.407,10.985275
1425334310.423,12.9301605
1425334310.439,14.810486
1425334310.454,16.81662
1425334310.47,19.191605
1425334310.486,22.17308
1425334310.501,25.898926
1425334310.517,30.247498
1425334310.532,34.800125
1425334310.548,38.8488
1425334310.564,41.619873
1425334310.579,42.46869
1425334310.595,41.115158
1425334310.611,37.69841
1425334310.626,32.753952
1425334310.642,27.015015
1425334310.657,21.231201
1425334310.673,15.940018
1425334310.689,11.362213
1425334310.704,7.4086
1425334310.72,3.816925
1425334310.736,0.30638123
1425334310.751,-3.197464
1425334310.767,-6.64122
1425334310.782,-9.832321
1425334310.798,-12.618698
1425334310.814,-14.952713
1425334310.829,-16.863693
1425334310.845,-18.404083
1425334310.861,-19.597336
1425334310.876,-20.402359
1425334310.892,-20.844559
1425334310.908,-21.034409
1425334310.923,-21.1848
1425334310.939,-21.458435
1425334310.954,-21.864624
1425334310.97,-22.208817
1425334310.986,-22.164642
1425334311.001,-21.44896
1425334311.017,-19.973618
1425334311.033,-17.904251
1425334311.048,-15.555908
1425334311.064,-13.215134
1425334311.079,-11.065613
1425334311.095,-9.050491
1425334311.111,-7.08313
1425334311.126,-5.0457153
1425334311.142,-2.938202
1425334311.158,-0.82362366
1425334311.173,1.2214203
1425334311.189,3.1542358
1425334311.204,5.0304413
1425334311.22,6.985443
1425334311.236,9.1474
1425334311.251,11.655182
1425334311.267,14.592606
1425334311.283,18.066483
1425334311.298,22.135757
1425334311.314,26.749908
1425334311.329,31.626785
1425334311.345,36.150238
1425334311.361,39.43283
1425334311.376,40.60959
1425334311.392,39.110153
1425334311.408,34.934174
1425334311.423,28.70494
1425334311.439,21.42662
1425334311.454,14.167389
1425334311.47,7.702194
1425334311.486,2.3683167
1425334311.501,-1.8456268
1425334311.517,-5.143524
1425334311.533,-7.7486267
1425334311.548,-9.811935
1425334311.564,-11.395706
1425334311.579,-12.604187
1425334311.595,-13.511673
1425334311.611,-14.212921
1425334311.626,-14.777084
1425334311.642,-15.266205
1425334311.658,-15.718903
1425334311.673,-16.185913
1425334311.689,-16.700073
1425334311.704,-17.291992
1425334311.72,-17.916763
1425334311.736,-18.486206
1425334311.751,-18.851212
1425334311.767,-18.877121
1425334311.783,-18.437943
1425334311.798,-17.499329
1425334311.814,-16.115768
1425334311.829,-14.388336
1425334311.845,-12.403534
1425334311.861,-10.240189
1425334311.876,-7.85437
1425334311.892,-5.173279
1425334311.908,-2.1931458
1425334311.923,0.95310974
1425334311.939,4.003784
1425334311.954,6.692215
1425334311.97,8.859467
1425334311.986,10.530273
1425334312.001,11.932251
1425334312.017,13.343964
1425334312.033,14.993835
1425334312.048,17.023499
1425334312.064,19.512878
1425334312.079,22.44577
1425334312.095,25.697723
1425334312.111,28.957352
1425334312.126,31.670273
1425334312.142,33.17386
1425334312.158,32.890213
1425334312.173,30.55513
1425334312.189,26.371094
1425334312.204,20.931854
1425334312.22,14.975647
1425334312.236,9.207275
1425334312.251,4.090683
1425334312.267,-0.19302368
1425334312.283,-3.6347046
1425334312.298,-6.3616943
1425334312.314,-8.507477
1425334312.329,-10.200363
1425334312.345,-11.483063
1425334312.361,-12.42012
1425334312.376,-13.057449
1425334312.392,-13.463669
1425334312.408,-13.76123
1425334312.423,-14.075943
1425334312.439,-14.5138855
1425334312.454,-15.12999
1425334312.47,-15.8663025
1425334312.486,-16.622238
1425334312.501,-17.278229
1425334312.517,-17.70839
1425334312.533,-17.839706
1425334312.548,-17.702621
1425334312.564,-17.337784
1425334312.579,-16.809448
1425334312.595,-16.133453
1425334312.611,-15.279892
1425334312.626,-14.18071
1425334312.642,-12.846832
1425334312.658,-11.278168
1425334312.673,-9.529694
1425334312.689,-7.603363
1425334312.704,-5.342346
1425334312.72,-2.60318
1425334312.736,0.6862335
1425334312.751,4.358612
1425334312.767,7.966446
1425334312.783,10.989471
1425334312.798,13.116379
1425334312.814,14.474289
1425334312.829,15.585129
1425334312.845,17.241852
1425334312.861,20.072083
1425334312.876,24.277298
1425334312.892,29.542145
1425334312.908,35.10852
1425334312.923,39.986923
1425334312.939,43.23761
1425334312.954,44.13852
1425334312.97,42.389114
1425334312.986,38.16739
1425334313.001,32.05864
1425334313.017,24.892288
1425334313.033,17.577942
1425334313.048,10.7948
1425334313.064,4.88797
1425334313.079,-0.08061218
1425334313.095,-4.2516327
1425334313.111,-7.831894
1425334313.126,-10.930008
1425334313.142,-13.651688
1425334313.158,-16.04451
1425334313.173,-18.157272
1425334313.189,-20.02504
1425334313.204,-21.622498
1425334313.22,-22.834244
1425334313.236,-23.467285
1425334313.251,-23.384018
1425334313.267,-22.5652
1425334313.283,-21.218964
1425334313.298,-19.731033
1425334313.314,-18.513016
1425334313.329,-17.854355
1425334313.345,-17.775452
1425334313.361,-18.034088
1425334313.376,-18.223358
1425334313.392,-18.009094
1425334313.408,-17.20932
1425334313.423,-15.896637
1425334313.439,-14.234177
1425334313.454,-12.4118805
1425334313.47,-10.4934845
1425334313.486,-8.416946
1425334313.501,-6.077011
1425334313.517,-3.4250488
1425334313.533,-0.54315186
1425334313.548,2.4505463
1425334313.564,5.424301
1425334313.58,8.298981
1425334313.595,11.062592
1425334313.611,13.705353
1425334313.626,16.245499
1425334313.642,18.72168
1425334313.658,21.3154
1425334313.673,24.242493
1425334313.689,27.74025
1425334313.705,31.817337
1425334313.72,36.088684
1425334313.736,39.805374
1425334313.751,42.01364
1425334313.767,41.90956
1425334313.783,39.19629
1425334313.798,34.144592
1425334313.814,27.488647
1425334313.83,20.12413
1425334313.845,12.860123
1425334313.861,6.2407074
1425334313.876,0.5690155
1425334313.892,-4.008087
1425334313.908,-7.39917
1425334313.923,-9.679642
1425334313.939,-11.042007
1425334313.955,-11.860764
1425334313.97,-12.5271
1425334313.986,-13.339691
1425334314.001,-14.338623
1425334314.017,-15.360809
1425334314.033,-16.197937
1425334314.048,-16.732742
1425334314.064,-17.020645
1425334314.08,-17.234802
1425334314.095,-17.533676
1425334314.111,-17.920578
1425334314.126,-18.220688
1425334314.142,-18.27652
1425334314.158,-17.938324
1425334314.173,-17.274933
1425334314.189,-16.412216
1425334314.205,-15.508545
1425334314.22,-14.561569
1425334314.236,-13.459763
1425334314.251,-11.995972
1425334314.267,-10.116684
1425334314.283,-7.931839
1425334314.298,-5.631195
1425334314.314,-3.419815
1425334314.33,-1.3872833
1425334314.345,0.50102234
1425334314.361,2.3363647
1425334314.376,4.242523
1425334314.392,6.3405304
1425334314.408,8.847244
1425334314.423,12.014542
1425334314.439,16.133057
1425334314.455,21.363022
1425334314.47,27.5298
1425334314.486,33.989044
1425334314.501,39.76169
1425334314.517,43.756042
1425334314.533,45.131363
1425334314.548,43.515335
1425334314.564,39.15782
1425334314.58,32.82515
1425334314.595,25.495071
1425334314.611,18.090897
1425334314.626,11.275421
1425334314.642,5.2972565
1425334314.658,0.15327454
1425334314.673,-4.3304596
1425334314.689,-8.25412
1425334314.705,-11.600647
1425334314.72,-14.266098
1425334314.736,-16.180603
1425334314.751,-17.309494
1425334314.767,-17.724487
1425334314.783,-17.560257
1425334314.798,-16.962036
1425334314.814,-16.02298
1425334314.83,-14.860657
1425334314.845,-13.595566
1425334314.861,-12.440887
1425334314.876,-11.591766
1425334314.892,-11.200867
1425334314.908,-11.27475
1425334314.923,-11.681152
1425334314.939,-12.167221
1425334314.955,-12.384338
1425334314.97,-12.0047
1425334314.986,-10.865128
1425334315.001,-8.975739
1425334315.017,-6.619446
1425334315.033,-4.1675873
1425334315.048,-2.0246964
1425334315.064,-0.41545868
1425334315.08,0.7134628
1425334315.095,1.6650467
1425334315.111,2.9504013
1425334315.126,5.0843887
1425334315.142,8.389519
1425334315.158,12.873444
1425334315.173,18.108658
1425334315.189,23.31562
1425334315.205,27.561096
1425334315.22,30.023003
1425334315.236,30.18898
1425334315.251,28.03595
1425334315.267,24.02726
1425334315.283,18.94223
1425334315.298,13.569405
1425334315.314,8.540794
1425334315.33,4.1425323
1425334315.345,0.42115784
1425334315.361,-2.7699661
1425334315.376,-5.5648117
1425334315.392,-8.009247
1425334315.408,-10.072754
1425334315.423,-11.646881
1425334315.439,-12.678841
1425334315.455,-13.202896
1425334315.47,-13.296288
1425334315.486,-13.135742
1425334315.501,-12.877838
1425334315.517,-12.644989
1425334315.533,-12.466003
1425334315.548,-12.340767
1425334315.564,-12.189018
1425334315.58,-11.956398
1425334315.595,-11.572029
1425334315.611,-10.988342
1425334315.626,-10.136612
1425334315.642,-8.979485
1425334315.658,-7.4842834
1425334315.673,-5.6434326
1425334315.689,-3.5243988
1425334315.705,-1.2224274
1425334315.72,1.2045517
1425334315.736,3.8210678
1425334315.751,6.805336
1425334315.767,10.35714
1425334315.783,14.582741
1425334315.798,19.352226
1425334315.814,24.278774
1425334315.83,28.695724
1425334315.845,31.907612
1425334315.861,33.32934
1425334315.876,32.71281
1425334315.892,30.1721
1425334315.908,26.11193
1425334315.923,21.087223
1425334315.939,15.6157875
1425334315.955,10.017822
1425334315.97,4.490612
1425334315.986,-0.8533592
1425334316.001,-5.853607
1425334316.017,-10.271351
1425334316.033,-13.751049
1425334316.048,-16.046566
1425334316.064,-17.024609
1425334316.08,-16.84005
1425334316.095,-15.840904
1425334316.111,-14.540825
1425334316.126,-13.417788
1425334316.142,-12.810984
1425334316.158,-12.8257065
1425334316.173,-13.337591
1425334316.189,-14.053753
1425334316.205,-14.620834
1425334316.22,-14.721678
1425334316.236,-14.212536
1425334316.252,-13.00437
1425334316.267,-11.105957
1425334316.283,-8.546298
1425334316.298,-5.3924026
1425334316.314,-1.7758503
1425334316.33,2.108529
1425334316.345,6.0865498
1425334316.361,10.082472
1425334316.376,14.207976
1425334316.392,18.59736
1425334316.408,23.25505
1425334316.423,27.785355
1425334316.439,31.4094
1425334316.455,33.159874
1425334316.47,32.29534
1425334316.486,28.625141
1425334316.502,22.605522
1425334316.517,15.123389
1425334316.533,7.163701
1425334316.548,-0.536644
1425334316.564,-7.5407963
1425334316.58,-13.700365
1425334316.595,-18.92141
1425334316.611,-23.123909
1425334316.627,-26.251421
1425334316.642,-28.290806
1425334316.658,-29.343668
1425334316.673,-29.626768
1425334316.689,-29.384602
1425334316.705,-28.902016
1425334316.72,-28.350527
1425334316.736,-27.900291
1425334316.752,-27.607674
1425334316.767,-27.47871
1425334316.783,-27.471714
1425334316.798,-27.558353
1425334316.814,-27.71724
1425334316.83,-27.93972
1425334316.845,-28.202396
1425334316.861,-28.380783
1425334316.877,-28.296268
1425334316.892,-27.806473
1425334316.908,-26.83603
1425334316.923,-25.351894
1425334316.939,-23.377197
1425334316.955,-20.878616
1425334316.97,-17.771885
1425334316.986,-14.017574
1425334317.002,-9.703281
1425334317.017,-5.0831375
1425334317.033,-0.5256119
1425334317.048,3.6215172
1425334317.064,7.237671
1425334317.08,10.441341
1425334317.095,13.639149
1425334317.111,17.341255
1425334317.127,21.9874
1425334317.142,27.794254
1425334317.158,34.645092
1425334317.173,42.08884
1425334317.189,49.38085
1425334317.205,55.615803
1425334317.22,59.873516
1425334317.236,61.433662
1425334317.252,59.921772
1425334317.267,55.39752
1425334317.283,48.412533
1425334317.298,39.783886
1425334317.314,30.434532
1425334317.33,21.16975
1425334317.345,12.520805
1425334317.361,4.7384987
1425334317.377,-2.120533
1425334317.392,-8.047684
1425334317.408,-13.013813
1425334317.423,-16.994114
1425334317.439,-19.960915
1425334317.455,-21.937103
1425334317.47,-23.000824
1425334317.486,-23.254807
1425334317.502,-22.841293
1425334317.517,-21.971039
1425334317.533,-20.902649
1425334317.548,-19.950836
1425334317.564,-19.341873
1425334317.58,-19.177574
1425334317.595,-19.373528
1425334317.611,-19.729187
1425334317.627,-20.023773
1425334317.642,-20.177094
1425334317.658,-20.2286
1425334317.673,-20.30272
1425334317.689,-20.461678
1425334317.705,-20.639702
1425334317.72,-20.615372
1425334317.736,-20.134262
1425334317.752,-18.979088
1425334317.767,-17.07676
1425334317.783,-14.507622
1425334317.798,-11.456055
1425334317.814,-8.135796
1425334317.83,-4.7533493
1425334317.845,-1.4340591
1425334317.861,1.8058624
1425334317.877,5.092705
1425334317.892,8.619286
1425334317.908,12.584518
1425334317.923,17.045174
1425334317.939,21.711502
1425334317.955,25.971024
1425334317.97,29.012276
1425334317.986,29.996445
1425334318.002,28.418465
1425334318.017,24.243607
1425334318.033,18.019997
1425334318.048,10.649185
1425334318.064,3.142006
1425334318.08,-3.6918106
1425334318.095,-9.467873
1425334318.111,-14.188545
1425334318.127,-18.133354
1425334318.142,-21.628876
1425334318.158,-24.852226
1425334318.173,-27.823647
1425334318.189,-30.432022
1425334318.205,-32.556023
1425334318.22,-34.15011
1425334318.236,-35.235138
1425334318.252,-35.86013
1425334318.267,-36.059914
1425334318.283,-35.83869
1425334318.298,-35.25036
1425334318.314,-34.379646
1425334318.33,-33.374016
1425334318.345,-32.37909
1425334318.361,-31.51471
1425334318.377,-30.794098
1425334318.392,-30.128761
1425334318.408,-29.388718
1425334318.423,-28.468033
1425334318.439,-27.288994
1425334318.455,-25.88852
1425334318.47,-24.318565
1425334318.486,-22.65541
1425334318.502,-20.865265
1425334318.517,-18.826172
1425334318.533,-16.332077
1425334318.548,-13.245041
1425334318.564,-9.626068
1425334318.58,-5.747551
1425334318.595,-2.051529
1425334318.611,1.0749664
1425334318.627,3.4907875
1425334318.642,5.35429
1425334318.658,7.111866
1425334318.673,9.203754
1425334318.689,12.011978
1425334318.705,15.790787
1425334318.72,20.568176
1425334318.736,26.116096
1425334318.752,31.93433
1425334318.767,37.149048
1425334318.783,40.752808
1425334318.798,41.859562
1425334318.814,40.07443
1425334318.83,35.679516
1425334318.845,29.51743
1425334318.861,22.649649
1425334318.877,15.976744
1425334318.892,9.964397
1425334318.908,4.670437
1425334318.924,-0.121414185
1425334318.939,-4.603092
1425334318.955,-8.890322
1425334318.97,-12.911924
1425334318.986,-16.548477
1425334319.002,-19.62871
1425334319.017,-22.044373
1425334319.033,-23.706194
1425334319.048,-24.622013
1425334319.064,-24.90415
1425334319.08,-24.688679
1425334319.095,-24.133053
1425334319.111,-23.407469
1425334319.127,-22.631048
1425334319.142,-21.91761
1425334319.158,-21.335579
1425334319.174,-20.94997
1425334319.189,-20.759064
1425334319.205,-20.658537
1425334319.22,-20.432926
1425334319.236,-19.893524
1425334319.252,-18.850725
1425334319.267,-17.303839
1425334319.283,-15.366051
1425334319.299,-13.268181
1425334319.314,-11.212887
1425334319.33,-9.315243
1425334319.345,-7.52631
1425334319.361,-5.684799
1425334319.377,-3.6469421
1425334319.392,-1.3669853
1425334319.408,1.0555038
1425334319.424,3.4376602
1425334319.439,5.6331406
1425334319.455,7.6202545
1425334319.47,9.615059
1425334319.486,11.869423
1425334319.502,14.666733
1425334319.517,18.111694
1425334319.533,22.12735
1425334319.549,26.401604
1425334319.564,30.443275
1425334319.58,33.609573
1425334319.595,35.27236
1425334319.611,34.967484
1425334319.627,32.470215
1425334319.642,27.967438
1425334319.658,22.04055
1425334319.674,15.474426
1425334319.689,9.077721
1425334319.705,3.3898163
1425334319.72,-1.3154602
1425334319.736,-5.0601883
1425334319.752,-7.968071
1425334319.767,-10.1803665
1425334319.783,-11.758408
1425334319.799,-12.747772
1425334319.814,-13.14444
1425334319.83,-13.01564
1425334319.845,-12.418625
1425334319.861,-11.43158
1425334319.877,-10.135361
1425334319.892,-8.635056
1425334319.908,-7.080719
1425334319.924,-5.60701
1425334319.939,-4.337784
1425334319.955,-3.3840027
1425334319.97,-2.7380524
1425334319.986,-2.3971558
1425334320.002,-2.248413
1425334320.017,-2.1224976
1425334320.033,-1.7813568
1425334320.049,-1.0351257
1425334320.064,0.19441223
1425334320.08,1.833252
1425334320.095,3.6297455
1425334320.111,5.3286133
1425334320.127,6.7831726
1425334320.142,7.9380035
1425334320.158,8.900879
1425334320.174,9.796188
1425334320.189,10.767227
1425334320.205,11.946503
1425334320.22,13.50444
1425334320.236,15.595459
1425334320.252,18.300262
1425334320.267,21.495926
1425334320.283,24.786469
1425334320.299,27.5634
1425334320.314,29.232925
1425334320.33,29.378311
1425334320.345,27.93187
1425334320.361,25.132584
1425334320.377,21.417862
1425334320.392,17.30185
1425334320.408,13.193237
1425334320.424,9.301636
1425334320.439,5.634598
1425334320.455,2.0850372
1425334320.47,-1.4194031
1425334320.486,-4.815399
1425334320.502,-7.796692
1425334320.517,-10.071976
1425334320.533,-11.4292755
1425334320.549,-11.981964
1425334320.564,-12.093872
1425334320.58,-12.191528
1425334320.595,-12.488052
1425334320.611,-12.939606
1425334320.627,-13.228592
1425334320.642,-13.098114
1425334320.658,-12.477631
1425334320.674,-11.57016
1425334320.689,-10.687119
1425334320.705,-10.065262
1425334320.72,-9.739365
1425334320.736,-9.540344
1425334320.752,-9.307922
1425334320.767,-8.859192
1425334320.783,-8.041504
1425334320.799,-6.723572
1425334320.814,-4.8069153
1425334320.83,-2.3105774
1425334320.845,0.57992554
1425334320.861,3.4458313
1425334320.877,5.904663
1425334320.892,7.6636353
1425334320.908,8.768921
1425334320.924,9.54361
1425334320.939,10.4729
1425334320.955,12.022705
1425334320.97,14.481995
1425334320.986,17.822083
1425334321.002,21.761322
1425334321.017,25.711426
1425334321.033,28.967896
1425334321.049,30.768341
1425334321.064,30.57666
1425334321.08,28.216919
1425334321.095,24.008728
1425334321.111,18.618103
1425334321.127,12.903748
1425334321.142,7.621521
1425334321.158,3.274231
1425334321.174,0.0033569336
1425334321.189,-2.318451
1425334321.205,-3.9746094
1425334321.22,-5.2513123
1425334321.236,-6.345154
1425334321.252,-7.3043213
1425334321.267,-8.121918
1425334321.283,-8.734528
1425334321.299,-9.174255
1425334321.314,-9.478119
1425334321.33,-9.735962
1425334321.345,-9.938263
1425334321.361,-10.04834
1425334321.377,-9.940796
1425334321.392,-9.55011
1425334321.408,-8.87793
1425334321.424,-8.060059
1425334321.439,-7.2527466
1425334321.455,-6.621765
1425334321.47,-6.159546
1425334321.486,-5.7313843
1425334321.502,-5.078491
1425334321.517,-3.9778137
1425334321.533,-2.271881
1425334321.549,-0.047790527
1425334321.564,2.476654
1425334321.58,4.969635
1425334321.595,7.1202087
1425334321.611,8.767975
1425334321.627,9.995697
1425334321.642,10.9375305
1425334321.658,11.856995
1425334321.674,12.950378
1425334321.689,14.334686
1425334321.705,16.070557
1425334321.72,18.161896
1425334321.736,20.526459
1425334321.752,22.892212
1425334321.767,24.786285
1425334321.783,25.637177
1425334321.799,24.934631
1425334321.814,22.496033
1425334321.83,18.53479
1425334321.846,13.705078
1425334321.861,8.799194
1425334321.877,4.5734253
1425334321.892,1.420227
1425334321.908,-0.5871887
1425334321.924,-1.7631226
1425334321.939,-2.5545654
1425334321.955,-3.3796692
1425334321.971,-4.4773254
1425334321.986,-5.829895
1425334322.002,-7.2030945
1425334322.017,-8.301758
1425334322.033,-8.872009
1425334322.049,-8.875702
1425334322.064,-8.445435
1425334322.08,-7.8001404
1425334322.096,-7.101776
1425334322.111,-6.4407043
1425334322.127,-5.76239
1425334322.142,-5.041748
1425334322.158,-4.330658
1425334322.174,-3.7295837
1425334322.189,-3.328888
1425334322.205,-3.1120605
1425334322.221,-2.901001
1425334322.236,-2.4317017
1425334322.252,-1.5000305
1425334322.267,-0.043914795
1425334322.283,1.8727417
1425334322.299,4.0353394
1425334322.314,6.2400208
1425334322.33,8.322815
1425334322.346,10.276093
1425334322.361,12.203918
1425334322.377,14.359009
1425334322.392,16.91269
1425334322.408,19.960846
1425334322.424,23.274292
1425334322.439,26.366608
1425334322.455,28.601349
1425334322.471,29.381592
1425334322.486,28.385834
1425334322.502,25.600891
1425334322.517,21.359344
1425334322.533,16.198181
1425334322.549,10.673492
1425334322.564,5.3263245
1425334322.58,0.4827881
1425334322.596,-3.684845
1425334322.611,-7.1941223
1425334322.627,-10.155884
1425334322.642,-12.67926
1425334322.658,-14.774506
1425334322.674,-16.33789
1425334322.689,-17.167603
1425334322.705,-17.16568
1425334322.721,-16.429565
1425334322.736,-15.237213
1425334322.752,-13.959808
1425334322.767,-12.937286
1425334322.783,-12.263367
1425334322.799,-11.833405
1425334322.814,-11.423492
1425334322.83,-10.811279
1425334322.846,-9.899261
1425334322.861,-8.726807
1425334322.877,-7.3469543
1425334322.892,-5.8240967
1425334322.908,-4.1040955
1425334322.924,-2.1282654
1425334322.939,0.09640503
1425334322.955,2.431305
1425334322.971,4.600464
1425334322.986,6.3010254
1425334323.002,7.3801575
1425334323.017,7.9375916
1425334323.033,8.298492
1425334323.049,8.876312
1425334323.064,10.046509
1425334323.08,11.968628
1425334323.096,14.581116
1425334323.111,17.591766
1425334323.127,20.60971
1425334323.142,23.156616
1425334323.158,24.778229
1425334323.174,25.115662
1425334323.189,24.015656
1425334323.205,21.565613
1425334323.221,18.138428
1425334323.236,14.168121
1425334323.252,10.094635
1425334323.267,6.1845703
1425334323.283,2.5245056
1425334323.299,-0.86831665
1425334323.314,-3.9692688
1425334323.33,-6.6713257
1425334323.346,-8.87561
1425334323.361,-10.533691
1425334323.377,-11.647949
1425334323.392,-12.256744
1425334323.408,-12.360504
1425334323.424,-11.943237
1425334323.439,-11.053894
1425334323.455,-9.869812
1425334323.471,-8.650513
1425334323.486,-7.7382507
1425334323.502,-7.323822
1425334323.517,-7.4264526
1425334323.533,-7.824707
1425334323.549,-8.243042
1425334323.564,-8.496521
1425334323.58,-8.523285
1425334323.596,-8.398499
1425334323.611,-8.210693
1425334323.627,-8.006744
1425334323.642,-7.726227
1425334323.658,-7.2907715
1425334323.674,-6.6099243
1425334323.689,-5.58313
1425334323.705,-4.2101135
1425334323.721,-2.5049744
1425334323.736,-0.5345459
1425334323.752,1.6285706
1425334323.767,3.9015198
1425334323.783,6.260437
1425334323.799,8.699097
1425334323.814,11.211121
1425334323.83,13.727814
1425334323.846,16.152466
1425334323.861,18.432281
1425334323.877,20.598724
1425334323.892,22.810547
1425334323.908,25.284668
1425334323.924,28.095917
1425334323.939,31.048157
1425334323.955,33.644775
1425334323.971,35.266266
1425334323.986,35.3349
1425334324.002,33.62735
1425334324.017,30.2435
1425334324.033,25.587738
1425334324.049,20.179413
1425334324.064,14.540344
1425334324.08,9.076965
1425334324.096,4.11026
1425334324.111,-0.1449585
1425334324.127,-3.5747375
1425334324.142,-6.181061
1425334324.158,-8.062317
1425334324.174,-9.448944
1425334324.189,-10.591675
1425334324.205,-11.644104
1425334324.221,-12.663727
1425334324.236,-13.594879
1425334324.252,-14.275391
1425334324.267,-14.618622
1425334324.283,-14.609924
1425334324.299,-14.408234
1425334324.314,-14.190765
1425334324.33,-14.156464
1425334324.346,-14.373108
1425334324.361,-14.793823
1425334324.377,-15.305359
1425334324.392,-15.739807
1425334324.408,-15.937347
1425334324.424,-15.771057
1425334324.439,-15.189117
1425334324.455,-14.24411
1425334324.471,-13.023407
1425334324.486,-11.699921
1425334324.502,-10.377838
1425334324.518,-9.030273
1425334324.533,-7.4685364
1425334324.549,-5.470276
1425334324.564,-2.8995361
1425334324.58,0.16848755
1425334324.596,3.4273987
1425334324.611,6.519104
1425334324.627,9.16452
1425334324.643,11.242096
1425334324.658,12.817383
1425334324.674,14.109528
1425334324.689,15.42514
1425334324.705,17.22467
1425334324.721,20.035095
1425334324.736,24.171509
1425334324.752,29.565765
1425334324.768,35.45215
1425334324.783,40.603027
1425334324.799,43.611633
1425334324.814,43.504456
1425334324.83,40.14331
1425334324.846,34.238037
1425334324.861,27.06488
1425334324.877,19.823792
1425334324.893,13.33136
1425334324.908,7.7830505
1425334324.924,2.9768372
1425334324.939,-1.4029541
1425334324.955,-5.5871887
1425334324.971,-9.578384
1425334324.986,-13.236053
1425334325.002,-16.378983
1425334325.018,-18.92163
1425334325.033,-20.886734
1425334325.049,-22.392502
1425334325.064,-23.538086
1425334325.08,-24.325989
1425334325.096,-24.672653
1425334325.111,-24.477783
1425334325.127,-23.753876
1425334325.143,-22.69693
1425334325.158,-21.663727
1425334325.174,-21.001923
1425334325.189,-20.893661
1425334325.205,-21.21437
1425334325.221,-21.539276
1425334325.236,-21.352081
1425334325.252,-20.263687
1425334325.268,-18.198074
1425334325.283,-15.378693
1425334325.299,-12.241638
1425334325.314,-9.217377
1425334325.33,-6.560364
1425334325.346,-4.294113
1425334325.361,-2.2864227
1425334325.377,-0.35154724
1425334325.393,1.5895386
1425334325.408,3.5181427
1425334325.424,5.3430176
1425334325.439,7.008728
1425334325.455,8.581238
1425334325.471,10.203506
1425334325.486,12.06282
1425334325.502,14.33606
1425334325.518,17.100006
1425334325.533,20.347427
1425334325.549,23.997467
1425334325.564,27.931793
1425334325.58,31.903473
1425334325.596,35.525726
1425334325.611,38.260574
1425334325.627,39.465607
1425334325.643,38.59523
1425334325.658,35.440353
1425334325.674,30.237976
1425334325.689,23.636795
1425334325.705,16.535706
1425334325.721,9.770554
1425334325.736,3.8874054
1425334325.752,-0.8975525
1425334325.768,-4.711075
1425334325.783,-7.801773
1425334325.799,-10.345657
1425334325.814,-12.408249
1425334325.83,-13.932632
1425334325.846,-14.862762
1425334325.861,-15.305237
1425334325.877,-15.490646
1425334325.893,-15.721069
1425334325.908,-16.2323
1425334325.924,-17.119461
1425334325.939,-18.273392
1425334325.955,-19.547272
1425334325.971,-20.78212
1425334325.986,-21.901276
1425334326.002,-22.872421
1425334326.018,-23.64119
1425334326.033,-24.035904
1425334326.049,-23.87558
1425334326.064,-22.954689
1425334326.08,-21.230354
1425334326.096,-18.85527
1425334326.111,-16.13855
1425334326.127,-13.3997345
1425334326.143,-10.835365
1425334326.158,-8.451553
1425334326.174,-6.102318
1425334326.189,-3.594986
