1425413222.969,0.0
1425413222.985,0.0
1425413223,0.0
1425413223.016,0.0
1425413223.032,0.0
1425413223.047,0.0
1425413223.063,0.0
1425413223.079,0.0
1425413223.094,0.0
1425413223.11,0.0022315353
1425413223.125,-0.0045169927
1425413223.141,-0.011265522
1425413223.157,-0.011383951
1425413223.172,0.0011864507
1425413223.188,0.025910312
1425413223.204,0.050634187
1425413223.219,0.051362894
1425413223.235,-0.0014929791
1425413223.25,-0.1302426
1425413223.266,-0.35562757
1425413223.282,-0.6591247
1425413223.297,-1.0095103
1425413223.313,-1.3709826
1425413223.329,-1.7197359
1425413223.344,-2.0551105
1425413223.36,-2.39945
1425413223.376,-2.7866635
1425413223.391,-3.2399073
1425413223.407,-3.796012
1425413223.422,-4.418684
1425413223.438,-5.0592937
1425413223.454,-5.6644096
1425413223.469,-6.2021537
1425413223.485,-6.6808796
1425413223.501,-7.149598
1425413223.516,-7.6782336
1425413223.532,-8.310739
1425413223.547,-9.143657
1425413223.563,-10.089731
1425413223.579,-11.041313
1425413223.594,-11.8842125
1425413223.61,-12.564316
1425413223.626,-13.13563
1425413223.641,-13.760044
1425413223.657,-14.65232
1425413223.672,-15.962056
1425413223.688,-17.914442
1425413223.704,-20.317299
1425413223.719,-22.903854
1425413223.735,-25.37947
1425413223.751,-27.578028
1425413223.766,-29.57246
1425413223.782,-31.675173
1425413223.797,-34.3178
1425413223.813,-37.813618
1425413223.829,-42.541233
1425413223.844,-48.1463
1425413223.86,-54.104755
1425413223.876,-59.83309
1425413223.891,-64.972374
1425413223.907,-69.58293
1425413223.922,-74.14353
1425413223.938,-79.344986
1425413223.954,-85.70726
1425413223.969,-93.76193
1425413223.985,-102.99779
1425413224.001,-112.61757
1425413224.016,-121.73034
1425413224.032,-129.76602
1425413224.047,-136.75102
1425413224.063,-143.30344
1425413224.079,-150.74623
1425413224.094,-157.77356
1425413224.11,-166.64323
1425413224.126,-177.94798
1425413224.141,-191.79102
1425413224.157,-206.96808
1425413224.172,-220.56592
1425413224.188,-228.24644
1425413224.204,-225.36154
1425413224.219,-208.53198
1425413224.235,-176.87024
1425413224.251,-132.76222
1425413224.266,-80.04997
1425413224.282,-23.069275
1425413224.297,34.94339
1425413224.313,92.43695
1425413224.329,149.15695
1425413224.344,205.22772
1425413224.36,260.36963
1425413224.376,313.74133
1425413224.391,363.87396
1425413224.407,409.83353
1425413224.422,450.90775
1425413224.438,486.50244
1425413224.454,515.73865
1425413224.469,537.2274
1425413224.485,549.22
1425413224.501,549.9613
1425413224.516,538.367
1425413224.532,514.2055
1425413224.547,478.674
1425413224.563,433.87952
1425413224.579,382.45126
1425413224.594,327.02106
1425413224.61,269.84186
1425413224.626,212.63379
1425413224.641,156.6594
1425413224.657,102.95233
1425413224.672,52.373596
1425413224.688,5.9046936
1425413224.704,-35.580414
1425413224.719,-71.42584
1425413224.735,-101.35184
1425413224.751,-125.50113
1425413224.766,-144.3797
1425413224.782,-158.69403
1425413224.797,-169.15071
1425413224.813,-176.3711
1425413224.829,-180.75139
1425413224.844,-182.57419
1425413224.86,-182.06863
1425413224.876,-179.5066
1425413224.891,-175.23325
1425413224.907,-169.65286
1425413224.922,-163.17691
1425413224.938,-156.14568
1425413224.954,-148.80681
1425413224.969,-141.29686
1425413224.985,-133.68983
1425413225.001,-126.01962
1425413225.016,-118.33268
1425413225.032,-110.68864
1425413225.047,-103.15572
1425413225.063,-95.80455
1425413225.079,-88.684166
1425413225.094,-81.82744
1425413225.11,-75.24594
1425413225.126,-68.9526
1425413225.141,-62.949085
1425413225.157,-57.247494
1425413225.172,-51.857185
1425413225.188,-46.78282
1425413225.204,-42.02776
1425413225.219,-37.58521
1425413225.235,-33.451748
1425413225.251,-29.613855
1425413225.266,-26.070963
1425413225.282,-22.808779
1425413225.297,-19.824995
1425413225.313,-17.113392
1425413225.329,-14.666497
1425413225.344,-12.47932
1425413225.36,-10.538469
1425413225.376,-8.833674
1425413225.391,-7.3478527
1425413225.407,-6.067689
1425413225.422,-4.9734235
1425413225.438,-4.046258
1425413225.454,-3.2673752
1425413225.469,-2.6211367
1425413225.485,-2.088365
1425413225.501,-1.6507506
1425413225.516,-1.2976913
1425413225.532,-1.0147024
1425413225.547,-0.79105926
1425413225.563,-0.6133206
1425413225.579,-0.47516227
1425413225.594,-0.3684653
1425413225.61,-0.28461677
1425413225.626,-0.22397345
1425413225.641,-0.17647654
1425413225.657,-0.14055526
1425413225.672,-0.11251485
1425413225.688,-0.0926249
1425413225.704,-0.07977182
1425413225.719,-0.06783539
1425413225.735,-0.05929327
1425413225.751,-0.052183747
1425413225.766,-0.046860814
1425413225.782,-0.044131815
1425413225.797,-0.040358156
1425413225.813,-0.039164305
1425413225.829,-0.034330726
1425413225.844,-0.03515649
1425413225.86,-0.03181714
1425413225.876,-0.030750751
1425413225.891,-0.02810505
1425413225.907,-0.029290557
1425413225.922,-0.027453512
1425413225.938,-0.026081413
1425413225.954,-0.023851603
1425413225.969,-0.022989094
1425413225.985,-0.022172749
1425413226.001,-0.022157341
1425413226.016,-0.020828396
1425413226.032,-0.020277172
1425413226.048,-0.01940465
1425413226.063,-0.018795371
1425413226.079,-0.019169807
1425413226.094,-0.017195046
1425413226.11,-0.016264498
1425413226.126,-0.01676847
1425413226.141,-0.016039208
1425413226.157,-0.016356274
1425413226.173,-0.012255222
1425413226.188,-0.014531761
1425413226.204,-0.013970271
1425413226.219,-0.0151048
1425413226.235,-0.011057541
1425413226.251,-0.0131264925
1425413226.266,-0.011830375
1425413226.282,-0.011561602
1425413226.298,-0.011305705
1425413226.313,-0.011727303
1425413226.329,-0.011188552
1425413226.344,-0.00897336
1425413226.36,-0.0100701
1425413226.376,-0.010106817
1425413226.391,-0.00829272
1425413226.407,-0.012381226
1425413226.423,-0.009308472
1425413226.438,-0.009468168
1425413226.454,-0.0076998025
1425413226.469,-0.008273825
1425413226.485,-0.006166175
1425413226.501,-0.011123031
1425413226.516,-0.0061910003
1425413226.532,-0.0064854324
1425413226.548,-0.0073835254
1425413226.563,-0.006777808
1425413226.579,-0.0062390417
1425413226.594,-0.005730346
1425413226.61,-0.009369314
1425413226.626,-0.00277102
1425413226.641,-0.0063601434
1425413226.657,-0.002102673
1425413226.673,-0.005975485
1425413226.688,-0.008594856
1425413226.704,-0.0073649436
1425413226.719,-0.010632411
1425413226.735,-0.020770296
1425413226.751,-0.028227195
1425413226.766,-0.04427834
1425413226.782,-0.06290217
1425413226.798,-0.08332524
1425413226.813,-0.102119714
1425413226.829,-0.13080546
1425413226.844,-0.1642347
1425413226.86,-0.2045101
1425413226.876,-0.2595486
1425413226.891,-0.32064807
1425413226.907,-0.37059897
1425413226.923,-0.3991993
1425413226.938,-0.3928008
1425413226.954,-0.3542521
1425413226.969,-0.30216795
1425413226.985,-0.2518314
1425413227.001,-0.23409945
1425413227.016,-0.2677873
1425413227.032,-0.33243394
1425413227.048,-0.42207003
1425413227.063,-0.49965906
1425413227.079,-0.537236
1425413227.094,-0.5364524
1425413227.11,-0.52008814
1425413227.126,-0.5220369
1425413227.141,-0.56838614
1425413227.157,-0.69820416
1425413227.173,-0.88184917
1425413227.188,-1.0832101
1425413227.204,-1.2515012
1425413227.219,-1.3342221
1425413227.235,-1.339072
1425413227.251,-1.3132493
1425413227.266,-1.3322818
1425413227.282,-1.490481
1425413227.298,-1.8207762
1425413227.313,-2.286254
1425413227.329,-2.7799003
1425413227.344,-3.156646
1425413227.36,-3.3032105
1425413227.376,-3.217242
1425413227.391,-3.0066247
1425413227.407,-2.8935623
1425413227.423,-3.061473
1425413227.438,-3.631334
1425413227.454,-4.5069566
1425413227.469,-5.4478307
1425413227.485,-6.139417
1425413227.501,-6.3308105
1425413227.516,-6.0121417
1425413227.532,-5.417003
1425413227.548,-4.9570866
1425413227.563,-5.022469
1425413227.579,-5.834754
1425413227.594,-7.225299
1425413227.61,-8.749741
1425413227.626,-9.826166
1425413227.641,-9.992922
1425413227.657,-9.133708
1425413227.673,-7.522624
1425413227.688,-5.6909385
1425413227.704,-4.085641
1425413227.719,-2.9003572
1425413227.735,-1.9065981
1425413227.751,-0.54050255
1425413227.766,1.8122959
1425413227.782,5.607644
1425413227.798,11.112321
1425413227.813,18.325344
1425413227.829,26.922218
1425413227.844,36.07593
1425413227.86,44.217735
1425413227.876,49.261356
1425413227.891,49.2273
1425413227.907,43.211388
1425413227.923,32.005844
1425413227.938,18.10138
1425413227.954,4.8477507
1425413227.969,-4.9206724
1425413227.985,-9.949724
1425413228.001,-10.833694
1425413228.016,-9.352619
1425413228.032,-7.410433
1425413228.048,-6.079935
1425413228.063,-5.4160137
1425413228.079,-4.9231024
1425413228.094,-4.121539
1425413228.11,-3.0760584
1425413228.126,-2.2911873
1425413228.141,-2.3633351
1425413228.157,-3.479989
1425413228.173,-5.3094606
1425413228.188,-7.1372566
1425413228.204,-8.206609
1425413228.219,-8.130411
1425413228.235,-7.03423
1425413228.251,-5.5121226
1425413228.266,-4.1900487
1425413228.282,-3.4850197
1425413228.298,-3.3851638
1425413228.313,-3.5523925
1425413228.329,-3.5800142
1425413228.344,-3.262073
1425413228.36,-2.7377772
1425413228.376,-2.3847742
1425413228.391,-2.5780153
1425413228.407,-3.4256701
1425413228.423,-4.741355
1425413228.438,-6.1003914
1425413228.454,-7.098031
1425413228.469,-7.426408
1425413228.485,-7.0311728
1425413228.501,-6.070064
1425413228.516,-4.767678
1425413228.532,-3.4545712
1425413228.548,-2.3559363
1425413228.563,-1.5966868
1425413228.579,-1.1308486
1425413228.594,-0.8138132
1425413228.61,-0.43355513
1425413228.626,0.15198898
1425413228.641,0.9233775
1425413228.657,1.7001948
1425413228.673,2.1192157
1425413228.688,1.8337486
1425413228.704,0.65227556
1425413228.72,-1.3580081
1425413228.735,-3.8052912
1425413228.751,-6.11285
1425413228.766,-7.6892695
1425413228.782,-8.131785
1425413228.798,-7.1214314
1425413228.813,-4.767524
1425413228.829,-1.5516195
1425413228.845,1.8382182
1425413228.86,4.798682
1425413228.876,6.9617863
1425413228.891,8.270652
1425413228.907,8.910022
1425413228.923,9.191803
1425413228.938,9.424201
1425413228.954,9.830957
1425413228.97,10.633963
1425413228.985,11.972564
1425413229.001,13.847267
1425413229.016,16.027979
1425413229.032,18.004108
1425413229.048,19.142847
1425413229.063,18.881834
1425413229.079,16.962494
1425413229.095,13.5352745
1425413229.11,9.132146
1425413229.126,4.412599
1425413229.141,-0.009037763
1425413229.157,-3.7808478
1425413229.173,-6.7454267
1425413229.188,-8.873689
1425413229.204,-10.088148
1425413229.22,-10.294992
1425413229.235,-9.460558
1425413229.251,-7.706982
1425413229.266,-5.379546
1425413229.282,-2.9594233
1425413229.298,-0.94458747
1425413229.313,0.28776574
1425413229.329,0.6490252
1425413229.345,0.25166392
1425413229.36,-0.6376798
1425413229.376,-1.7621946
1425413229.391,-2.9330626
1425413229.407,-4.093876
1425413229.423,-5.198594
1425413229.438,-6.135525
1425413229.454,-6.6625566
1425413229.47,-6.492105
1425413229.485,-5.3879566
1425413229.501,-3.345313
1425413229.516,-0.6362276
1425413229.532,2.2065468
1425413229.548,4.605953
1425413229.563,6.17789
1425413229.579,6.8250227
1425413229.595,6.766983
1425413229.61,6.428832
1425413229.626,6.2137365
1425413229.641,6.3923063
1425413229.657,7.020197
1425413229.673,7.954792
1425413229.688,8.965099
1425413229.704,9.831057
1425413229.72,10.426325
1425413229.735,10.759146
1425413229.751,10.955332
1425413229.766,11.256655
1425413229.782,11.924637
1425413229.798,13.154856
1425413229.813,14.904182
1425413229.829,16.847004
1425413229.845,18.337526
1425413229.86,18.562414
1425413229.876,16.748713
1425413229.891,12.553974
1425413229.907,6.211693
1425413229.923,-1.4145641
1425413229.938,-9.086285
1425413229.954,-15.563765
1425413229.97,-20.028086
1425413229.985,-22.245447
1425413230.001,-22.608063
1425413230.016,-21.80633
1425413230.032,-20.568039
1425413230.048,-19.377432
1425413230.063,-18.426174
1425413230.079,-17.70681
1425413230.095,-17.215008
1425413230.11,-17.063915
1425413230.126,-17.42731
1425413230.141,-18.349285
1425413230.157,-19.603603
1425413230.173,-20.635822
1425413230.188,-20.767056
1425413230.204,-19.428486
1425413230.22,-16.405327
1425413230.235,-11.869888
1425413230.251,-6.295067
1425413230.266,-0.20913696
1425413230.282,5.903122
1425413230.298,11.722256
1425413230.313,16.911747
1425413230.329,21.100113
1425413230.345,23.766891
1425413230.36,24.393509
1425413230.376,22.583992
1425413230.391,18.349949
1425413230.407,12.242062
1425413230.423,5.3450356
1425413230.438,-0.99066925
1425413230.454,-5.548107
1425413230.47,-7.584194
1425413230.485,-7.069664
1425413230.501,-4.597706
1425413230.516,-1.0625343
1425413230.532,2.6859322
1425413230.548,6.1310997
1425413230.563,8.995399
1425413230.579,11.179256
1425413230.595,12.576073
1425413230.61,13.085754
1425413230.626,12.779247
1425413230.641,12.050644
1425413230.657,11.5311775
1425413230.673,11.893024
1425413230.688,13.4831085
1425413230.704,16.052105
1425413230.72,18.808323
1425413230.735,20.65942
1425413230.751,20.675259
1425413230.766,18.422401
1425413230.782,14.111244
1425413230.798,8.422581
1425413230.813,2.183258
1425413230.829,-3.9288635
1425413230.845,-9.58041
1425413230.86,-14.691933
1425413230.876,-19.292278
1425413230.891,-23.347614
1425413230.907,-26.719372
1425413230.923,-29.204796
1425413230.938,-30.67944
1425413230.954,-31.192917
1425413230.97,-30.974861
1425413230.985,-30.31171
1425413231.001,-29.450096
1425413231.016,-28.485447
1425413231.032,-27.384155
1425413231.048,-26.086273
1425413231.063,-24.645443
1425413231.079,-23.255917
1425413231.095,-22.22176
1425413231.11,-21.808311
1425413231.126,-22.080936
1425413231.141,-22.867138
1425413231.157,-23.893917
1425413231.173,-24.946362
1425413231.188,-26.032333
1425413231.204,-27.338696
1425413231.22,-28.999542
1425413231.235,-30.808815
1425413231.251,-32.137703
1425413231.266,-32.093594
1425413231.282,-29.814457
1425413231.298,-24.847733
1425413231.313,-17.270374
1425413231.329,-7.5214005
1425413231.345,3.878765
1425413231.36,16.43866
1425413231.376,29.57212
1425413231.392,42.332962
1425413231.407,53.28341
1425413231.423,60.725296
1425413231.438,63.279255
1425413231.454,60.54914
1425413231.47,53.417366
1425413231.485,43.81118
1425413231.501,33.981087
1425413231.516,25.709587
1425413231.532,19.826584
1425413231.548,16.278542
1425413231.563,14.542084
1425413231.579,14.118629
1425413231.595,14.768803
1425413231.61,16.40255
1425413231.626,18.839119
1425413231.642,21.658207
1425413231.657,24.303265
1425413231.673,26.348133
1425413231.688,27.74215
1425413231.704,28.80407
1425413231.72,29.967838
1425413231.735,31.452988
1425413231.751,33.03908
1425413231.767,34.14564
1425413231.782,34.09901
1425413231.798,32.54694
1425413231.813,29.641678
1425413231.829,26.040012
1425413231.845,22.592873
1425413231.86,20.10952
1425413231.876,19.053696
1425413231.892,19.456543
1425413231.907,20.976723
1425413231.923,23.01052
1425413231.938,24.870949
1425413231.954,25.914833
1425413231.97,25.660614
1425413231.985,23.838203
1425413232.001,20.403587
1425413232.017,15.497719
1425413232.032,9.476547
1425413232.048,2.8624573
1425413232.063,-3.682541
1425413232.079,-9.396492
1425413232.095,-13.628319
1425413232.11,-16.027985
1425413232.126,-16.715752
1425413232.142,-16.238716
1425413232.157,-15.389069
1425413232.173,-14.871574
1425413232.188,-15.021179
1425413232.204,-15.688034
1425413232.22,-16.348495
1425413232.235,-16.401917
1425413232.251,-15.434616
1425413232.267,-13.362381
1425413232.282,-10.458191
1425413232.298,-7.1842957
1425413232.313,-4.078827
1425413232.329,-1.6007233
1425413232.345,-0.16636658
1425413232.36,-0.10179138
1425413232.376,-1.620163
1425413232.392,-4.716797
1425413232.407,-9.088852
1425413232.423,-14.056366
1425413232.438,-18.72258
1425413232.454,-22.181946
1425413232.47,-23.876602
1425413232.485,-23.770905
1425413232.501,-22.401367
1425413232.517,-20.622574
1425413232.532,-19.206696
1425413232.548,-18.430634
1425413232.563,-17.962234
1425413232.579,-16.989914
1425413232.595,-14.700531
1425413232.61,-10.820328
1425413232.626,-5.8716736
1425413232.642,-1.0920105
1425413232.657,2.012848
1425413232.673,2.2850037
1425413232.688,-0.6754303
1425413232.704,-6.409912
1425413232.72,-13.89444
1425413232.735,-21.98703
1425413232.751,-29.800064
1425413232.767,-36.771698
1425413232.782,-42.543915
1425413232.798,-46.751328
1425413232.813,-48.991913
1425413232.829,-48.943756
1425413232.845,-46.71945
1425413232.86,-42.962967
1425413232.876,-38.879562
1425413232.892,-35.945587
1425413232.907,-35.485413
1425413232.923,-38.29413
1425413232.938,-44.421616
1425413232.954,-53.265762
1425413232.97,-63.792313
1425413232.985,-74.91643
1425413233.001,-85.874435
1425413233.017,-96.40254
1425413233.032,-106.74187
1425413233.048,-117.406815
1425413233.063,-128.85774
1425413233.079,-141.24152
1425413233.095,-154.28378
1425413233.11,-167.46213
1425413233.126,-180.33957
1425413233.142,-192.80264
1425413233.157,-205.1117
1425413233.173,-217.63525
1425413233.188,-230.5143
1425413233.204,-243.34233
1425413233.22,-255.12985
1425413233.235,-264.61353
1425413233.251,-270.6968
1425413233.267,-272.79202
1425413233.282,-270.86578
1425413233.298,-265.19925
1425413233.313,-256.0573
1425413233.329,-243.48312
1425413233.345,-227.41818
1425413233.36,-207.86841
1425413233.376,-185.17435
1425413233.392,-160.03047
1425413233.407,-133.34561
1425413233.423,-106.039276
1425413233.438,-78.84564
1425413233.454,-52.331024
1425413233.47,-26.848633
1425413233.485,-2.6210022
1425413233.501,20.423706
1425413233.517,42.722595
1425413233.532,65.10156
1425413233.548,88.677
1425413233.563,114.70364
1425413233.579,144.27649
1425413233.595,178.0769
1425413233.61,215.93527
1425413233.626,256.32495
1425413233.642,296.1912
1425413233.657,331.32397
1425413233.673,357.37048
1425413233.688,371.24445
1425413233.704,372.18964
1425413233.72,362.06848
1425413233.735,344.52466
1425413233.751,323.42426
1425413233.767,301.31885
1425413233.782,278.87085
1425413233.798,255.2016
1425413233.813,229.13324
1425413233.829,200.29901
1425413233.845,169.6637
1425413233.86,139.10919
1425413233.876,110.588745
1425413233.892,85.39197
1425413233.907,63.80298
1425413233.923,45.59723
1425413233.938,30.732178
1425413233.954,19.946594
1425413233.97,14.926819
1425413233.985,17.573181
1425413234.001,28.776794
1425413234.017,47.431824
1425413234.032,70.16113
1425413234.048,92.20825
1425413234.064,109.11926
1425413234.079,118.381714
1425413234.095,120.18402
1425413234.11,116.9162
1425413234.126,111.677246
1425413234.142,106.74158
1425413234.157,102.84424
1425413234.173,99.5285
1425413234.188,96.12726
1425413234.204,92.63904
1425413234.22,89.858154
1425413234.235,88.84418
1425413234.251,90.26489
1425413234.267,93.977295
1425413234.282,99.19464
1425413234.298,104.930115
1425413234.314,110.37659
1425413234.329,114.96155
1425413234.345,118.41571
1425413234.36,120.74896
1425413234.376,122.36841
1425413234.392,124.0542
1425413234.407,126.566956
1425413234.423,130.09125
1425413234.439,133.80682
1425413234.454,135.89734
1425413234.47,134.19177
1425413234.485,127.11542
1425413234.501,114.17175
1425413234.517,95.92914
1425413234.532,73.43616
1425413234.548,47.779297
1425413234.564,19.995178
1425413234.579,-8.496033
1425413234.595,-35.5661
1425413234.61,-58.450256
1425413234.626,-74.56085
1425413234.642,-82.58133
1425413234.657,-83.201935
1425413234.673,-78.95404
1425413234.689,-73.24872
1425413234.704,-68.97629
1425413234.72,-67.51062
1425413234.735,-68.51907
1425413234.751,-70.56412
1425413234.767,-72.063995
1425413234.782,-72.138855
1425413234.798,-70.81897
1425413234.814,-68.73981
1425413234.829,-66.55795
1425413234.845,-64.50641
1425413234.86,-62.31552
1425413234.876,-59.59967
1425413234.892,-56.29361
1425413234.907,-52.91504
1425413234.923,-50.38205
1425413234.939,-49.46222
1425413234.954,-50.301453
1425413234.97,-52.266876
1425413234.985,-54.45584
1425413235.001,-56.337234
1425413235.017,-58.261307
1425413235.032,-61.237762
1425413235.048,-66.11435
1425413235.064,-72.600006
1425413235.079,-78.81418
1425413235.095,-81.89717
1425413235.11,-79.27298
1425413235.126,-70.095276
1425413235.142,-55.78894
1425413235.157,-39.621094
1425413235.173,-25.224503
1425413235.189,-15.132965
1425413235.204,-9.897247
1425413235.22,-8.2704315
1425413235.235,-8.211121
1425413235.251,-8.054749
1425413235.267,-7.2638855
1425413235.282,-6.3980026
1425413235.298,-6.5205154
1425413235.314,-8.35424
1425413235.329,-11.795219
1425413235.345,-15.985146
1425413235.36,-19.792992
1425413235.376,-22.429428
1425413235.392,-23.831818
1425413235.407,-24.55297
1425413235.423,-25.248741
1425413235.439,-26.177757
1425413235.454,-26.894646
1425413235.47,-26.454338
1425413235.485,-23.952518
1425413235.501,-19.108932
1425413235.517,-12.524601
1425413235.532,-5.510235
1425413235.548,0.48688507
1425413235.564,4.4579964
1425413235.579,6.223423
1425413235.595,6.4298954
1425413235.61,6.2241325
1425413235.626,6.7622356
1425413235.642,8.838843
1425413235.657,12.63023
1425413235.673,17.67481
1425413235.689,23.032578
1425413235.704,27.537561
1425413235.72,30.097496
1425413235.735,29.935532
1425413235.751,26.769403
1425413235.767,20.90384
1425413235.782,13.183523
1425413235.798,4.7571526
1425413235.814,-3.1779232
1425413235.829,-9.703842
1425413235.845,-14.428497
1425413235.86,-17.560284
1425413235.876,-19.734291
1425413235.892,-21.698574
1425413235.907,-24.085674
1425413235.923,-27.172897
1425413235.939,-30.9137
1425413235.954,-35.100758
1425413235.97,-39.492966
1425413235.985,-43.89244
1425413236.001,-48.076157
1425413236.017,-51.69819
1425413236.032,-54.24862
1425413236.048,-55.16851
1425413236.064,-54.09314
1425413236.079,-51.08574
1425413236.095,-46.698494
1425413236.11,-41.810448
1425413236.126,-37.284927
1425413236.142,-33.6147
1425413236.157,-30.80745
1425413236.173,-28.455223
1425413236.189,-26.126167
1425413236.204,-23.618813
1425413236.22,-21.086357
1425413236.235,-18.89959
1425413236.251,-17.363678
1425413236.267,-16.500908
1425413236.282,-15.987785
1425413236.298,-15.3368
1425413236.314,-14.162872
1425413236.329,-12.355591
1425413236.345,-10.07386
1425413236.36,-7.6208954
1425413236.376,-5.2442474
1425413236.392,-2.9906693
1425413236.407,-0.7456436
1425413236.423,1.6948776
1425413236.439,4.468071
1425413236.454,7.6446686
1425413236.47,11.195221
1425413236.485,15.060097
1425413236.501,19.173248
1425413236.517,23.404198
1425413236.532,27.50666
1425413236.548,31.04795
1425413236.564,33.451256
1425413236.579,34.16378
1425413236.595,32.826523
1425413236.61,29.419785
1425413236.626,24.306458
1425413236.642,18.131836
1425413236.657,11.603714
1425413236.673,5.3439636
1425413236.689,-0.26808167
1425413236.704,-5.088379
1425413236.72,-9.130981
1425413236.735,-12.404892
1425413236.751,-14.910339
1425413236.767,-16.600845
1425413236.782,-17.507538
1425413236.798,-17.805328
1425413236.814,-17.827286
1425413236.829,-17.942947
1425413236.845,-18.407104
1425413236.86,-19.20575
1425413236.876,-20.108948
1425413236.892,-20.75084
1425413236.907,-20.863403
1425413236.923,-20.359436
1425413236.939,-19.401047
1425413236.954,-18.206894
1425413236.97,-16.910202
1425413236.986,-15.499313
1425413237.001,-13.822647
1425413237.017,-11.766876
1425413237.032,-9.382751
1425413237.048,-6.9285736
1425413237.064,-4.7658844
1425413237.079,-3.1821136
1425413237.095,-2.2370605
1425413237.111,-1.7122803
1425413237.126,-1.2526245
1425413237.142,-0.49305725
1425413237.157,0.7829895
1425413237.173,2.6189728
1425413237.189,4.887863
1425413237.204,7.4628754
1425413237.22,10.208939
1425413237.236,13.038681
1425413237.251,15.829666
1425413237.267,18.430527
1425413237.282,20.718414
1425413237.298,22.685913
1425413237.314,24.495636
1425413237.329,26.392624
1425413237.345,28.513474
1425413237.361,30.753769
1425413237.376,32.680557
1425413237.392,33.64267
1425413237.407,33.069504
1425413237.423,30.71811
1425413237.439,26.806656
1425413237.454,21.92926
1425413237.47,16.785751
1425413237.486,11.936966
1425413237.501,7.617157
1425413237.517,3.807312
1425413237.532,0.35923767
1425413237.548,-2.8458557
1425413237.564,-5.827072
1425413237.579,-8.503311
1425413237.595,-10.802063
1425413237.611,-12.697708
1425413237.626,-14.239639
1425413237.642,-15.538742
1425413237.657,-16.754547
1425413237.673,-18.006393
1425413237.689,-19.33583
1425413237.704,-20.679337
1425413237.72,-21.887894
1425413237.736,-22.750061
1425413237.751,-23.13266
1425413237.767,-23.017685
1425413237.782,-22.534393
1425413237.798,-21.84166
1425413237.814,-21.031113
1425413237.829,-20.061356
1425413237.845,-18.85051
1425413237.861,-17.337708
1425413237.876,-15.617676
1425413237.892,-13.93251
1425413237.907,-12.518784
1425413237.923,-11.467606
1425413237.939,-10.67926
1425413237.954,-9.875885
1425413237.97,-8.780487
1425413237.986,-7.2757874
1425413238.001,-5.4740753
1425413238.017,-3.6173706
1425413238.032,-1.9569397
1425413238.048,-0.55255127
1425413238.064,0.7521057
1425413238.079,2.3183136
1425413238.095,4.525406
1425413238.111,7.655426
1425413238.126,11.711578
1425413238.142,16.389679
1425413238.157,21.101501
1425413238.173,25.118118
1425413238.189,27.791748
1425413238.204,28.680176
1425413238.22,27.683197
1425413238.236,24.97609
1425413238.251,20.893814
1425413238.267,15.877808
1425413238.282,10.392792
1425413238.298,4.9213867
1425413238.314,-0.06977844
1425413238.329,-4.1754
1425413238.345,-7.14151
1425413238.361,-8.950012
1425413238.376,-9.81308
1425413238.392,-10.058701
1425413238.407,-10.102234
1425413238.423,-10.272903
1425413238.439,-10.810028
1425413238.454,-11.791473
1425413238.47,-13.145905
1425413238.486,-14.6124115
1425413238.501,-15.833771
1425413238.517,-16.385712
1425413238.532,-15.942184
1425413238.548,-14.390335
1425413238.564,-11.916504
1425413238.579,-8.927887
1425413238.595,-5.985092
1425413238.611,-3.5346527
1425413238.626,-1.8482819
1425413238.642,-0.94355774
1425413238.657,-0.69062805
1425413238.673,-0.9133148
1425413238.689,-1.4568329
1425413238.704,-2.2474823
1425413238.72,-3.2021484
1425413238.736,-4.196457
1425413238.751,-5.022522
1425413238.767,-5.47348
1425413238.782,-5.435623
1425413238.798,-4.946594
1425413238.814,-4.2328796
1425413238.829,-3.6345978
1425413238.845,-3.4289093
1425413238.861,-3.6987305
1425413238.876,-4.3079376
1425413238.892,-4.8597717
1425413238.907,-4.928711
1425413238.923,-4.1278076
1425413238.939,-2.27359
1425413238.954,0.54719543
1425413238.97,3.9309082
1425413238.986,7.1931763
1425413239.001,9.5327
1425413239.017,10.236511
1425413239.032,8.941879
1425413239.048,5.783905
1425413239.064,1.3808746
1425413239.079,-3.3964386
1425413239.095,-7.7779846
1425413239.111,-11.317047
1425413239.126,-13.979034
1425413239.142,-15.987549
1425413239.157,-17.56427
1425413239.173,-18.783981
1425413239.189,-19.531525
1425413239.204,-19.678986
1425413239.22,-19.25496
1425413239.236,-18.455551
1425413239.251,-17.600342
1425413239.267,-16.949234
1425413239.282,-16.683487
1425413239.298,-16.894043
1425413239.314,-17.609863
1425413239.329,-18.785355
1425413239.345,-20.193253
1425413239.361,-21.337067
1425413239.376,-21.496628
1425413239.392,-19.888123
1425413239.407,-16.017502
1425413239.423,-9.909714
1425413239.439,-2.1295166
1425413239.454,6.328186
1425413239.47,14.383835
1425413239.486,21.078857
1425413239.501,25.71138
1425413239.517,27.813065
1425413239.532,27.138428
1425413239.548,23.734665
1425413239.564,18.0074
1425413239.579,10.828186
1425413239.595,3.4472504
1425413239.611,-2.7331696
1425413239.626,-6.548706
1425413239.642,-7.3982697
1425413239.658,-5.3927765
1425413239.673,-1.3067474
1425413239.689,3.7704163
1425413239.704,8.784805
1425413239.72,13.027634
1425413239.736,16.231628
1425413239.751,18.492157
1425413239.767,20.110336
1425413239.783,21.408508
1425413239.798,22.663177
1425413239.814,24.086105
1425413239.829,25.799362
1425413239.845,27.804428
1425413239.861,29.915573
1425413239.876,31.728317
1425413239.892,32.688416
1425413239.908,32.246338
1425413239.923,30.044098
1425413239.939,25.995636
1425413239.954,20.326828
1425413239.97,13.518555
1425413239.986,6.227249
1425413240.001,-0.7803955
1425413240.017,-6.6750183
1425413240.033,-10.828125
1425413240.048,-13.022568
1425413240.064,-13.673264
1425413240.079,-13.813843
1425413240.095,-14.807129
1425413240.111,-17.792633
1425413240.126,-23.233215
1425413240.142,-30.755005
1425413240.158,-39.36702
1425413240.173,-47.965927
1425413240.189,-55.797424
1425413240.204,-62.60849
1425413240.22,-68.54158
1425413240.236,-73.80563
1425413240.251,-78.46956
1425413240.267,-82.49263
1425413240.283,-85.95001
1425413240.298,-89.14079
1425413240.314,-92.58053
1425413240.329,-96.69731
1425413240.345,-101.53696
1425413240.361,-106.62745
1425413240.376,-111.09556
1425413240.392,-113.94956
1425413240.408,-114.34875
1425413240.423,-111.68165
1425413240.439,-105.60169
1425413240.454,-95.96407
1425413240.47,-82.871826
1425413240.486,-66.801956
1425413240.501,-48.82952
1425413240.517,-30.436966
1425413240.533,-13.245487
1425413240.548,1.625988
1425413240.564,14.025066
1425413240.579,24.896053
1425413240.595,35.838593
1425413240.611,48.249752
1425413240.626,62.487595
1425413240.642,77.44554
1425413240.658,90.85037
1425413240.673,100.16864
1425413240.689,103.64424
1425413240.704,101.03446
1425413240.72,93.59883
1425413240.736,83.39362
1425413240.751,72.34626
1425413240.767,61.602478
1425413240.783,51.406906
1425413240.798,41.68156
1425413240.814,32.6441
1425413240.829,25.172207
1425413240.845,20.619404
1425413240.861,20.148571
1425413240.876,24.08641
1425413240.892,31.598827
1425413240.908,40.882614
1425413240.923,49.77269
1425413240.939,56.412437
1425413240.954,59.791107
1425413240.97,59.8395
1425413240.986,57.298393
1425413241.001,53.308914
1425413241.017,49.032593
1425413241.033,45.303642
1425413241.048,42.519585
1425413241.064,40.664703
1425413241.079,39.522705
1425413241.095,38.835846
1425413241.111,38.376976
1425413241.126,37.891968
1425413241.142,37.007477
1425413241.158,35.303917
1425413241.173,32.50605
1425413241.189,28.800392
1425413241.204,24.843338
1425413241.22,21.554573
1425413241.236,19.673386
1425413241.251,19.36319
1425413241.267,20.260773
1425413241.283,21.766289
1425413241.298,23.53009
1425413241.314,25.515205
1425413241.329,27.87146
1425413241.345,30.471436
1425413241.361,32.732063
1425413241.376,33.82794
1425413241.392,33.248398
1425413241.408,31.261925
1425413241.423,28.917252
1425413241.439,27.442833
1425413241.454,27.54847
1425413241.47,28.971802
1425413241.486,30.654564
1425413241.501,31.365334
1425413241.517,30.428383
1425413241.533,27.992668
1425413241.548,24.812828
1425413241.564,21.633385
1425413241.579,18.70816
1425413241.595,15.655594
1425413241.611,11.781815
1425413241.626,6.570923
1425413241.642,0.08709717
1425413241.658,-7.0294952
1425413241.673,-13.807266
1425413241.689,-19.333656
1425413241.704,-23.085556
1425413241.72,-25.08606
1425413241.736,-25.792068
1425413241.751,-25.928055
1425413241.767,-26.165512
1425413241.783,-26.951485
1425413241.798,-28.349861
1425413241.814,-30.139355
1425413241.829,-31.81839
1425413241.845,-32.804043
1425413241.861,-32.511547
1425413241.876,-30.510735
1425413241.892,-26.62194
1425413241.908,-21.133091
1425413241.923,-14.768913
1425413241.939,-8.670227
1425413241.954,-4.1043434
1425413241.97,-2.0623703
1425413241.986,-2.9453316
1425413242.001,-6.390192
1425413242.017,-11.344578
1425413242.033,-16.456165
1425413242.048,-20.469578
1425413242.064,-22.616823
1425413242.079,-22.733362
1425413242.095,-21.141884
1425413242.111,-18.406652
1425413242.126,-15.083441
1425413242.142,-11.604038
1425413242.158,-8.243297
1425413242.173,-5.2234793
1425413242.189,-2.7456493
1425413242.204,-0.92307377
1425413242.22,0.31880474
1425413242.236,1.3322649
1425413242.251,2.6689758
1425413242.267,4.8982997
1425413242.283,8.299356
1425413242.298,12.798937
1425413242.314,17.943924
1425413242.33,23.166208
1425413242.345,27.887318
1425413242.361,31.629871
1425413242.376,33.884426
1425413242.392,34.119537
1425413242.408,31.910395
1425413242.423,27.18322
1425413242.439,20.451862
1425413242.454,12.7659855
1425413242.47,5.3884487
1425413242.486,-0.6833353
1425413242.501,-5.05326
1425413242.517,-7.930868
1425413242.533,-9.849405
1425413242.548,-11.17786
1425413242.564,-11.936321
1425413242.58,-11.907646
1425413242.595,-11.006432
1425413242.611,-9.593454
1425413242.626,-8.45528
1425413242.642,-8.3683815
1425413242.658,-9.605852
1425413242.673,-11.68413
1425413242.689,-13.571644
1425413242.705,-14.252819
1425413242.72,-13.328487
1425413242.736,-11.208824
1425413242.751,-8.886276
1425413242.767,-7.321846
1425413242.783,-6.953354
1425413242.798,-7.510086
1425413242.814,-8.320854
1425413242.83,-8.754498
1425413242.845,-8.646065
1425413242.861,-8.238018
1425413242.876,-7.97147
1425413242.892,-8.078358
1425413242.908,-8.406612
1425413242.923,-8.477707
1425413242.939,-7.7905273
1425413242.955,-6.0797234
1425413242.97,-3.465191
1425413242.986,-0.38201523
1425413243.001,2.6216202
1425413243.017,5.179535
1425413243.033,7.261635
1425413243.048,9.217815
1425413243.064,11.555511
1425413243.08,14.638752
1425413243.095,18.432167
1425413243.111,22.439476
1425413243.126,25.861061
1425413243.142,28.023117
1425413243.158,28.693466
1425413243.173,28.180176
1425413243.189,27.15522
1425413243.205,26.282547
1425413243.22,25.854446
1425413243.236,25.711624
1425413243.251,25.43077
1425413243.267,24.618965
1425413243.283,23.084091
1425413243.298,20.892075
1425413243.314,18.136932
1425413243.33,14.839081
1425413243.345,10.924965
1425413243.361,6.390373
1425413243.376,1.492363
1425413243.392,-3.244316
1425413243.408,-7.1813583
1425413243.423,-9.856064
1425413243.439,-11.1886215
1425413243.455,-11.458542
1425413243.47,-11.173073
1425413243.486,-10.759514
1425413243.501,-10.419807
1425413243.517,-10.121895
1425413243.533,-9.7569275
1425413243.548,-9.283104
1425413243.564,-8.824013
1425413243.58,-8.651161
1425413243.595,-9.088577
1425413243.611,-10.364441
1425413243.626,-12.559219
1425413243.642,-15.461105
1425413243.658,-18.648651
1425413243.673,-21.519623
1425413243.689,-23.487595
1425413243.705,-24.18599
1425413243.72,-23.648224
1425413243.736,-22.326706
1425413243.751,-20.942093
1425413243.767,-20.148376
1425413243.783,-20.248657
1425413243.798,-20.952972
1425413243.814,-21.54892
1425413243.83,-21.216263
1425413243.845,-19.45543
1425413243.861,-16.354294
1425413243.876,-12.572815
1425413243.892,-9.050598
1425413243.908,-6.587723
1425413243.923,-5.5143585
1425413243.939,-5.637909
1425413243.955,-6.3348236
1425413243.97,-6.809082
1425413243.986,-6.3838806
1425413244.001,-4.693268
1425413244.017,-1.7894745
1425413244.033,1.8428497
1425413244.048,5.412567
1425413244.064,7.935959
1425413244.08,8.586594
1425413244.095,6.8881073
1425413244.111,2.9180145
1425413244.126,-2.7500305
1425413244.142,-9.192627
1425413244.158,-15.512192
1425413244.173,-21.087448
1425413244.189,-25.690063
1425413244.205,-29.349014
1425413244.22,-32.103317
1425413244.236,-33.798904
1425413244.251,-34.0748
1425413244.267,-32.642517
1425413244.283,-29.617554
1425413244.298,-25.71811
1425413244.314,-22.073639
1425413244.33,-19.775635
1425413244.345,-19.312668
1425413244.361,-20.256912
1425413244.376,-21.497787
1425413244.392,-21.769257
1425413244.408,-20.340942
1425413244.423,-17.313766
1425413244.439,-13.496338
1425413244.455,-9.934143
1425413244.47,-7.3706512
1425413244.486,-5.963745
1425413244.501,-5.3825684
1425413244.517,-5.021698
1425413244.533,-4.354599
1425413244.548,-3.0586395
1425413244.564,-1.1198883
1425413244.58,1.2940674
1425413244.595,3.8948517
1425413244.611,6.407074
1425413244.626,8.646881
1425413244.642,10.533325
1425413244.658,12.072144
1425413244.673,13.294556
1425413244.689,14.18544
1425413244.705,14.7491
1425413244.72,15.061615
1425413244.736,15.387146
1425413244.751,16.11583
1425413244.767,17.639923
1425413244.783,20.104385
1425413244.798,23.348404
1425413244.814,26.912567
1425413244.83,30.211212
1425413244.845,32.732132
1425413244.861,34.17639
1425413244.876,34.432846
1425413244.892,33.558044
1425413244.908,31.642761
1425413244.923,28.80075
1425413244.939,25.156403
1425413244.955,20.851913
1425413244.97,16.009445
1425413244.986,10.813599
1425413245.002,5.4834747
1425413245.017,0.31617737
1425413245.033,-4.360489
1425413245.048,-8.238037
1425413245.064,-11.168106
1425413245.08,-13.200287
1425413245.095,-14.596481
1425413245.111,-15.660538
1425413245.126,-16.598755
1425413245.142,-17.43489
1425413245.158,-18.034683
1425413245.173,-18.239456
1425413245.189,-18.031662
1425413245.205,-17.607224
1425413245.22,-17.317276
1425413245.236,-17.453873
1425413245.252,-18.073212
1425413245.267,-18.875427
1425413245.283,-19.333572
1425413245.298,-18.926758
1425413245.314,-17.413956
1425413245.33,-14.992538
1425413245.345,-12.276337
1425413245.361,-10.0659485
1425413245.377,-9.057297
1425413245.392,-9.535286
1425413245.408,-11.25901
1425413245.423,-13.528992
1425413245.439,-15.473038
1425413245.455,-16.368095
1425413245.47,-15.946449
1425413245.486,-14.443314
1425413245.502,-12.409973
1425413245.517,-10.3461685
1425413245.533,-8.469513
1425413245.548,-6.5659103
1425413245.564,-4.272644
1425413245.58,-1.3060989
1425413245.595,2.2696228
1425413245.611,6.09182
1425413245.627,9.730438
1425413245.642,12.909889
1425413245.658,15.573547
1425413245.673,17.748322
1425413245.689,19.332184
1425413245.705,20.007248
1425413245.72,19.401848
1425413245.736,17.306068
1425413245.752,13.866867
1425413245.767,9.543671
1425413245.783,4.8643875
1425413245.798,0.19693756
1425413245.814,-4.367378
1425413245.83,-8.894379
1425413245.845,-13.441849
1425413245.861,-17.890503
1425413245.877,-21.953918
1425413245.892,-25.30635
1425413245.908,-27.732079
1425413245.923,-29.140022
1425413245.939,-29.531342
1425413245.955,-28.822586
1425413245.97,-26.833466
1425413245.986,-23.336731
1425413246.002,-18.257103
1425413246.017,-11.911293
1425413246.033,-5.0578766
1425413246.048,1.2334671
1425413246.064,5.9035263
1425413246.08,8.323235
1425413246.095,8.522549
1425413246.111,7.1306686
1425413246.127,5.1078873
1425413246.142,3.2941475
1425413246.158,2.1079788
1425413246.173,1.5400124
1425413246.189,1.3606377
1425413246.205,1.427639
1425413246.22,1.8155861
1425413246.236,2.7974892
1425413246.252,4.571041
1425413246.267,7.0969505
1425413246.283,10.042545
1425413246.298,12.997902
1425413246.314,15.741127
1425413246.33,18.399307
1425413246.345,21.320133
1425413246.361,24.888588
1425413246.377,29.281914
1425413246.392,34.47059
1425413246.408,40.34728
1425413246.423,46.896626
1425413246.439,54.116554
1425413246.455,61.841747
1425413246.47,69.44265
1425413246.486,75.85159
1425413246.502,79.82564
1425413246.517,80.46972
1425413246.533,77.68424
1425413246.548,72.27602
1425413246.564,65.62193
1425413246.58,59.079
1425413246.595,53.454865
1425413246.611,48.831127
1425413246.627,44.70113
1425413246.642,40.433323
1425413246.658,35.64449
1425413246.673,30.384491
1425413246.689,25.034264
1425413246.705,20.064213
1425413246.72,15.724846
1425413246.736,11.892464
1425413246.752,8.076561
1425413246.767,3.644081
1425413246.783,-1.8822784
1425413246.798,-8.623482
1425413246.814,-16.27208
1425413246.83,-24.21733
1425413246.845,-31.708534
1425413246.861,-38.00081
1425413246.877,-42.530846
1425413246.892,-44.897263
1425413246.908,-44.97843
1425413246.923,-43.026955
1425413246.939,-39.69655
1425413246.955,-35.8898
1425413246.97,-32.545715
1425413246.986,-30.204979
1425413247.002,-28.846855
1425413247.017,-27.946617
1425413247.033,-26.836235
1425413247.048,-25.114296
1425413247.064,-22.856445
1425413247.08,-20.493225
1425413247.095,-18.394974
1425413247.111,-16.545555
1425413247.127,-14.457817
1425413247.142,-11.460602
1425413247.158,-7.1630096
1425413247.173,-1.7870483
1425413247.189,3.7908936
1425413247.205,8.410477
1425413247.22,11.097946
1425413247.236,11.491577
1425413247.252,9.861664
1425413247.267,6.926117
1425413247.283,3.4398499
1425413247.298,-0.06636047
1425413247.314,-3.3834534
1425413247.33,-6.4835052
1425413247.345,-9.381393
1425413247.361,-11.965973
1425413247.377,-14.028259
1425413247.392,-15.372635
1425413247.408,-15.898621
1425413247.423,-15.663925
1425413247.439,-14.8216095
1425413247.455,-13.596741
1425413247.47,-12.233002
1425413247.486,-10.989197
1425413247.502,-10.174515
1425413247.517,-9.990341
1425413247.533,-10.5195465
1425413247.548,-11.545746
1425413247.564,-12.616043
1425413247.58,-13.250641
1425413247.595,-13.150604
1425413247.611,-12.436569
1425413247.627,-11.547348
1425413247.642,-11.005157
1425413247.658,-11.047058
1425413247.673,-11.480286
1425413247.689,-11.797028
1425413247.705,-11.501724
1425413247.72,-10.428864
1425413247.736,-8.838562
1425413247.752,-7.215317
1425413247.767,-5.897171
1425413247.783,-4.887802
1425413247.798,-3.824768
1425413247.814,-2.310135
1425413247.83,-0.19778442
1425413247.845,2.2251434
1425413247.861,4.4039764
1425413247.877,5.866028
1425413247.892,6.5731506
1425413247.908,7.009964
1425413247.924,7.9531403
1425413247.939,10.082672
1425413247.955,13.548904
1425413247.97,17.85884
1425413247.986,22.07135
1425413248.002,25.1409
1425413248.017,26.35852
1425413248.033,25.536804
1425413248.049,22.987747
1425413248.064,19.234985
1425413248.08,14.796265
1425413248.095,9.9934845
1425413248.111,5.081772
1425413248.127,0.39994812
1425413248.142,-3.6066895
1425413248.158,-6.4450226
1425413248.174,-7.9013824
1425413248.189,-8.227585
1425413248.205,-8.158844
1425413248.22,-8.572845
1425413248.236,-10.045151
1425413248.252,-12.509796
1425413248.267,-15.301895
1425413248.283,-17.564224
1425413248.299,-18.741058
1425413248.314,-18.884003
1425413248.33,-18.52098
1425413248.345,-18.305695
1425413248.361,-18.455124
1425413248.377,-18.685791
1425413248.392,-18.388031
1425413248.408,-17.119904
1425413248.424,-14.870972
1425413248.439,-12.098434
1425413248.455,-9.409439
1425413248.47,-7.158783
1425413248.486,-5.3055725
1425413248.502,-3.5307922
1425413248.517,-1.5824738
1425413248.533,0.44844055
1425413248.549,2.2008362
1425413248.564,3.2926636
1425413248.58,3.6632538
1425413248.595,3.6890564
1425413248.611,3.9837952
1425413248.627,5.026062
1425413248.642,6.865921
1425413248.658,9.154251
1425413248.674,11.423798
1425413248.689,13.425674
1425413248.705,15.318192
1425413248.72,17.489456
1425413248.736,20.274887
1425413248.752,23.66063
1425413248.767,27.26155
1425413248.783,30.478088
1425413248.799,32.770615
1425413248.814,33.797653
1425413248.83,33.468872
1425413248.845,31.776413
1425413248.861,28.80745
1425413248.877,24.734741
1425413248.892,19.918228
1425413248.908,14.862946
1425413248.924,10.12706
1425413248.939,6.140793
1425413248.955,3.074356
1425413248.97,0.84661865
1425413248.986,-0.73602295
1425413249.002,-1.8638153
1425413249.017,-2.6722717
1425413249.033,-3.2751465
1425413249.049,-3.8118591
1425413249.064,-4.478943
1425413249.08,-5.4389343
1425413249.095,-6.7522736
1425413249.111,-8.297241
1425413249.127,-9.814362
1425413249.142,-10.963058
1425413249.158,-11.491745
1425413249.174,-11.303558
1425413249.189,-10.495529
1425413249.205,-9.367035
1425413249.22,-8.303116
1425413249.236,-7.6564484
1425413249.252,-7.6113434
1425413249.267,-8.078934
1425413249.283,-8.751404
1425413249.299,-9.269852
1425413249.314,-9.404221
1425413249.33,-9.150375
1425413249.345,-8.716248
1425413249.361,-8.264557
1425413249.377,-7.7914124
1425413249.392,-7.0594025
1425413249.408,-5.7555084
1425413249.424,-3.7323608
1425413249.439,-1.1827545
1425413249.455,1.4050446
1425413249.47,3.4606934
1425413249.486,4.6387177
1425413249.502,5.024124
1425413249.517,5.0975494
1425413249.533,5.5497284
1425413249.549,7.0377197
1425413249.564,9.90979
1425413249.58,14.103439
1425413249.595,19.064697
1425413249.611,23.853561
1425413249.627,27.323792
1425413249.642,28.416306
1425413249.658,26.496857
1425413249.674,21.5652
1425413249.689,14.275864
1425413249.705,5.750458
1425413249.72,-2.79953
1425413249.736,-10.409805
1425413249.752,-16.546371
1425413249.767,-21.092117
1425413249.783,-24.158539
1425413249.799,-25.94223
1425413249.814,-26.618896
1425413249.83,-26.403748
1425413249.845,-25.587341
1425413249.861,-24.56871
1425413249.877,-23.75264
1425413249.892,-23.390915
1425413249.908,-23.504364
1425413249.924,-23.868134
1425413249.939,-24.146866
1425413249.955,-24.080643
1425413249.97,-23.614685
1425413249.986,-22.915573
1425413250.002,-22.224518
1425413250.017,-21.687653
1425413250.033,-21.252579
1425413250.049,-20.704102
1425413250.064,-19.840912
1425413250.08,-18.673752
1425413250.095,-17.409302
1425413250.111,-16.382462
1425413250.127,-15.802032
1425413250.142,-15.617722
1425413250.158,-15.471802
1425413250.174,-14.871841
1425413250.189,-13.427826
1425413250.205,-11.074417
1425413250.22,-8.063507
1425413250.236,-4.8495026
1425413250.252,-1.8642731
1425413250.267,0.60113525
1425413250.283,2.4756775
1425413250.299,3.8205261
1425413250.314,4.8091583
1425413250.33,5.665634
1425413250.345,6.7139893
1425413250.361,8.303253
1425413250.377,10.740112
1425413250.392,14.157654
1425413250.408,18.392792
1425413250.424,22.927658
1425413250.439,26.996857
1425413250.455,29.724426
1425413250.47,30.38887
1425413250.486,28.60466
1425413250.502,24.441193
1425413250.517,18.403107
1425413250.533,11.317825
1425413250.549,4.083206
1425413250.564,-2.4711761
1425413250.58,-7.802536
1425413250.596,-11.671448
1425413250.611,-14.121246
1425413250.627,-15.333237
1425413250.642,-15.628647
1425413250.658,-15.412888
1425413250.674,-15.178345
1425413250.689,-15.379944
1425413250.705,-16.277039
1425413250.721,-17.782776
1425413250.736,-19.434189
1425413250.752,-20.561676
1425413250.767,-20.619888
1425413250.783,-19.439667
1425413250.799,-17.388382
1425413250.814,-15.15892
1425413250.83,-13.52681
1425413250.846,-12.911514
1425413250.861,-13.28125
1425413250.877,-14.1586
1425413250.892,-14.871948
1425413250.908,-14.84137
1425413250.924,-13.791611
1425413250.939,-11.746399
1425413250.955,-9.012817
1425413250.971,-5.982727
1425413250.986,-3.037384
1425413251.002,-0.45970154
1425413251.017,1.6039429
1425413251.033,3.127121
1425413251.049,4.147537
1425413251.064,4.7619324
1425413251.08,5.048828
1425413251.096,5.1257324
1425413251.111,5.12027
1425413251.127,5.2686005
1425413251.142,5.804764
1425413251.158,6.9286804
1425413251.174,8.653503
1425413251.189,10.746002
1425413251.205,12.833115
1425413251.221,14.578125
1425413251.236,15.839371
1425413251.252,16.767075
1425413251.267,17.689331
1425413251.283,18.909958
1425413251.299,20.49765
1425413251.314,22.28366
1425413251.33,23.925476
1425413251.346,25.067368
1425413251.361,25.424866
1425413251.377,24.814484
1425413251.392,23.119308
1425413251.408,20.364258
1425413251.424,16.743225
1425413251.439,12.690887
1425413251.455,8.774811
1425413251.471,5.4929657
1425413251.486,3.0727844
1425413251.502,1.4269104
1425413251.517,0.2403717
1425413251.533,-0.7802429
1425413251.549,-1.7227325
1425413251.564,-2.5128632
1425413251.58,-3.0604553
1425413251.596,-3.3933563
1425413251.611,-3.7027893
1425413251.627,-4.1598816
1425413251.642,-4.8230896
1425413251.658,-5.512451
1425413251.674,-5.944336
1425413251.689,-5.852936
1425413251.705,-5.1910095
1425413251.721,-4.0930023
1425413251.736,-2.8069305
1425413251.752,-1.5854645
1425413251.767,-0.6154175
1425413251.783,0.014099121
1425413251.799,0.28572083
1425413251.814,0.2771759
1425413251.83,0.1303711
1425413251.846,0.011291504
1425413251.861,0.017654419
1425413251.877,0.11909485
1425413251.892,0.14642334
1425413251.908,-0.07145691
1425413251.924,-0.58291626
1425413251.939,-1.2204437
1425413251.955,-1.6373291
1425413251.971,-1.4955139
1425413251.986,-0.6441803
1425413252.002,0.8162384
1425413252.017,2.586853
1425413252.033,4.3727264
1425413252.049,6.010437
1425413252.064,7.5855713
1425413252.08,9.262238
1425413252.096,11.177338
1425413252.111,13.333908
1425413252.127,15.618927
1425413252.142,17.901749
1425413252.158,20.11531
1425413252.174,22.251099
1425413252.189,24.277008
1425413252.205,25.988068
1425413252.221,26.962769
1425413252.236,26.62677
1425413252.252,24.474442
1425413252.267,20.322037
1425413252.283,14.466736
1425413252.299,7.618698
1425413252.314,0.7196045
1425413252.33,-5.4505005
1425413252.346,-10.46225
1425413252.361,-14.319443
1425413252.377,-17.264496
1425413252.392,-19.567917
1425413252.408,-21.322174
1425413252.424,-22.45546
1425413252.439,-22.879395
1425413252.455,-22.659073
1425413252.471,-22.086151
1425413252.486,-21.536987
1425413252.502,-21.275223
1425413252.517,-21.317154
1425413252.533,-21.4095
1425413252.549,-21.2527
1425413252.564,-20.675095
1425413252.58,-19.731674
1425413252.596,-18.613403
1425413252.611,-17.526047
1425413252.627,-16.511383
1425413252.642,-15.493439
1425413252.658,-14.346649
1425413252.674,-13.057541
1425413252.689,-11.745102
1425413252.705,-10.6185
1425413252.721,-9.844025
1425413252.736,-9.398041
1425413252.752,-9.050812
1425413252.767,-8.443726
1425413252.783,-7.280792
1425413252.799,-5.516098
1425413252.814,-3.3891296
1425413252.83,-1.414917
1425413252.846,-0.17784119
1425413252.861,-0.061340332
1425413252.877,-1.0521088
1425413252.892,-2.7007751
1425413252.908,-4.260895
1425413252.924,-4.969757
1425413252.939,-4.361351
1425413252.955,-2.348549
1425413252.971,0.768631
1425413252.986,4.5806885
1425413253.002,8.699516
1425413253.017,12.895805
1425413253.033,17.016327
1425413253.049,20.902725
1425413253.064,24.251556
1425413253.08,26.669601
1425413253.096,27.767021
1425413253.111,27.34671
1425413253.127,25.481697
1425413253.142,22.514511
1425413253.158,18.927795
1425413253.174,15.163696
1425413253.189,11.485382
1425413253.205,7.957939
1425413253.221,4.5244904
1425413253.236,1.1645203
1425413253.252,-1.9832153
1425413253.268,-4.5954895
1425413253.283,-6.331093
1425413253.299,-7.0231094
1425413253.314,-6.8798904
1425413253.33,-6.424446
1425413253.346,-6.298073
1425413253.361,-6.9212875
1425413253.377,-8.266525
1425413253.392,-9.878265
1425413253.408,-11.137947
1425413253.424,-11.5876465
1425413253.439,-11.161232
1425413253.455,-10.144493
1425413253.471,-9.012085
1425413253.486,-8.1551285
1425413253.502,-7.7256927
1425413253.518,-7.6243896
1425413253.533,-7.611885
1425413253.549,-7.4279404
1425413253.564,-6.9529953
1425413253.58,-6.1873627
1425413253.596,-5.271553
1425413253.611,-4.39373
1425413253.627,-3.7093048
1425413253.643,-3.3111343
1425413253.658,-3.1598358
1425413253.674,-3.111267
1425413253.689,-2.9531326
1425413253.705,-2.4425812
1425413253.721,-1.4138031
1425413253.736,0.25860596
1425413253.752,2.5691605
1425413253.768,5.421982
1425413253.783,8.57354
1425413253.799,11.708626
1425413253.814,14.468163
1425413253.83,16.616219
1425413253.846,18.202156
1425413253.861,19.535553
1425413253.877,21.084389
1425413253.893,23.20005
1425413253.908,25.85315
1425413253.924,28.55674
1425413253.939,30.49347
1425413253.955,30.846199
1425413253.971,29.139244
1425413253.986,25.46531
1425413254.002,20.417427
1425413254.018,14.854141
1425413254.033,9.512756
1425413254.049,4.843178
1425413254.064,0.9433365
1425413254.08,-2.28228
1425413254.096,-4.9497986
1425413254.111,-7.059105
1425413254.127,-8.540703
1425413254.143,-9.379387
1425413254.158,-9.75882
1425413254.174,-10.063614
1425413254.189,-10.721748
1425413254.205,-11.980667
1425413254.221,-13.728447
1425413254.236,-15.478027
1425413254.252,-16.624924
1425413254.268,-16.683052
1425413254.283,-15.59478
1425413254.299,-13.68988
1425413254.314,-11.537033
1425413254.33,-9.625679
1425413254.346,-8.153976
1425413254.361,-6.998863
1425413254.377,-5.8845215
1425413254.393,-4.605011
1425413254.408,-3.155983
1425413254.424,-1.6881638
1425413254.439,-0.3412857
1425413254.455,0.89689636
1425413254.471,2.1446075
1425413254.486,3.5289764
1425413254.502,5.04261
1425413254.518,6.5500336
1425413254.533,7.8695145
1425413254.549,8.9387665
1425413254.564,9.879173
1425413254.58,10.933495
1425413254.596,12.27224
1425413254.611,13.898422
1425413254.627,15.589012
1425413254.643,17.088516
1425413254.658,18.243423
1425413254.674,19.076225
1425413254.689,19.774307
1425413254.705,20.597054
1425413254.721,21.737122
1425413254.736,23.27137
1425413254.752,25.098343
1425413254.768,26.972107
1425413254.783,28.479362
1425413254.799,29.129524
1425413254.814,28.470604
1425413254.83,26.24408
1425413254.846,22.493294
1425413254.861,17.561394
1425413254.877,12.011864
1425413254.893,6.468155
1425413254.908,1.4409943
1425413254.924,-2.7608337
1425413254.939,-6.032646
1425413254.955,-8.399399
1425413254.971,-9.973106
1425413254.986,-10.922989
1425413255.002,-11.471893
1425413255.018,-11.877998
1425413255.033,-12.440788
1425413255.049,-13.39402
1425413255.064,-14.829346
1425413255.08,-16.564064
1425413255.096,-18.16629
1425413255.111,-19.063675
1425413255.127,-18.837364
1425413255.143,-17.441223
1425413255.158,-15.294983
1425413255.174,-13.092331
1425413255.189,-11.465973
1425413255.205,-10.657745
1425413255.221,-10.473228
1425413255.236,-10.454384
1425413255.252,-10.25798
1425413255.268,-9.848274
1425413255.283,-9.495476
1425413255.299,-9.504379
1425413255.314,-9.9188385
1425413255.33,-10.4301605
1425413255.346,-10.547195
1425413255.361,-9.867744
1425413255.377,-8.383507
1425413255.393,-6.444748
1425413255.408,-4.567856
1425413255.424,-3.1706543
1425413255.439,-2.376709
1425413255.455,-2.06633
1425413255.471,-1.9515915
1425413255.486,-1.7186279
1425413255.502,-1.0865555
1425413255.518,0.23223114
1425413255.533,2.4383621
1425413255.549,5.6066284
1425413255.564,9.531921
1425413255.58,13.727341
1425413255.596,17.474716
1425413255.611,20.070824
1425413255.627,21.0308
1425413255.643,20.237228
1425413255.658,17.910995
1425413255.674,14.438492
1425413255.689,10.227463
1425413255.705,5.6195374
1425413255.721,0.90270233
1425413255.736,-3.5917816
1425413255.752,-7.491005
1425413255.768,-10.4305725
1425413255.783,-12.220894
1425413255.799,-12.914291
1425413255.814,-12.853859
1425413255.83,-12.529785
1425413255.846,-12.426849
1425413255.861,-12.828354
1425413255.877,-13.726402
1425413255.893,-14.8710785
1425413255.908,-15.911476
1425413255.924,-16.523605
1425413255.94,-16.542557
1425413255.955,-15.979164
1425413255.971,-14.9769745
1425413255.986,-13.710541
1425413256.002,-12.295937
1425413256.018,-10.792503
1425413256.033,-9.239265
1425413256.049,-7.7154083
1425413256.064,-6.362488
1425413256.08,-5.321869
1425413256.096,-4.658539
1425413256.111,-4.267624
1425413256.127,-3.9119873
1425413256.143,-3.3538666
1425413256.158,-2.4522018
1425413256.174,-1.2690811
1425413256.19,0.0063476563
1425413256.205,1.1911469
1425413256.221,2.2181702
1425413256.236,3.1429825
1425413256.252,4.09317
1425413256.268,5.159973
1425413256.283,6.301697
1425413256.299,7.385521
1425413256.315,8.260002
1425413256.33,8.944687
1425413256.346,9.614449
1425413256.361,10.58271
1425413256.377,12.115021
1425413256.393,14.27829
1425413256.408,16.803482
1425413256.424,19.141815
1425413256.44,20.560257
1425413256.455,20.463943
1425413256.471,18.554588
1425413256.486,15.011894
1425413256.502,10.3966675
1425413256.518,5.427719
1425413256.533,0.7130432
1425413256.549,-3.4394379
1425413256.565,-7.004448
1425413256.58,-10.064682
1425413256.596,-12.623146
1425413256.611,-14.556168
1425413256.627,-15.647324
1425413256.643,-15.825745
1425413256.658,-15.29805
1425413256.674,-14.475494
1425413256.69,-13.853516
1425413256.705,-13.764206
1425413256.721,-14.227211
1425413256.736,-14.941978
1425413256.752,-15.449722
1425413256.768,-15.328758
1425413256.783,-14.354973
1425413256.799,-12.602722
1425413256.815,-10.442902
1425413256.83,-8.427528
1425413256.846,-7.113182
1425413256.861,-6.8065186
1425413256.877,-7.3886414
1425413256.893,-8.335075
1425413256.908,-8.949257
1425413256.924,-8.695366
1425413256.94,-7.53302
1425413256.955,-5.863304
1425413256.971,-4.30809
1425413256.986,-3.2701263
1425413257.002,-2.7149277
1425413257.018,-2.1832047
1425413257.033,-1.1333466
1425413257.049,0.68746185
1425413257.065,3.0550156
1425413257.08,5.411484
1425413257.096,7.219055
1425413257.111,8.2547455
1425413257.127,8.72879
1425413257.143,9.094765
1425413257.158,9.739723
1425413257.174,10.827614
1425413257.19,12.303604
1425413257.205,14.087082
1425413257.221,16.178268
1425413257.236,18.665169
1425413257.252,21.503128
1425413257.268,24.336746
1425413257.283,26.50035
1425413257.299,27.250717
1425413257.315,26.103111
1425413257.33,23.126656
1425413257.346,18.957878
1425413257.361,14.515854
1425413257.377,10.615585
1425413257.393,7.6680984
1425413257.408,5.6020126
1425413257.424,4.114151
1425413257.44,2.8391037
1425413257.455,1.5859375
1425413257.471,0.2577362
1425413257.486,-1.1339417
1425413257.502,-2.6009064
1425413257.518,-4.118141
1425413257.533,-5.580406
1425413257.549,-6.750824
1425413257.565,-7.344551
1425413257.58,-7.1493073
1425413257.596,-6.1242447
1425413257.611,-4.429779
1425413257.627,-2.3703537
1425413257.643,-0.26498413
1425413257.658,1.5798492
1425413257.674,2.9170456
1425413257.69,3.556755
1425413257.705,3.4448318
1425413257.721,2.6896439
1425413257.736,1.6128845
1425413257.752,0.60632324
1425413257.768,-0.030708313
1425413257.783,-0.2740326
1425413257.799,-0.37104797
1425413257.815,-0.70067596
1425413257.83,-1.507309
1425413257.846,-2.7556229
1425413257.861,-4.1402664
1425413257.877,-5.240799
1425413257.893,-5.766411
1425413257.908,-5.71537
1425413257.924,-5.2396393
1425413257.94,-4.5653534
1425413257.955,-3.7580185
1425413257.971,-2.741394
1425413257.986,-1.4001236
1425413258.002,0.2649765
1425413258.018,2.0908356
1425413258.033,3.8498688
1425413258.049,5.4555206
1425413258.065,7.0076904
1425413258.08,8.709869
1425413258.096,10.649361
1425413258.111,12.601654
1425413258.127,14.024574
1425413258.143,14.289238
1425413258.158,12.996666
1425413258.174,10.187851
1425413258.19,6.3330765
1425413258.205,2.1136932
1425413258.221,-1.9338455
1425413258.236,-5.5275497
1425413258.252,-8.664467
1425413258.268,-11.368874
1425413258.283,-13.546852
1425413258.299,-14.976898
1425413258.315,-15.430298
1425413258.33,-14.891731
1425413258.346,-13.660202
1425413258.361,-12.273445
1425413258.377,-11.291489
1425413258.393,-11.072601
1425413258.408,-11.653984
1425413258.424,-12.759247
1425413258.44,-13.942131
1425413258.455,-14.788101
1425413258.471,-15.056915
1425413258.486,-14.759346
1425413258.502,-14.121483
1425413258.518,-13.402374
1425413258.533,-12.80468
1425413258.549,-12.31044
1425413258.565,-11.729088
1425413258.58,-10.815628
1425413258.596,-9.481178
1425413258.611,-7.8982773
1425413258.627,-6.487297
1425413258.643,-5.6882324
1425413258.658,-5.6451874
1425413258.674,-6.114792
1425413258.69,-6.5315094
1425413258.705,-6.3199234
1425413258.721,-5.1994324
1425413258.736,-3.3065186
1425413258.752,-1.0589981
1425413258.768,1.1268845
1425413258.783,3.0214233
1425413258.799,4.6395416
1425413258.815,6.043602
1425413258.83,7.2677383
1425413258.846,8.230835
1425413258.862,8.9375
1425413258.877,9.549576
1425413258.893,10.481743
1425413258.908,12.161308
1425413258.924,14.8368
1425413258.94,18.351738
1425413258.955,22.216698
1425413258.971,25.821045
1425413258.987,28.647057
1425413259.002,30.381401
1425413259.018,30.89714
1425413259.033,30.130455
1425413259.049,28.043312
1425413259.065,24.62069
1425413259.08,19.965233
1425413259.096,14.32534
1425413259.112,8.088028
1425413259.127,1.6626778
1425413259.143,-4.548992
1425413259.158,-10.189774
1425413259.174,-14.923027
1425413259.19,-18.474842
1425413259.205,-20.6848
1425413259.221,-21.671677
1425413259.237,-21.812119
1425413259.252,-21.71817
1425413259.268,-21.984192
1425413259.283,-22.949627
1425413259.299,-24.50739
1425413259.315,-26.11446
1425413259.33,-27.0625
1425413259.346,-26.785217
1425413259.362,-25.10598
1425413259.377,-22.323345
1425413259.393,-19.015053
1425413259.408,-15.792538
1425413259.424,-13.004829
1425413259.44,-10.735981
1425413259.455,-8.89056
1425413259.471,-7.415474
1425413259.487,-6.3452415
1425413259.502,-5.8043404
1425413259.518,-5.7919235
1425413259.533,-6.111183
1425413259.549,-6.3981247
1425413259.565,-6.312504
1425413259.58,-5.7111053
1425413259.596,-4.682869
1425413259.612,-3.4264145
1425413259.627,-2.1036072
1425413259.643,-0.7354927
1425413259.658,0.75855255
1425413259.674,2.4040604
1425413259.69,4.1050644
1425413259.705,5.650009
1425413259.721,6.8199615
1425413259.737,7.6080627
1425413259.752,8.207716
1425413259.768,9.055672
1425413259.783,10.571255
1425413259.799,12.9688015
1425413259.815,16.166813
1425413259.83,19.770775
1425413259.846,23.172718
1425413259.862,25.76942
1425413259.877,27.067165
1425413259.893,26.828556
1425413259.908,25.076904
1425413259.924,22.035608
1425413259.94,18.031052
1425413259.955,13.398685
1425413259.971,8.446627
1425413259.987,3.5387688
1425413260.002,-0.910099
1425413260.018,-4.4430265
1425413260.033,-6.7071304
1425413260.049,-7.555833
1425413260.065,-7.196273
1425413260.08,-6.107175
1425413260.096,-4.8714275
1425413260.112,-3.979188
1425413260.127,-3.7013674
1425413260.143,-4.0064507
1425413260.158,-4.690249
1425413260.174,-5.4947762
1425413260.19,-6.1893544
1425413260.205,-6.6293063
1425413260.221,-6.736085
1425413260.237,-6.512151
1425413260.252,-6.0530815
1425413260.268,-5.5192995
1425413260.283,-5.0817013
1425413260.299,-4.8327613
1425413260.315,-4.729452
1425413260.33,-4.5967665
1425413260.346,-4.2518935
1425413260.362,-3.58141
1425413260.377,-2.5934782
1425413260.393,-1.387691
1425413260.408,-0.09069097
1425413260.424,1.2224846
1425413260.44,2.5536025
1425413260.455,3.9622455
1425413260.471,5.5035996
1425413260.487,7.2436385
1425413260.502,9.196545
1425413260.518,11.330822
1425413260.533,13.5269375
1425413260.549,15.568289
1425413260.565,17.222395
1425413260.58,18.357424
1425413260.596,19.027351
1425413260.612,19.553389
1425413260.627,20.35821
1425413260.643,21.843494
1425413260.658,24.206648
1425413260.674,27.338055
1425413260.69,30.832132
1425413260.705,34.08288
1425413260.721,36.389656
1425413260.737,37.141216
1425413260.752,35.96429
1425413260.768,32.85462
1425413260.783,28.202978
1425413260.799,22.731903
1425413260.815,17.192282
1425413260.83,12.202918
1425413260.846,8.01397
1425413260.862,4.6322103
1425413260.877,1.8754201
1425413260.893,-0.36170363
1425413260.908,-2.0979095
1425413260.924,-3.319932
1425413260.94,-4.0770926
1425413260.955,-4.57397
1425413260.971,-5.1286745
1425413260.987,-6.0036917
1425413261.002,-7.322304
1425413261.018,-8.986406
1425413261.033,-10.729129
1425413261.049,-12.263221
1425413261.065,-13.378358
1425413261.08,-13.959417
1425413261.096,-14.015905
1425413261.112,-13.628262
1425413261.127,-12.957027
1425413261.143,-12.185791
1425413261.158,-11.4831085
1425413261.174,-10.951424
1425413261.19,-10.57226
1425413261.205,-10.236851
1425413261.221,-9.766605
1425413261.237,-9.009262
1425413261.252,-7.8924046
1425413261.268,-6.469578
1425413261.283,-4.883667
1425413261.299,-3.302597
1425413261.315,-1.8172646
1425413261.33,-0.41791534
1425413261.346,0.9733429
1425413261.362,2.4468765
1425413261.377,3.9813232
1425413261.393,5.5102463
1425413261.408,6.9146194
1425413261.424,8.173382
1425413261.44,9.376579
1425413261.455,10.621849
1425413261.471,11.906078
1425413261.487,13.000988
1425413261.502,13.467392
1425413261.518,12.78997
1425413261.534,10.579559
1425413261.549,6.68758
1425413261.565,1.2256203
1425413261.58,-5.4129295
1425413261.596,-12.718983
1425413261.612,-20.07008
1425413261.627,-26.90937
1425413261.643,-32.816635
1425413261.659,-37.668777
1425413261.674,-41.58785
1425413261.69,-44.77478
1425413261.705,-47.357124
1425413261.721,-49.183777
1425413261.737,-49.90922
1425413261.752,-49.26373
1425413261.768,-47.333538
1425413261.784,-44.707855
1425413261.799,-42.300083
1425413261.815,-40.977295
1425413261.83,-41.167778
1425413261.846,-42.685604
1425413261.862,-44.841057
1425413261.877,-46.79945
1425413261.893,-47.90838
1425413261.909,-47.901974
1425413261.924,-46.88163
1425413261.94,-45.13964
1425413261.955,-42.974586
1425413261.971,-40.629814
1425413261.987,-38.318375
1425413262.002,-36.34135
1425413262.018,-35.05406
1425413262.034,-34.730824
1425413262.049,-35.347603
1425413262.065,-36.45089
1425413262.08,-37.17417
1425413262.096,-36.613625
1425413262.112,-34.271057
1425413262.127,-30.40189
1425413262.143,-25.98177
1425413262.159,-22.31603
1425413262.174,-20.356682
1425413262.19,-20.203503
1425413262.205,-20.92493
1425413262.221,-20.903744
1425413262.237,-18.455452
1425413262.252,-12.391357
1425413262.268,-2.340229
1425413262.284,11.182938
1425413262.299,26.971008
1425413262.315,43.386772
1425413262.33,58.59121
1425413262.346,70.84829
1425413262.362,78.901405
1425413262.377,82.28106
1425413262.393,81.522606
1425413262.409,78.044754
1425413262.424,73.67476
1425413262.44,70.06018
1425413262.455,68.18989
1425413262.471,68.2208
1425413262.487,69.71355
1425413262.502,71.97611
1425413262.518,74.405426
1425413262.534,76.547
1425413262.549,78.05822
1425413262.565,78.61367
1425413262.58,77.96125
1425413262.596,76.090546
1425413262.612,73.30031
1425413262.627,70.17974
1425413262.643,67.36109
1425413262.659,65.14737
1425413262.674,63.408714
1425413262.69,61.54795
1425413262.705,58.80919
1425413262.721,54.5456
1425413262.737,48.45871
1425413262.752,40.67559
1425413262.768,31.708496
1425413262.784,22.328636
1425413262.799,13.3691025
1425413262.815,5.5136185
1425413262.83,-0.8664322
1425413262.846,-5.8170853
1425413262.862,-9.679306
1425413262.877,-12.9424515
1425413262.893,-15.997742
1425413262.909,-18.978378
1425413262.924,-21.777145
1425413262.94,-24.217049
1425413262.955,-26.180954
1425413262.971,-27.744331
1425413262.987,-29.0737
1425413263.002,-30.289291
1425413263.018,-31.234665
1425413263.034,-31.549057
1425413263.049,-30.738556
1425413263.065,-28.456985
1425413263.08,-24.675804
1425413263.096,-19.734756
1425413263.112,-14.25605
1425413263.127,-8.954033
1425413263.143,-4.4158783
1425413263.159,-1.0301285
1425413263.174,1.0405045
1425413263.19,1.7693405
1425413263.205,1.2279663
1425413263.221,-0.4778595
1425413263.237,-3.0995178
1425413263.252,-6.2886086
1425413263.268,-9.529354
1425413263.284,-12.276928
1425413263.299,-14.082542
1425413263.315,-14.739456
1425413263.33,-14.355862
1425413263.346,-13.334911
1425413263.362,-12.233997
1425413263.377,-11.611908
1425413263.393,-11.801903
1425413263.409,-12.851643
1425413263.424,-14.467194
1425413263.44,-16.201382
1425413263.455,-17.608917
1425413263.471,-18.447845
1425413263.487,-18.73304
1425413263.502,-18.67722
1425413263.518,-18.484798
1425413263.534,-18.25972
1425413263.549,-17.915508
1425413263.565,-17.280815
1425413263.58,-16.229767
1425413263.596,-14.78014
1425413263.612,-13.102169
1425413263.627,-11.400734
1425413263.643,-9.765835
1425413263.659,-8.152241
1425413263.674,-6.39666
1425413263.69,-4.433529
1425413263.705,-2.3151207
1425413263.721,-0.33190155
1425413263.737,1.2164879
1425413263.752,2.13937
1425413263.768,2.5195236
1425413263.784,2.6892967
1425413263.799,3.0739632
1425413263.815,3.9910202
1425413263.83,5.482126
1425413263.846,7.2830906
1425413263.862,8.964201
1425413263.877,10.133575
1425413263.893,10.62343
1425413263.909,10.553148
1425413263.924,10.269442
1425413263.94,10.168016
1425413263.955,10.556919
1425413263.971,11.54895
1425413263.987,13.101107
1425413264.002,15.055548
1425413264.018,17.202383
1425413264.034,19.239815
1425413264.049,20.82467
1425413264.065,21.56764
1425413264.08,21.142466
1425413264.096,19.427036
1425413264.112,16.580524
1425413264.127,13.032732
1425413264.143,9.287384
1425413264.159,5.747383
1425413264.174,2.5817146
1425413264.19,-0.29543495
1425413264.206,-3.0262928
1425413264.221,-5.6702805
1425413264.237,-8.112106
1425413264.252,-10.156271
1425413264.268,-11.614206
1425413264.284,-12.494223
1425413264.299,-12.986813
1425413264.315,-13.396593
1425413264.331,-14.00943
1425413264.346,-14.99671
1425413264.362,-16.350079
1425413264.377,-17.91024
1425413264.393,-19.433025
1425413264.409,-20.634438
1425413264.424,-21.265415
1425413264.44,-21.240395
1425413264.456,-20.622608
1425413264.471,-19.650002
1425413264.487,-18.620136
1425413264.502,-17.7681
1425413264.518,-17.183657
1425413264.534,-16.823658
1425413264.549,-16.569664
1425413264.565,-16.328999
1425413264.581,-16.043388
1425413264.596,-15.702108
1425413264.612,-15.287559
1425413264.627,-14.759274
1425413264.643,-14.095638
1425413264.659,-13.331074
1425413264.674,-12.517878
1425413264.69,-11.716551
1425413264.706,-10.903683
1425413264.721,-9.992712
1425413264.737,-8.871399
1425413264.752,-7.5110264
1425413264.768,-5.964388
1425413264.784,-4.3594303
1425413264.799,-2.7589493
1425413264.815,-1.1080055
1425413264.831,0.77685356
1425413264.846,3.0804844
1425413264.862,5.887556
1425413264.877,9.083666
1425413264.893,12.384445
1425413264.909,15.41514
1425413264.924,17.843477
1425413264.94,19.416306
1425413264.956,19.99032
1425413264.971,19.520683
1425413264.987,18.075647
1425413265.002,15.79311
1425413265.018,12.931705
1425413265.034,9.807365
1425413265.049,6.7834167
1425413265.065,4.161354
1425413265.081,2.1467094
1425413265.096,0.8004303
1425413265.112,0.022418976
1425413265.127,-0.45367813
1425413265.143,-1.001667
1425413265.159,-1.9613266
1425413265.174,-3.4905586
1425413265.19,-5.4496765
1425413265.206,-7.3980675
1425413265.221,-8.800018
1425413265.237,-9.268154
1425413265.252,-8.776493
1425413265.268,-7.691536
1425413265.284,-6.5935135
1425413265.299,-5.954376
1425413265.315,-5.94841
1425413265.331,-6.4291153
1425413265.346,-7.1150703
1425413265.362,-7.765419
1425413265.377,-8.317783
1425413265.393,-8.770359
1425413265.409,-9.108261
1425413265.424,-9.206436
1425413265.44,-8.918316
1425413265.456,-8.242313
1425413265.471,-7.355835
1425413265.487,-6.5756454
1425413265.502,-6.1259117
1425413265.518,-6.019432
1425413265.534,-6.03553
1425413265.549,-5.8634987
1425413265.565,-5.3249893
1425413265.581,-4.437233
1425413265.596,-3.3714676
1425413265.612,-2.265854
1425413265.627,-1.117363
1425413265.643,0.2135849
1425413265.659,1.8540039
1425413265.674,3.8231506
1425413265.69,5.9907
1425413265.706,8.192078
1425413265.721,10.269096
1425413265.737,12.201065
1425413265.752,14.070541
1425413265.768,15.985268
1425413265.784,18.0308
1425413265.799,20.23555
1425413265.815,22.561562
1425413265.831,24.810791
1425413265.846,26.65451
1425413265.862,27.646553
1425413265.877,27.376884
1425413265.893,25.65335
1425413265.909,22.631279
1425413265.924,18.830856
1425413265.94,14.934807
1425413265.956,11.508003
1425413265.971,8.777313
1425413265.987,6.641777
1425413266.002,4.784683
1425413266.018,2.916008
1425413266.034,0.9651642
1425413266.049,-0.89476013
1425413266.065,-2.3751526
1425413266.081,-3.2488708
1425413266.096,-3.5099945
1425413266.112,-3.3921814
1425413266.127,-3.2476654
1425413266.143,-3.3704147
1425413266.159,-3.843666
1425413266.174,-4.5075455
1425413266.19,-5.083481
1425413266.206,-5.299713
1425413266.221,-5.0796204
1425413266.237,-4.5481796
1425413266.252,-3.9644318
1425413266.268,-3.5569763
1425413266.284,-3.441658
1425413266.299,-3.5401611
1425413266.315,-3.6845322
1425413266.331,-3.7270203
1425413266.346,-3.6442413
1425413266.362,-3.6010284
1425413266.377,-3.804367
1425413266.393,-4.427376
1425413266.409,-5.4513702
1425413266.424,-6.6421356
1425413266.44,-7.630371
1425413266.456,-8.110161
1425413266.471,-7.981987
1425413266.487,-7.324936
1425413266.502,-6.323143
1425413266.518,-5.1051636
1425413266.534,-3.644806
1425413266.549,-1.8086166
1425413266.565,0.46159363
1425413266.581,3.0531616
1425413266.596,5.662277
1425413266.612,7.972252
1425413266.627,9.78791
1425413266.643,11.157288
1425413266.659,12.308678
1425413266.674,13.472374
1425413266.69,14.772499
1425413266.706,16.242142
1425413266.721,17.86512
1425413266.737,19.710144
1425413266.752,21.827538
1425413266.768,24.17601
1425413266.784,26.419937
1425413266.799,28.01461
1425413266.815,28.377594
1425413266.831,27.211227
1425413266.846,24.696815
1425413266.862,21.41478
1425413266.878,18.058838
1425413266.893,15.129211
1425413266.909,12.753517
1425413266.924,10.761513
1425413266.94,8.940422
1425413266.956,7.2210007
1425413266.971,5.722435
1425413266.987,4.5764847
1425413267.002,3.7339325
1425413267.018,2.8862228
1425413267.034,1.6194687
1425413267.049,-0.36402893
1425413267.065,-2.9887772
1425413267.081,-5.842453
1425413267.096,-8.359314
1425413267.112,-10.108505
1425413267.128,-10.963257
1425413267.143,-11.131458
1425413267.159,-10.9414215
1425413267.174,-10.654251
1425413267.19,-10.378643
1425413267.206,-10.081257
1425413267.221,-9.721027
1425413267.237,-9.337967
1425413267.253,-9.036644
1425413267.268,-8.895676
1425413267.284,-8.8788185
1425413267.299,-8.814934
1425413267.315,-8.516613
1425413267.331,-7.8930244
1425413267.346,-7.0632095
1425413267.362,-6.29591
1425413267.378,-5.8659515
1425413267.393,-5.881996
1425413267.409,-6.1937523
1425413267.424,-6.42931
1425413267.44,-6.215904
1425413267.456,-5.3354225
1425413267.471,-3.8319016
1425413267.487,-2.0089035
1425413267.503,-0.25190353
1425413267.518,1.1532974
1425413267.534,2.1774178
1425413267.549,2.9953918
1425413267.565,3.883461
1425413267.581,5.0658455
1425413267.596,6.576082
1425413267.612,8.297806
1425413267.628,10.04373
1425413267.643,11.641235
1425413267.659,12.940975
1425413267.674,13.776768
1425413267.69,13.898956
1425413267.706,13.041899
1425413267.721,10.98616
1425413267.737,7.7478924
1425413267.753,3.6342793
1425413267.768,-0.7895489
1425413267.784,-4.839449
1425413267.799,-7.9582176
1425413267.815,-9.845797
1425413267.831,-10.525015
1425413267.846,-10.319847
1425413267.862,-9.670834
1425413267.878,-9.029003
1425413267.893,-8.714153
1425413267.909,-8.856433
1425413267.924,-9.377505
1425413267.94,-10.095225
1425413267.956,-10.759252
1425413267.971,-11.198044
1425413267.987,-11.328984
1425413268.003,-11.185542
1425413268.018,-10.833626
1425413268.034,-10.372034
1425413268.049,-9.84447
1425413268.065,-9.294904
1425413268.081,-8.754086
1425413268.096,-8.247674
1425413268.112,-7.757275
1425413268.128,-7.246436
1425413268.143,-6.644859
1425413268.159,-5.8963223
1425413268.174,-5.0181556
1425413268.19,-4.1028934
1425413268.206,-3.2890415
1425413268.221,-2.7699304
1425413268.237,-2.6311147
1425413268.253,-2.8561883
1425413268.268,-3.2819731
1425413268.284,-3.6659422
1425413268.299,-3.7468536
1425413268.315,-3.3744688
1425413268.331,-2.4904761
1425413268.346,-1.1627474
1425413268.362,0.4766116
1425413268.378,2.2805562
1425413268.393,4.0921564
1425413268.409,5.7490726
1425413268.424,7.1458087
1425413268.44,8.2620535
1425413268.456,9.2657175
1425413268.471,10.480421
1425413268.487,12.248566
1425413268.503,14.693243
1425413268.518,17.566662
1425413268.534,20.210617
1425413268.549,21.82332
1425413268.565,21.774818
1425413268.581,19.885017
1425413268.596,16.436825
1425413268.612,12.023918
1425413268.628,7.2567987
1425413268.643,2.5682907
1425413268.659,-1.7816763
1425413268.674,-5.6092215
1425413268.69,-8.718536
1425413268.706,-10.869294
1425413268.721,-11.957121
1425413268.737,-12.038738
1425413268.753,-11.401783
1425413268.768,-10.453645
1425413268.784,-9.528251
1425413268.799,-8.828861
1425413268.815,-8.462265
1425413268.831,-8.481705
1425413268.846,-8.971693
1425413268.862,-10.023548
1425413268.878,-11.587248
1425413268.893,-13.431524
1425413268.909,-15.135769
1425413268.924,-16.2322
1425413268.94,-16.444279
1425413268.956,-15.757166
1425413268.971,-14.468414
1425413268.987,-13.002567
1425413269.003,-11.688118
1425413269.018,-10.587156
1425413269.034,-9.539595
1425413269.049,-8.277765
1425413269.065,-6.671316
1425413269.081,-4.8274
1425413269.096,-3.0098553
1425413269.112,-1.4406948
1425413269.128,-0.119478226
1425413269.143,1.1759872
1425413269.159,2.756321
1425413269.174,4.758827
1425413269.19,7.0478745
1425413269.206,9.313311
1425413269.221,11.256426
1425413269.237,12.816835
1425413269.253,14.259689
1425413269.268,16.023191
1425413269.284,18.496393
1425413269.299,21.821777
1425413269.315,25.806532
1425413269.331,30.032597
1425413269.346,33.96645
1425413269.362,37.088837
1425413269.378,38.91298
1425413269.393,39.030396
1425413269.409,37.156128
1425413269.424,33.265022
1425413269.44,27.703754
1425413269.456,21.216442
1425413269.471,14.704266
1425413269.487,8.98568
1425413269.503,4.4686584
1425413269.518,1.0777626
1425413269.534,-1.6218262
1425413269.549,-4.1407585
1425413269.565,-6.724865
1425413269.581,-9.289879
1425413269.596,-11.506359
1425413269.612,-13.02248
1425413269.628,-13.704636
1425413269.643,-13.633087
1425413269.659,-13.059719
1425413269.674,-12.220131
1425413269.69,-11.294083
1425413269.706,-10.377205
1425413269.721,-9.625351
1425413269.737,-9.189762
1425413269.753,-9.217968
1425413269.768,-9.6982765
1425413269.784,-10.398834
1425413269.8,-10.945072
1425413269.815,-10.933487
1425413269.831,-10.113258
1425413269.846,-8.4394
1425413269.862,-6.0946045
1425413269.878,-3.3882904
1425413269.893,-0.629364
1425413269.909,1.9370193
1425413269.925,4.167633
1425413269.94,6.0233765
1425413269.956,7.5251007
1425413269.971,8.671349
1425413269.987,9.50145
1425413270.003,10.017113
1425413270.018,10.324951
1425413270.034,10.608093
1425413270.05,11.073624
1425413270.065,11.907997
1425413270.081,13.188667
1425413270.096,14.874405
1425413270.112,16.867645
1425413270.128,19.041542
1425413270.143,21.276253
1425413270.159,23.376328
1425413270.175,25.004715
1425413270.19,25.662758
1425413270.206,24.873444
1425413270.221,22.329193
1425413270.237,18.107864
1425413270.253,12.613152
1425413270.268,6.461357
1425413270.284,0.25424957
1425413270.3,-5.5406876
1425413270.315,-10.571571
1425413270.331,-14.545288
1425413270.346,-17.164047
1425413270.362,-18.296196
1425413270.378,-18.102615
1425413270.393,-17.126785
1425413270.409,-16.165527
1425413270.425,-15.958374
1425413270.44,-16.844162
1425413270.456,-18.651627
1425413270.471,-20.809204
1425413270.487,-22.65895
1425413270.503,-23.799591
1425413270.518,-24.21286
1425413270.534,-24.1725
1425413270.55,-23.988373
1425413270.565,-23.83052
1425413270.581,-23.670898
1425413270.596,-23.370804
1425413270.612,-22.845139
1425413270.628,-22.11142
1425413270.643,-21.254837
1425413270.659,-20.300186
1425413270.675,-19.190384
1425413270.69,-17.823044
1425413270.706,-16.142914
1425413270.721,-14.234451
1425413270.737,-12.245209
1425413270.753,-10.314407
1425413270.768,-8.460892
1425413270.784,-6.5626373
1425413270.8,-4.4358673
1425413270.815,-1.9861298
1425413270.831,0.7584076
1425413270.846,3.6791992
1425413270.862,6.700577
1425413270.878,9.796738
1425413270.893,13.031601
1425413270.909,16.390442
1425413270.925,19.70694
1425413270.94,22.566711
1425413270.956,24.43367
1425413270.971,24.80687
1425413270.987,23.411499
1425413271.003,20.335403
1425413271.018,16.026825
1425413271.034,11.123917
1425413271.05,6.2769165
1425413271.065,1.8875122
1425413271.081,-1.9212494
1425413271.096,-5.2605743
1425413271.112,-8.337814
1425413271.128,-11.261185
1425413271.143,-14.019318
1425413271.159,-16.50946
1425413271.175,-18.634064
1425413271.19,-20.40004
1425413271.206,-21.866608
1425413271.221,-23.117065
1425413271.237,-24.157562
1425413271.253,-24.982056
1425413271.268,-25.586243
1425413271.284,-26.014267
1425413271.3,-26.328583
1425413271.315,-26.511261
1425413271.331,-26.441345
1425413271.346,-25.925064
1425413271.362,-24.808914
1425413271.378,-23.132782
1425413271.393,-21.137894
1425413271.409,-19.158646
1425413271.425,-17.447525
1425413271.44,-16.085526
1425413271.456,-14.979538
1425413271.471,-14.012283
1425413271.487,-13.130615
1425413271.503,-12.403137
1425413271.518,-11.8650055
1425413271.534,-11.429245
1425413271.55,-10.788498
1425413271.565,-9.585449
1425413271.581,-7.57605
1425413271.596,-4.7875977
1425413271.612,-1.5601807
1425413271.628,1.6514282
1425413271.643,4.4539185
1425413271.659,6.7043915
1425413271.675,8.531357
1425413271.69,10.276321
1425413271.706,12.344513
1425413271.721,15.065094
1425413271.737,18.570602
1425413271.753,22.656113
1425413271.768,26.792053
1425413271.784,30.203476
1425413271.8,32.117752
1425413271.815,31.997665
1425413271.831,29.773727
1425413271.846,25.845688
1425413271.862,20.91188
1425413271.878,15.673187
1425413271.893,10.620544
1425413271.909,6.00412
1425413271.925,1.9172668
1425413271.94,-1.5904999
1425413271.956,-4.459915
1425413271.971,-6.6881104
1425413271.987,-8.375198
1425413272.003,-9.734512
1425413272.018,-10.955467
1425413272.034,-12.15033
1425413272.05,-13.256416
1425413272.065,-14.143066
1425413272.081,-14.706688
1425413272.096,-14.943245
1425413272.112,-14.943275
1425413272.128,-14.803749
1425413272.143,-14.588226
1425413272.159,-14.295883
1425413272.175,-13.9235
1425413272.19,-13.508621
1425413272.206,-13.118858
1425413272.221,-12.815765
1425413272.237,-12.610901
1425413272.253,-12.431503
1425413272.268,-12.198105
1425413272.284,-11.837219
1425413272.3,-11.311371
1425413272.315,-10.609062
1425413272.331,-9.693886
1425413272.346,-8.510353
1425413272.362,-6.997223
1425413272.378,-5.098213
1425413272.393,-2.8102112
1425413272.409,-0.22361755
1425413272.425,2.4802704
1425413272.44,5.0253983
1425413272.456,7.177414
1425413272.472,8.820602
1425413272.487,10.013168
1425413272.503,10.926659
1425413272.518,11.787407
1425413272.534,12.752052
1425413272.55,13.892258
1425413272.565,15.246223
1425413272.581,16.928917
1425413272.597,19.094086
1425413272.612,21.878685
1425413272.628,25.234245
1425413272.643,28.855087
1425413272.659,32.168976
1425413272.675,34.48787
1425413272.69,35.22615
1425413272.706,34.0943
1425413272.722,31.178314
1425413272.737,26.8937
1425413272.753,21.855911
1425413272.768,16.72725
1425413272.784,12.066292
1425413272.8,8.257545
1425413272.815,5.4351044
1425413272.831,3.522766
1425413272.847,2.276474
1425413272.862,1.4195023
1425413272.878,0.6363449
1425413272.893,-0.2659378
1425413272.909,-1.4411774
1425413272.925,-2.9066696
1425413272.94,-4.6096497
1425413272.956,-6.333725
1425413272.972,-7.732666
1425413272.987,-8.429649
1425413273.003,-8.188507
1425413273.018,-7.061531
1425413273.034,-5.4899597
1425413273.05,-4.127388
1425413273.065,-3.6213684
1425413273.081,-4.262535
1425413273.097,-5.8642426
1425413273.112,-7.8752365
1425413273.128,-9.666786
1425413273.143,-10.843758
1425413273.159,-11.371796
1425413273.175,-11.465469
1425413273.19,-11.406998
1425413273.206,-11.33197
1425413273.222,-11.236427
1425413273.237,-11.04184
1425413273.253,-10.7589035
1425413273.268,-10.487732
1425413273.284,-10.315308
1425413273.3,-10.227402
1425413273.315,-10.049332
1425413273.331,-9.514267
1425413273.347,-8.457703
1425413273.362,-6.8200607
1425413273.378,-4.7231903
1425413273.393,-2.3327713
1425413273.409,0.18681335
1425413273.425,2.7633362
1425413273.44,5.3540573
1425413273.456,7.947029
1425413273.472,10.501678
1425413273.487,12.955315
1425413273.503,15.165688
1425413273.518,16.937416
1425413273.534,17.985954
1425413273.55,18.026512
1425413273.565,16.851746
1425413273.581,14.456959
1425413273.597,11.097286
1425413273.612,7.1990547
1425413273.628,3.231392
1425413273.643,-0.46295166
1425413273.659,-3.729107
1425413273.675,-6.558796
1425413273.69,-8.945473
1425413273.706,-10.8215065
1425413273.722,-12.106804
1425413273.737,-12.782951
1425413273.753,-13.036045
1425413273.768,-13.195946
1425413273.784,-13.603264
1425413273.8,-14.441944
1425413273.815,-15.597538
1425413273.831,-16.725086
1425413273.847,-17.408508
1425413273.862,-17.398972
1425413273.878,-16.704166
1425413273.893,-15.57724
1425413273.909,-14.381268
1425413273.925,-13.424915
1425413273.94,-12.863022
1425413273.956,-12.679096
1425413273.972,-12.7215805
1425413273.987,-12.7703705
1425413274.003,-12.597309
1425413274.018,-11.998043
1425413274.034,-10.931904
1425413274.05,-9.478394
1425413274.065,-7.8883743
1425413274.081,-6.4809914
1425413274.097,-5.494812
1425413274.112,-4.9945545
1425413274.128,-4.807274
1425413274.143,-4.6152916
1425413274.159,-4.0710106
1425413274.175,-2.9908695
1425413274.19,-1.418354
1425413274.206,0.41819954
1425413274.222,2.1964264
1425413274.237,3.7053928
1425413274.253,4.8596725
1425413274.268,5.7740955
1425413274.284,6.675802
1425413274.3,7.8422575
1425413274.315,9.516715
1425413274.331,11.897917
1425413274.347,15.05074
1425413274.362,18.870735
1425413274.378,23.018906
1425413274.393,26.928835
1425413274.409,29.899494
1425413274.425,31.296494
1425413274.44,30.748976
1425413274.456,28.24866
1425413274.472,24.162697
1425413274.487,19.091843
1425413274.503,13.669818
1425413274.518,8.436432
1425413274.534,3.7074676
1425413274.55,-0.3787098
1425413274.565,-3.8212538
1425413274.581,-6.6883354
1425413274.597,-9.062348
1425413274.612,-10.996665
1425413274.628,-12.544341
1425413274.643,-13.731226
1425413274.659,-14.591687
1425413274.675,-15.147772
1425413274.69,-15.433653
1425413274.706,-15.483635
1425413274.722,-15.340702
1425413274.737,-15.017927
1425413274.753,-14.549364
1425413274.768,-13.926147
1425413274.784,-13.124002
1425413274.8,-12.096251
1425413274.815,-10.851709
1425413274.831,-9.446175
1425413274.847,-8.028606
1425413274.862,-6.7917633
1425413274.878,-5.874117
1425413274.893,-5.2898483
1425413274.909,-4.933853
1425413274.925,-4.584034
1425413274.94,-4.087162
1425413274.956,-3.379448
1425413274.972,-2.5419235
1425413274.987,-1.7009239
1425413275.003,-0.9580803
1425413275.018,-0.26542664
1425413275.034,0.5055084
1425413275.05,1.5613213
1425413275.065,2.9980202
1425413275.081,4.785923
1425413275.097,6.7837143
1425413275.112,8.8533325
1425413275.128,10.924446
1425413275.144,12.988899
1425413275.159,15.088791
1425413275.175,17.200188
1425413275.19,19.231525
1425413275.206,21.069618
1425413275.222,22.690296
1425413275.237,24.23177
1425413275.253,25.90768
1425413275.269,27.917244
1425413275.284,30.210526
1425413275.3,32.483624
1425413275.315,34.22286
1425413275.331,34.921818
1425413275.347,34.273026
1425413275.362,32.295258
1425413275.378,29.24899
1425413275.394,25.511215
1425413275.409,21.408207
1425413275.425,17.18711
1425413275.44,13.031998
1425413275.456,9.098721
1425413275.472,5.5325546
1425413275.487,2.4529076
1425413275.503,-0.08356476
1425413275.519,-2.0570755
1425413275.534,-3.5099754
1425413275.55,-4.462345
1425413275.565,-4.961155
1425413275.581,-5.1300735
1425413275.597,-5.1715126
1425413275.612,-5.2961845
1425413275.628,-5.6093597
1425413275.644,-6.0567513
1425413275.659,-6.4171295
1425413275.675,-6.4303665
1425413275.69,-5.96373
1425413275.706,-5.07777
1425413275.722,-4.025856
1425413275.737,-3.076664
1425413275.753,-2.439003
1425413275.769,-2.1352768
1425413275.784,-2.1126518
1425413275.8,-2.256752
1425413275.815,-2.5152054
1425413275.831,-2.8759232
1425413275.847,-3.35392
1425413275.862,-3.8719978
1425413275.878,-4.270096
1425413275.894,-4.3125
1425413275.909,-3.7729836
1425413275.925,-2.5923958
1425413275.94,-0.95106125
1425413275.956,0.74316025
1425413275.972,2.004818
1425413275.987,2.530445
1425413276.003,2.3021927
1425413276.019,1.6918526
1425413276.034,1.2166023
1425413276.05,1.2938042
1425413276.065,2.0555916
1425413276.081,3.3388405
1425413276.097,4.829174
1425413276.112,6.306801
1425413276.128,7.7713356
1425413276.144,9.293392
1425413276.159,10.868629
1425413276.175,12.227856
1425413276.19,12.916752
1425413276.206,12.552193
1425413276.222,10.997334
1425413276.237,8.494751
1425413276.253,5.4479294
1425413276.269,2.2115097
1425413276.284,-1.1165085
1425413276.3,-4.544796
1425413276.315,-8.036659
1425413276.331,-11.217224
1425413276.347,-13.453861
1425413276.362,-14.047173
1425413276.378,-12.601128
1425413276.394,-9.268372
1425413276.409,-4.7359924
1425413276.425,0.020534515
1425413276.44,4.068035
1425413276.456,6.7578926
1425413276.472,7.829994
1425413276.487,7.4160614
1425413276.503,5.904667
1425413276.519,3.7727852
1425413276.534,1.4543095
1425413276.55,-0.85437584
1425413276.565,-3.2626572
1425413276.581,-6.114336
1425413276.597,-9.812134
1425413276.612,-14.546507
1425413276.628,-20.098864
1425413276.644,-25.743294
1425413276.659,-30.464949
1425413276.675,-33.21618
1425413276.69,-33.338013
1425413276.706,-30.771187
1425413276.722,-26.078604
1425413276.737,-20.24141
1425413276.753,-14.336754
1425413276.769,-9.183426
1425413276.784,-5.235939
1425413276.8,-2.5624847
1425413276.815,-1.0377884
1425413276.831,-0.46642303
1425413276.847,-0.65864563
1425413276.862,-1.3747959
1425413276.878,-2.2086868
1425413276.894,-2.5629025
1425413276.909,-1.8137779
1425413276.925,0.4220028
1425413276.94,4.093916
1425413276.956,8.670696
1425413276.972,13.329346
1425413276.987,17.31396
1425413277.003,20.159998
1425413277.019,21.782766
1425413277.034,22.298986
1425413277.05,21.857798
1425413277.065,20.488049
1425413277.081,18.192654
1425413277.097,15.078365
1425413277.112,11.4650345
1425413277.128,7.8270187
1425413277.144,4.607506
1425413277.159,1.974472
1425413277.175,-0.20251465
1425413277.19,-2.2402496
1425413277.206,-4.483368
1425413277.222,-7.100807
1425413277.237,-10.012451
1425413277.253,-12.955612
1425413277.269,-15.554638
1425413277.284,-17.439533
1425413277.3,-18.358528
1425413277.315,-18.276901
1425413277.331,-17.439674
1425413277.347,-16.259624
1425413277.362,-15.15844
1425413277.378,-14.35117
1425413277.394,-13.766724
1425413277.409,-13.166988
1425413277.425,-12.389034
1425413277.44,-11.548161
1425413277.456,-11.006092
1425413277.472,-11.12817
1425413277.487,-11.954708
1425413277.503,-13.093143
1425413277.519,-13.864555
1425413277.534,-13.649342
1425413277.55,-12.266636
1425413277.565,-10.053463
1425413277.581,-7.6473503
1425413277.597,-5.671173
1425413277.612,-4.4177017
1425413277.628,-3.870369
1425413277.644,-3.7615051
1425413277.659,-3.8288727
1425413277.675,-3.8527336
1425413277.69,-3.698925
1425413277.706,-3.2228127
1425413277.722,-2.3122482
1425413277.737,-0.8615875
1425413277.753,1.0962257
1425413277.769,3.462635
1425413277.784,6.072445
1425413277.8,8.800667
1425413277.816,11.576492
1425413277.831,14.361362
1425413277.847,17.080017
1425413277.862,19.604752
1425413277.878,21.775536
1425413277.894,23.478699
1425413277.909,24.650627
1425413277.925,25.285233
1425413277.94,25.341667
1425413277.956,24.748123
1425413277.972,23.428802
1425413277.987,21.419037
1425413278.003,18.8947
1425413278.019,16.164558
1425413278.034,13.548553
1425413278.05,11.257027
1425413278.066,9.277275
1425413278.081,7.433052
1425413278.097,5.496231
1425413278.112,3.369194
1425413278.128,1.1506271
1425413278.144,-0.8963394
1425413278.159,-2.5178375
1425413278.175,-3.5934525
1425413278.191,-4.249626
1425413278.206,-4.777725
1425413278.222,-5.5201797
1425413278.237,-6.597473
1425413278.253,-7.9082565
1425413278.269,-9.143478
1425413278.284,-10.007301
1425413278.3,-10.328949
1425413278.316,-10.173843
1425413278.331,-9.675308
1425413278.347,-8.958038
1425413278.362,-8.018272
1425413278.378,-6.795738
1425413278.394,-5.2890015
1425413278.409,-3.6176453
1425413278.425,-2.0152435
1425413278.441,-0.7229843
1425413278.456,0.14438629
1425413278.472,0.64356995
1425413278.487,0.94992065
1425413278.503,1.2579956
1425413278.519,1.7116928
1425413278.534,2.3542252
1425413278.55,3.198944
1425413278.566,4.2507477
1425413278.581,5.5320587
1425413278.597,7.039177
1425413278.612,8.7612
1425413278.628,10.688545
1425413278.644,12.784256
1425413278.659,15.004395
1425413278.675,17.249687
1425413278.691,19.367188
1425413278.706,21.22979
1425413278.722,22.754715
1425413278.737,24.0225
1425413278.753,25.256325
1425413278.769,26.755997
1425413278.784,28.701736
1425413278.8,31.066643
1425413278.816,33.517555
1425413278.831,35.5037
1425413278.847,36.420303
1425413278.862,35.817192
1425413278.878,33.478424
1425413278.894,29.515701
1425413278.909,24.24065
1425413278.925,18.096008
1425413278.941,11.596161
1425413278.956,5.2499886
1425413278.972,-0.44931793
1425413278.987,-5.1042137
1425413279.003,-8.50227
1425413279.019,-10.657833
1425413279.034,-11.834267
1425413279.05,-12.45343
1425413279.066,-12.991444
1425413279.081,-13.791546
1425413279.097,-15.045406
1425413279.112,-16.765652
1425413279.128,-18.853508
1425413279.144,-21.055138
1425413279.159,-23.047634
1425413279.175,-24.433746
1425413279.191,-24.858734
1425413279.206,-24.147896
1425413279.222,-22.429066
1425413279.237,-20.153542
1425413279.253,-17.946003
1425413279.269,-16.363716
1425413279.284,-15.680916
1425413279.3,-15.788185
1425413279.316,-16.259731
1425413279.331,-16.590044
1425413279.347,-16.431921
1425413279.362,-15.696722
1425413279.378,-14.578684
1425413279.394,-13.321672
1425413279.409,-12.080229
1425413279.425,-10.810282
1425413279.441,-9.335615
1425413279.456,-7.439335
1425413279.472,-5.03627
1425413279.487,-2.2285328
1425413279.503,0.716177
1425413279.519,3.4648857
1425413279.534,5.703289
1425413279.55,7.2997837
1425413279.566,8.322102
1425413279.581,9.051731
1425413279.597,9.928122
1425413279.612,11.366346
1425413279.628,13.600952
1425413279.644,16.535835
1425413279.659,19.69853
1425413279.675,22.371387
1425413279.691,23.781597
1425413279.706,23.3763
1425413279.722,20.984943
1425413279.737,16.920353
1425413279.753,11.831275
1425413279.769,6.5741453
1425413279.784,1.9154882
1425413279.8,-1.6436911
1425413279.816,-4.0121374
1425413279.831,-5.443276
1425413279.847,-6.3697553
1425413279.862,-7.1760125
1425413279.878,-8.033526
1425413279.894,-8.860215
1425413279.909,-9.421834
1425413279.925,-9.606248
1425413279.941,-9.559558
1425413279.956,-9.662372
1425413279.972,-10.304764
1425413279.987,-11.632156
1425413280.003,-13.367882
1425413280.019,-14.869381
1425413280.034,-15.497685
1425413280.05,-14.935763
1425413280.066,-13.399865
1425413280.081,-11.545107
1425413280.097,-10.088585
1425413280.112,-9.467283
1425413280.128,-9.618778
1425413280.144,-10.083454
1425413280.159,-10.338309
1425413280.175,-10.046135
1425413280.191,-9.2375145
1425413280.206,-8.142797
1425413280.222,-7.018876
1425413280.237,-5.981018
1425413280.253,-5.003996
1425413280.269,-4.059093
1425413280.284,-3.1777058
1425413280.3,-2.4249153
1425413280.316,-1.829319
1425413280.331,-1.2699776
1425413280.347,-0.5308261
1425413280.362,0.6105976
1425413280.378,2.1959205
1425413280.394,4.0326877
1425413280.409,5.813005
1425413280.425,7.3075485
1425413280.441,8.493208
1425413280.456,9.635544
1425413280.472,11.105966
1425413280.488,13.2195
1425413280.503,16.041157
1425413280.519,19.304253
1425413280.534,22.510416
1425413280.55,25.05325
1425413280.566,26.364605
1425413280.581,26.073645
1425413280.597,24.020279
1425413280.612,20.32003
1425413280.628,15.307279
1425413280.644,9.55656
1425413280.659,3.71313
1425413280.675,-1.582531
1425413280.691,-5.9297094
1425413280.706,-9.19565
1425413280.722,-11.506234
1425413280.738,-13.080285
1425413280.753,-14.0997305
1425413280.769,-14.600745
1425413280.784,-14.593641
1425413280.8,-14.156309
1425413280.816,-13.544945
1425413280.831,-13.147907
1425413280.847,-13.317277
1425413280.863,-14.136874
1425413280.878,-15.369309
1425413280.894,-16.546124
1425413280.909,-17.24793
1425413280.925,-17.275398
1425413280.941,-16.795277
1425413280.956,-16.10108
1425413280.972,-15.490883
1425413280.988,-15.068705
1425413281.003,-14.744635
1425413281.019,-14.343659
1425413281.034,-13.690074
1425413281.05,-12.706054
1425413281.066,-11.381176
1425413281.081,-9.72607
1425413281.097,-7.828743
1425413281.113,-5.8241673
1425413281.128,-3.925415
1425413281.144,-2.296692
1425413281.159,-1.0037537
1425413281.175,0.106142044
1425413281.191,1.3045244
1425413281.206,2.8638878
1425413281.222,4.834814
1425413281.238,7.047537
1425413281.253,9.191092
1425413281.269,11.035315
1425413281.284,12.593771
1425413281.3,14.158533
1425413281.316,16.130978
1425413281.331,18.805948
1425413281.347,22.187462
1425413281.363,26.002136
1425413281.378,29.799997
1425413281.394,33.11744
1425413281.409,35.576702
1425413281.425,36.92305
1425413281.441,36.89238
1425413281.456,35.307907
1425413281.472,32.068344
1425413281.488,27.34063
1425413281.503,21.598684
1425413281.519,15.572805
1425413281.534,10.047894
1425413281.55,5.5784073
1425413281.566,2.3464909
1425413281.581,0.15511513
1425413281.597,-1.3612232
1425413281.613,-2.542715
1425413281.628,-3.5605774
1425413281.644,-4.4612484
1425413281.659,-5.25185
1425413281.675,-5.958929
1425413281.691,-6.6610146
1425413281.706,-7.3513927
1425413281.722,-7.946068
1425413281.738,-8.253792
1425413281.753,-8.143242
1425413281.769,-7.6019974
1425413281.784,-6.829006
1425413281.8,-6.115898
1425413281.816,-5.7558403
1425413281.831,-5.8393593
1425413281.847,-6.2290154
1425413281.863,-6.5895996
1425413281.878,-6.543438
1425413281.894,-5.8615646
1425413281.909,-4.567566
1425413281.925,-2.9578285
1425413281.941,-1.5187721
1425413281.956,-0.64746857
1425413281.972,-0.48910904
1425413281.988,-0.8519058
1425413282.003,-1.288044
1425413282.019,-1.3217049
1425413282.034,-0.68294144
1425413282.05,0.6169281
1425413282.066,2.31707
1425413282.081,4.0824814
1425413282.097,5.643303
1425413282.113,6.896946
1425413282.128,7.862301
1425413282.144,8.644058
1425413282.159,9.373512
1425413282.175,10.228577
1425413282.191,11.380363
1425413282.206,12.927612
1425413282.222,14.779572
1425413282.238,16.561455
1425413282.253,17.669579
1425413282.269,17.481422
1425413282.284,15.59584
1425413282.3,12.044479
1425413282.316,7.228874
1425413282.331,1.8001175
1425413282.347,-3.6239014
1425413282.363,-8.586655
1425413282.378,-12.831726
1425413282.394,-16.19577
1425413282.409,-18.54303
1425413282.425,-19.787994
1425413282.441,-20.01249
1425413282.456,-19.564247
1425413282.472,-19.01616
1425413282.488,-18.928978
1425413282.503,-19.62033
1425413282.519,-20.985214
1425413282.534,-22.561485
1425413282.55,-23.75412
1425413282.566,-24.153198
1425413282.581,-23.704346
1425413282.597,-22.707901
1425413282.613,-21.60183
1425413282.628,-20.747429
1425413282.644,-20.252792
1425413282.659,-20.00364
1425413282.675,-19.737892
1425413282.691,-19.194786
1425413282.706,-18.243484
1425413282.722,-16.873161
1425413282.738,-15.2037735
1425413282.753,-13.377144
1425413282.769,-11.543434
1425413282.784,-9.824768
1425413282.8,-8.257851
1425413282.816,-6.810425
1425413282.831,-5.358429
1425413282.847,-3.7400513
1425413282.863,-1.7617569
1425413282.878,0.61180115
1425413282.894,3.22818
1425413282.909,5.756569
1425413282.925,7.8175964
1425413282.941,9.2174225
1425413282.956,10.105896
1425413282.972,11.001053
1425413282.988,12.560493
1425413283.003,15.275169
1425413283.019,19.176315
1425413283.034,23.80352
1425413283.05,28.356308
1425413283.066,31.997765
1425413283.081,34.109337
1425413283.097,34.3871
1425413283.113,32.78762
1425413283.128,29.413765
1425413283.144,24.550964
1425413283.159,18.62481
1425413283.175,12.243858
1425413283.191,6.1399612
1425413283.206,0.9868622
1425413283.222,-2.8364944
1425413283.238,-5.34256
1425413283.253,-6.9070053
1425413283.269,-8.041344
1425413283.284,-9.227745
1425413283.3,-10.667435
1425413283.316,-12.328445
1425413283.331,-14.020798
1425413283.347,-15.594788
1425413283.363,-16.99858
1425413283.378,-18.271568
1425413283.394,-19.482063
1425413283.41,-20.600891
1425413283.425,-21.460434
1425413283.441,-21.81894
1425413283.456,-21.520958
1425413283.472,-20.61264
1425413283.488,-19.332077
1425413283.503,-18.050552
1425413283.519,-17.027275
1425413283.535,-16.302834
1425413283.55,-15.6618805
1425413283.566,-14.820374
1425413283.581,-13.599457
1425413283.597,-12.062645
1425413283.613,-10.473366
1425413283.628,-9.159348
1425413283.644,-8.289986
1425413283.66,-7.773552
1425413283.675,-7.274872
1425413283.691,-6.4062424
1425413283.706,-4.9492874
1425413283.722,-2.9355545
1425413283.738,-0.6712723
1425413283.753,1.4556274
1425413283.769,3.191864
1425413283.785,4.4935303
1425413283.8,5.5715866
1425413283.816,6.7018967
1425413283.831,8.144684
1425413283.847,10.020721
1425413283.863,12.38443
1425413283.878,15.254898
1425413283.894,18.661613
1425413283.91,22.491371
1425413283.925,26.390648
1425413283.941,29.664268
1425413283.956,31.447884
1425413283.972,31.043526
1425413283.988,28.215218
1425413284.003,23.345001
1425413284.019,17.263786
1425413284.035,10.908638
1425413284.05,4.9808197
1425413284.066,-0.17249298
1425413284.081,-4.4998245
1425413284.097,-8.054985
1425413284.113,-10.823868
1425413284.128,-12.778267
1425413284.144,-13.92791
1425413284.16,-14.446098
1425413284.175,-14.641411
1425413284.191,-14.86174
1425413284.206,-15.338432
1425413284.222,-16.126343
1425413284.238,-17.077858
1425413284.253,-17.935738
1425413284.269,-18.394402
1425413284.285,-18.212524
1425413284.3,-17.26979
1425413284.316,-15.636642
1425413284.331,-13.543709
1425413284.347,-11.354248
1425413284.363,-9.378288
1425413284.378,-7.7830887
1425413284.394,-6.488991
1425413284.41,-5.2783356
1425413284.425,-3.8565292
1425413284.441,-2.0357132
1425413284.456,0.19358826
1425413284.472,2.694069
1425413284.488,5.201027
1425413284.503,7.489441
1425413284.519,9.41053
1425413284.535,10.960663
1425413284.55,12.272987
1425413284.566,13.55793
1425413284.581,15.027954
1425413284.597,16.78228
1425413284.613,18.77761
1425413284.628,20.778
1425413284.644,22.503952
1425413284.66,23.710724
1425413284.675,24.360321
1425413284.691,24.63308
1425413284.706,24.886765
1425413284.722,25.492592
1425413284.738,26.69587
1425413284.753,28.519203
1425413284.769,30.737183
1425413284.785,32.925262
1425413284.8,34.516785
1425413284.816,34.89956
1425413284.831,33.55223
1425413284.847,30.16597
1425413284.863,24.834557
1425413284.878,18.019882
1425413284.894,10.513786
1425413284.91,3.1161652
1425413284.925,-3.5220337
1425413284.941,-9.121361
1425413284.956,-13.676979
1425413284.972,-17.293304
1425413284.988,-20.060257
1425413285.003,-21.993896
1425413285.019,-23.134949
1425413285.035,-23.657112
1425413285.05,-23.912773
1425413285.066,-24.265175
1425413285.081,-24.919838
1425413285.097,-25.779343
1425413285.113,-26.485733
1425413285.128,-26.639618
1425413285.144,-25.987732
1425413285.16,-24.621803
1425413285.175,-22.903809
1425413285.191,-21.28321
1425413285.206,-20.073723
1425413285.222,-19.291153
1425413285.238,-18.65319
1425413285.253,-17.763641
1425413285.269,-16.287117
1425413285.285,-14.169609
1425413285.3,-11.656532
1425413285.316,-9.218803
1425413285.331,-7.334587
1425413285.347,-6.2936783
1425413285.363,-6.0388794
1425413285.378,-6.1768417
1425413285.394,-6.0805893
1425413285.41,-5.20549
1425413285.425,-3.260315
1425413285.441,-0.37200928
1425413285.456,2.9671555
1425413285.472,6.082863
1425413285.488,8.374603
1425413285.503,9.578613
1425413285.519,9.854446
1425413285.535,9.697502
1425413285.55,9.761787
1425413285.566,10.571167
1425413285.581,12.372116
1425413285.597,15.07518
1425413285.613,18.338593
1425413285.628,21.648972
1425413285.644,24.444397
1425413285.66,26.134605
1425413285.675,26.19793
1425413285.691,24.298393
1425413285.706,20.435219
1425413285.722,15.034134
1425413285.738,8.955254
1425413285.753,3.2072449
1425413285.769,-1.3689728
1425413285.785,-4.4091644
1425413285.8,-6.105171
1425413285.816,-7.073578
1425413285.831,-7.983467
1425413285.847,-9.266357
1425413285.863,-10.979485
1425413285.878,-12.914246
1425413285.894,-14.790932
1425413285.91,-16.484695
1425413285.925,-18.010803
1425413285.941,-19.422722
1425413285.956,-20.640991
1425413285.972,-21.422348
1425413285.988,-21.450394
1425413286.003,-20.53823
1425413286.019,-18.732834
1425413286.035,-16.407852
1425413286.05,-14.114235
1425413286.066,-12.370598
1425413286.082,-11.47348
1425413286.097,-11.400696
1425413286.113,-11.808647
1425413286.128,-12.223183
1425413286.144,-12.192909
1425413286.16,-11.500137
1425413286.175,-10.203201
1425413286.191,-8.626976
1425413286.207,-7.1648636
1425413286.222,-6.1303787
1425413286.238,-5.577011
1425413286.253,-5.2969055
1425413286.269,-4.927948
1425413286.285,-4.166092
1425413286.3,-2.8583145
1425413286.316,-1.0780945
1425413286.332,0.945961
1425413286.347,2.959816
1425413286.363,4.7861176
1425413286.378,6.3609467
1425413286.394,7.7334747
1425413286.41,9.031708
1425413286.425,10.448135
1425413286.441,12.202492
1425413286.457,14.510239
1425413286.472,17.428856
1425413286.488,20.790665
1425413286.503,24.112213
1425413286.519,26.688072
1425413286.535,27.81041
1425413286.55,27.02224
1425413286.566,24.302895
1425413286.582,20.089249
1425413286.597,15.136627
1425413286.613,10.257263
1425413286.628,6.0533066
1425413286.644,2.8023148
1425413286.66,0.45028687
1425413286.675,-1.273552
1425413286.691,-2.6709976
1425413286.707,-3.963211
1425413286.722,-5.2549667
1425413286.738,-6.553322
1425413286.753,-7.855461
1425413286.769,-9.155083
1425413286.785,-10.489639
1425413286.8,-11.877312
1425413286.816,-13.325668
1425413286.832,-14.720673
1425413286.847,-15.905472
1425413286.863,-16.665108
1425413286.878,-16.853653
1425413286.894,-16.43843
1425413286.91,-15.580215
1425413286.925,-14.570961
1425413286.941,-13.738617
1425413286.957,-13.272049
1425413286.972,-13.156223
1425413286.988,-13.080566
1425413287.003,-12.644779
1425413287.019,-11.516026
1425413287.035,-9.627605
1425413287.05,-7.217289
1425413287.066,-4.7298546
1425413287.082,-2.5725822
1425413287.097,-0.95814896
1425413287.113,0.25043488
1425413287.128,1.3802795
1425413287.144,2.790619
1425413287.16,4.655094
1425413287.175,6.925308
1425413287.191,9.355274
1425413287.207,11.648426
1425413287.222,13.583435
1425413287.238,15.13847
1425413287.253,16.463425
1425413287.269,17.863014
1425413287.285,19.64185
1425413287.3,22.018234
1425413287.316,24.945137
1425413287.332,28.147984
1425413287.347,31.12325
1425413287.363,33.319977
1425413287.378,34.288696
1425413287.394,33.819965
1425413287.41,31.970722
1425413287.425,29.021278
1425413287.441,25.379478
1425413287.457,21.478767
1425413287.472,17.630596
1425413287.488,14.116566
1425413287.503,11.10955
1425413287.519,8.704334
1425413287.535,6.9338455
1425413287.55,5.772869
1425413287.566,5.109581
1425413287.582,4.7726555
1425413287.597,4.522331
1425413287.613,4.093502
1425413287.628,3.2391853
1425413287.644,1.8203621
1425413287.66,-0.13609695
1425413287.675,-2.451233
1425413287.691,-4.833084
1425413287.707,-6.9745255
1425413287.722,-8.67675
1425413287.738,-9.877918
1425413287.753,-10.618347
1425413287.769,-10.99493
1425413287.785,-11.117287
1425413287.8,-11.030224
1425413287.816,-10.7585335
1425413287.832,-10.287422
1425413287.847,-9.637001
1425413287.863,-8.825859
1425413287.878,-7.9149933
1425413287.894,-6.8967514
1425413287.91,-5.739319
1425413287.925,-4.3955
1425413287.941,-2.8346786
1425413287.957,-1.0840988
1425413287.972,0.72883606
1425413287.988,2.4139786
1425413288.003,3.789116
1425413288.019,4.7514496
1425413288.035,5.3254547
1425413288.05,5.693138
1425413288.066,6.0967026
1425413288.082,6.787262
1425413288.097,7.931679
1425413288.113,9.553635
1425413288.128,11.525841
1425413288.144,13.566887
1425413288.16,15.2602005
1425413288.175,16.142807
1425413288.191,15.806854
1425413288.207,14.023392
1425413288.222,10.836899
1425413288.238,6.5353928
1425413288.253,1.616684
1425413288.269,-3.3782578
1425413288.285,-8.014053
1425413288.3,-12.005852
1425413288.316,-15.223518
1425413288.332,-17.588326
1425413288.347,-19.066101
1425413288.363,-19.628807
1425413288.378,-19.36058
1425413288.394,-18.484291
1425413288.41,-17.392494
1425413288.425,-16.504105
1425413288.441,-16.124321
1425413288.457,-16.341347
1425413288.472,-17.026909
1425413288.488,-17.959679
1425413288.503,-18.937836
1425413288.519,-19.846786
1425413288.535,-20.649864
1425413288.55,-21.31385
1425413288.566,-21.755882
1425413288.582,-21.838036
1425413288.597,-21.40065
1425413288.613,-20.352402
1425413288.628,-18.705956
1425413288.644,-16.604477
1425413288.66,-14.320007
1425413288.675,-12.156662
1425413288.691,-10.336067
1425413288.707,-8.926437
1425413288.722,-7.7926865
1425413288.738,-6.661392
1425413288.754,-5.2778244
1425413288.769,-3.5318604
1425413288.785,-1.5231323
1425413288.8,0.51439667
1425413288.816,2.3436813
1425413288.832,3.885559
1425413288.847,5.2186966
1425413288.863,6.4999237
1425413288.878,7.891655
1425413288.894,9.522278
1425413288.91,11.501831
1425413288.925,13.96521
1425413288.941,16.938126
1425413288.957,20.252083
1425413288.972,23.399223
1425413288.988,25.62658
1425413289.004,26.171448
1425413289.019,24.622398
1425413289.035,21.144142
1425413289.05,16.438606
1425413289.066,11.41954
1425413289.082,6.827591
1425413289.097,2.9297638
1425413289.113,-0.43385315
1425413289.129,-3.632492
1425413289.144,-6.8449707
1425413289.16,-9.942383
1425413289.175,-12.566711
1425413289.191,-14.379272
1425413289.207,-15.339691
1425413289.222,-15.754311
1425413289.238,-16.097008
1425413289.254,-16.70552
1425413289.269,-17.550781
1425413289.285,-18.297867
1425413289.3,-18.499062
1425413289.316,-17.955292
1425413289.332,-16.76081
1425413289.347,-15.311012
1425413289.363,-13.976822
1425413289.379,-12.927536
1425413289.394,-12.064079
1425413289.41,-11.177589
1425413289.425,-10.151649
1425413289.441,-9.073921
1425413289.457,-8.116478
1425413289.472,-7.4423637
1425413289.488,-7.0381317
1425413289.504,-6.73452
1425413289.519,-6.3322525
1425413289.535,-5.741909
1425413289.55,-4.9677505
1425413289.566,-4.0913963
1425413289.582,-3.1210594
1425413289.597,-2.0236816
1425413289.613,-0.72735214
1425413289.629,0.7265358
1425413289.644,2.1720772
1425413289.66,3.3729591
1425413289.675,4.2054977
1425413289.691,4.788761
1425413289.707,5.473919
1425413289.722,6.719631
1425413289.738,8.883488
1425413289.754,12.052498
1425413289.769,16.015755
1425413289.785,20.327053
1425413289.8,24.439941
1425413289.816,27.768936
1425413289.832,29.835007
1425413289.847,30.30082
1425413289.863,29.0508
1425413289.879,26.234234
1425413289.894,22.273533
1425413289.91,17.756695
1425413289.925,13.279659
1425413289.941,9.213959
1425413289.957,5.6654243
1425413289.972,2.4783306
1425413289.988,-0.5339546
1425413290.004,-3.4253788
1425413290.019,-6.0310726
1425413290.035,-8.078138
1425413290.05,-9.39554
1425413290.066,-10.0830555
1425413290.082,-10.472528
1425413290.097,-10.946426
1425413290.113,-11.685328
1425413290.129,-12.554684
1425413290.144,-13.116711
1425413290.16,-12.945316
1425413290.175,-11.84664
1425413290.191,-10.02622
1425413290.207,-8.014639
1425413290.222,-6.444639
1425413290.238,-5.7096405
1425413290.254,-5.8301096
1425413290.269,-6.45848
1425413290.285,-7.097847
1425413290.3,-7.329794
1425413290.316,-6.9967184
1425413290.332,-6.192812
1425413290.347,-5.1184673
1425413290.363,-3.944004
1425413290.379,-2.7131968
1425413290.394,-1.3786898
1425413290.41,0.07469082
1425413290.425,1.6196117
1425413290.441,3.1194692
1425413290.457,4.4674797
1425413290.472,5.655779
1425413290.488,6.80696
1425413290.504,8.1182575
1425413290.519,9.7240715
1425413290.535,11.607491
1425413290.55,13.55226
1425413290.566,15.287261
1425413290.582,16.609243
1425413290.597,17.510702
1425413290.613,18.225998
1425413290.629,19.05355
1425413290.644,20.242353
1425413290.66,21.813755
1425413290.675,23.525345
1425413290.691,24.9636
1425413290.707,25.753695
1425413290.722,25.677736
1425413290.738,24.710035
1425413290.754,22.899107
1425413290.769,20.319407
1425413290.785,16.983183
1425413290.8,12.973647
1425413290.816,8.519225
1425413290.832,4.065721
1425413290.847,0.1246748
1425413290.863,-2.9317489
1425413290.879,-5.0272913
1425413290.894,-6.398998
1425413290.91,-7.4610386
1425413290.925,-8.579929
1425413290.941,-9.962977
1425413290.957,-11.600746
1425413290.972,-13.361439
1425413290.988,-15.071632
1425413291.004,-16.584724
1425413291.019,-17.750803
1425413291.035,-18.432821
1425413291.05,-18.513887
1425413291.066,-17.989662
1425413291.082,-17.012836
1425413291.097,-15.930465
1425413291.113,-15.138947
1425413291.129,-14.907022
1425413291.144,-15.237842
1425413291.16,-15.843929
1425413291.175,-16.262342
1425413291.191,-16.152412
1425413291.207,-15.443703
1425413291.222,-14.393926
1425413291.238,-13.408283
1425413291.254,-12.782206
1425413291.269,-12.51324
1425413291.285,-12.284293
1425413291.3,-11.64846
1425413291.316,-10.335694
1425413291.332,-8.383021
1425413291.347,-6.1200995
1425413291.363,-3.9745865
1425413291.379,-2.1922522
1425413291.394,-0.7432089
1425413291.41,0.61462927
1425413291.426,2.1656542
1425413291.441,4.026266
1425413291.457,6.091998
1425413291.472,8.125212
1425413291.488,9.981339
1425413291.504,11.664456
1425413291.519,13.353061
1425413291.535,15.178434
1425413291.55,17.101685
1425413291.566,18.778997
1425413291.582,19.714947
1425413291.597,19.462511
1425413291.613,17.831036
1425413291.629,15.008429
1425413291.644,11.442759
1425413291.66,7.6586647
1425413291.676,4.0576935
1425413291.691,0.79605293
1425413291.707,-2.0744057
1425413291.722,-4.500721
1425413291.738,-6.3259697
1425413291.754,-7.318928
1425413291.769,-7.3313103
1425413291.785,-6.5324306
1425413291.801,-5.420727
1425413291.816,-4.709898
1425413291.832,-5.0034904
1425413291.847,-6.5233994
1425413291.863,-8.917431
1425413291.879,-11.460979
1425413291.894,-13.396976
1425413291.91,-14.282379
1425413291.926,-14.167322
1425413291.941,-13.45129
1425413291.957,-12.606148
1425413291.972,-11.918591
1425413291.988,-11.356178
1425413292.004,-10.7044525
1425413292.019,-9.746281
1425413292.035,-8.434872
1425413292.051,-6.870949
1425413292.066,-5.202446
1425413292.082,-3.5130348
1425413292.097,-1.7846222
1425413292.113,1.7929077E-4
1425413292.129,1.7944641
1425413292.144,3.3940277
1425413292.16,4.5442047
1425413292.176,5.098057
1425413292.191,5.087494
1425413292.207,4.783863
1425413292.222,4.5680847
1425413292.238,4.8004227
1425413292.254,5.6447678
1425413292.269,7.0613403
1425413292.285,8.839016
1425413292.301,10.734901
1425413292.316,12.584953
1425413292.332,14.378372
1425413292.347,16.24966
1425413292.363,18.373093
1425413292.379,20.827583
1425413292.394,23.48875
1425413292.41,25.991928
1425413292.426,27.796886
1425413292.441,28.321991
1425413292.457,27.153755
1425413292.472,24.149143
1425413292.488,19.577892
1425413292.504,14.030045
1425413292.519,8.331837
1425413292.535,3.3323708
1425413292.551,-0.2543602
1425413292.566,-2.0954857
1425413292.582,-2.2547302
1425413292.597,-1.2251663
1425413292.613,0.275692
1425413292.629,1.5011139
1425413292.644,1.8791924
1425413292.66,1.1023102
1425413292.676,-0.83260345
1425413292.691,-3.7303581
1425413292.707,-7.2567406
1425413292.722,-10.979332
1425413292.738,-14.37743
1425413292.754,-16.915268
1425413292.769,-18.155819
1425413292.785,-17.931267
1425413292.801,-16.381077
1425413292.816,-13.9505005
1425413292.832,-11.150616
1425413292.847,-8.424725
1425413292.863,-5.9683037
1425413292.879,-3.850544
1425413292.894,-2.0977325
1425413292.91,-0.83460236
1425413292.926,-0.21821213
1425413292.941,-0.3223076
1425413292.957,-0.92134476
1425413292.972,-1.5273438
1425413292.988,-1.5842361
1425413293.004,-0.73252106
1425413293.019,0.9937706
1425413293.035,3.1391335
1425413293.051,5.0655746
1425413293.066,6.232273
1425413293.082,6.436119
1425413293.097,5.8272514
1425413293.113,4.8053055
1425413293.129,3.776413
1425413293.144,3.035015
1425413293.16,2.7096672
1425413293.176,2.8692856
1425413293.191,3.5721245
1425413293.207,4.934738
1425413293.222,7.012562
1425413293.238,9.805466
1425413293.254,13.142727
1425413293.269,16.756462
1425413293.285,20.325691
1425413293.301,23.61488
1425413293.316,26.445751
1425413293.332,28.6983
1425413293.347,30.203636
1425413293.363,30.711834
1425413293.379,29.945412
1425413293.394,27.769165
1425413293.41,24.286415
1425413293.426,19.926197
1425413293.441,15.301182
1425413293.457,11.093452
1425413293.472,7.793377
1425413293.488,5.627014
1425413293.504,4.485325
1425413293.519,4.057247
1425413293.535,3.8861198
1425413293.551,3.5435066
1425413293.566,2.6821594
1425413293.582,1.1066132
1425413293.597,-1.2470016
1425413293.613,-4.323803
1425413293.629,-8.00016
1425413293.644,-12.040688
1425413293.66,-16.136414
1425413293.676,-19.819439
1425413293.691,-22.546738
1425413293.707,-23.785507
1425413293.722,-23.236137
1425413293.738,-21.006527
1425413293.754,-17.693157
1425413293.769,-14.194965
1425413293.785,-11.509834
1425413293.801,-10.324585
1425413293.816,-10.824894
1425413293.832,-12.619671
1425413293.847,-14.969021
1425413293.863,-17.091217
1425413293.879,-18.45139
1425413293.894,-18.942142
1425413293.91,-18.81916
1425413293.926,-18.473318
1425413293.941,-18.196136
1425413293.957,-18.023998
1425413293.972,-17.775179
1425413293.988,-17.13173
1425413294.004,-15.909128
1425413294.019,-14.060215
1425413294.035,-11.7342
1425413294.051,-9.131147
1425413294.066,-6.3787975
1425413294.082,-3.4952564
1425413294.097,-0.46368027
1425413294.113,2.6582355
1425413294.129,5.673485
1425413294.144,8.336582
1425413294.16,10.5037
1425413294.176,12.30621
1425413294.191,14.1236725
1425413294.207,16.411871
1425413294.222,19.424103
1425413294.238,22.969463
1425413294.254,26.42263
1425413294.269,28.921427
1425413294.285,29.721613
1425413294.301,28.512655
1425413294.316,25.518677
1425413294.332,21.420288
1425413294.348,16.991915
1425413294.363,12.857761
1425413294.379,9.2891865
1425413294.394,6.2277794
1425413294.41,3.4884605
1425413294.426,0.9705715
1425413294.441,-1.2430058
1425413294.457,-2.9006596
1425413294.473,-3.7809334
1425413294.488,-3.8506165
1425413294.504,-3.3416004
1425413294.519,-2.7011623
1425413294.535,-2.3626328
1425413294.551,-2.5808868
1425413294.566,-3.3529148
1425413294.582,-4.4355984
1425413294.598,-5.5674477
1425413294.613,-6.554718
1425413294.629,-7.4392624
1425413294.644,-8.415985
1425413294.66,-9.731686
1425413294.676,-11.505497
1425413294.691,-13.648825
1425413294.707,-15.867573
1425413294.723,-17.791756
1425413294.738,-19.123947
1425413294.754,-19.794754
1425413294.769,-19.920616
1425413294.785,-19.75243
1425413294.801,-19.459799
1425413294.816,-19.056377
1425413294.832,-18.367878
1425413294.848,-17.218102
1425413294.863,-15.5765295
1425413294.879,-13.638388
1425413294.894,-11.737663
1425413294.91,-10.194034
1425413294.926,-9.073607
1425413294.941,-8.177038
1425413294.957,-7.0986385
1425413294.973,-5.4695625
1425413294.988,-3.1481943
1425413295.004,-0.2973776
1425413295.019,2.6432219
1425413295.035,5.1594143
1425413295.051,6.86065
1425413295.066,7.6279964
1425413295.082,7.7211113
1425413295.098,7.658064
1425413295.113,8.099201
1425413295.129,9.534538
1425413295.144,12.143917
1425413295.16,15.601487
1425413295.176,19.189514
1425413295.191,21.97972
1425413295.207,23.14413
1425413295.223,22.264027
1425413295.238,19.465
1425413295.254,15.353926
1425413295.269,10.794071
1425413295.285,6.560915
1425413295.301,3.0849113
1425413295.316,0.34793282
1425413295.332,-1.96138
1425413295.348,-4.2013607
1425413295.363,-6.498413
1425413295.379,-8.653112
1425413295.394,-10.245161
1425413295.41,-10.924219
1425413295.426,-10.66692
1425413295.441,-9.893394
1425413295.457,-9.264746
1425413295.473,-9.408854
1425413295.488,-10.518978
1425413295.504,-12.235533
1425413295.519,-13.779274
1425413295.535,-14.307446
1425413295.551,-13.325138
1425413295.566,-10.926144
1425413295.582,-7.75951
1425413295.598,-4.7719555
1425413295.613,-2.773077
1425413295.629,-2.1627407
1425413295.644,-2.7694836
1425413295.66,-4.0362854
1425413295.676,-5.20607
1425413295.691,-5.7243614
1425413295.707,-5.3828716
1425413295.723,-4.423485
1425413295.738,-3.317768
1425413295.754,-2.5342216
1425413295.769,-2.2755508
1425413295.785,-2.3968983
1425413295.801,-2.5301666
1425413295.816,-2.336794
1425413295.832,-1.7405224
1425413295.848,-0.9202957
1425413295.863,-0.20706558
1425413295.879,0.22794533
1425413295.894,0.55127525
1425413295.91,1.1775475
1425413295.926,2.5526848
1425413295.941,4.7871056
1425413295.957,7.5628853
1425413295.973,10.223942
1425413295.988,12.191856
1425413296.004,13.246635
1425413296.019,13.727047
1425413296.035,14.294151
1425413296.051,15.632889
1425413296.066,18.077255
1425413296.082,21.522816
1425413296.098,25.456379
1425413296.113,29.240139
1425413296.129,32.31185
1425413296.144,34.305374
1425413296.16,35.053757
1425413296.176,34.51877
1425413296.191,32.73803
1425413296.207,29.865707
1425413296.223,26.166649
1425413296.238,22.051281
1425413296.254,17.971338
1425413296.269,14.296497
1425413296.285,11.2062435
1425413296.301,8.698528
1425413296.316,6.5801888
1425413296.332,4.668024
1425413296.348,2.8777485
1425413296.363,1.313179
1425413296.379,0.12366295
1425413296.394,-0.58478355
1425413296.41,-0.8813629
1425413296.426,-1.0627995
1425413296.441,-1.4696045
1425413296.457,-2.3398676
1425413296.473,-3.6955624
1425413296.488,-5.3312044
1425413296.504,-6.975379
1425413296.519,-8.39439
1425413296.535,-9.488116
1425413296.551,-10.251806
1425413296.566,-10.717031
1425413296.582,-10.87173
1425413296.598,-10.735279
1425413296.613,-10.345331
1425413296.629,-9.863379
1425413296.644,-9.459408
1425413296.66,-9.264085
1425413296.676,-9.279865
1425413296.691,-9.414768
1425413296.707,-9.58775
1425413296.723,-9.787768
1425413296.738,-10.094795
1425413296.754,-10.559017
1425413296.769,-11.147083
1425413296.785,-11.649956
1425413296.801,-11.797247
1425413296.816,-11.398023
1425413296.832,-10.415564
1425413296.848,-8.985929
1425413296.863,-7.272586
1425413296.879,-5.3904543
1425413296.894,-3.352251
1425413296.91,-1.1278534
1425413296.926,1.2328262
1425413296.941,3.5684547
1425413296.957,5.7178593
1425413296.973,7.6564846
1425413296.988,9.570694
1425413297.004,11.806416
1425413297.02,14.606514
1425413297.035,17.906008
1425413297.051,21.220306
1425413297.066,23.802181
1425413297.082,24.957182
1425413297.098,24.263058
1425413297.113,21.761818
1425413297.129,17.79879
1425413297.145,12.883194
1425413297.16,7.474926
1425413297.176,1.9487801
1425413297.191,-3.3584518
1425413297.207,-8.071617
1425413297.223,-11.843151
1425413297.238,-14.420353
1425413297.254,-15.780769
1425413297.27,-16.179127
