1425495487.335,0.0
1425495487.35,0.0
1425495487.366,0.0
1425495487.382,0.0
1425495487.397,0.0
1425495487.413,0.0
1425495487.429,0.0
1425495487.444,0.0
1425495487.46,0.0
1425495487.476,0.0022315353
1425495487.491,-0.0045169927
1425495487.507,-0.011265522
1425495487.522,-0.011383951
1425495487.538,0.0011864507
1425495487.554,0.025910312
1425495487.569,0.050634187
1425495487.585,0.051362894
1425495487.601,-0.0014929791
1425495487.616,-0.1302426
1425495487.632,-0.35562757
1425495487.647,-0.6591247
1425495487.663,-1.0095103
1425495487.679,-1.3709826
1425495487.694,-1.7197359
1425495487.71,-2.0551105
1425495487.726,-2.39945
1425495487.741,-2.7866635
1425495487.757,-3.2399073
1425495487.772,-3.796012
1425495487.788,-4.418684
1425495487.804,-5.0592937
1425495487.819,-5.6644096
1425495487.835,-6.2021537
1425495487.851,-6.6808796
1425495487.866,-7.149598
1425495487.882,-7.6782336
1425495487.897,-8.310739
1425495487.913,-9.143657
1425495487.929,-10.089731
1425495487.944,-11.041313
1425495487.96,-11.8842125
1425495487.976,-12.564316
1425495487.991,-13.13563
1425495488.007,-13.760044
1425495488.022,-14.65232
1425495488.038,-15.962056
1425495488.054,-17.914442
1425495488.069,-20.317299
1425495488.085,-22.903854
1425495488.101,-25.37947
1425495488.116,-27.578028
1425495488.132,-29.57246
1425495488.147,-31.675173
1425495488.163,-34.3178
1425495488.179,-37.813618
1425495488.194,-42.541233
1425495488.21,-48.1463
1425495488.226,-54.104755
1425495488.241,-59.83309
1425495488.257,-64.972374
1425495488.272,-69.58293
1425495488.288,-74.14353
1425495488.304,-79.344986
1425495488.319,-85.70726
1425495488.335,-93.76193
1425495488.351,-102.99779
1425495488.366,-112.61757
1425495488.382,-121.73034
1425495488.397,-129.76602
1425495488.413,-136.75102
1425495488.429,-143.30344
1425495488.444,-150.74623
1425495488.46,-157.77356
1425495488.476,-166.64323
1425495488.491,-177.94798
1425495488.507,-191.79102
1425495488.522,-206.96808
1425495488.538,-220.56592
1425495488.554,-228.24644
1425495488.569,-225.36154
1425495488.585,-208.53198
1425495488.601,-176.87024
1425495488.616,-132.76222
1425495488.632,-80.04997
1425495488.647,-23.069275
1425495488.663,34.94339
1425495488.679,92.43695
1425495488.694,149.15695
1425495488.71,205.22772
1425495488.726,260.36963
1425495488.741,313.74133
1425495488.757,363.87396
1425495488.772,409.83353
1425495488.788,450.90775
1425495488.804,486.50244
1425495488.819,515.73865
1425495488.835,537.2274
1425495488.851,549.22
1425495488.866,549.9613
1425495488.882,538.367
1425495488.897,514.2055
1425495488.913,478.674
1425495488.929,433.87952
1425495488.944,382.45126
1425495488.96,327.02106
1425495488.976,269.84186
1425495488.991,212.63379
1425495489.007,156.6594
1425495489.022,102.95233
1425495489.038,52.373596
1425495489.054,5.9046936
1425495489.069,-35.580414
1425495489.085,-71.42584
1425495489.101,-101.35184
1425495489.116,-125.50113
1425495489.132,-144.3797
1425495489.147,-158.69403
1425495489.163,-169.15071
1425495489.179,-176.3711
1425495489.194,-180.75139
1425495489.21,-182.57419
1425495489.226,-182.06863
1425495489.241,-179.5066
1425495489.257,-175.23325
1425495489.272,-169.65286
1425495489.288,-163.17691
1425495489.304,-156.14568
1425495489.319,-148.80681
1425495489.335,-141.29686
1425495489.351,-133.68983
1425495489.366,-126.01962
1425495489.382,-118.33268
1425495489.397,-110.68864
1425495489.413,-103.15572
1425495489.429,-95.80455
1425495489.444,-88.684166
1425495489.46,-81.82744
1425495489.476,-75.24594
1425495489.491,-68.9526
1425495489.507,-62.949085
1425495489.522,-57.247494
1425495489.538,-51.857185
1425495489.554,-46.78282
1425495489.569,-42.02776
1425495489.585,-37.58521
1425495489.601,-33.451748
1425495489.616,-29.613855
1425495489.632,-26.070963
1425495489.647,-22.808779
1425495489.663,-19.824995
1425495489.679,-17.113392
1425495489.694,-14.666497
1425495489.71,-12.47932
1425495489.726,-10.538469
1425495489.741,-8.833674
1425495489.757,-7.3478527
1425495489.772,-6.067689
1425495489.788,-4.9734235
1425495489.804,-4.046258
1425495489.819,-3.2673752
1425495489.835,-2.6211367
1425495489.851,-2.088365
1425495489.866,-1.6507506
1425495489.882,-1.2976913
1425495489.897,-1.0147024
1425495489.913,-0.79105926
1425495489.929,-0.6133206
1425495489.944,-0.47516227
1425495489.96,-0.3684653
1425495489.976,-0.28461677
1425495489.991,-0.22397345
1425495490.007,-0.17647654
1425495490.022,-0.14055526
1425495490.038,-0.11251485
1425495490.054,-0.0926249
1425495490.069,-0.07977182
1425495490.085,-0.06783539
1425495490.101,-0.05929327
1425495490.116,-0.052183747
1425495490.132,-0.046860814
1425495490.148,-0.044131815
1425495490.163,-0.040358156
1425495490.179,-0.039164305
1425495490.194,-0.034330726
1425495490.21,-0.03515649
1425495490.226,-0.03181714
1425495490.241,-0.030750751
1425495490.257,-0.02810505
1425495490.272,-0.029290557
1425495490.288,-0.027453512
1425495490.304,-0.026081413
1425495490.319,-0.023851603
1425495490.335,-0.022989094
1425495490.351,-0.022172749
1425495490.366,-0.022157341
1425495490.382,-0.020828396
1425495490.398,-0.020277172
1425495490.413,-0.01940465
1425495490.429,-0.018795371
1425495490.444,-0.019169807
1425495490.46,-0.017195046
1425495490.476,-0.016264498
1425495490.491,-0.01676847
1425495490.507,-0.016039208
1425495490.523,-0.016356274
1425495490.538,-0.012255222
1425495490.554,-0.014531761
1425495490.569,-0.013970271
1425495490.585,-0.0151048
1425495490.601,-0.011057541
1425495490.616,-0.0131264925
1425495490.632,-0.011830375
1425495490.648,-0.011561602
1425495490.663,-0.011305705
1425495490.679,-0.011727303
1425495490.694,-0.011188552
1425495490.71,-0.00897336
1425495490.726,-0.0100701
1425495490.741,-0.010106817
1425495490.757,-0.008151814
1425495490.773,-0.011944279
1425495490.788,-0.0083634555
1425495490.804,-0.00788638
1425495490.819,-0.0054148287
1425495490.835,-0.0054584146
1425495490.851,-0.003457129
1425495490.866,-0.009829134
1425495490.882,-0.008515939
1425495490.898,-0.015702546
1425495490.913,-0.027964517
1425495490.929,-0.044356197
1425495490.944,-0.06766838
1425495490.96,-0.09860468
1425495490.976,-0.14204735
1425495490.991,-0.18367803
1425495491.007,-0.24369502
1425495491.023,-0.30346078
1425495491.038,-0.37767226
1425495491.054,-0.45566118
1425495491.069,-0.53318274
1425495491.085,-0.61717594
1425495491.101,-0.7056793
1425495491.116,-0.7895899
1425495491.132,-0.8802624
1425495491.148,-0.97261834
1425495491.163,-1.0677912
1425495491.179,-1.1636977
1425495491.194,-1.2721399
1425495491.21,-1.3863207
1425495491.226,-1.5087035
1425495491.241,-1.6442184
1425495491.257,-1.7934978
1425495491.273,-1.9542441
1425495491.288,-2.13432
1425495491.304,-2.3341832
1425495491.319,-2.5594866
1425495491.335,-2.8173738
1425495491.351,-3.1004357
1425495491.366,-3.4189312
1425495491.382,-3.770605
1425495491.398,-4.147608
1425495491.413,-4.574108
1425495491.429,-5.054906
1425495491.444,-5.597021
1425495491.46,-6.209877
1425495491.476,-6.8874607
1425495491.491,-7.6040673
1425495491.507,-8.328424
1425495491.523,-9.042862
1425495491.538,-9.750532
1425495491.554,-10.495631
1425495491.569,-11.336479
1425495491.585,-12.311599
1425495491.601,-13.4543915
1425495491.616,-14.748416
1425495491.632,-16.137388
1425495491.648,-17.587599
1425495491.663,-19.00355
1425495491.679,-20.401913
1425495491.694,-21.82744
1425495491.71,-23.34816
1425495491.726,-25.058084
1425495491.741,-27.01682
1425495491.757,-29.216352
1425495491.773,-31.587957
1425495491.788,-34.013588
1425495491.804,-36.290638
1425495491.819,-38.30868
1425495491.835,-40.012386
1425495491.851,-41.386417
1425495491.866,-42.36735
1425495491.882,-42.864456
1425495491.898,-42.611744
1425495491.913,-41.198578
1425495491.929,-38.226646
1425495491.944,-33.267258
1425495491.96,-26.33736
1425495491.976,-17.802681
1425495491.991,-8.32563
1425495492.007,1.3039627
1425495492.023,10.431984
1425495492.038,18.766327
1425495492.054,26.397247
1425495492.069,33.18766
1425495492.085,39.800926
1425495492.101,46.27012
1425495492.116,52.194283
1425495492.132,56.840027
1425495492.148,59.48609
1425495492.163,59.734734
1425495492.179,57.86949
1425495492.194,55.092728
1425495492.21,52.454773
1425495492.226,51.178146
1425495492.241,51.754707
1425495492.257,53.838234
1425495492.273,56.347878
1425495492.288,58.048843
1425495492.304,57.870163
1425495492.319,55.581863
1425495492.335,51.79595
1425495492.351,47.70842
1425495492.366,44.978867
1425495492.382,45.154503
1425495492.398,49.365295
1425495492.413,57.585655
1425495492.429,67.80824
1425495492.444,75.89045
1425495492.46,76.51417
1425495492.476,65.330414
1425495492.491,41.27224
1425495492.507,7.9098816
1425495492.523,-27.597496
1425495492.538,-57.357155
1425495492.554,-75.99343
1425495492.569,-82.84045
1425495492.585,-81.51602
1425495492.601,-77.49931
1425495492.616,-75.138145
1425495492.632,-76.06223
1425495492.648,-79.385605
1425495492.663,-83.2542
1425495492.679,-85.92005
1425495492.694,-85.994514
1425495492.71,-82.00272
1425495492.726,-71.97725
1425495492.741,-54.49009
1425495492.757,-29.720993
1425495492.773,-0.35494232
1425495492.788,29.219284
1425495492.804,54.525024
1425495492.82,73.24077
1425495492.835,86.07249
1425495492.851,95.480675
1425495492.866,103.24979
1425495492.882,108.31869
1425495492.898,106.90042
1425495492.913,94.71717
1425495492.929,70.222786
1425495492.944,36.542976
1425495492.96,0.82855225
1425495492.976,-28.785309
1425495492.991,-47.119377
1425495493.007,-53.736214
1425495493.023,-52.605927
1425495493.038,-49.324425
1425495493.054,-47.82489
1425495493.07,-48.82486
1425495493.085,-50.63469
1425495493.101,-51.3677
1425495493.116,-50.54637
1425495493.132,-49.0821
1425495493.148,-47.420807
1425495493.163,-44.20668
1425495493.179,-36.045464
1425495493.195,-19.402313
1425495493.21,6.8727264
1425495493.226,40.563255
1425495493.241,76.72435
1425495493.257,110.16179
1425495493.273,137.45313
1425495493.288,157.25183
1425495493.304,168.9512
1425495493.32,171.25839
1425495493.335,162.04681
1425495493.351,140.03148
1425495493.366,107.06343
1425495493.382,68.86453
1425495493.398,33.520996
1425495493.413,8.027218
1425495493.429,-4.9401245
1425495493.445,-8.080929
1425495493.46,-7.6073875
1425495493.476,-9.814678
1425495493.491,-18.273548
1425495493.507,-32.593075
1425495493.523,-49.394447
1425495493.538,-64.29503
1425495493.554,-74.00267
1425495493.57,-77.18657
1425495493.585,-74.423904
1425495493.601,-67.25231
1425495493.616,-57.507687
1425495493.632,-46.995747
1425495493.648,-37.174538
1425495493.663,-29.265945
1425495493.679,-23.91664
1425495493.695,-20.818815
1425495493.71,-18.51499
1425495493.726,-15.110474
1425495493.741,-9.345341
1425495493.757,-1.8491354
1425495493.773,4.762641
1425495493.788,6.9085293
1425495493.804,1.7700162
1425495493.82,-10.932957
1425495493.835,-28.439016
1425495493.851,-45.85554
1425495493.866,-58.103516
1425495493.882,-61.994965
1425495493.898,-57.426826
1425495493.913,-47.157455
1425495493.929,-35.35746
1425495493.945,-25.952616
1425495493.96,-21.351404
1425495493.976,-22.088776
1425495493.991,-27.162142
1425495494.007,-34.781868
1425495494.023,-43.071716
1425495494.038,-50.418953
1425495494.054,-55.55629
1425495494.07,-57.474712
1425495494.085,-55.51022
1425495494.101,-49.491863
1425495494.116,-40.1382
1425495494.132,-29.15091
1425495494.148,-18.956621
1425495494.163,-11.878335
1425495494.179,-9.351823
1425495494.195,-11.389401
1425495494.21,-16.700756
1425495494.226,-23.137383
1425495494.241,-28.64433
1425495494.257,-31.882025
1425495494.273,-32.59479
1425495494.288,-31.439915
1425495494.304,-29.634209
1425495494.32,-28.308193
1425495494.335,-27.88481
1425495494.351,-27.967464
1425495494.366,-27.454191
1425495494.382,-25.309824
1425495494.398,-21.110325
1425495494.413,-15.314098
1425495494.429,-9.008633
1425495494.445,-3.3009224
1425495494.46,1.1853142
1425495494.476,4.5700417
1425495494.491,6.7319145
1425495494.507,7.9311295
1425495494.523,8.463276
1425495494.538,8.465557
1425495494.554,7.9918823
1425495494.57,7.074005
1425495494.585,5.7373047
1425495494.601,4.041031
1425495494.616,2.0355911
1425495494.632,-0.2455368
1425495494.648,-2.656433
1425495494.663,-5.1110687
1425495494.679,-7.653328
1425495494.695,-10.566315
1425495494.71,-14.274513
1425495494.726,-19.064438
1425495494.741,-24.75254
1425495494.757,-30.315353
1425495494.773,-33.96006
1425495494.788,-33.450165
1425495494.804,-27.033485
1425495494.82,-14.224976
1425495494.835,3.8220215
1425495494.851,24.576584
1425495494.866,44.89032
1425495494.882,62.013657
1425495494.898,74.27843
1425495494.913,81.259705
1425495494.929,83.50011
1425495494.945,81.866745
1425495494.96,77.17038
1425495494.976,70.0267
1425495494.991,61.010986
1425495495.007,50.76213
1425495495.023,39.943268
1425495495.038,29.08017
1425495495.054,18.50499
1425495495.07,8.540649
1425495495.085,-0.24183655
1425495495.101,-6.863617
1425495495.116,-10.193802
1425495495.132,-9.50679
1425495495.148,-5.147949
1425495495.163,1.3499908
1425495495.179,7.703232
1425495495.195,11.857864
1425495495.21,12.836716
1425495495.226,11.094162
1425495495.241,7.9958954
1425495495.257,4.995178
1425495495.273,2.925415
1425495495.288,1.9068146
1425495495.304,1.7116852
1425495495.32,2.2737427
1425495495.335,3.770813
1425495495.351,6.362854
1425495495.366,9.672058
1425495495.382,12.768845
1425495495.398,14.573608
1425495495.413,14.706604
1425495495.429,14.014374
1425495495.445,14.502563
1425495495.46,18.380554
1425495495.476,26.840958
1425495495.491,39.165436
1425495495.507,52.738113
1425495495.523,64.07509
1425495495.538,70.242676
1425495495.554,70.01907
1425495495.57,64.2236
1425495495.585,55.12288
1425495495.601,45.317505
1425495495.616,36.6913
1425495495.632,29.898758
1425495495.648,24.394028
1425495495.663,19.097183
1425495495.679,13.075928
1425495495.695,5.995163
1425495495.71,-1.7763672
1425495495.726,-9.499329
1425495495.742,-16.455505
1425495495.757,-22.236069
1425495495.773,-26.807205
1425495495.788,-30.199432
1425495495.804,-32.33687
1425495495.82,-32.859375
1425495495.835,-31.296204
1425495495.851,-27.368713
1425495495.867,-21.398895
1425495495.882,-14.385345
1425495495.898,-7.8265533
1425495495.913,-3.1963959
1425495495.929,-1.469101
1425495495.945,-2.7163544
1425495495.96,-6.133972
1425495495.976,-10.346863
1425495495.992,-13.92868
1425495496.007,-15.881134
1425495496.023,-15.948288
1425495496.038,-14.619385
1425495496.054,-12.915344
1425495496.07,-11.858353
1425495496.085,-12.099075
1425495496.101,-13.61554
1425495496.117,-15.830887
1425495496.132,-17.919922
1425495496.148,-19.256943
1425495496.163,-19.65123
1425495496.179,-19.312012
1425495496.195,-18.60971
1425495496.21,-17.78505
1425495496.226,-16.84549
1425495496.242,-15.630127
1425495496.257,-13.970886
1425495496.273,-11.93692
1425495496.288,-9.777847
1425495496.304,-7.843109
1425495496.32,-6.402069
1425495496.335,-5.531555
1425495496.351,-5.0568695
1425495496.367,-4.6282806
1425495496.382,-3.8204803
1425495496.398,-2.2868958
1425495496.413,0.19610596
1425495496.429,3.6444702
1425495496.445,7.8483124
1425495496.46,12.392166
1425495496.476,16.713882
1425495496.492,20.21608
1425495496.507,22.435974
1425495496.523,23.156204
1425495496.538,22.518265
1425495496.554,20.966965
1425495496.57,19.201752
1425495496.585,17.90364
1425495496.601,17.554016
1425495496.617,18.165848
1425495496.632,19.308716
1425495496.648,20.165298
1425495496.663,19.893448
1425495496.679,17.945908
1425495496.695,14.337357
1425495496.71,9.640305
1425495496.726,4.7601166
1425495496.742,0.6407013
1425495496.757,-2.0443268
1425495496.773,-3.061554
1425495496.788,-2.5582733
1425495496.804,-0.9122925
1425495496.82,1.4680176
1425495496.835,4.2153473
1425495496.851,7.0733185
1425495496.867,9.800171
1425495496.882,12.247131
1425495496.898,14.25943
1425495496.913,15.676086
1425495496.929,16.257523
1425495496.945,15.648544
1425495496.96,13.492081
1425495496.976,9.57312
1425495496.992,3.910553
1425495497.007,-3.127884
1425495497.023,-10.944916
1425495497.038,-18.88797
1425495497.054,-26.499329
1425495497.07,-33.452454
1425495497.085,-39.586426
1425495497.101,-44.7659
1425495497.117,-49.018585
1425495497.132,-52.5011
1425495497.148,-55.664932
1425495497.163,-59.053436
1425495497.179,-62.910843
1425495497.195,-66.73381
1425495497.21,-69.25894
1425495497.226,-68.99684
1425495497.242,-65.01735
1425495497.257,-57.610474
1425495497.273,-48.229767
1425495497.288,-38.81967
1425495497.304,-30.887466
1425495497.32,-24.907486
1425495497.335,-20.41449
1425495497.351,-16.57431
1425495497.367,-12.878937
1425495497.382,-9.408005
1425495497.398,-6.5598755
1425495497.413,-4.560211
1425495497.429,-3.1496124
1425495497.445,-1.6909027
1425495497.46,0.41600037
1425495497.476,3.4071655
1425495497.492,6.9765015
1425495497.507,10.512039
1425495497.523,13.427841
1425495497.538,15.409988
1425495497.554,16.369568
1425495497.57,16.473557
1425495497.585,15.97934
1425495497.601,15.265717
1425495497.617,14.61113
1425495497.632,14.200882
1425495497.648,13.986145
1425495497.663,13.697327
1425495497.679,12.934387
1425495497.695,11.405518
1425495497.71,9.116852
1425495497.726,6.40979
1425495497.742,3.8215942
1425495497.757,1.8097229
1425495497.773,0.54537964
1425495497.788,-0.12231445
1425495497.804,-0.53030396
1425495497.82,-0.96780396
1425495497.835,-1.5208435
1425495497.851,-2.0739746
1425495497.867,-2.4506226
1425495497.882,-2.5354614
1425495497.898,-2.3238525
1425495497.913,-1.8725586
1425495497.929,-1.254364
1425495497.945,-0.4883728
1425495497.96,0.38778687
1425495497.976,1.2857056
1425495497.992,2.0969238
1425495498.007,2.7616882
1425495498.023,3.3505554
1425495498.038,4.089966
1425495498.054,5.1944885
1425495498.07,6.7592773
1425495498.085,8.674744
1425495498.101,10.644897
1425495498.117,12.3685
1425495498.132,13.661743
1425495498.148,14.486145
1425495498.163,14.840607
1425495498.179,14.701233
1425495498.195,13.988586
1425495498.21,12.676788
1425495498.226,10.97937
1425495498.242,9.296387
1425495498.257,8.134094
1425495498.273,7.795624
1425495498.288,8.234283
1425495498.304,9.023132
1425495498.32,9.639618
1425495498.335,9.686829
1425495498.351,9.1371765
1425495498.367,8.242157
1425495498.382,7.3355713
1425495498.398,6.619507
1425495498.414,6.0643616
1425495498.429,5.5417175
1425495498.445,4.943054
1425495498.46,4.3088684
1425495498.476,3.7747192
1425495498.492,3.4944153
1425495498.507,3.5039368
1425495498.523,3.6919556
1425495498.539,3.893402
1425495498.554,3.980133
1425495498.57,3.9125977
1425495498.585,3.748169
1425495498.601,3.5766602
1425495498.617,3.4699402
1425495498.632,3.4617004
1425495498.648,3.552246
1425495498.664,3.738678
1425495498.679,3.9800415
1425495498.695,4.19928
1425495498.71,4.2897034
1425495498.726,4.135956
1425495498.742,3.6725464
1425495498.757,2.9367676
1425495498.773,2.0733643
1425495498.789,1.3298645
1425495498.804,0.8850403
1425495498.82,0.8193054
1425495498.835,1.0254822
1425495498.851,1.311554
1425495498.867,1.4447937
1425495498.882,1.316803
1425495498.898,0.9875183
1425495498.914,0.63253784
1425495498.929,0.48049927
1425495498.945,0.6956482
1425495498.96,1.335144
1425495498.976,2.355194
1425495498.992,3.646576
1425495499.007,5.107849
1425495499.023,6.6756287
1425495499.039,8.291321
1425495499.054,9.846191
1425495499.07,11.169556
1425495499.085,12.02475
1425495499.101,12.16684
1425495499.117,11.483734
1425495499.132,10.047363
1425495499.148,8.113403
1425495499.164,6.1011353
1425495499.179,4.400879
1425495499.195,3.2770386
1425495499.21,2.7469788
1425495499.226,2.666626
1425495499.242,2.7807007
1425495499.257,2.8947754
1425495499.273,2.8970642
1425495499.289,2.7933044
1425495499.304,2.612671
1425495499.32,2.3572998
1425495499.335,1.9927673
1425495499.351,1.498169
1425495499.367,0.91433716
1425495499.382,0.33944702
1425495499.398,-0.09051514
1425495499.414,-0.3003235
1425495499.429,-0.33984375
1425495499.445,-0.3418274
1425495499.46,-0.4433899
1425495499.476,-0.69641113
1425495499.492,-1.0020142
1425495499.507,-1.1452332
1425495499.523,-0.9562378
1425495499.539,-0.36102295
1425495499.554,0.49954224
1425495499.57,1.3703003
1425495499.585,2.0082092
1425495499.601,2.2807007
1425495499.617,2.2426453
1425495499.632,2.0976257
1425495499.648,2.0370483
1425495499.664,2.1410217
1425495499.679,2.3181152
1425495499.695,2.3502502
1425495499.71,2.0541687
1425495499.726,1.4301147
1425495499.742,0.6452637
1425495499.757,0.030670166
1425495499.773,-0.14611816
1425495499.789,0.19494629
1425495499.804,0.8928528
1425495499.82,1.5997009
1425495499.835,1.9965515
1425495499.851,1.9552307
1425495499.867,1.6228333
1425495499.882,1.316925
1425495499.898,1.400177
1425495499.914,2.0417175
1425495499.929,3.1652527
1425495499.945,4.514099
1425495499.96,5.7697144
1425495499.976,6.6904907
1425495499.992,7.166504
1425495500.007,7.189148
1425495500.023,6.7545776
1425495500.039,5.8464355
1425495500.054,4.4375305
1425495500.07,2.5827942
1425495500.085,0.44525146
1425495500.101,-1.67276
1425495500.117,-3.4241028
1425495500.132,-4.50235
1425495500.148,-4.746277
1425495500.164,-4.1978455
1425495500.179,-3.0714722
1425495500.195,-1.7221375
1425495500.21,-0.58102417
1425495500.226,0.033355713
1425495500.242,-0.07904053
1425495500.257,-0.86849976
1425495500.273,-2.0750732
1425495500.289,-3.298645
1425495500.304,-4.161621
1425495500.32,-4.387146
1425495500.335,-3.9785156
1425495500.351,-3.123169
1425495500.367,-2.15625
1425495500.382,-1.4017639
1425495500.398,-1.0397644
1425495500.414,-1.0213623
1425495500.429,-1.1326904
1425495500.445,-1.0801392
1425495500.46,-0.6461487
1425495500.476,0.21377563
1425495500.492,1.3269043
1425495500.507,2.4187622
1425495500.523,3.2105713
1425495500.539,3.5273132
1425495500.554,3.3369446
1425495500.57,2.7358704
1425495500.585,1.8806152
1425495500.601,0.96209717
1425495500.617,0.16348267
1425495500.632,-0.35040283
1425495500.648,-0.4706726
1425495500.664,-0.13348389
1425495500.679,0.6163635
1425495500.695,1.6622925
1425495500.71,2.8031616
1425495500.726,3.858612
1425495500.742,4.6703186
1425495500.757,5.1472473
1425495500.773,5.2869873
1425495500.789,5.2072144
1425495500.804,5.095642
1425495500.82,5.24527
1425495500.835,5.886322
1425495500.851,7.172943
1425495500.867,9.026733
1425495500.882,11.208618
1425495500.898,13.378021
1425495500.914,15.247498
1425495500.929,16.62268
1425495500.945,17.485077
1425495500.96,17.864288
1425495500.976,17.811401
1425495500.992,17.324554
1425495501.007,16.366302
1425495501.023,14.897125
1425495501.039,12.913116
1425495501.054,10.547028
1425495501.07,8.052338
1425495501.086,5.7403564
1425495501.101,3.8897705
1425495501.117,2.6127625
1425495501.132,1.8424683
1425495501.148,1.3383179
1425495501.164,0.83706665
1425495501.179,0.16970825
1425495501.195,-0.6503296
1425495501.211,-1.5052795
1425495501.226,-2.2410278
1425495501.242,-2.7858887
1425495501.257,-3.1299744
1425495501.273,-3.3121338
1425495501.289,-3.3547363
1425495501.304,-3.2502136
1425495501.32,-3.026062
1425495501.336,-2.7954407
1425495501.351,-2.7345276
1425495501.367,-2.9569092
1425495501.382,-3.4708252
1425495501.398,-4.1550293
1425495501.414,-4.7632446
1425495501.429,-5.104889
1425495501.445,-5.05542
1425495501.461,-4.6367493
1425495501.476,-3.9402466
1425495501.492,-3.1496887
1425495501.507,-2.4878235
1425495501.523,-2.1496582
1425495501.539,-2.2252808
1425495501.554,-2.6304321
1425495501.57,-3.1071777
1425495501.586,-3.3067017
1425495501.601,-2.979065
1425495501.617,-2.1211853
1425495501.632,-0.9640198
1425495501.648,0.15722656
1425495501.664,0.99072266
1425495501.679,1.4979248
1425495501.695,1.8810425
1425495501.711,2.3857727
1425495501.726,3.187622
1425495501.742,4.2488403
1425495501.757,5.4339294
1425495501.773,6.5346375
1425495501.789,7.445221
1425495501.804,8.141571
1425495501.82,8.687805
1425495501.836,9.164154
1425495501.851,9.673645
1425495501.867,10.351288
1425495501.882,11.376526
1425495501.898,12.847168
1425495501.914,14.704132
1425495501.929,16.671692
1425495501.945,18.325409
1425495501.961,19.172089
1425495501.976,18.932281
1425495501.992,17.58432
1425495502.007,15.377502
1425495502.023,12.6979065
1425495502.039,9.982117
1425495502.054,7.5703735
1425495502.07,5.6868896
1425495502.086,4.4764404
1425495502.101,3.9599304
1425495502.117,4.020569
1425495502.132,4.4391785
1425495502.148,4.8753967
1425495502.164,5.035736
1425495502.179,4.7312317
1425495502.195,3.9882813
1425495502.211,2.9432373
1425495502.226,1.8131104
1425495502.242,0.7407532
1425495502.257,-0.22094727
1425495502.273,-1.1092224
1425495502.289,-1.972992
1425495502.304,-2.8270874
1425495502.32,-3.645813
1425495502.336,-4.3775635
1425495502.351,-5.057495
1425495502.367,-5.795868
1425495502.382,-6.7215576
1425495502.398,-7.9241333
1425495502.414,-9.3359375
1425495502.429,-10.731964
1425495502.445,-11.7934265
1425495502.461,-12.260468
1425495502.476,-12.044037
1425495502.492,-11.281158
1425495502.507,-10.23642
1425495502.523,-9.21106
1425495502.539,-8.341644
1425495502.554,-7.6077576
1425495502.57,-6.8601074
1425495502.586,-5.9483643
1425495502.601,-4.7636414
1425495502.617,-3.330597
1425495502.632,-1.7302246
1425495502.648,-0.08468628
1425495502.664,1.5563965
1425495502.679,3.142273
1425495502.695,4.6611633
1425495502.711,6.110901
1425495502.726,7.496002
1425495502.742,8.846283
1425495502.757,10.240021
1425495502.773,11.763092
1425495502.789,13.538025
1425495502.804,15.614349
1425495502.82,17.98285
1425495502.836,20.526764
1425495502.851,23.026978
1425495502.867,25.133179
1425495502.882,26.452362
1425495502.898,26.616058
1425495502.914,25.35608
1425495502.929,22.64383
1425495502.945,18.749237
1425495502.961,14.189941
1425495502.976,9.641296
1425495502.992,5.7163086
1425495503.007,2.8022766
1425495503.023,0.9454346
1425495503.039,-0.119781494
1425495503.054,-0.8216858
1425495503.07,-1.5687561
1425495503.086,-2.6341858
1425495503.101,-4.0629272
1425495503.117,-5.7221375
1425495503.132,-7.417267
1425495503.148,-8.995544
1425495503.164,-10.38385
1425495503.179,-11.594574
1425495503.195,-12.64267
1425495503.211,-13.4852295
1425495503.226,-14.033264
1425495503.242,-14.1901245
1425495503.257,-13.943329
1425495503.273,-13.419891
1425495503.289,-12.798981
1425495503.304,-12.257965
1425495503.32,-11.883484
1425495503.336,-11.651337
1425495503.351,-11.4444275
1425495503.367,-11.17984
1425495503.382,-10.815826
1425495503.398,-10.353851
1425495503.414,-9.79715
1425495503.429,-9.162903
1425495503.445,-8.417053
1425495503.461,-7.5791626
1425495503.476,-6.647644
1425495503.492,-5.6559143
1425495503.507,-4.5822144
1425495503.523,-3.3432922
1425495503.539,-1.8392639
1425495503.554,-0.06159973
1425495503.57,1.8773193
1425495503.586,3.7636566
1425495503.601,5.392151
1425495503.617,6.6599274
1425495503.632,7.6569366
1425495503.648,8.566925
1425495503.664,9.628464
1425495503.679,10.973923
1425495503.695,12.671783
1425495503.711,14.713303
1425495503.726,17.08229
1425495503.742,19.711441
1425495503.758,22.388657
1425495503.773,24.754074
1425495503.789,26.301987
1425495503.804,26.578506
1425495503.82,25.38591
1425495503.836,22.874588
1425495503.851,19.492172
1425495503.867,15.807373
1425495503.882,12.330933
1425495503.898,9.379547
1425495503.914,7.0796204
1425495503.929,5.3453674
1425495503.945,3.9944458
1425495503.961,2.7731018
1425495503.976,1.4217987
1425495503.992,-0.26971436
1425495504.008,-2.3804474
1425495504.023,-4.857071
1425495504.039,-7.5249023
1425495504.054,-10.164795
1425495504.07,-12.609253
1425495504.086,-14.770752
1425495504.101,-16.631302
1425495504.117,-18.173538
1425495504.133,-19.325073
1425495504.148,-20.004074
1425495504.164,-20.161179
1425495504.179,-19.890259
1425495504.195,-19.38533
1425495504.211,-18.919296
1425495504.226,-18.687027
1425495504.242,-18.71376
1425495504.258,-18.892517
1425495504.273,-18.966156
1425495504.289,-18.705902
1425495504.304,-18.003433
1425495504.32,-16.908096
1425495504.336,-15.607658
1425495504.351,-14.288872
1425495504.367,-13.079796
1425495504.383,-11.976364
1425495504.398,-10.934525
1425495504.414,-9.832596
1425495504.429,-8.5989685
1425495504.445,-7.1790085
1425495504.461,-5.5690994
1425495504.476,-3.7798462
1425495504.492,-1.8521957
1425495504.508,0.15033722
1425495504.523,2.1617203
1425495504.539,4.150009
1425495504.554,6.111595
1425495504.57,8.04776
1425495504.586,10.004181
1425495504.601,11.998787
1425495504.617,14.071342
1425495504.633,16.224083
1425495504.648,18.395462
1425495504.664,20.459564
1425495504.679,22.123611
1425495504.695,23.013763
1425495504.711,22.782928
1425495504.726,21.237732
1425495504.742,18.441399
1425495504.758,14.707329
1425495504.773,10.495842
1425495504.789,6.2673187
1425495504.804,2.3835716
1425495504.82,-0.9024849
1425495504.836,-3.4287987
1425495504.851,-5.122452
1425495504.867,-6.0384445
1425495504.883,-6.4045677
1425495504.898,-6.6263924
1425495504.914,-7.1748085
1425495504.929,-8.399052
1425495504.945,-10.364128
1425495504.961,-12.849972
1425495504.976,-15.455532
1425495504.992,-17.740742
1425495505.008,-19.439207
1425495505.023,-20.483854
1425495505.039,-20.986647
1425495505.054,-21.156706
1425495505.07,-21.181158
1425495505.086,-21.221996
1425495505.101,-21.295551
1425495505.117,-21.344612
1425495505.133,-21.259655
1425495505.148,-20.991467
1425495505.164,-20.546488
1425495505.179,-20.04274
1425495505.195,-19.571856
1425495505.211,-19.145527
1425495505.226,-18.663855
1425495505.242,-17.95753
1425495505.258,-16.934793
1425495505.273,-15.678128
1425495505.289,-14.417471
1425495505.304,-13.355256
1425495505.32,-12.535234
1425495505.336,-11.753536
1425495505.351,-10.680733
1425495505.367,-9.09618
1425495505.383,-6.992852
1425495505.398,-4.60177
1425495505.414,-2.2342834
1425495505.429,-0.083713055
1425495505.445,1.9121046
1425495505.461,4.00776
1425495505.476,6.4641886
1425495505.492,9.435776
1425495505.508,12.880034
1425495505.523,16.60097
1425495505.539,20.344713
1425495505.554,23.788593
1425495505.57,26.585236
1425495505.586,28.30203
1425495505.601,28.544527
1425495505.617,27.074118
1425495505.633,23.9699
1425495505.648,19.638746
1425495505.664,14.769115
1425495505.679,10.0574665
1425495505.695,6.044964
1425495505.711,2.9152622
1425495505.726,0.5473671
1425495505.742,-1.3579006
1425495505.758,-3.116682
1425495505.773,-4.9368763
1425495505.789,-6.8874874
1425495505.804,-8.932398
1425495505.82,-10.985546
1425495505.836,-12.987427
1425495505.851,-14.881248
1425495505.867,-16.644375
1425495505.883,-18.211636
1425495505.898,-19.485355
1425495505.914,-20.351357
1425495505.929,-20.748596
1425495505.945,-20.693104
1425495505.961,-20.335861
1425495505.976,-19.879337
1425495505.992,-19.510311
1425495506.008,-19.28593
1425495506.023,-19.12349
1425495506.039,-18.779613
1425495506.054,-17.979317
1425495506.07,-16.486774
1425495506.086,-14.246586
1425495506.101,-11.420578
1425495506.117,-8.3396
1425495506.133,-5.3592834
1425495506.148,-2.7218895
1425495506.164,-0.40665436
1425495506.179,1.8254623
1425495506.195,4.330902
1425495506.211,7.364601
1425495506.226,10.928272
1425495506.242,14.795586
1425495506.258,18.664013
1425495506.273,22.3041
1425495506.289,25.68938
1425495506.304,28.949848
1425495506.32,32.290596
1425495506.336,35.863163
1425495506.351,39.77044
1425495506.367,44.087593
1425495506.383,48.83664
1425495506.398,53.814934
1425495506.414,58.33174
1425495506.429,61.049973
1425495506.445,60.216988
1425495506.461,54.2536
1425495506.476,42.519157
1425495506.492,25.800308
1425495506.508,6.2188263
1425495506.523,-13.56485
1425495506.539,-31.286018
1425495506.554,-45.82263
1425495506.57,-57.136246
1425495506.586,-65.75575
1425495506.601,-72.05571
1425495506.617,-75.94147
1425495506.633,-77.00196
1425495506.648,-75.06879
1425495506.664,-70.70502
1425495506.68,-65.25406
1425495506.695,-60.403084
1425495506.711,-57.475098
1425495506.726,-56.975555
1425495506.742,-58.47534
1425495506.758,-60.877113
1425495506.773,-63.00248
1425495506.789,-63.97534
1425495506.805,-63.40203
1425495506.82,-61.26185
1425495506.836,-57.733772
1425495506.851,-53.0623
1425495506.867,-47.53647
1425495506.883,-41.568096
1425495506.898,-35.78766
1425495506.914,-30.895702
1425495506.93,-27.44437
1425495506.945,-25.50357
1425495506.961,-24.511852
1425495506.976,-23.475857
1425495506.992,-21.394512
1425495507.008,-17.6982
1425495507.023,-12.505848
1425495507.039,-6.4106865
1425495507.055,-0.16503143
1425495507.07,5.6929703
1425495507.086,10.955381
1425495507.101,15.665943
1425495507.117,19.85374
1425495507.133,23.460268
1425495507.148,26.390606
1425495507.164,28.640387
1425495507.18,30.418255
1425495507.195,32.07656
1425495507.211,33.92725
1425495507.226,36.09591
1425495507.242,38.439438
1425495507.258,40.749428
1425495507.273,42.817947
1425495507.289,44.585793
1425495507.305,46.017002
1425495507.32,47.026997
1425495507.336,47.42827
1425495507.351,47.070194
1425495507.367,46.013115
1425495507.383,44.617657
1425495507.398,43.37415
1425495507.414,42.604664
1425495507.43,42.18894
1425495507.445,41.55715
1425495507.461,40.026367
1425495507.476,37.249413
1425495507.492,33.46441
1425495507.508,29.439735
1425495507.523,25.966282
1425495507.539,23.43817
1425495507.555,21.530819
1425495507.57,19.489342
1425495507.586,16.51387
1425495507.601,12.313156
1425495507.617,7.207802
1425495507.633,1.9517555
1425495507.648,-2.7499847
1425495507.664,-6.6127357
1425495507.68,-9.856815
1425495507.695,-13.008247
1425495507.711,-16.547802
1425495507.726,-20.62864
1425495507.742,-25.039371
1425495507.758,-29.344559
1425495507.773,-33.16659
1425495507.789,-36.317295
1425495507.805,-38.912567
1425495507.82,-41.238804
1425495507.836,-43.641487
1425495507.851,-46.36588
1425495507.867,-49.381363
1425495507.883,-52.391506
1425495507.898,-54.89281
1425495507.914,-56.255062
1425495507.93,-55.88555
1425495507.945,-53.363754
1425495507.961,-48.59153
1425495507.976,-41.804405
1425495507.992,-33.540936
1425495508.008,-24.55455
1425495508.023,-15.649757
1425495508.039,-7.551399
1425495508.055,-0.82089996
1425495508.07,4.2180557
1425495508.086,7.4457245
1425495508.101,9.013741
1425495508.117,9.3211975
1425495508.133,8.995827
1425495508.148,8.750183
1425495508.164,9.191269
1425495508.18,10.59391
1425495508.195,12.810043
1425495508.211,15.338768
1425495508.226,17.582077
1425495508.242,19.090652
1425495508.258,19.801376
1425495508.273,19.944656
1425495508.289,19.863434
1425495508.305,19.782394
1425495508.32,19.72036
1425495508.336,19.488525
1425495508.351,18.892822
1425495508.367,17.8237
1425495508.383,16.368416
1425495508.398,14.69783
1425495508.414,13.014214
1425495508.43,11.397636
1425495508.445,9.844711
1425495508.461,8.308769
1425495508.476,6.7702637
1425495508.492,5.270172
1425495508.508,3.8717194
1425495508.523,2.5766754
1425495508.539,1.3310394
1425495508.555,0.0309906
1425495508.57,-1.3640137
1425495508.586,-2.8569336
1425495508.601,-4.290085
1425495508.617,-5.515869
1425495508.633,-6.388153
1425495508.648,-6.853409
1425495508.664,-6.962082
1425495508.68,-6.801285
1425495508.695,-6.399399
1425495508.711,-5.719986
1425495508.726,-4.5881195
1425495508.742,-2.8933868
1425495508.758,-0.6515503
1425495508.773,1.8862915
1425495508.789,4.285736
1425495508.805,6.1026306
1425495508.82,7.0624847
1425495508.836,7.1829224
1425495508.851,6.7975616
1425495508.867,6.3406677
1425495508.883,6.1664734
1425495508.898,6.3728943
1425495508.914,6.862854
1425495508.93,7.430435
1425495508.945,7.971939
1425495508.961,8.508072
1425495508.976,9.139175
1425495508.992,9.895584
1425495509.008,10.682465
1425495509.023,11.267883
1425495509.039,11.437073
1425495509.055,11.125732
1425495509.07,10.492355
1425495509.086,9.817047
1425495509.101,9.471207
1425495509.117,9.669235
1425495509.133,10.422546
1425495509.148,11.554962
1425495509.164,12.706192
1425495509.18,13.51297
1425495509.195,13.699356
1425495509.211,13.118713
1425495509.226,11.849609
1425495509.242,10.11438
1425495509.258,8.221924
1425495509.273,6.4655457
1425495509.289,5.0450897
1425495509.305,4.011673
1425495509.32,3.3384247
1425495509.336,2.901184
1425495509.352,2.5620422
1425495509.367,2.2049408
1425495509.383,1.738678
1425495509.398,1.0799103
1425495509.414,0.17268372
1425495509.43,-1.026535
1425495509.445,-2.5178986
1425495509.461,-4.2101746
1425495509.477,-5.8854675
1425495509.492,-7.227417
1425495509.508,-7.900238
1425495509.523,-7.726242
1425495509.539,-6.7602844
1425495509.555,-5.351349
1425495509.57,-3.9810944
1425495509.586,-3.1206055
1425495509.602,-2.9841614
1425495509.617,-3.4950562
1425495509.633,-4.3347626
1425495509.648,-5.118637
1425495509.664,-5.5778656
1425495509.68,-5.6208344
1425495509.695,-5.2938232
1425495509.711,-4.7097015
1425495509.727,-3.9200897
1425495509.742,-2.9357605
1425495509.758,-1.7640839
1425495509.773,-0.48918152
1425495509.789,0.7060547
1425495509.805,1.5713043
1425495509.82,1.9348755
1425495509.836,1.7887268
1425495509.852,1.3655243
1425495509.867,1.0046234
1425495509.883,1.0243225
1425495509.898,1.554596
1425495509.914,2.4875183
1425495509.93,3.5624237
1425495509.945,4.5112305
1425495509.961,5.168274
1425495509.977,5.554962
1425495509.992,5.7744446
1425495510.008,5.904709
1425495510.023,5.960861
1425495510.039,5.9191895
1425495510.055,5.798218
1425495510.07,5.7365723
1425495510.086,5.9125824
1425495510.102,6.481552
1425495510.117,7.471039
1425495510.133,8.743256
1425495510.148,10.051483
1425495510.164,11.163605
1425495510.18,11.873108
1425495510.195,12.046692
1425495510.211,11.608154
1425495510.227,10.55368
1425495510.242,8.965271
1425495510.258,7.0575256
1425495510.273,5.0877075
1425495510.289,3.3533325
1425495510.305,2.0322266
1425495510.32,1.1922302
1425495510.336,0.7368469
1425495510.352,0.53811646
1425495510.367,0.3970642
1425495510.383,0.113464355
1425495510.398,-0.49624634
1425495510.414,-1.5664368
1425495510.43,-3.0586853
1425495510.445,-4.7492676
1425495510.461,-6.2872925
1425495510.477,-7.284668
1425495510.492,-7.488373
1425495510.508,-6.927124
1425495510.523,-5.912903
1425495510.539,-4.8900757
1425495510.555,-4.304718
1425495510.57,-4.3865967
1425495510.586,-5.080078
1425495510.602,-6.0791626
1425495510.617,-6.9572754
1425495510.633,-7.3340454
1425495510.648,-7.077545
1425495510.664,-6.3067017
1425495510.68,-5.3193054
1425495510.695,-4.4213257
1425495510.711,-3.741394
1425495510.727,-3.2231445
1425495510.742,-2.6483765
1425495510.758,-1.8312683
1425495510.773,-0.75372314
1425495510.789,0.46203613
1425495510.805,1.587738
1425495510.82,2.4676208
1425495510.836,3.030182
1425495510.852,3.3503418
1425495510.867,3.5462341
1425495510.883,3.7425537
1425495510.898,4.011505
1425495510.914,4.3631287
1425495510.93,4.7888794
1425495510.945,5.274353
1425495510.961,5.7901
1425495510.977,6.353058
1425495510.992,7.0389404
1425495511.008,7.9418945
1425495511.023,9.155151
1425495511.039,10.676849
1425495511.055,12.36261
1425495511.07,13.975525
1425495511.086,15.275543
1425495511.102,16.131989
1425495511.117,16.511932
1425495511.133,16.502045
1425495511.148,16.123505
1425495511.164,15.337982
1425495511.18,14.032471
1425495511.195,12.152466
1425495511.211,9.784302
1425495511.227,7.147339
1425495511.242,4.565094
1425495511.258,2.2945557
1425495511.273,0.4320984
1425495511.289,-1.0688782
1425495511.305,-2.3291626
1425495511.32,-3.4250488
1425495511.336,-4.3427124
1425495511.352,-5.0610046
1425495511.367,-5.6055603
1425495511.383,-6.104248
1425495511.398,-6.6958313
1425495511.414,-7.4172363
1425495511.43,-8.129547
1425495511.445,-8.451874
1425495511.461,-7.998291
1425495511.477,-6.569153
1425495511.492,-4.288269
1425495511.508,-1.6360474
1425495511.523,0.7313843
1425495511.539,2.2571106
1425495511.555,2.6900635
1425495511.57,2.1500854
1425495511.586,1.0250244
1425495511.602,-0.21582031
1425495511.617,-1.220581
1425495511.633,-1.850647
1425495511.648,-2.1859436
1425495511.664,-2.384735
1425495511.68,-2.6105652
1425495511.695,-2.9449463
1425495511.711,-3.4372559
1425495511.727,-4.070465
1425495511.742,-4.7940063
1425495511.758,-5.4899597
1425495511.773,-5.989044
1425495511.789,-6.135895
1425495511.805,-5.828186
1425495511.82,-5.088501
1425495511.836,-4.0461426
1425495511.852,-2.8362427
1425495511.867,-1.5766296
1425495511.883,-0.30548096
1425495511.898,0.9541931
1425495511.914,2.2250671
1425495511.93,3.4961853
1425495511.945,4.7506104
1425495511.961,6.0252686
1425495511.977,7.394867
1425495511.992,8.93161
1425495512.008,10.723511
1425495512.024,12.722809
1425495512.039,14.753845
1425495512.055,16.486206
1425495512.07,17.566315
1425495512.086,17.678009
1425495512.102,16.669037
1425495512.117,14.649536
1425495512.133,11.939606
1425495512.149,9.028778
1425495512.164,6.3897095
1425495512.18,4.319458
1425495512.195,2.8659668
1425495512.211,1.8314514
1425495512.227,0.9404602
1425495512.242,-0.06442261
1425495512.258,-1.2600403
1425495512.274,-2.58313
1425495512.289,-3.8806152
1425495512.305,-5.064636
1425495512.32,-6.1307983
1425495512.336,-7.216217
1425495512.352,-8.450775
1425495512.367,-9.873779
1425495512.383,-11.31131
1425495512.399,-12.4227295
1425495512.414,-12.816132
1425495512.43,-12.255859
1425495512.445,-10.80249
1425495512.461,-8.856659
1425495512.477,-6.9993896
1425495512.492,-5.7479553
1425495512.508,-5.285309
1425495512.524,-5.438507
1425495512.539,-5.771454
1425495512.555,-5.85318
1425495512.57,-5.4524536
1425495512.586,-4.6091003
1425495512.602,-3.5266113
1425495512.617,-2.4236755
1425495512.633,-1.3747559
1425495512.649,-0.37857056
1425495512.664,0.6324768
1425495512.68,1.664154
1425495512.695,2.632843
1425495512.711,3.4026794
1425495512.727,3.9354248
1425495512.742,4.289337
1425495512.758,4.64209
1425495512.774,5.1929626
1425495512.789,6.0585327
1425495512.805,7.164459
1425495512.82,8.374023
1425495512.836,9.449524
1425495512.852,10.26004
1425495512.867,10.749542
1425495512.883,10.951416
1425495512.899,10.928101
1425495512.914,10.832367
1425495512.93,10.855255
1425495512.945,11.314392
1425495512.961,12.473755
1425495512.977,14.365097
1425495512.992,16.583633
1425495513.008,18.397995
1425495513.024,18.977814
1425495513.039,17.840775
1425495513.055,15.115997
1425495513.07,11.490921
1425495513.086,7.8382263
1425495513.102,4.8298645
1425495513.117,2.6349335
1425495513.133,1.0644836
1425495513.149,-0.19450378
1425495513.164,-1.3064423
1425495513.18,-2.218979
1425495513.195,-2.8364716
1425495513.211,-3.2311707
1425495513.227,-3.6750336
1425495513.242,-4.4762726
1425495513.258,-5.7910767
1425495513.274,-7.4420166
1425495513.289,-8.974548
1425495513.305,-9.957336
1425495513.32,-10.082336
1425495513.336,-9.40152
1425495513.352,-8.237534
1425495513.367,-7.0880127
1425495513.383,-6.3306427
1425495513.399,-6.2022552
1425495513.414,-6.6466064
1425495513.43,-7.4353485
1425495513.445,-8.2500305
1425495513.461,-8.82518
1425495513.477,-9.018692
1425495513.492,-8.79068
1425495513.508,-8.130981
1425495513.524,-7.053528
1425495513.539,-5.621628
1425495513.555,-4.0197754
1425495513.57,-2.5413055
1425495513.586,-1.5467682
1425495513.602,-1.2348785
1425495513.617,-1.5194397
1425495513.633,-2.006012
1425495513.649,-2.1607666
1425495513.664,-1.5740662
1425495513.68,-0.18762207
1425495513.695,1.7182617
1425495513.711,3.6577911
1425495513.727,5.24852
1425495513.742,6.38739
1425495513.758,7.2438354
1425495513.774,8.12709
1425495513.789,9.251175
1425495513.805,10.640396
1425495513.82,12.131836
1425495513.836,13.516678
1425495513.852,14.654022
1425495513.867,15.500931
1425495513.883,16.093475
1425495513.899,16.458527
1425495513.914,16.53122
1425495513.93,16.194672
1425495513.945,15.306351
1425495513.961,13.804962
1425495513.977,11.777481
1425495513.992,9.481873
1425495514.008,7.2674103
1425495514.024,5.456009
1425495514.039,4.1784973
1425495514.055,3.3570862
1425495514.07,2.735794
1425495514.086,2.0658722
1425495514.102,1.1798248
1425495514.117,0.089645386
1425495514.133,-1.0999603
1425495514.149,-2.2600098
1425495514.164,-3.326126
1425495514.18,-4.254822
1425495514.195,-4.997864
1425495514.211,-5.4967194
1425495514.227,-5.697357
1425495514.242,-5.7046967
1425495514.258,-5.7605133
1425495514.274,-6.175888
1425495514.289,-7.115738
1425495514.305,-8.506943
1425495514.32,-9.985794
1425495514.336,-11.117279
1425495514.352,-11.603851
1425495514.367,-11.479721
1425495514.383,-11.0030365
1425495514.399,-10.504059
1425495514.414,-10.155502
1425495514.43,-9.866653
1425495514.445,-9.349075
1425495514.461,-8.3471985
1425495514.477,-6.853882
1425495514.492,-5.106552
1425495514.508,-3.4635315
1425495514.524,-2.178833
1425495514.539,-1.261734
1425495514.555,-0.43763733
1425495514.57,0.6281891
1425495514.586,2.119934
1425495514.602,3.96492
1425495514.617,5.8750916
1425495514.633,7.549057
1425495514.649,8.812836
1425495514.664,9.735153
1425495514.68,10.557068
1425495514.696,11.543701
1425495514.711,12.856201
1425495514.727,14.502312
1425495514.742,16.319809
1425495514.758,18.029213
1425495514.774,19.247238
1425495514.789,19.634499
1425495514.805,18.947304
1425495514.82,17.18621
1425495514.836,14.610733
1425495514.852,11.656601
1425495514.867,8.717041
1425495514.883,6.042366
1425495514.899,3.6496964
1425495514.914,1.4882889
1425495514.93,-0.49019623
1425495514.946,-2.179329
1425495514.961,-3.482338
1425495514.977,-4.4146347
1425495514.992,-5.2002563
1425495515.008,-6.1642914
1425495515.024,-7.550171
1425495515.039,-9.336624
1425495515.055,-11.211105
1425495515.071,-12.744461
1425495515.086,-13.605202
1425495515.102,-13.714935
1425495515.117,-13.270287
1425495515.133,-12.582451
1425495515.149,-11.957649
1425495515.164,-11.574905
1425495515.18,-11.491844
1425495515.196,-11.637772
1425495515.211,-11.870857
1425495515.227,-11.992371
1425495515.242,-11.827942
1425495515.258,-11.222221
1425495515.274,-10.176636
1425495515.289,-8.814713
1425495515.305,-7.3615036
1425495515.321,-6.0790405
1425495515.336,-5.138466
1425495515.352,-4.5872498
1425495515.367,-4.3254013
1425495515.383,-4.1212654
1425495515.399,-3.7017212
1425495515.414,-2.8254128
1425495515.43,-1.3949661
1425495515.446,0.53004074
1425495515.461,2.7522583
1425495515.477,5.0277176
1425495515.492,7.181427
1425495515.508,9.18306
1425495515.524,11.087673
1425495515.539,12.992172
1425495515.555,14.971451
1425495515.571,16.999454
1425495515.586,18.958488
1425495515.602,20.696407
1425495515.617,22.018246
1425495515.633,22.745617
1425495515.649,22.696524
1425495515.664,21.751286
1425495515.68,19.86877
1425495515.696,17.138748
1425495515.711,13.7684
1425495515.727,10.086956
1425495515.742,6.473484
1425495515.758,3.3062706
1425495515.774,0.84140396
1425495515.789,-0.8505497
1425495515.805,-1.9065361
1425495515.821,-2.6651497
1425495515.836,-3.54076
1425495515.852,-4.8739824
1425495515.867,-6.8088503
1425495515.883,-9.21974
1425495515.899,-11.805644
1425495515.914,-14.197736
1425495515.93,-16.104921
1425495515.946,-17.389782
1425495515.961,-18.027376
1425495515.977,-18.083075
1425495515.992,-17.735775
1425495516.008,-17.20173
1425495516.024,-16.766247
1425495516.039,-16.645765
1425495516.055,-16.89937
1425495516.071,-17.35746
1425495516.086,-17.777441
1425495516.102,-17.91521
1425495516.117,-17.745104
1425495516.133,-17.411442
1425495516.149,-17.148293
1425495516.164,-17.052567
1425495516.18,-17.037506
1425495516.196,-16.82888
1425495516.211,-16.15375
1425495516.227,-14.870039
1425495516.242,-13.023918
1425495516.258,-10.821482
1425495516.274,-8.516344
1425495516.289,-6.286648
1425495516.305,-4.2121696
1425495516.321,-2.304306
1425495516.336,-0.5348625
1425495516.352,1.1525536
1425495516.367,2.8063087
1425495516.383,4.5286674
1425495516.399,6.3583717
1425495516.414,8.334209
1425495516.43,10.417622
1425495516.446,12.578949
1425495516.461,14.798595
1425495516.477,17.115353
1425495516.492,19.552135
1425495516.508,22.049618
1425495516.524,24.392078
1425495516.539,26.197212
1425495516.555,26.953342
1425495516.571,26.25343
1425495516.586,23.901741
1425495516.602,20.10262
1425495516.617,15.392822
1425495516.633,10.49926
1425495516.649,6.0569496
1425495516.664,2.4500237
1425495516.68,-0.2852478
1425495516.696,-2.331787
1425495516.711,-3.9554367
1425495516.727,-5.3846245
1425495516.742,-6.762829
1425495516.758,-8.155411
1425495516.774,-9.599747
1425495516.789,-11.122292
1425495516.805,-12.677406
1425495516.821,-14.175255
1425495516.836,-15.456276
1425495516.852,-16.340172
1425495516.867,-16.71112
1425495516.883,-16.494797
1425495516.899,-15.793007
1425495516.914,-14.794121
1425495516.93,-13.795616
1425495516.946,-13.075256
1425495516.961,-12.845352
1425495516.977,-13.128662
1425495516.992,-13.7612915
1425495517.008,-14.476364
1425495517.024,-14.993256
1425495517.039,-15.125954
1425495517.055,-14.789391
1425495517.071,-13.949379
1425495517.086,-12.634369
1425495517.102,-10.898735
1425495517.117,-8.9149475
1425495517.133,-6.9734116
1425495517.149,-5.4362793
1425495517.164,-4.565712
1425495517.18,-4.3949203
1425495517.196,-4.6324005
1425495517.211,-4.7873154
1425495517.227,-4.365608
1425495517.242,-3.1030273
1425495517.258,-1.0357208
1425495517.274,1.5198288
1425495517.289,4.116028
1425495517.305,6.3673477
1425495517.321,8.057732
1425495517.336,9.211296
1425495517.352,10.009781
1425495517.368,10.687073
1425495517.383,11.486366
1425495517.399,12.519287
1425495517.414,13.7630005
1425495517.43,15.044754
1425495517.446,16.108093
1425495517.461,16.700447
1425495517.477,16.585068
1425495517.492,15.630386
1425495517.508,13.8174515
1425495517.524,11.245285
1425495517.539,8.1501465
1425495517.555,4.8727036
1425495517.571,1.816803
1425495517.586,-0.7149353
1425495517.602,-2.600891
1425495517.618,-3.8916245
1425495517.633,-4.7804947
1425495517.649,-5.5044327
1425495517.664,-6.2284927
1425495517.68,-7.068802
1425495517.696,-8.071426
1425495517.711,-9.268997
1425495517.727,-10.659073
1425495517.743,-12.166359
1425495517.758,-13.617226
1425495517.774,-14.763535
1425495517.789,-15.374817
1425495517.805,-15.361748
1425495517.821,-14.864853
1425495517.836,-14.198578
1425495517.852,-13.715416
1425495517.868,-13.67588
1425495517.883,-14.101295
1425495517.899,-14.817108
1425495517.914,-15.4908905
1425495517.93,-15.785988
1425495517.946,-15.495895
1425495517.961,-14.558952
1425495517.977,-13.075424
1425495517.993,-11.278885
1425495518.008,-9.428131
1425495518.024,-7.6906586
1425495518.039,-6.109337
1425495518.055,-4.585251
1425495518.071,-2.9110413
1425495518.086,-0.88765717
1425495518.102,1.56633
1425495518.118,4.3802185
1425495518.133,7.329277
1425495518.149,10.109718
1425495518.164,12.452934
1425495518.18,14.146027
1425495518.196,15.11731
1425495518.211,15.411819
1425495518.227,15.137398
1425495518.243,14.4255295
1425495518.258,13.380447
1425495518.274,12.071953
1425495518.289,10.539612
1425495518.305,8.910362
1425495518.321,7.3778763
1425495518.336,6.211014
1425495518.352,5.6891174
1425495518.368,5.932419
1425495518.383,6.805977
1425495518.399,7.8600388
1425495518.414,8.464981
1425495518.43,8.032822
1425495518.446,6.2590866
1425495518.461,3.2742233
1425495518.477,-0.3961029
1425495518.493,-4.0597
1425495518.508,-7.1419983
1425495518.524,-9.417305
1425495518.539,-11.009888
1425495518.555,-12.231354
1425495518.571,-13.351891
1425495518.586,-14.408279
1425495518.602,-15.220802
1425495518.618,-15.546127
1425495518.633,-15.250046
1425495518.649,-14.428017
1425495518.664,-13.3077545
1425495518.68,-12.117012
1425495518.696,-10.937645
1425495518.711,-9.740372
1425495518.727,-8.426186
1425495518.743,-6.9623947
1425495518.758,-5.4264755
1425495518.774,-4.005722
1425495518.789,-2.9335938
1425495518.805,-2.401085
1425495518.821,-2.4904633
1425495518.836,-3.1859665
1425495518.852,-4.330765
1425495518.868,-5.669327
1425495518.883,-6.9182434
1425495518.899,-7.8402786
1425495518.914,-8.3216095
1425495518.93,-8.374863
1425495518.946,-8.143654
1425495518.961,-7.771599
1425495518.977,-7.318573
1425495518.993,-6.7630157
1425495519.008,-6.0003204
1425495519.024,-4.9647827
1425495519.039,-3.6873245
1425495519.055,-2.3351898
1425495519.071,-1.1164398
1425495519.086,-0.1638031
1425495519.102,0.5381317
1425495519.118,1.1916809
1425495519.133,2.1002579
1425495519.149,3.4510193
1425495519.164,5.229477
1425495519.18,7.1467743
1425495519.196,8.848473
1425495519.211,10.04541
1425495519.227,10.691193
1425495519.243,10.958206
1425495519.258,11.165108
1425495519.274,11.566437
1425495519.289,12.281471
1425495519.305,13.24807
1425495519.321,14.3116
1425495519.336,15.23539
1425495519.352,15.747154
1425495519.368,15.575943
1425495519.383,14.493156
1425495519.399,12.4134445
1425495519.414,9.480408
1425495519.43,6.090309
1425495519.446,2.7437744
1425495519.461,-0.0850296
1425495519.477,-2.1341324
1425495519.493,-3.3939514
1425495519.508,-4.0154343
1425495519.524,-4.271744
1425495519.539,-4.41317
1425495519.555,-4.717842
1425495519.571,-5.381874
1425495519.586,-6.496956
1425495519.602,-7.9839325
1425495519.618,-9.59861
1425495519.633,-10.954605
1425495519.649,-11.727028
1425495519.664,-11.774071
1425495519.68,-11.191261
1425495519.696,-10.232712
1425495519.711,-9.242935
1425495519.727,-8.46711
1425495519.743,-8.036659
1425495519.758,-7.9471207
1425495519.774,-8.091049
1425495519.789,-8.3040695
1425495519.805,-8.410057
1425495519.821,-8.247726
1425495519.836,-7.7107925
1425495519.852,-6.7852936
1425495519.868,-5.5371094
1425495519.883,-4.1059723
1425495519.899,-2.6651611
1425495519.914,-1.3409195
1425495519.93,-0.20765686
1425495519.946,0.7405319
1425495519.961,1.5940094
1425495519.977,2.4885788
1425495519.993,3.5286636
1425495520.008,4.7540817
1425495520.024,6.107849
1425495520.039,7.4739304
1425495520.055,8.782547
1425495520.071,10.037422
1425495520.086,11.297783
1425495520.102,12.633354
1425495520.118,14.0052185
1425495520.133,15.317215
1425495520.149,16.47165
1425495520.164,17.40944
1425495520.18,18.106026
1425495520.196,18.526886
1425495520.211,18.54293
1425495520.227,17.948257
1425495520.243,16.539063
1425495520.258,14.272781
1425495520.274,11.297821
1425495520.29,7.966614
1425495520.305,4.704277
1425495520.321,1.843544
1425495520.336,-0.4437027
1425495520.352,-2.1816635
1425495520.368,-3.4848633
1425495520.383,-4.5195313
1425495520.399,-5.4262695
1425495520.415,-6.279808
1425495520.43,-7.093315
1425495520.446,-7.811737
1425495520.461,-8.407349
1425495520.477,-8.850327
1425495520.493,-9.181839
1425495520.508,-9.43689
1425495520.524,-9.640038
1425495520.54,-9.767662
1425495520.555,-9.763611
1425495520.571,-9.604034
1425495520.586,-9.362076
1425495520.602,-9.160637
1425495520.618,-9.110611
1425495520.633,-9.253677
1425495520.649,-9.507912
1425495520.665,-9.711052
1425495520.68,-9.704025
1425495520.696,-9.445946
1425495520.711,-9.014496
1425495520.727,-8.503029
1425495520.743,-8.009262
1425495520.758,-7.531662
1425495520.774,-7.0040283
1425495520.79,-6.3524857
1425495520.805,-5.4986725
1425495520.821,-4.411476
1425495520.836,-3.0863953
1425495520.852,-1.5618973
1425495520.868,0.07296753
1425495520.883,1.7226944
1425495520.899,3.2711868
1425495520.915,4.686104
1425495520.93,6.0407944
1425495520.946,7.511711
1425495520.961,9.298531
1425495520.977,11.492287
1425495520.993,14.007202
1425495521.008,16.586739
1425495521.024,18.864166
1425495521.04,20.465828
1425495521.055,21.124008
1425495521.071,20.7457
1425495521.086,19.358727
1425495521.102,17.135723
1425495521.118,14.326588
1425495521.133,11.225876
1425495521.149,8.104202
1425495521.165,5.15905
1425495521.18,2.4932823
1425495521.196,0.15686417
1425495521.211,-1.8409386
1425495521.227,-3.4725761
1425495521.243,-4.735031
1425495521.258,-5.657711
1425495521.274,-6.3664627
1425495521.29,-7.0729103
1425495521.305,-7.959385
1425495521.321,-9.10976
1425495521.336,-10.435974
1425495521.352,-11.698738
1425495521.368,-12.623455
1425495521.383,-13.030876
1425495521.399,-12.935711
1425495521.415,-12.499401
1425495521.43,-11.978676
1425495521.446,-11.584953
1425495521.461,-11.414207
1425495521.477,-11.4049225
1425495521.493,-11.415646
1425495521.508,-11.287731
1425495521.524,-10.935204
1425495521.54,-10.300903
1425495521.555,-9.411083
1425495521.571,-8.241314
1425495521.586,-6.781868
1425495521.602,-5.04517
1425495521.618,-3.1476936
1425495521.633,-1.3391228
1425495521.649,0.046180725
1425495521.665,0.7343521
1425495521.68,0.65091705
1425495521.696,0.004047394
1425495521.711,-0.7829399
1425495521.727,-1.2609177
1425495521.743,-1.1516647
1425495521.758,-0.44065857
1425495521.774,0.6171799
1425495521.79,1.7279625
1425495521.805,2.6771812
1425495521.821,3.4596481
1425495521.836,4.227112
1425495521.852,5.222065
1425495521.868,6.6161423
1425495521.883,8.4959755
1425495521.899,10.717777
1425495521.915,13.037636
1425495521.93,15.068165
1425495521.946,16.42572
1425495521.961,16.806213
1425495521.977,16.099354
1425495521.993,14.403328
1425495522.008,12.013416
1425495522.024,9.319138
1425495522.04,6.7519226
1425495522.055,4.659939
1425495522.071,3.25671
1425495522.086,2.5622826
1425495522.102,2.4234257
1425495522.118,2.517044
1425495522.133,2.465662
1425495522.149,1.9426231
1425495522.165,0.83410454
1425495522.18,-0.7473717
1425495522.196,-2.4667187
1425495522.211,-3.9744759
1425495522.227,-5.0370293
1425495522.243,-5.663721
1425495522.258,-6.0266876
1425495522.274,-6.364403
1425495522.29,-6.829111
1425495522.305,-7.4593296
1425495522.321,-8.225979
1425495522.336,-9.070509
1425495522.352,-9.98127
1425495522.368,-10.95293
1425495522.383,-11.886242
1425495522.399,-12.585548
1425495522.415,-12.806498
1425495522.43,-12.36817
1425495522.446,-11.260822
1425495522.461,-9.705015
1425495522.477,-7.982052
1425495522.493,-6.3847485
1425495522.508,-5.019415
1425495522.524,-3.8837395
1425495522.54,-2.8440552
1425495522.555,-1.8400021
1425495522.571,-0.8752184
1425495522.586,-0.035780907
1425495522.602,0.62398434
1425495522.618,1.1143465
1425495522.633,1.5361137
1425495522.649,2.0403519
1425495522.665,2.778201
1425495522.68,3.8093452
1425495522.696,5.1094494
1425495522.711,6.57018
1425495522.727,8.052073
1425495522.743,9.371079
1425495522.758,10.399905
1425495522.774,11.10817
1425495522.79,11.6058445
1425495522.805,12.048359
1425495522.821,12.598291
1425495522.836,13.254097
1425495522.852,13.802837
1425495522.868,13.878717
1425495522.883,13.156454
1425495522.899,11.531161
1425495522.915,9.197439
1425495522.93,6.6100054
1425495522.946,4.264126
1425495522.962,2.4569201
1425495522.977,1.2087168
1425495522.993,0.29594472
1425495523.008,-0.57166076
1425495523.024,-1.5942392
1425495523.04,-2.7520962
1425495523.055,-3.8844821
1425495523.071,-4.780634
1425495523.087,-5.3414173
1425495523.102,-5.6157494
1425495523.118,-5.8004665
1425495523.133,-6.11942
1425495523.149,-6.708239
1425495523.165,-7.47504
1425495523.18,-8.171349
1425495523.196,-8.4842205
1425495523.212,-8.26017
1425495523.227,-7.570735
1425495523.243,-6.6959724
1425495523.258,-5.9923267
1425495523.274,-5.6839304
1425495523.29,-5.776717
1425495523.305,-6.128332
1425495523.321,-6.558552
1425495523.337,-6.948824
1425495523.352,-7.275779
1425495523.368,-7.580429
1425495523.383,-7.8560514
1425495523.399,-8.0410795
1425495523.415,-8.033259
1425495523.43,-7.7673836
1425495523.446,-7.2673836
1425495523.462,-6.6339436
1425495523.477,-5.9688663
1425495523.493,-5.36417
1425495523.508,-4.8418217
1425495523.524,-4.3685055
1425495523.54,-3.8634949
1425495523.555,-3.202139
1425495523.571,-2.2559395
1425495523.587,-0.9084587
1425495523.602,0.83496857
1425495523.618,2.8380547
1425495523.633,4.8942432
1425495523.649,6.7597923
1425495523.665,8.290352
1425495523.68,9.472321
1425495523.696,10.416334
1425495523.712,11.255383
1425495523.727,12.0937195
1425495523.743,12.931328
1425495523.758,13.671242
1425495523.774,14.144295
1425495523.79,14.1763115
1425495523.805,13.6282425
1425495523.821,12.412392
1425495523.837,10.534164
1425495523.852,8.122696
1425495523.868,5.423252
1425495523.883,2.7521095
1425495523.899,0.41796875
1425495523.915,-1.4028702
1425495523.93,-2.7040024
1425495523.946,-3.6486855
1425495523.962,-4.5002365
1425495523.977,-5.491173
1425495523.993,-6.757469
1425495524.008,-8.271854
1425495524.024,-9.896515
1425495524.04,-11.402382
1425495524.055,-12.53228
1425495524.071,-13.034241
1425495524.087,-12.676746
1425495524.102,-11.313339
1425495524.118,-8.898685
1425495524.133,-5.5170746
1425495524.149,-1.4027939
1425495524.165,3.1004906
1425495524.18,7.564575
1425495524.196,11.571648
1425495524.212,14.725342
1425495524.227,16.705448
1425495524.243,17.338284
1425495524.258,16.667912
1425495524.274,14.960075
1425495524.29,12.663593
1425495524.305,10.249908
1425495524.321,8.063309
1425495524.337,6.176491
1425495524.352,4.4216766
1425495524.368,2.527687
1425495524.383,0.28251266
1425495524.399,-2.3269882
1425495524.415,-5.1031647
1425495524.43,-7.7027245
1425495524.446,-9.768421
1425495524.462,-11.002838
1425495524.477,-11.246529
1425495524.493,-10.48069
1425495524.508,-8.841927
1425495524.524,-6.6011963
1425495524.54,-4.134529
1425495524.555,-1.819191
1425495524.571,0.08040619
1425495524.587,1.5256577
1425495524.602,2.6808243
1425495524.618,3.8365326
1425495524.633,5.293503
1425495524.649,7.199486
1425495524.665,9.563934
1425495524.68,12.185402
1425495524.696,14.73304
1425495524.712,16.786354
1425495524.727,17.909607
1425495524.743,17.77304
1425495524.758,16.26152
1425495524.774,13.553871
1425495524.79,10.088242
1425495524.805,6.404854
1425495524.821,3.0009384
1425495524.837,0.16792297
1425495524.852,-2.0501099
1425495524.868,-3.7609024
1425495524.883,-5.143051
1425495524.899,-6.346451
1425495524.915,-7.426651
1425495524.93,-8.353188
1425495524.946,-9.046524
1425495524.962,-9.392632
1425495524.977,-9.2859955
1425495524.993,-8.720963
1425495525.008,-7.7362976
1425495525.024,-6.4904785
1425495525.04,-5.173584
1425495525.055,-3.986168
1425495525.071,-3.0977783
1425495525.087,-2.6032639
1425495525.102,-2.4766693
1425495525.118,-2.581688
1425495525.133,-2.6688309
1425495525.149,-2.5237885
1425495525.165,-2.0330658
1425495525.18,-1.2878113
1425495525.196,-0.53881073
1425495525.212,-0.07078552
1425495525.227,-0.031463623
1425495525.243,-0.3550644
1425495525.258,-0.78679657
1425495525.274,-1.0359879
1425495525.29,-0.91254425
1425495525.305,-0.3767929
1425495525.321,0.5280533
1425495525.337,1.7204895
1425495525.352,3.1443787
1425495525.368,4.7165527
1425495525.383,6.3298798
1425495525.399,7.7805862
1425495525.415,8.910507
1425495525.43,9.642555
1425495525.446,10.029877
1425495525.462,10.189545
1425495525.477,10.274162
1425495525.493,10.370064
1425495525.508,10.517975
1425495525.524,10.695824
1425495525.54,10.849396
1425495525.555,10.88681
1425495525.571,10.647522
1425495525.587,9.959511
1425495525.602,8.731117
1425495525.618,6.985359
1425495525.634,4.92321
1425495525.649,2.798294
1425495525.665,0.8593674
1425495525.68,-0.7707901
1425495525.696,-2.0312653
1425495525.712,-2.9377213
1425495525.727,-3.4877777
1425495525.743,-3.7214203
1425495525.758,-3.7392044
1425495525.774,-3.7229462
1425495525.79,-3.8781052
1425495525.805,-4.304695
1425495525.821,-4.9763947
1425495525.837,-5.762886
1425495525.852,-6.4965897
1425495525.868,-7.0813217
1425495525.884,-7.475212
1425495525.899,-7.7089615
1425495525.915,-7.777855
1425495525.93,-7.688942
1425495525.946,-7.4171906
1425495525.962,-7.0022125
1425495525.977,-6.521576
1425495525.993,-6.0674515
1425495526.009,-5.70166
1425495526.024,-5.423088
1425495526.04,-5.1653137
1425495526.055,-4.8761597
1425495526.071,-4.571678
1425495526.087,-4.3113937
1425495526.102,-4.160698
1425495526.118,-4.0949097
1425495526.134,-4.000145
1425495526.149,-3.7105408
1425495526.165,-3.0767212
1425495526.18,-2.0732346
1425495526.196,-0.78253174
1425495526.212,0.6309509
1425495526.227,2.0222015
1425495526.243,3.300232
1425495526.259,4.4520645
1425495526.274,5.50383
1425495526.29,6.462036
1425495526.305,7.306694
1425495526.321,8.053955
1425495526.337,8.770332
1425495526.352,9.596062
1425495526.368,10.665009
1425495526.384,12.012871
1425495526.399,13.437187
1425495526.415,14.600906
1425495526.43,15.054329
1425495526.446,14.510773
1425495526.462,12.909538
1425495526.477,10.522438
1425495526.493,7.8106155
1425495526.509,5.2668304
1425495526.524,3.2456207
1425495526.54,1.8636017
1425495526.555,1.0636444
1425495526.571,0.64115906
1425495526.587,0.40555573
1425495526.602,0.18434143
1425495526.618,-0.12896729
1425495526.634,-0.62939453
1425495526.649,-1.413063
1425495526.665,-2.5176392
1425495526.68,-3.8875046
1425495526.696,-5.322258
1425495526.712,-6.529724
1425495526.727,-7.229904
1425495526.743,-7.292946
1425495526.759,-6.802391
1425495526.774,-6.065132
1425495526.79,-5.4356384
1425495526.805,-5.189644
1425495526.821,-5.3948975
1425495526.837,-5.93322
1425495526.852,-6.5642014
1425495526.868,-7.117119
1425495526.884,-7.506325
1425495526.899,-7.7664566
1425495526.915,-7.908745
1425495526.93,-7.8900757
1425495526.946,-7.607704
1425495526.962,-7.0134354
1425495526.977,-6.165703
1425495526.993,-5.2474365
1425495527.009,-4.4286194
1425495527.024,-3.8083954
1425495527.04,-3.260376
1425495527.055,-2.5760193
1425495527.071,-1.5599594
1425495527.087,-0.18575287
1425495527.102,1.3918228
1425495527.118,2.894577
1425495527.134,4.0839005
1425495527.149,4.865799
1425495527.165,5.348816
1425495527.18,5.74646
1425495527.196,6.327347
1425495527.212,7.2500687
1425495527.227,8.582787
1425495527.243,10.277107
1425495527.259,12.276497
1425495527.274,14.473831
1425495527.29,16.729576
1425495527.305,18.791748
1425495527.321,20.338768
1425495527.337,21.003426
1425495527.352,20.536736
1425495527.368,18.94564
1425495527.384,16.541374
1425495527.399,13.85611
1425495527.415,11.476494
1425495527.43,9.746513
1425495527.446,8.700531
1425495527.462,8.039314
1425495527.477,7.3498535
1425495527.493,6.303894
1425495527.509,4.812065
1425495527.524,3.0125046
1425495527.54,1.149498
1425495527.555,-0.58367157
1425495527.571,-2.0459366
1425495527.587,-3.1960144
1425495527.602,-4.012253
1425495527.618,-4.459923
1425495527.634,-4.5309525
1425495527.649,-4.3292007
1425495527.665,-4.0663757
1425495527.68,-4.0605927
1425495527.696,-4.571724
1425495527.712,-5.671562
1425495527.727,-7.1904297
1425495527.743,-8.775673
1425495527.759,-10.035721
1425495527.774,-10.726761
1425495527.79,-10.813446
1425495527.805,-10.467598
1425495527.821,-9.894112
1425495527.837,-9.2801895
1425495527.852,-8.686447
1425495527.868,-8.084534
1425495527.884,-7.417309
1425495527.899,-6.6488457
1425495527.915,-5.756504
1425495527.93,-4.781597
1425495527.946,-3.7250137
1425495527.962,-2.5669212
1425495527.977,-1.2977066
1425495527.993,0.07052612
1425495528.009,1.5306358
1425495528.024,2.9932022
1425495528.04,4.379059
1425495528.055,5.6034966
1425495528.071,6.6375275
1425495528.087,7.500557
1425495528.102,8.255959
1425495528.118,8.9939
1425495528.134,9.843151
1425495528.149,10.946419
1425495528.165,12.429543
1425495528.18,14.344883
1425495528.196,16.562939
1425495528.212,18.75335
1425495528.227,20.399036
1425495528.243,21.000015
1425495528.259,20.241634
1425495528.274,18.131882
1425495528.29,15.063248
1425495528.306,11.616035
1425495528.321,8.382626
1425495528.337,5.7564125
1425495528.352,3.8502312
1425495528.368,2.5477905
1425495528.384,1.5992203
1425495528.399,0.742424
1425495528.415,-0.2138443
1425495528.43,-1.4336166
1425495528.446,-2.9957829
1425495528.462,-4.9340057
1425495528.477,-7.149925
1425495528.493,-9.433462
1425495528.509,-11.427551
1425495528.524,-12.770132
1425495528.54,-13.236443
1425495528.556,-12.862228
1425495528.571,-11.955488
1425495528.587,-11.007965
1425495528.602,-10.472065
1425495528.618,-10.58238
1425495528.634,-11.241026
1425495528.649,-12.116325
1425495528.665,-12.793243
1425495528.681,-12.949182
1425495528.696,-12.4522915
1425495528.712,-11.364752
1425495528.727,-9.894974
1425495528.743,-8.273346
1425495528.759,-6.697796
1425495528.774,-5.356469
1425495528.79,-4.3769817
1425495528.806,-3.7896614
1425495528.821,-3.5185785
1425495528.837,-3.4202166
1425495528.852,-3.307856
1425495528.868,-3.0234442
1425495528.884,-2.474226
1425495528.899,-1.6676533
1425495528.915,-0.667979
1425495528.931,0.4171059
1425495528.946,1.4788365
1425495528.962,2.4079528
1425495528.977,3.1394064
1425495528.993,3.6518767
1425495529.009,4.0307174
1425495529.024,4.425549
1425495529.04,5.041727
1425495529.056,6.058408
1425495529.071,7.562094
1425495529.087,9.552946
1425495529.102,11.908234
1425495529.118,14.408514
1425495529.134,16.744411
1425495529.149,18.564175
1425495529.165,19.525478
1425495529.181,19.386745
1425495529.196,18.0913
1425495529.212,15.797101
1425495529.227,12.853439
1425495529.243,9.663136
1425495529.259,6.6311283
1425495529.274,4.01507
1425495529.29,1.91218
1425495529.306,0.28079224
1425495529.321,-1.0197201
1425495529.337,-2.128336
1425495529.352,-3.1941643
1425495529.368,-4.3673325
1425495529.384,-5.778515
1425495529.399,-7.505039
1425495529.415,-9.530098
1425495529.431,-11.647966
1425495529.446,-13.508942
1425495529.462,-14.692829
1425495529.477,-14.92981
1425495529.493,-14.243362
1425495529.509,-12.9781
1425495529.524,-11.711014
1425495529.54,-10.98138
1425495529.556,-11.105473
1425495529.571,-12.011368
1425495529.587,-13.326157
1425495529.602,-14.525333
1425495529.618,-15.132126
1425495529.634,-14.874207
1425495529.649,-13.730072
1425495529.665,-11.887878
1425495529.681,-9.691849
1425495529.696,-7.530327
1425495529.712,-5.714554
1425495529.727,-4.377079
1425495529.743,-3.4725456
1425495529.759,-2.8034325
1425495529.774,-2.1152534
1425495529.79,-1.1648903
1425495529.806,0.17621613
1425495529.821,1.9174156
1425495529.837,3.9367676
1425495529.852,6.019619
1425495529.868,7.929264
1425495529.884,9.489613
1425495529.899,10.642155
1425495529.915,11.505844
1425495529.931,12.342533
1425495529.946,13.429466
1425495529.962,14.965538
1425495529.977,16.953121
1425495529.993,19.166603
1425495530.009,21.18935
1425495530.024,22.527023
1425495530.04,22.735668
1425495530.056,21.557167
1425495530.071,19.0172
1425495530.087,15.44009
1425495530.102,11.354919
1425495530.118,7.344101
1425495530.134,3.8514633
1425495530.149,1.0852509
1425495530.165,-1.0077133
1425495530.181,-2.5842514
1425495530.196,-3.8386917
1425495530.212,-4.9291306
1425495530.227,-5.9719315
1425495530.243,-7.071068
1425495530.259,-8.310394
1425495530.274,-9.715599
1425495530.29,-11.201431
1425495530.306,-12.557915
1425495530.321,-13.562912
1425495530.337,-14.070801
1425495530.352,-14.092804
1425495530.368,-13.814423
1425495530.384,-13.4064865
1425495530.399,-13.007492
1425495530.415,-12.6019745
1425495530.431,-12.104324
1425495530.446,-11.459206
1425495530.462,-10.711243
1425495530.477,-9.966949
1425495530.493,-9.330933
1425495530.509,-8.805969
1425495530.524,-8.334221
1425495530.54,-7.8435516
1425495530.556,-7.3707886
1425495530.571,-7.041939
1425495530.587,-6.974777
1425495530.602,-7.1711044
1425495530.618,-7.417282
1425495530.634,-7.3926544
1425495530.649,-6.7956467
1425495530.665,-5.537758
1425495530.681,-3.7678452
1425495530.696,-1.7827148
1425495530.712,0.106399536
1425495530.727,1.7660446
1425495530.743,3.2832947
1425495530.759,4.900116
1425495530.774,6.8584213
1425495530.79,9.299889
1425495530.806,12.155777
1425495530.821,15.15377
1425495530.837,17.869072
1425495530.852,19.848732
1425495530.868,20.74234
1425495530.884,20.408249
1425495530.899,18.919945
1425495530.915,16.531677
1425495530.931,13.590004
1425495530.946,10.442146
1425495530.962,7.399727
1425495530.977,4.6986847
1425495530.993,2.5066605
1425495531.009,0.875618
1425495531.024,-0.2875595
1425495531.04,-1.2233429
1425495531.056,-2.241745
1425495531.071,-3.545967
1425495531.087,-5.1620255
1425495531.102,-6.878128
1425495531.118,-8.366455
1425495531.134,-9.325317
1425495531.149,-9.668449
1425495531.165,-9.49366
1425495531.181,-9.065903
1425495531.196,-8.653526
1425495531.212,-8.4288025
1425495531.228,-8.4648285
1425495531.243,-8.754677
1425495531.259,-9.260681
1425495531.274,-9.974655
1425495531.29,-10.877785
1425495531.306,-11.896172
1425495531.321,-12.845917
1425495531.337,-13.468727
1425495531.353,-13.530403
1425495531.368,-12.945206
1425495531.384,-11.836906
1425495531.399,-10.580605
1425495531.415,-9.564323
1425495531.431,-9.054344
1425495531.446,-9.072655
1425495531.462,-9.399628
1425495531.478,-9.671532
1425495531.493,-9.593208
1425495531.509,-9.003098
1425495531.524,-7.9139404
1425495531.54,-6.470291
1425495531.556,-4.864853
1425495531.571,-3.2578735
1425495531.587,-1.7541809
1425495531.603,-0.3868103
1425495531.618,0.90216064
1425495531.634,2.258545
1425495531.649,3.8366241
1425495531.665,5.806839
1425495531.681,8.205505
1425495531.696,10.998047
1425495531.712,14.005844
1425495531.728,16.98381
1425495531.743,19.597092
1425495531.759,21.472183
1425495531.774,22.213638
1425495531.79,21.561615
1425495531.806,19.49887
1425495531.821,16.340012
1425495531.837,12.694611
1425495531.853,9.231216
1425495531.868,6.4428253
1425495531.884,4.477173
1425495531.899,3.1153717
1425495531.915,1.9287415
1425495531.931,0.53837585
1425495531.946,-1.2443848
1425495531.962,-3.4046478
1425495531.978,-5.7647247
1425495531.993,-8.170013
1425495532.009,-10.530685
1425495532.024,-12.818039
1425495532.04,-14.9702
1425495532.056,-16.82666
1425495532.071,-18.161957
1425495532.087,-18.78154
1425495532.103,-18.600357
1425495532.118,-17.75856
1425495532.134,-16.540192
1425495532.149,-15.302643
1425495532.165,-14.33815
1425495532.181,-13.804382
1425495532.196,-13.698074
1425495532.212,-13.850876
1425495532.228,-14.020523
1425495532.243,-13.938156
1425495532.259,-13.390396
1425495532.274,-12.314758
1425495532.29,-10.803741
1425495532.306,-9.078934
1425495532.321,-7.4020996
1425495532.337,-5.928955
1425495532.353,-4.7006073
1425495532.368,-3.6129456
1425495532.384,-2.4996948
1425495532.399,-1.2379913
1425495532.415,0.22892761
1425495532.431,1.9124451
1425495532.446,3.7782288
1425495532.462,5.768097
1425495532.478,7.77153
1425495532.493,9.627502
1425495532.509,11.153503
1425495532.524,12.221481
1425495532.54,12.862457
1425495532.556,13.259857
1425495532.571,13.73349
1425495532.587,14.605347
1425495532.603,16.096817
1425495532.618,18.199081
1425495532.634,20.675247
1425495532.649,23.086456
1425495532.665,24.93724
1425495532.681,25.755066
1425495532.696,25.23088
1425495532.712,23.320755
1425495532.728,20.23825
1425495532.743,16.412048
1425495532.759,12.386734
1425495532.774,8.648926
1425495532.79,5.4868164
1425495532.806,2.9167938
1425495532.821,0.72732544
1425495532.837,-1.3830566
1425495532.853,-3.6586914
1425495532.868,-6.1739044
1425495532.884,-8.7690735
1425495532.899,-11.176865
1425495532.915,-13.139511
1425495532.931,-14.494843
1425495532.946,-15.233948
1425495532.962,-15.488083
1425495532.978,-15.417053
1425495532.993,-15.155533
1425495533.009,-14.739166
1425495533.024,-14.242416
1425495533.04,-13.709473
1425495533.056,-13.278702
1425495533.071,-13.116104
1425495533.087,-13.339142
1425495533.103,-13.918381
1425495533.118,-14.6684265
1425495533.134,-15.311829
1425495533.149,-15.5967865
1425495533.165,-15.385284
1425495533.181,-14.72937
1425495533.196,-13.814606
1425495533.212,-12.835815
1425495533.228,-11.913635
1425495533.243,-11.070053
1425495533.259,-10.1983795
1425495533.274,-9.224869
1425495533.29,-8.141113
1425495533.306,-6.993698
1425495533.321,-5.8796844
1425495533.337,-4.8610687
1425495533.353,-3.9001617
1425495533.368,-2.9378204
1425495533.384,-1.8596497
1425495533.399,-0.60910034
1425495533.415,0.80781555
1425495533.431,2.34552
1425495533.446,3.9810333
1425495533.462,5.7521515
1425495533.478,7.7818375
1425495533.493,10.181244
1425495533.509,12.989563
1425495533.524,16.029114
1425495533.54,18.900795
1425495533.556,21.113861
1425495533.571,22.22834
1425495533.587,21.999565
1425495533.603,20.463478
1425495533.618,17.895805
1425495533.634,14.720909
1425495533.649,11.419174
1425495533.665,8.4122925
1425495533.681,6.017288
1425495533.696,4.3814316
1425495533.712,3.4384766
1425495533.728,2.9513702
1425495533.743,2.5569077
1425495533.759,1.9335327
1425495533.774,0.87335205
1425495533.79,-0.66729736
1425495533.806,-2.5848312
1425495533.821,-4.6899033
1425495533.837,-6.79055
1425495533.853,-8.642677
1425495533.868,-10.043983
1425495533.884,-10.801834
1425495533.9,-10.866676
1425495533.915,-10.354645
1425495533.931,-9.549522
1425495533.946,-8.80603
1425495533.962,-8.382484
1425495533.978,-8.338539
1425495533.993,-8.547348
1425495534.009,-8.78508
1425495534.025,-8.886223
1425495534.04,-8.794739
1425495534.056,-8.54026
1425495534.071,-8.171951
1425495534.087,-7.648018
1425495534.103,-6.8957977
1425495534.118,-5.8588867
1425495534.134,-4.5349503
1425495534.15,-3.0237732
1425495534.165,-1.4663773
1425495534.181,0.0031356812
1425495534.196,1.3338165
1425495534.212,2.5158844
1425495534.228,3.605873
1425495534.243,4.667465
1425495534.259,5.7092667
1425495534.275,6.7833786
1425495534.29,7.9433136
1425495534.306,9.282021
1425495534.321,10.901405
1425495534.337,12.776962
1425495534.353,14.707176
1425495534.368,16.287132
1425495534.384,17.043991
1425495534.4,16.605698
1425495534.415,14.891243
1425495534.431,12.132919
1425495534.446,8.82988
1425495534.462,5.539406
1425495534.478,2.718628
1425495534.493,0.56562805
1425495534.509,-0.933403
1425495534.525,-1.9663315
1425495534.54,-2.7989807
1425495534.556,-3.6433334
1425495534.571,-4.651825
1425495534.587,-5.8598404
1425495534.603,-7.2126007
1425495534.618,-8.580826
1425495534.634,-9.7973175
1425495534.65,-10.680138
1425495534.665,-11.10498
1425495534.681,-11.048027
1425495534.696,-10.573509
1425495534.712,-9.843948
1425495534.728,-9.109016
1425495534.743,-8.602585
1425495534.759,-8.4925995
1425495534.775,-8.75412
1425495534.79,-9.207008
1425495534.806,-9.582779
1425495534.821,-9.651947
1425495534.837,-9.3431015
1425495534.853,-8.762421
1425495534.868,-8.10408
1425495534.884,-7.5169907
1425495534.9,-7.0462112
1425495534.915,-6.5836716
1425495534.931,-5.953598
1425495534.946,-4.9657288
1425495534.962,-3.5121536
1425495534.978,-1.6068268
1425495534.993,0.59615326
1425495535.009,2.834488
1425495535.025,4.813919
1425495535.04,6.328514
1425495535.056,7.3330307
1425495535.071,8.010345
1425495535.087,8.647285
1425495535.103,9.539886
1425495535.118,10.856857
1425495535.134,12.585571
1425495535.15,14.5533905
1425495535.165,16.518852
1425495535.181,18.210098
1425495535.196,19.352638
1425495535.212,19.70282
1425495535.228,19.10125
1425495535.243,17.546532
1425495535.259,15.2331085
1425495535.275,12.506294
1425495535.29,9.75528
1425495535.306,7.2227325
1425495535.321,4.9624634
1425495535.337,2.8746643
1425495535.353,0.8345108
1425495535.368,-1.1794891
1425495535.384,-3.0617752
1425495535.4,-4.662346
1425495535.415,-5.8951797
1425495535.431,-6.815132
1425495535.446,-7.564331
1425495535.462,-8.292702
1425495535.478,-9.028961
1425495535.493,-9.703598
1425495535.509,-10.200981
1425495535.525,-10.456207
1425495535.54,-10.512032
1425495535.556,-10.496979
1425495535.571,-10.507225
1425495535.587,-10.546593
1425495535.603,-10.515533
1425495535.618,-10.313927
1425495535.634,-9.884094
1425495535.65,-9.307663
1425495535.665,-8.709038
1425495535.681,-8.19558
1425495535.696,-7.770897
1425495535.712,-7.3448143
1425495535.728,-6.815483
1425495535.743,-6.1359596
1425495535.759,-5.3247414
1425495535.775,-4.429489
1425495535.79,-3.4856033
1425495535.806,-2.4933662
1425495535.821,-1.4145393
1425495535.837,-0.2494278
1425495535.853,0.94301987
1425495535.868,2.0996132
1425495535.884,3.1615372
1425495535.9,4.126049
1425495535.915,5.0077057
1425495535.931,5.8000755
1425495535.946,6.535984
1425495535.962,7.233555
1425495535.978,7.9902267
1425495535.993,8.939438
1425495536.009,10.211189
1425495536.025,11.813171
1425495536.04,13.616669
1425495536.056,15.345497
1425495536.071,16.662632
1425495536.087,17.248154
1425495536.103,16.874104
1425495536.118,15.470291
1425495536.134,13.159271
1425495536.15,10.282719
1425495536.165,7.3457413
1425495536.181,4.8602943
1425495536.196,3.214981
1425495536.212,2.4655685
1425495536.228,2.3914719
1425495536.243,2.524971
1425495536.259,2.4070625
1425495536.275,1.70261
1425495536.29,0.28504562
1425495536.306,-1.8057861
1425495536.321,-4.4197845
1425495536.337,-7.323601
1425495536.353,-10.218529
1425495536.368,-12.75156
1425495536.384,-14.563995
1425495536.4,-15.463207
1425495536.415,-15.466835
1425495536.431,-14.868423
1425495536.446,-14.117344
1425495536.462,-13.592602
1425495536.478,-13.468876
1425495536.493,-13.629681
1425495536.509,-13.777187
1425495536.525,-13.643681
1425495536.54,-13.088646
1425495536.556,-12.22683
1425495536.572,-11.264317
1425495536.587,-10.413464
1425495536.603,-9.770885
1425495536.618,-9.238968
1425495536.634,-8.623436
1425495536.65,-7.7389736
1425495536.665,-6.4730225
1425495536.681,-4.8519287
1425495536.696,-2.9892063
1425495536.712,-1.0434456
1425495536.728,0.87120247
1425495536.743,2.6620903
1425495536.759,4.3352985
1425495536.775,5.885992
1425495536.79,7.294836
1425495536.806,8.502398
1425495536.822,9.456045
1425495536.837,10.143047
1425495536.853,10.643549
1425495536.868,11.0996895
1425495536.884,11.707659
1425495536.9,12.580408
1425495536.915,13.712006
1425495536.931,15.003042
1425495536.947,16.307981
1425495536.962,17.516033
1425495536.978,18.552124
1425495536.993,19.362497
1425495537.009,19.792637
1425495537.025,19.623451
1425495537.04,18.612232
1425495537.056,16.5918
1425495537.072,13.624539
1425495537.087,9.986825
1425495537.103,6.155098
1425495537.118,2.6212587
1425495537.134,-0.2038765
1425495537.15,-2.150733
1425495537.165,-3.281927
1425495537.181,-3.8443813
1425495537.197,-4.1768007
1425495537.212,-4.5862164
1425495537.228,-5.2445374
1425495537.243,-6.193459
1425495537.259,-7.3225718
1425495537.275,-8.473375
1425495537.29,-9.5154
1425495537.306,-10.401909
1425495537.322,-11.111973
1425495537.337,-11.6221
1425495537.353,-11.812072
1425495537.368,-11.530609
1425495537.384,-10.656984
1425495537.4,-9.2583885
1425495537.415,-7.5918584
1425495537.431,-6.035881
1425495537.447,-4.935126
1425495537.462,-4.449105
1425495537.478,-4.5039973
1425495537.493,-4.8639255
1425495537.509,-5.2451706
1425495537.525,-5.4717937
1425495537.54,-5.4888678
1425495537.556,-5.363234
1425495537.572,-5.1728144
1425495537.587,-4.9820023
1425495537.603,-4.767116
1425495537.618,-4.492583
1425495537.634,-4.1132665
1425495537.65,-3.6072712
1425495537.665,-2.9854798
1425495537.681,-2.2542539
1425495537.697,-1.4318652
1425495537.712,-0.53653145
1425495537.728,0.38820744
1425495537.743,1.2443075
1425495537.759,1.9393349
1425495537.775,2.3972063
1425495537.79,2.6436844
1425495537.806,2.767537
1425495537.822,2.9447565
1425495537.837,3.2818737
1425495537.853,3.8584871
1425495537.868,4.6772203
1425495537.884,5.78843
1425495537.9,7.225254
1425495537.915,9.013037
1425495537.931,11.034729
1425495537.947,12.980616
1425495537.962,14.419563
1425495537.978,14.905748
1425495537.993,14.249292
1425495538.009,12.596516
1425495538.025,10.411436
1425495538.04,8.250477
1425495538.056,6.5406113
1425495538.072,5.451393
1425495538.087,4.8349724
1425495538.103,4.402323
1425495538.118,3.8324852
1425495538.134,2.9477196
1425495538.15,1.7056313
1425495538.165,0.24973106
1425495538.181,-1.2505398
1425495538.197,-2.5863686
1425495538.212,-3.6786652
1425495538.228,-4.5069256
1425495538.243,-5.124632
1425495538.259,-5.544594
1425495538.275,-5.7777023
1425495538.29,-5.824314
1425495538.306,-5.7661304
1425495538.322,-5.7593403
1425495538.337,-6.0185833
1425495538.353,-6.6690445
1425495538.368,-7.656643
1425495538.384,-8.753925
1425495538.4,-9.6515045
1425495538.415,-10.120373
1425495538.431,-10.117855
1425495538.447,-9.764137
1425495538.462,-9.272991
1425495538.478,-8.791218
1425495538.493,-8.365063
1425495538.509,-7.937332
1425495538.525,-7.4168243
1425495538.54,-6.7284164
1425495538.556,-5.8520355
1425495538.572,-4.8259277
1425495538.587,-3.7108383
1425495538.603,-2.5357857
1425495538.618,-1.2895584
1425495538.634,0.10865784
1425495538.65,1.7729683
1425495538.665,3.7181473
1425495538.681,5.8037643
1425495538.697,7.728771
1425495538.712,9.153641
1425495538.728,9.925869
1425495538.743,10.163319
1425495538.759,10.285305
1425495538.775,10.784637
1425495538.79,11.972252
1425495538.806,13.747883
1425495538.822,15.668591
1425495538.837,17.11583
1425495538.853,17.616203
1425495538.868,16.995018
1425495538.884,15.441269
1425495538.9,13.336815
1425495538.915,11.113033
1425495538.931,9.108547
1425495538.947,7.576023
1425495538.962,6.6406174
1425495538.978,6.316284
1425495538.993,6.440201
1425495539.009,6.7000313
1425495539.025,6.6881256
1425495539.04,6.0614967
1425495539.056,4.7014923
1425495539.072,2.797638
1425495539.087,0.717865
1425495539.103,-1.0983124
1425495539.118,-2.3899994
1425495539.134,-3.1382065
1425495539.15,-3.5170708
1425495539.165,-3.7643013
1425495539.181,-4.0653534
1425495539.197,-4.461128
1425495539.212,-4.963787
1425495539.228,-5.5403786
1425495539.244,-6.188038
1425495539.259,-6.8992577
1425495539.275,-7.6138535
1425495539.29,-8.158039
1425495539.306,-8.333675
1425495539.322,-7.9754715
1425495539.337,-7.0370865
1425495539.353,-5.6616783
1425495539.368,-4.140812
1425495539.384,-2.8070946
1425495539.4,-1.9107475
1425495539.415,-1.4668541
1425495539.431,-1.3161888
1425495539.447,-1.2069283
1425495539.462,-0.93616104
1425495539.478,-0.42998123
1425495539.494,0.22504425
1425495539.509,0.89962006
1425495539.525,1.5415764
1425495539.54,2.248043
1425495539.556,3.1916199
1425495539.572,4.5548325
1425495539.587,6.383877
1425495539.603,8.543655
1425495539.619,10.756592
1425495539.634,12.691158
1425495539.65,14.049759
1425495539.665,14.62373
1425495539.681,14.331646
1425495539.697,13.208488
1425495539.712,11.405922
1425495539.728,9.172554
1425495539.744,6.8066635
1425495539.759,4.6124153
1425495539.775,2.769333
1425495539.79,1.402359
1425495539.806,0.5002403
1425495539.822,0.0071792603
1425495539.837,-0.14846802
1425495539.853,-0.045837402
1425495539.869,0.20108414
1425495539.884,0.4275093
1425495539.9,0.42905045
1425495539.915,0.0062828064
1425495539.931,-0.9568558
1425495539.947,-2.3873062
1425495539.962,-4.0319977
1425495539.978,-5.474243
1425495539.994,-6.3304405
1425495540.009,-6.3357162
1425495540.025,-5.5533104
1425495540.04,-4.3129997
1425495540.056,-3.12191
1425495540.072,-2.4530907
1425495540.087,-2.5957222
1425495540.103,-3.5570526
1425495540.119,-5.062725
1425495540.134,-6.6940346
1425495540.15,-8.032913
1425495540.165,-8.775429
1425495540.181,-8.8218
1425495540.197,-8.265129
1425495540.212,-7.3311195
1425495540.228,-6.2568665
1425495540.244,-5.2513237
1425495540.259,-4.431019
1425495540.275,-3.8020782
1425495540.29,-3.311882
1425495540.306,-2.8803406
1425495540.322,-2.4137459
1425495540.337,-1.8370018
1425495540.353,-1.0835075
1425495540.369,-0.09883499
1425495540.384,1.1173286
1425495540.4,2.542839
1425495540.415,4.1538925
1425495540.431,5.9214935
1425495540.447,7.848282
1425495540.462,9.933437
1425495540.478,12.119717
1425495540.494,14.257786
1425495540.509,16.10762
1425495540.525,17.393467
1425495540.54,17.894436
1425495540.556,17.474045
1425495540.572,16.124237
1425495540.587,13.954788
1425495540.603,11.168919
1425495540.619,8.105099
1425495540.634,5.158634
1425495540.65,2.6897888
1425495540.665,0.9746666
1425495540.681,0.053272247
1425495540.697,-0.25995636
1425495540.712,-0.35897827
1425495540.728,-0.6854782
1425495540.744,-1.5668678
1425495540.759,-3.1002045
1425495540.775,-5.1019707
1425495540.79,-7.186905
1425495540.806,-8.950615
1425495540.822,-10.089134
1425495540.837,-10.498539
1425495540.853,-10.294331
1425495540.869,-9.767555
1425495540.884,-9.296665
1425495540.9,-9.215073
1425495540.915,-9.706078
1425495540.931,-10.736416
1425495540.947,-12.045448
1425495540.962,-13.270321
1425495540.978,-14.06778
1425495540.994,-14.245136
1425495541.009,-13.838085
1425495541.025,-13.060017
1425495541.04,-12.140522
1425495541.056,-11.243469
1425495541.072,-10.398529
1425495541.087,-9.568748
1425495541.103,-8.71666
1425495541.119,-7.835903
1425495541.134,-6.9365654
1425495541.15,-5.969803
1425495541.165,-4.8007545
1425495541.181,-3.2991524
1425495541.197,-1.428421
1425495541.212,0.67650986
1425495541.228,2.8009262
1425495541.244,4.7279434
1425495541.259,6.407547
1425495541.275,7.953575
1425495541.29,9.539352
1425495541.306,11.246464
1425495541.322,13.008644
1425495541.337,14.708977
1425495541.353,16.29095
1425495541.369,17.829662
1425495541.384,19.50692
1425495541.4,21.391235
1425495541.415,23.319958
1425495541.431,24.82425
1425495541.447,25.350342
1425495541.462,24.491642
1425495541.478,22.209095
1425495541.494,18.8536
1425495541.509,15.048252
1425495541.525,11.407303
1425495541.54,8.358551
1425495541.556,6.037445
1425495541.572,4.322212
1425495541.587,2.9477882
1425495541.603,1.6198502
1425495541.619,0.1303978
1425495541.634,-1.5925484
1425495541.65,-3.4850197
1425495541.665,-5.3776703
1425495541.681,-7.1158905
1425495541.697,-8.572098
1425495541.712,-9.718754
1425495541.728,-10.572834
1425495541.744,-11.145229
1425495541.759,-11.46143
1425495541.775,-11.529259
1425495541.79,-11.407742
1425495541.806,-11.225414
1425495541.822,-11.120159
1425495541.837,-11.170616
1425495541.853,-11.34503
1425495541.869,-11.502632
1425495541.884,-11.487854
1425495541.9,-11.201416
1425495541.915,-10.669197
1425495541.931,-10.018372
1425495541.947,-9.405392
1425495541.962,-8.93915
1425495541.978,-8.619646
1425495541.994,-8.364786
1425495542.009,-8.085796
1425495542.025,-7.711296
1425495542.04,-7.2523193
1425495542.056,-6.7709217
1425495542.072,-6.326397
1425495542.087,-5.9235992
1425495542.103,-5.468464
1425495542.119,-4.8320103
1425495542.134,-3.9049015
1425495542.15,-2.677805
1425495542.166,-1.285017
1425495542.181,0.090753555
1425495542.197,1.2912445
1425495542.212,2.3227043
1425495542.228,3.3303757
1425495542.244,4.5387115
1425495542.259,6.114767
1425495542.275,8.054131
1425495542.291,10.236708
1425495542.306,12.458059
1425495542.322,14.569923
1425495542.337,16.46968
1425495542.353,18.060722
1425495542.369,19.15837
1425495542.384,19.503681
1425495542.4,18.800358
1425495542.416,16.927328
1425495542.431,14.025347
1425495542.447,10.5660515
1425495542.462,7.1942673
1425495542.478,4.494875
1425495542.494,2.8052082
1425495542.509,2.045166
1425495542.525,1.8194637
1425495542.541,1.599617
1425495542.556,0.9380398
1425495542.572,-0.33449364
1425495542.587,-2.13274
1425495542.603,-4.1641865
1425495542.619,-6.117756
1425495542.634,-7.7716656
1425495542.65,-9.023876
1425495542.666,-9.857248
1425495542.681,-10.262613
1425495542.697,-10.236723
1425495542.712,-9.833382
1425495542.728,-9.218557
1425495542.744,-8.656534
1425495542.759,-8.393326
1425495542.775,-8.542803
1425495542.791,-8.979633
1425495542.806,-9.4113655
1425495542.822,-9.501612
1425495542.837,-9.104042
1425495542.853,-8.266445
1425495542.869,-7.2679005
1425495542.884,-6.4148407
1425495542.9,-5.9291954
1425495542.916,-5.8150997
1425495542.931,-5.934908
1425495542.947,-6.06522
1425495542.962,-6.055088
1425495542.978,-5.8447895
1425495542.994,-5.43239
1425495543.009,-4.83724
1425495543.025,-4.0510445
1425495543.041,-3.0469208
1425495543.056,-1.8344822
1425495543.072,-0.4922886
1425495543.087,0.82189846
1425495543.103,1.9833841
1425495543.119,2.9168482
1425495543.134,3.7036886
1425495543.15,4.4891043
1425495543.166,5.451475
1425495543.181,6.675124
1425495543.197,8.154911
1425495543.212,9.809224
1425495543.228,11.543123
1425495543.244,13.313721
1425495543.259,15.054716
1425495543.275,16.635574
1425495543.291,17.82986
1425495543.306,18.348274
1425495543.322,17.967415
1425495543.337,16.658554
1425495543.353,14.627084
1425495543.369,12.252872
1425495543.384,9.985236
1425495543.4,8.12287
1425495543.416,6.788084
1425495543.431,5.840209
1425495543.447,5.0278406
1425495543.462,4.0949497
1425495543.478,2.8970861
1425495543.494,1.4198256
1425495543.509,-0.23164463
1425495543.525,-1.9343576
1425495543.541,-3.569931
1425495543.556,-5.080241
1425495543.572,-6.4052606
1425495543.587,-7.5026627
1425495543.603,-8.283449
1425495543.619,-8.666487
1425495543.634,-8.6016445
1425495543.65,-8.168063
1425495543.666,-7.554893
1425495543.681,-7.0522723
1425495543.697,-6.8845754
1425495543.712,-7.139137
1425495543.728,-7.6960554
1425495543.744,-8.260587
1425495543.759,-8.508118
1425495543.775,-8.206366
1425495543.791,-7.3613906
1425495543.806,-6.1928415
1425495543.822,-5.048089
1425495543.837,-4.2349567
1425495543.853,-3.8587425
1425495543.869,-3.7962286
1425495543.884,-3.7699847
1425495543.9,-3.50861
1425495543.916,-2.8784974
1425495543.931,-1.9458895
1425495543.947,-0.87207794
1425495543.962,0.19387007
1425495543.978,1.2187283
1425495543.994,2.2823584
1425495544.009,3.4778543
1425495544.025,4.813875
1425495544.041,6.1978445
1425495544.056,7.459559
1425495544.072,8.510024
1425495544.087,9.399981
1425495544.103,10.315922
1425495544.119,11.431562
1425495544.134,12.795945
1425495544.15,14.257593
1425495544.166,15.535524
1425495544.181,16.323769
1425495544.197,16.3977
1425495544.212,15.687676
1425495544.228,14.265444
1425495544.244,12.294897
1425495544.259,10.020505
1425495544.275,7.6782265
1425495544.291,5.4672356
1425495544.306,3.458088
1425495544.322,1.6200094
1425495544.337,-0.17023563
1425495544.353,-2.0511894
1425495544.369,-4.074152
1425495544.384,-6.199875
1425495544.4,-8.298849
1425495544.416,-10.212244
1425495544.431,-11.843885
1425495544.447,-13.144194
1425495544.462,-14.134542
1425495544.478,-14.832762
1425495544.494,-15.308052
1425495544.509,-15.619116
1425495544.525,-15.817879
1425495544.541,-15.926264
1425495544.556,-15.902718
1425495544.572,-15.6728115
1425495544.587,-15.15753
1425495544.603,-14.370914
1425495544.619,-13.420189
1425495544.634,-12.47064
1425495544.65,-11.661907
1425495544.666,-11.021315
1425495544.681,-10.425514
1425495544.697,-9.703531
1425495544.712,-8.705629
1425495544.728,-7.3991394
1425495544.744,-5.8834076
1425495544.759,-4.3265076
1425495544.775,-2.9167595
1425495544.791,-1.750021
1425495544.806,-0.8450489
1425495544.822,-0.098630905
1425495544.838,0.6292
1425495544.853,1.5063438
1425495544.869,2.6051102
1425495544.884,3.9035797
1425495544.9,5.2726192
1425495544.916,6.5617466
1425495544.931,7.6873646
1425495544.947,8.721436
1425495544.963,9.854805
1425495544.978,11.309715
1425495544.994,13.22835
1425495545.009,15.585712
1425495545.025,18.15515
1425495545.041,20.593246
1425495545.056,22.504457
1425495545.072,23.55865
1425495545.088,23.56605
1425495545.103,22.487429
1425495545.119,20.42247
1425495545.134,17.595104
1425495545.15,14.347145
1425495545.166,11.019619
1425495545.181,7.9306107
1425495545.197,5.3074417
1425495545.213,3.2547188
1425495545.228,1.7346725
1425495545.244,0.5898056
1425495545.259,-0.39466858
1425495545.275,-1.4693565
1425495545.291,-2.8379173
1425495545.306,-4.6363792
1425495545.322,-6.8421593
1425495545.338,-9.312405
1425495545.353,-11.784809
1425495545.369,-13.975521
1425495545.384,-15.586464
1425495545.4,-16.464874
1425495545.416,-16.647362
1425495545.431,-16.38916
1425495545.447,-16.074287
1425495545.463,-16.038925
1425495545.478,-16.380424
1425495545.494,-16.934322
1425495545.509,-17.323486
1425495545.525,-17.201897
1425495545.541,-16.390163
1425495545.556,-14.996677
1425495545.572,-13.302929
1425495545.588,-11.580372
1425495545.603,-9.972786
1425495545.619,-8.474052
1425495545.634,-7.009548
1425495545.65,-5.5647316
1425495545.666,-4.234337
1425495545.681,-3.1423569
1425495545.697,-2.3609352
1425495545.713,-1.7681999
1425495545.728,-1.1410599
1425495545.744,-0.26874924
1425495545.759,0.95246506
1425495545.775,2.4546852
1425495545.791,4.053562
1425495545.806,5.533924
1425495545.822,6.788082
1425495545.838,7.826023
1425495545.853,8.79076
1425495545.869,9.883228
1425495545.884,11.316082
1425495545.9,13.225166
1425495545.916,15.615219
1425495545.931,18.28505
1425495545.947,20.862152
1425495545.963,22.847622
1425495545.978,23.77959
1425495545.994,23.357685
1425495546.009,21.586227
1425495546.025,18.742588
1425495546.041,15.303944
1425495546.056,11.807724
1425495546.072,8.692654
1425495546.088,6.204708
1425495546.103,4.3615913
1425495546.119,2.9583359
1425495546.134,1.7272072
1425495546.15,0.3928032
1425495546.166,-1.1863556
1425495546.181,-2.9672813
1425495546.197,-4.8137016
1425495546.213,-6.5619125
1425495546.228,-8.099407
1425495546.244,-9.429321
1425495546.259,-10.594917
1425495546.275,-11.622093
1425495546.291,-12.49147
1425495546.306,-13.185341
1425495546.322,-13.700008
1425495546.338,-14.106396
1425495546.353,-14.524635
1425495546.369,-15.057751
1425495546.384,-15.708576
1425495546.4,-16.376743
1425495546.416,-16.89225
1425495546.431,-17.094467
1425495546.447,-16.856258
1425495546.463,-16.106579
1425495546.478,-14.865292
1425495546.494,-13.21368
1425495546.509,-11.308395
1425495546.525,-9.352753
1425495546.541,-7.5912323
1425495546.556,-6.2218704
1425495546.572,-5.323864
1425495546.588,-4.8331375
1425495546.603,-4.546322
1425495546.619,-4.2100487
1425495546.634,-3.6065674
1425495546.65,-2.6370544
1425495546.666,-1.3273087
1425495546.681,0.17324829
1425495546.697,1.7280159
1425495546.713,3.195221
1425495546.728,4.5657806
1425495546.744,5.9071045
1425495546.759,7.317734
1425495546.775,8.892551
1425495546.791,10.668526
1425495546.806,12.6345825
1425495546.822,14.720982
1425495546.838,16.869675
1425495546.853,18.995098
1425495546.869,20.940636
1425495546.884,22.499954
1425495546.9,23.397633
1425495546.916,23.3862
1425495546.931,22.35432
1425495546.947,20.374607
1425495546.963,17.709232
1425495546.978,14.753899
1425495546.994,11.871151
1425495547.009,9.318195
1425495547.025,7.177532
1425495547.041,5.3605385
1425495547.056,3.6902657
1425495547.072,1.991993
1425495547.088,0.1379013
1425495547.103,-1.8800507
1425495547.119,-3.9411354
1425495547.134,-5.841751
1425495547.15,-7.370796
1425495547.166,-8.407028
1425495547.181,-8.979141
1425495547.197,-9.248398
1425495547.213,-9.431976
1425495547.228,-9.673248
1425495547.244,-10.007645
1425495547.259,-10.370331
1425495547.275,-10.7241745
1425495547.291,-11.096626
1425495547.306,-11.592567
1425495547.322,-12.293022
1425495547.338,-13.1521225
1425495547.353,-13.966583
1425495547.369,-14.43438
1425495547.384,-14.341698
1425495547.4,-13.6622925
1425495547.416,-12.5373
1425495547.431,-11.209816
1425495547.447,-9.865936
1425495547.463,-8.555252
1425495547.478,-7.209648
1425495547.494,-5.78051
1425495547.51,-4.2430115
1425495547.525,-2.6513824
1425495547.541,-1.0453491
1425495547.556,0.5546799
1425495547.572,2.204628
1425495547.588,3.9346771
1425495547.603,5.7448273
1425495547.619,7.5628204
1425495547.635,9.302444
1425495547.65,10.887085
1425495547.666,12.292564
1425495547.681,13.594566
1425495547.697,14.891129
1425495547.713,16.284355
1425495547.728,17.77607
1425495547.744,19.244667
1425495547.76,20.442375
1425495547.775,20.978111
1425495547.791,20.496727
1425495547.806,18.800804
1425495547.822,15.98954
1425495547.838,12.498871
1425495547.853,8.960876
1425495547.869,5.9806595
1425495547.885,3.8925705
1425495547.9,2.6309662
1425495547.916,1.8690109
1425495547.931,1.2008591
1425495547.947,0.36281586
1425495547.963,-0.68427277
1425495547.978,-1.8474579
1425495547.994,-3.0341873
1425495548.01,-4.2362137
1425495548.025,-5.5111465
1425495548.041,-6.8526764
1425495548.056,-8.1510315
1425495548.072,-9.20826
1425495548.088,-9.877441
1425495548.103,-10.228355
1425495548.119,-10.551567
1425495548.135,-11.151169
1425495548.15,-12.116043
1425495548.166,-13.220139
1425495548.181,-13.988739
1425495548.197,-14.008972
1425495548.213,-13.175293
1425495548.228,-11.781082
1425495548.244,-10.364815
1425495548.26,-9.347244
1425495548.275,-8.845856
1425495548.291,-8.631111
1425495548.306,-8.331703
1425495548.322,-7.691162
1425495548.338,-6.712265
1425495548.353,-5.580284
1425495548.369,-4.515877
1425495548.385,-3.5473938
1425495548.4,-2.5478592
1425495548.416,-1.3492355
1425495548.431,0.103500366
1425495548.447,1.7108383
1425495548.463,3.2698364
1425495548.478,4.6839294
1425495548.494,6.081154
1425495548.51,7.7531357
1425495548.525,9.966728
1425495548.541,12.775734
1425495548.556,15.846138
1425495548.572,18.598228
1425495548.588,20.413406
1425495548.603,20.903435
1425495548.619,20.01059
1425495548.635,18.01204
1425495548.65,15.360115
1425495548.666,12.500404
1425495548.681,9.800613
1425495548.697,7.483818
1425495548.713,5.623581
1425495548.728,4.1945267
1425495548.744,3.0581436
1425495548.76,2.027542
1425495548.775,0.89380646
1425495548.791,-0.5039902
1425495548.806,-2.2264862
1425495548.822,-4.225853
1425495548.838,-6.3311996
1425495548.853,-8.320061
1425495548.869,-9.931572
1425495548.885,-10.961494
1425495548.9,-11.31974
1425495548.916,-11.099457
1425495548.931,-10.57412
1425495548.947,-10.081726
1425495548.963,-9.909622
1425495548.978,-10.171768
1425495548.994,-10.76078
1425495549.01,-11.415504
1425495549.025,-11.870361
1425495549.041,-11.984589
1425495549.056,-11.78611
1425495549.072,-11.399757
1425495549.088,-10.958542
1425495549.103,-10.522751
1425495549.119,-10.052628
1425495549.135,-9.453506
1425495549.15,-8.634003
1425495549.166,-7.5659637
1425495549.181,-6.26149
1425495549.197,-4.750763
1425495549.213,-3.0820923
1425495549.228,-1.31987
1425495549.244,0.4342804
1425495549.26,2.0925064
1425495549.275,3.6008759
1425495549.291,5.0141525
1425495549.306,6.484833
1425495549.322,8.181061
1425495549.338,10.234024
1425495549.353,12.637711
1425495549.369,15.231621
1425495549.385,17.799515
1425495549.4,20.110245
1425495549.416,21.963104
1425495549.431,23.146828
1425495549.447,23.4525
1425495549.463,22.680847
1425495549.478,20.76397
1425495549.494,17.911598
1425495549.51,14.61013
1425495549.525,11.465881
1425495549.541,8.987236
1425495549.556,7.298645
1425495549.572,6.1023483
1425495549.588,4.8564377
1425495549.603,3.0688171
1425495549.619,0.5283966
1425495549.635,-2.6128387
1425495549.65,-6.0204544
1425495549.666,-9.350044
1425495549.681,-12.42141
1425495549.697,-15.173561
1425495549.713,-17.581757
1425495549.728,-19.495445
1425495549.744,-20.72174
1425495549.76,-21.079979
1425495549.775,-20.609657
1425495549.791,-19.575836
1425495549.806,-18.40068
1425495549.822,-17.48819
1425495549.838,-17.058182
1425495549.853,-17.112885
1425495549.869,-17.435577
1425495549.885,-17.694351
1425495549.9,-17.591003
1425495549.916,-16.912933
1425495549.931,-15.625336
1425495549.947,-13.811432
1425495549.963,-11.707077
1425495549.978,-9.567017
1425495549.994,-7.6262207
1425495550.01,-6.0427246
1425495550.025,-4.8321075
1425495550.041,-3.8936462
1425495550.056,-3.0202332
1425495550.072,-1.953949
1425495550.088,-0.5123749
1425495550.103,1.3856354
1425495550.119,3.6078339
1425495550.135,5.903961
1425495550.15,7.9655
1425495550.166,9.5668335
1425495550.182,10.642075
1425495550.197,11.2872925
1425495550.213,11.693939
1425495550.228,12.102539
1425495550.244,12.718536
1425495550.26,13.709091
1425495550.275,15.13736
1425495550.291,16.895111
1425495550.306,18.626984
1425495550.322,19.816498
1425495550.338,19.902267
1425495550.353,18.53276
1425495550.369,15.708405
1425495550.385,11.860519
1425495550.4,7.677124
1425495550.416,3.902649
1425495550.432,1.0406342
1425495550.447,-0.71698
1425495550.463,-1.5534363
1425495550.478,-1.8777466
1425495550.494,-2.207611
1425495550.51,-2.9463196
1425495550.525,-4.328705
1425495550.541,-6.3279266
1425495550.557,-8.719116
1425495550.572,-11.167999
1425495550.588,-13.364304
1425495550.603,-15.08847
1425495550.619,-16.26323
1425495550.635,-16.857895
1425495550.65,-16.930634
1425495550.666,-16.551888
1425495550.682,-15.84259
1425495550.697,-15.0078125
1425495550.713,-14.282166
1425495550.728,-13.88385
1425495550.744,-13.903992
1425495550.76,-14.24884
1425495550.775,-14.71714
1425495550.791,-15.028656
1425495550.807,-14.93573
1425495550.822,-14.292915
1425495550.838,-13.1035385
1425495550.853,-11.505951
1425495550.869,-9.76886
1425495550.885,-8.187233
1425495550.9,-7.017479
1425495550.916,-6.2900314
1425495550.932,-5.824753
1425495550.947,-5.279724
1425495550.963,-4.307678
1425495550.978,-2.740799
1425495550.994,-0.69104004
1425495551.01,1.5329514
1425495551.025,3.5564957
1425495551.041,5.121483
1425495551.057,6.229828
1425495551.072,7.1069336
1425495551.088,8.054337
1425495551.103,9.330139
1425495551.119,11.036919
1425495551.135,13.158974
1425495551.15,15.527374
1425495551.166,17.911087
1425495551.182,19.971817
1425495551.197,21.288467
1425495551.213,21.435226
1425495551.228,20.115265
1425495551.244,17.318901
1425495551.26,13.396828
1425495551.275,9.012596
1425495551.291,4.93956
1425495551.307,1.7816925
1425495551.322,-0.19921875
1425495551.338,-1.2039413
1425495551.353,-1.7082291
1425495551.369,-2.2903214
1425495551.385,-3.349594
1425495551.4,-5.0350723
1425495551.416,-7.216667
1425495551.432,-9.589699
1425495551.447,-11.771294
1425495551.463,-13.430862
1425495551.478,-14.324928
1425495551.494,-14.385712
1425495551.51,-13.724991
1425495551.525,-12.623344
1425495551.541,-11.431778
1425495551.557,-10.478615
1425495551.572,-9.91761
1425495551.588,-9.749191
1425495551.603,-9.833801
1425495551.619,-9.984497
1425495551.635,-10.042763
1425495551.65,-9.95652
1425495551.666,-9.70475
1425495551.682,-9.319588
1425495551.697,-8.838692
1425495551.713,-8.266083
1425495551.728,-7.6574707
1425495551.744,-7.0856247
1425495551.76,-6.5980606
1425495551.775,-6.2357025
1425495551.791,-5.923172
1425495551.807,-5.5140305
1425495551.822,-4.8264236
1425495551.838,-3.7162323
1425495551.853,-2.1580124
1425495551.869,-0.30645752
1425495551.885,1.5335236
1425495551.9,3.0287552
1425495551.916,3.9566803
1425495551.932,4.321533
1425495551.947,4.4152985
1425495551.963,4.701889
1425495551.978,5.539871
1425495551.994,7.0090714
1425495552.01,8.818993
1425495552.025,10.431389
1425495552.041,11.36721
1425495552.057,11.4432335
1425495552.072,10.870914
1425495552.088,10.139759
1425495552.103,9.719875
1425495552.119,9.848953
1425495552.135,10.475609
1425495552.15,11.323971
1425495552.166,12.108925
1425495552.182,12.631363
1425495552.197,12.790123
1425495552.213,12.526199
1425495552.228,11.767815
1425495552.244,10.456341
1425495552.26,8.679005
1425495552.275,6.704193
1425495552.291,4.9464264
1425495552.307,3.824009
1425495552.322,3.580494
1425495552.338,4.1810646
1425495552.353,5.315151
1425495552.369,6.630398
1425495552.385,7.8866997
1425495552.4,9.06628
1425495552.416,10.414211
1425495552.432,12.214012
1425495552.447,14.632538
1425495552.463,17.57214
1425495552.478,20.706036
1425495552.494,23.638683
1425495552.51,26.16837
1425495552.525,28.375378
1425495552.541,30.580845
1425495552.557,33.14758
1425495552.572,36.243
1425495552.588,39.728626
1425495552.603,43.239983
1425495552.619,46.41284
1425495552.635,49.0987
1425495552.65,51.432312
1425495552.666,53.730553
1425495552.682,56.20877
1425495552.697,58.813255
1425495552.713,61.158302
1425495552.728,62.565163
1425495552.744,62.227577
1425495552.76,59.436455
1425495552.775,53.70366
1425495552.791,44.976692
1425495552.807,33.70627
1425495552.822,20.826805
1425495552.838,7.5959015
1425495552.853,-4.734291
1425495552.869,-15.199234
1425495552.885,-23.359734
1425495552.9,-29.441025
1425495552.916,-34.156242
1425495552.932,-38.492157
1425495552.947,-43.297523
1425495552.963,-49.05552
1425495552.978,-55.70582
1425495552.994,-62.72516
1425495553.01,-69.28995
1425495553.025,-74.579414
1425495553.041,-77.98116
1425495553.057,-79.272064
1425495553.072,-78.58769
1425495553.088,-76.37142
1425495553.104,-73.15842
1425495553.119,-69.4517
1425495553.135,-65.64689
1425495553.15,-62.040466
1425495553.166,-58.80504
1425495553.182,-56.028763
1425495553.197,-53.682938
1425495553.213,-51.580276
1425495553.229,-49.436172
1425495553.244,-46.940613
1425495553.26,-43.82254
1425495553.275,-40.047867
1425495553.291,-35.775436
1425495553.307,-31.368256
1425495553.322,-27.236496
1425495553.338,-23.685806
1425495553.354,-20.837791
1425495553.369,-18.601952
1425495553.385,-16.7304
1425495553.4,-14.962784
1425495553.416,-13.051094
1425495553.432,-10.857971
1425495553.447,-8.304062
1425495553.463,-5.392891
1425495553.479,-2.2003174
1425495553.494,1.0792618
1425495553.51,4.228737
1425495553.525,6.9800797
1425495553.541,9.17028
1425495553.557,10.781601
1425495553.572,12.0132675
1425495553.588,13.217773
1425495553.604,14.816101
1425495553.619,17.113922
1425495553.635,20.19677
1425495553.65,23.842255
1425495553.666,27.611847
1425495553.682,30.930504
1425495553.697,33.311203
1425495553.713,34.408287
1425495553.729,34.118706
1425495553.744,32.5282
1425495553.76,29.895538
1425495553.775,26.599663
1425495553.791,23.099396
1425495553.807,19.847015
1425495553.822,17.200829
1425495553.838,15.307938
1425495553.854,14.081482
1425495553.869,13.179081
1425495553.885,12.203819
1425495553.9,10.791618
1425495553.916,8.803955
1425495553.932,6.3430977
1425495553.947,3.6804695
1425495553.963,1.1584778
1425495553.979,-0.9348793
1425495553.994,-2.4435349
1425495554.01,-3.2844162
1425495554.025,-3.4826813
1425495554.041,-3.130165
1425495554.057,-2.4198837
1425495554.072,-1.6258698
1425495554.088,-1.1056404
1425495554.104,-1.1343689
1425495554.119,-1.8227615
1425495554.135,-3.0650902
1425495554.15,-4.5724907
1425495554.166,-5.9869156
1425495554.182,-7.0313187
1425495554.197,-7.555414
1425495554.213,-7.542757
1425495554.229,-7.074503
1425495554.244,-6.255352
1425495554.26,-5.207182
1425495554.275,-4.0726585
1425495554.291,-3.0066376
1425495554.307,-2.1349354
1425495554.322,-1.4938202
1425495554.338,-1.0285034
1425495554.354,-0.59015274
1425495554.369,-0.038614273
1425495554.385,0.72771645
1425495554.4,1.7249489
1425495554.416,2.8789902
1425495554.432,4.1050997
1425495554.447,5.3283606
1425495554.463,6.5405245
1425495554.479,7.8393793
1425495554.494,9.341327
1425495554.51,11.206219
1425495554.525,13.49427
1425495554.541,16.096272
1425495554.557,18.693817
1425495554.572,20.85862
1425495554.588,22.119408
1425495554.604,22.19102
1425495554.619,21.041256
1425495554.635,18.895771
1425495554.65,16.077238
1425495554.666,12.9489355
1425495554.682,9.796389
1425495554.697,6.838751
1425495554.713,4.2548447
1425495554.729,2.1501606
1425495554.744,0.52886295
1425495554.76,-0.7402222
1425495554.775,-1.8770525
1425495554.791,-3.114794
1425495554.807,-4.569456
1425495554.822,-6.1756597
1425495554.838,-7.7496414
1425495554.854,-9.053717
1425495554.869,-9.979885
1425495554.885,-10.546488
1425495554.9,-10.84452
1425495554.916,-10.95402
1425495554.932,-10.865942
1425495554.947,-10.488257
1425495554.963,-9.775814
1425495554.979,-8.790118
1425495554.994,-7.7399406
1425495555.01,-6.901577
1425495555.025,-6.4787703
1425495555.041,-6.503789
1425495555.057,-6.849126
1425495555.072,-7.2950525
1425495555.088,-7.6090813
1425495555.104,-7.6403894
1425495555.119,-7.3592415
1425495555.135,-6.7745647
1425495555.15,-5.9519653
1425495555.166,-4.9830036
1425495555.182,-3.9712715
1425495555.197,-2.9990063
1425495555.213,-2.1339722
1425495555.229,-1.3473778
1425495555.244,-0.58792686
1425495555.26,0.21419334
1425495555.275,1.0981693
1425495555.291,2.052847
1425495555.307,3.053419
1425495555.322,4.124407
1425495555.338,5.308338
1425495555.354,6.630865
1425495555.369,8.019386
1425495555.385,9.333691
1425495555.4,10.388857
1425495555.416,11.129873
1425495555.432,11.612015
1425495555.447,12.048702
1425495555.463,12.5913925
1425495555.479,13.254009
1425495555.494,13.844139
1425495555.51,14.063152
1425495555.525,13.626461
1425495555.541,12.465748
1425495555.557,10.724445
1425495555.572,8.694954
1425495555.588,6.7062683
1425495555.604,5.006916
1425495555.619,3.7264214
1425495555.635,2.8800812
1425495555.65,2.3869057
1425495555.666,2.0963402
1425495555.682,1.8284454
1425495555.697,1.4355278
1425495555.713,0.8379059
1425495555.729,0.05606842
1425495555.744,-0.84711456
1425495555.76,-1.7899361
1425495555.776,-2.7572174
1425495555.791,-3.7446098
1425495555.807,-4.7443924
1425495555.822,-5.714798
1425495555.838,-6.5803757
1425495555.854,-7.2502213
1425495555.869,-7.744446
1425495555.885,-8.09116
1425495555.901,-8.401707
1425495555.916,-8.739193
1425495555.932,-9.13887
1425495555.947,-9.537846
1425495555.963,-9.877079
1425495555.979,-10.047886
1425495555.994,-9.979378
1425495556.01,-9.617088
1425495556.026,-8.977325
1425495556.041,-8.124668
1425495556.057,-7.2302017
1425495556.072,-6.4668503
1425495556.088,-5.95533
1425495556.104,-5.6992073
1425495556.119,-5.56345
1425495556.135,-5.3035736
1425495556.151,-4.706005
1425495556.166,-3.6353455
1425495556.182,-2.1375313
1425495556.197,-0.43967438
1425495556.213,1.192009
1425495556.229,2.5391006
1425495556.244,3.5364532
1425495556.26,4.326889
1425495556.276,5.124092
1425495556.291,6.088356
1425495556.307,7.233017
1425495556.322,8.378166
1425495556.338,9.267151
1425495556.354,9.740372
1425495556.369,9.810028
1425495556.385,9.700066
1425495556.401,9.731606
1425495556.416,10.196091
1425495556.432,11.19812
1425495556.447,12.615181
1425495556.463,14.127495
1425495556.479,15.290192
1425495556.494,15.666237
1425495556.51,15.071259
1425495556.526,13.549156
1425495556.541,11.400734
1425495556.557,9.019577
1425495556.572,6.667824
1425495556.588,4.3895416
1425495556.604,2.084053
1425495556.619,-0.35203552
1425495556.635,-2.792221
1425495556.651,-4.9498215
1425495556.666,-6.511841
1425495556.682,-7.386673
1425495556.697,-7.800926
1425495556.713,-8.14344
1425495556.729,-8.710312
1425495556.744,-9.524094
1425495556.76,-10.29261
1425495556.776,-10.609993
1425495556.791,-10.262032
1425495556.807,-9.373604
1425495556.822,-8.324142
1425495556.838,-7.5676575
1425495556.854,-7.3740005
1425495556.869,-7.7244186
1425495556.885,-8.358551
1425495556.901,-8.951691
1425495556.916,-9.241325
1425495556.932,-9.114403
1425495556.947,-8.574722
1425495556.963,-7.708641
1425495556.979,-6.6161118
1425495556.994,-5.4947968
1425495557.01,-4.509636
1425495557.026,-3.8140945
1425495557.041,-3.4747696
1425495557.057,-3.4007874
1425495557.072,-3.3671417
1425495557.088,-3.0998917
1425495557.104,-2.4076538
1425495557.119,-1.2309265
1425495557.135,0.31552124
1425495557.151,2.0116653
1425495557.166,3.6880493
1425495557.182,5.238983
1425495557.197,6.6432495
1425495557.213,7.8764954
1425495557.229,8.909958
1425495557.244,9.657692
1425495557.26,10.055664
1425495557.276,10.147476
1425495557.291,10.119293
1425495557.307,10.225372
1425495557.322,10.715591
1425495557.338,11.6779785
1425495557.354,12.96711
1425495557.369,14.189842
1425495557.385,14.857803
1425495557.401,14.585449
1425495557.416,13.270615
1425495557.432,11.148476
1425495557.447,8.709824
1425495557.463,6.457466
1425495557.479,4.72493
1425495557.494,3.5266418
1425495557.51,2.667366
1425495557.526,1.8859482
1425495557.541,1.0314331
1425495557.557,0.098335266
1425495557.572,-0.8562317
1425495557.588,-1.8162308
1425495557.604,-2.867096
1425495557.619,-4.1352386
1425495557.635,-5.60791
1425495557.651,-7.1225967
1425495557.666,-8.303711
1425495557.682,-8.792442
1425495557.697,-8.402489
1425495557.713,-7.2565002
1425495557.729,-5.7638855
1425495557.744,-4.4507294
1425495557.76,-3.7134247
1425495557.776,-3.6876526
1425495557.791,-4.1723404
1425495557.807,-4.8042984
1425495557.822,-5.211563
1425495557.838,-5.18351
1425495557.854,-4.7187195
1425495557.869,-3.990387
1425495557.885,-3.2282028
1425495557.901,-2.6073914
1425495557.916,-2.199295
1425495557.932,-1.9534607
1425495557.947,-1.7413483
1425495557.963,-1.400589
1425495557.979,-0.79042053
1425495557.994,0.14587402
1425495558.01,1.4174194
1425495558.026,2.9070282
1425495558.041,4.4969482
1425495558.057,6.07489
1425495558.072,7.568985
1425495558.088,8.948257
1425495558.104,10.216339
1425495558.119,11.389786
1425495558.135,12.538025
1425495558.151,13.726425
1425495558.166,15.006577
1425495558.182,16.311035
1425495558.197,17.37645
1425495558.213,17.838242
1425495558.229,17.36847
1425495558.244,15.84137
1425495558.26,13.441071
1425495558.276,10.591568
1425495558.291,7.8178864
1425495558.307,5.5157166
1425495558.322,3.8812866
1425495558.338,2.8879547
1425495558.354,2.3768616
1425495558.369,2.100525
1425495558.385,1.8317261
1425495558.401,1.3116608
1425495558.416,0.36553955
1425495558.432,-1.0714417
1425495558.448,-2.9300995
1425495558.463,-4.9786224
1425495558.479,-6.9206696
1425495558.494,-8.443192
1425495558.51,-9.281052
1425495558.526,-9.300156
1425495558.541,-8.5204315
1425495558.557,-7.187256
1425495558.573,-5.6984863
1425495558.588,-4.54541
1425495558.604,-4.101425
1425495558.619,-4.4994354
1425495558.635,-5.570877
1425495558.651,-6.910324
1425495558.666,-8.057846
1425495558.682,-8.679047
1425495558.698,-8.6262665
1425495558.713,-7.97081
1425495558.729,-6.8987274
1425495558.744,-5.6603546
1425495558.76,-4.485489
1425495558.776,-3.5599365
1425495558.791,-2.9349213
1425495558.807,-2.5385437
1425495558.823,-2.1730804
1425495558.838,-1.6280212
1425495558.854,-0.73672485
1425495558.869,0.45204163
1425495558.885,1.8081055
1425495558.901,3.117035
1425495558.916,4.226486
1425495558.932,5.0911255
1425495558.948,5.811508
1425495558.963,6.5491943
1425495558.979,7.493576
1425495558.994,8.783737
1425495559.01,10.443634
1425495559.026,12.350342
1425495559.041,14.280365
1425495559.057,15.9084015
1425495559.073,16.93341
1425495559.088,17.092361
1425495559.104,16.251648
1425495559.119,14.425995
1425495559.135,11.801926
1425495559.151,8.699829
1425495559.166,5.537857
1425495559.182,2.7138977
1425495559.198,0.495636
1425495559.213,-1.0412445
1425495559.229,-2.0545197
1425495559.244,-2.8782349
1425495559.26,-3.8416443
1425495559.276,-5.1529083
1425495559.291,-6.7845917
1425495559.307,-8.513565
1425495559.323,-9.991837
1425495559.338,-10.943054
1425495559.354,-11.242798
1425495559.369,-10.969955
1425495559.385,-10.328796
1425495559.401,-9.563568
1425495559.416,-8.862442
1425495559.432,-8.312439
1425495559.448,-7.932022
1425495559.463,-7.7223053
1425495559.479,-7.6649933
1425495559.494,-7.717621
1425495559.51,-7.767853
1425495559.526,-7.6508636
1425495559.541,-7.1902466
1425495559.557,-6.2983093
1425495559.573,-5.0081787
1425495559.588,-3.4890442
1425495559.604,-1.9050751
1425495559.619,-0.3808365
1425495559.635,1.0466461
1425495559.651,2.367714
1425495559.666,3.587181
1425495559.682,4.6623
1425495559.698,5.548485
1425495559.713,6.1688156
1425495559.729,6.5162125
1425495559.744,6.610916
1425495559.76,6.506897
1425495559.776,6.2648087
1425495559.791,6.001877
1425495559.807,5.854805
1425495559.823,6.031967
1425495559.838,6.700142
1425495559.854,7.963661
1425495559.869,9.761391
1425495559.885,11.918793
1425495559.901,14.196175
1425495559.916,16.362236
1425495559.932,18.211075
1425495559.948,19.53022
1425495559.963,20.054695
1425495559.979,19.557938
1425495559.994,17.909729
1425495560.01,15.239922
1425495560.026,11.963791
1425495560.041,8.676048
1425495560.057,5.9036407
1425495560.073,3.935791
1425495560.088,2.6796494
1425495560.104,1.8253632
1425495560.119,0.99627686
1425495560.135,-0.02420044
1425495560.151,-1.2215652
1425495560.166,-2.423874
1425495560.182,-3.452118
1425495560.198,-4.2304916
1425495560.213,-4.816971
1425495560.229,-5.3740387
1425495560.244,-6.078972
1425495560.26,-7.0323944
1425495560.276,-8.247063
1425495560.291,-9.623177
1425495560.307,-11.003807
1425495560.323,-12.227089
1425495560.338,-13.211533
1425495560.354,-13.904152
1425495560.369,-14.32428
1425495560.385,-14.479973
1425495560.401,-14.385284
1425495560.416,-14.035126
1425495560.432,-13.447075
1425495560.448,-12.635628
1425495560.463,-11.648918
1425495560.479,-10.486412
1425495560.494,-9.181778
1425495560.51,-7.8097687
1425495560.526,-6.4872513
1425495560.541,-5.378662
1425495560.557,-4.6456146
1425495560.573,-4.3335953
1425495560.588,-4.366127
1425495560.604,-4.5525208
1425495560.619,-4.695465
1425495560.635,-4.6610336
1425495560.651,-4.3923874
1425495560.666,-3.8522034
1425495560.682,-2.9883957
1425495560.698,-1.6890717
1425495560.713,0.13330078
1425495560.729,2.4840012
1425495560.744,5.213516
1425495560.76,8.067474
1425495560.776,10.783646
1425495560.791,13.198479
1425495560.807,15.264206
1425495560.823,17.05751
1425495560.838,18.660446
1425495560.854,20.107384
1425495560.869,21.367813
1425495560.885,22.308983
1425495560.901,22.747978
1425495560.916,22.482544
1425495560.932,21.349487
1425495560.948,19.314003
1425495560.963,16.506332
1425495560.979,13.255371
1425495560.994,9.993393
1425495561.01,7.181999
1425495561.026,5.117569
1425495561.041,3.839798
1425495561.057,3.1547012
1425495561.073,2.7147903
1425495561.088,2.1442719
1425495561.104,1.1996078
1425495561.12,-0.16201782
1425495561.135,-1.8013229
1425495561.151,-3.492073
1425495561.166,-5.007492
1425495561.182,-6.2470703
1425495561.198,-7.200638
1425495561.213,-7.945465
1425495561.229,-8.520531
1425495561.244,-8.887314
1425495561.26,-8.991646
1425495561.276,-8.812584
1425495561.291,-8.430298
1425495561.307,-8.060852
1425495561.323,-7.9196243
1425495561.338,-8.153709
1425495561.354,-8.77285
1425495561.37,-9.606483
1425495561.385,-10.401901
1425495561.401,-10.901588
1425495561.416,-10.9370575
1425495561.432,-10.498955
1425495561.448,-9.68531
1425495561.463,-8.646645
1425495561.479,-7.52116
1425495561.495,-6.3878517
1425495561.51,-5.226879
1425495561.526,-4.000622
1425495561.541,-2.6856804
1425495561.557,-1.3132019
1425495561.573,0.025642395
1425495561.588,1.2244301
1425495561.604,2.235592
1425495561.62,3.108612
1425495561.635,3.9565392
1425495561.651,4.8991623
1425495561.666,5.9441185
1425495561.682,6.978153
1425495561.698,7.829464
1425495561.713,8.362892
1425495561.729,8.602264
1425495561.745,8.774429
1425495561.76,9.226738
1425495561.776,10.307003
1425495561.791,12.164646
1425495561.807,14.6395
1425495561.823,17.270855
1425495561.838,19.450863
1425495561.854,20.650146
1425495561.87,20.561577
