1427150031.854,0.0
1427150031.869,0.0
1427150031.885,0.0
1427150031.901,0.0
1427150031.916,0.0
1427150031.932,0.0
1427150031.947,0.0
1427150031.963,0.0
1427150031.979,0.0
1427150031.994,0.0022315353
1427150032.01,-0.0045169927
1427150032.026,-0.011265522
1427150032.041,-0.011383951
1427150032.057,0.0011864507
1427150032.072,0.025910312
1427150032.088,0.050634187
1427150032.104,0.051362894
1427150032.119,-0.0014929791
1427150032.135,-0.1302426
1427150032.151,-0.35562757
1427150032.166,-0.6591247
1427150032.182,-1.0095103
1427150032.197,-1.3709826
1427150032.213,-1.7197359
1427150032.229,-2.0551105
1427150032.244,-2.39945
1427150032.26,-2.7866635
1427150032.276,-3.2399073
1427150032.291,-3.796012
1427150032.307,-4.418684
1427150032.322,-5.0592937
1427150032.338,-5.6644096
1427150032.354,-6.2021537
1427150032.369,-6.6808796
1427150032.385,-7.149598
1427150032.401,-7.6782336
1427150032.416,-8.310739
1427150032.432,-9.143657
1427150032.447,-10.089731
1427150032.463,-11.041313
1427150032.479,-11.8842125
1427150032.494,-12.564316
1427150032.51,-13.13563
1427150032.526,-13.760044
1427150032.541,-14.65232
1427150032.557,-15.962056
1427150032.572,-17.914442
1427150032.588,-20.317299
1427150032.604,-22.903854
1427150032.619,-25.37947
1427150032.635,-27.578028
1427150032.651,-29.57246
1427150032.666,-31.675173
1427150032.682,-34.3178
1427150032.697,-37.813618
1427150032.713,-42.541233
1427150032.729,-48.1463
1427150032.744,-54.104755
1427150032.76,-59.83309
1427150032.776,-64.972374
1427150032.791,-69.58293
1427150032.807,-74.14353
1427150032.822,-79.344986
1427150032.838,-85.70726
1427150032.854,-93.76193
1427150032.869,-102.99779
1427150032.885,-112.61757
1427150032.901,-121.73034
1427150032.916,-129.76602
1427150032.932,-136.75102
1427150032.948,-143.30344
1427150032.963,-150.74623
1427150032.979,-157.77356
1427150032.994,-166.64323
1427150033.01,-177.94798
1427150033.026,-191.79102
1427150033.041,-206.96808
1427150033.057,-220.56592
1427150033.073,-228.24643
1427150033.088,-225.36148
1427150033.104,-208.53203
1427150033.119,-176.8706
1427150033.135,-132.76314
1427150033.151,-80.05141
1427150033.166,-23.070648
1427150033.182,34.943268
1427150033.198,92.43909
1427150033.213,149.16095
1427150033.229,205.23068
1427150033.244,260.36633
1427150033.26,313.72708
1427150033.276,363.8493
1427150033.291,409.80804
1427150033.307,450.901
1427150033.323,486.53983
1427150033.338,515.8425
1427150033.354,537.40796
1427150033.369,549.4697
1427150033.385,550.25696
1427150033.401,538.679
1427150033.416,514.5111
1427150033.432,478.9681
1427150033.448,434.17752
1427150033.463,382.78265
1427150033.479,327.41513
1427150033.494,270.31296
1427150033.51,213.17203
1427150033.526,157.2333
1427150033.541,103.52289
1427150033.557,52.91571
1427150033.573,6.425659
1427150033.588,-35.035034
1427150033.604,-70.78461
1427150033.619,-100.54642
1427150033.635,-124.4996
1427150033.651,-143.20801
1427150033.666,-157.43103
1427150033.682,-167.89317
1427150033.698,-175.17891
1427150033.713,-179.60101
1427150033.729,-181.34483
1427150033.744,-180.57552
1427150033.76,-177.57562
1427150033.776,-172.78343
1427150033.791,-166.74721
1427150033.807,-160.00737
1427150033.823,-152.94888
1427150033.838,-145.73843
1427150033.854,-138.32887
1427150033.869,-130.58229
1427150033.885,-122.394875
1427150033.901,-113.83044
1427150033.916,-105.13329
1427150033.932,-96.6552
1427150033.948,-88.72065
1427150033.963,-81.47537
1427150033.979,-74.819145
1427150033.994,-68.446556
1427150034.01,-62.00132
1427150034.026,-55.2412
1427150034.041,-48.19061
1427150034.057,-41.14405
1427150034.073,-34.53051
1427150034.088,-28.737862
1427150034.104,-23.922401
1427150034.119,-19.956728
1427150034.135,-16.482384
1427150034.151,-13.077331
1427150034.166,-9.344666
1427150034.182,-5.0206156
1427150034.198,0.008569688
1427150034.213,5.5422573
1427150034.229,10.955355
1427150034.244,15.09759
1427150034.26,16.563046
1427150034.276,14.194029
1427150034.291,7.69975
1427150034.307,-1.9673548
1427150034.323,-12.799223
1427150034.338,-22.447298
1427150034.354,-29.10413
1427150034.369,-32.124863
1427150034.385,-32.07968
1427150034.401,-30.22261
1427150034.416,-27.80649
1427150034.432,-25.523226
1427150034.448,-23.478645
1427150034.463,-21.462633
1427150034.479,-19.343859
1427150034.494,-17.211155
1427150034.51,-15.3179245
1427150034.526,-13.877556
1427150034.541,-12.8825035
1427150034.557,-12.209496
1427150034.573,-11.67403
1427150034.588,-11.203243
1427150034.604,-10.81234
1427150034.619,-10.584785
1427150034.635,-10.571777
1427150034.651,-10.726177
1427150034.666,-10.918724
1427150034.682,-10.960609
1427150034.698,-10.649864
1427150034.713,-9.837475
1427150034.729,-8.471313
1427150034.744,-6.6669083
1427150034.76,-4.7100563
1427150034.776,-3.0037231
1427150034.791,-1.9252968
1427150034.807,-1.6614227
1427150034.823,-2.0759544
1427150034.838,-2.7588654
1427150034.854,-3.2076645
1427150034.869,-3.0625648
1427150034.885,-2.2747574
1427150034.901,-1.0968704
1427150034.916,0.028400421
1427150034.932,0.7535095
1427150034.948,0.9165268
1427150034.963,0.6286659
1427150034.979,0.13850784
1427150034.994,-0.25756836
1427150035.01,-0.39458847
1427150035.026,-0.25704193
1427150035.041,0.0932312
1427150035.057,0.52825546
1427150035.073,0.9492912
1427150035.088,1.2949028
1427150035.104,1.5422668
1427150035.119,1.6957893
1427150035.135,1.768364
1427150035.151,1.8133812
1427150035.166,1.8657188
1427150035.182,1.9600792
1427150035.198,2.0714836
1427150035.213,2.1387253
1427150035.229,2.086567
1427150035.244,1.8960571
1427150035.26,1.6051178
1427150035.276,1.3334255
1427150035.291,1.1893482
1427150035.307,1.2245731
1427150035.323,1.4062748
1427150035.338,1.6368637
1427150035.354,1.8106441
1427150035.369,1.8681431
1427150035.385,1.8039913
1427150035.401,1.662466
1427150035.416,1.4951458
1427150035.432,1.3744068
1427150035.448,1.3484573
1427150035.463,1.4716034
1427150035.479,1.7281246
1427150035.494,2.0622177
1427150035.51,2.3461533
1427150035.526,2.4482994
1427150035.541,2.3179302
1427150035.557,2.0437622
1427150035.573,1.7924614
1427150035.588,1.7655468
1427150035.604,2.0542622
1427150035.62,2.6030273
1427150035.635,3.2493668
1427150035.651,3.8020515
1427150035.666,4.101677
1427150035.682,4.0356236
1427150035.698,3.4679813
1427150035.713,2.3200989
1427150035.729,0.5805168
1427150035.745,-1.5384579
1427150035.76,-3.6113758
1427150035.776,-5.073023
1427150035.791,-5.4804173
1427150035.807,-4.7019577
1427150035.823,-3.023056
1427150035.838,-1.0217915
1427150035.854,0.6716442
1427150035.87,1.6699886
1427150035.885,1.8991909
1427150035.901,1.5945911
1427150035.916,1.0843563
1427150035.932,0.66802025
1427150035.948,0.48703384
1427150035.963,0.5934143
1427150035.979,0.93577576
1427150035.995,1.4596348
1427150036.01,2.088194
1427150036.026,2.734602
1427150036.041,3.2764397
1427150036.057,3.6076832
1427150036.073,3.6275368
1427150036.088,3.3188114
1427150036.104,2.766859
1427150036.12,2.1468315
1427150036.135,1.6839352
1427150036.151,1.5689945
1427150036.166,1.8389969
1427150036.182,2.38657
1427150036.198,2.9663887
1427150036.213,3.3435516
1427150036.229,3.3433037
1427150036.245,2.9526215
1427150036.26,2.263979
1427150036.276,1.4450912
1427150036.291,0.58566666
1427150036.307,-0.30765915
1427150036.323,-1.3464069
1427150036.338,-2.6228065
1427150036.354,-4.1947155
1427150036.37,-5.9818764
1427150036.385,-7.888891
1427150036.401,-9.748259
1427150036.416,-11.447031
1427150036.432,-12.904549
1427150036.448,-14.093523
1427150036.463,-15.037933
1427150036.479,-15.756229
1427150036.495,-16.283916
1427150036.51,-16.638256
1427150036.526,-16.79546
1427150036.541,-16.733524
1427150036.557,-16.382788
1427150036.573,-15.671232
1427150036.588,-14.508604
1427150036.604,-12.879772
1427150036.62,-10.793411
1427150036.635,-8.400084
1427150036.651,-5.7446785
1427150036.666,-2.9473076
1427150036.682,-0.103191376
1427150036.698,2.7132444
1427150036.713,5.468893
1427150036.729,8.129472
1427150036.745,10.6302185
1427150036.76,12.792076
1427150036.776,14.363457
1427150036.791,15.032617
1427150036.807,14.567754
1427150036.823,12.972094
1427150036.838,10.551433
1427150036.854,7.8714066
1427150036.87,5.586046
1427150036.885,4.1804314
1427150036.901,3.8087587
1427150036.916,4.254406
1427150036.932,5.082113
1427150036.948,5.8040185
1427150036.963,6.1190763
1427150036.979,5.9827
1427150036.995,5.5769553
1427150037.01,5.1280766
1427150037.026,4.8238225
1427150037.041,4.6756277
1427150037.057,4.594212
1427150037.073,4.426143
1427150037.088,4.0951858
1427150037.104,3.6057775
1427150037.12,3.0420318
1427150037.135,2.4568803
1427150037.151,1.8875172
1427150037.166,1.3033134
1427150037.182,0.7233772
1427150037.198,0.19579005
1427150037.213,-0.158445
1427150037.229,-0.21688473
1427150037.245,0.00880301
1427150037.26,0.36384374
1427150037.276,0.57281864
1427150037.291,0.4207046
1427150037.307,-0.12980902
1427150037.323,-0.91068876
1427150037.338,-1.6202699
1427150037.354,-2.0280724
1427150037.37,-2.0404663
1427150037.385,-1.7882813
1427150037.401,-1.4790325
1427150037.416,-1.3136063
1427150037.432,-1.3362138
1427150037.448,-1.453624
1427150037.463,-1.4958756
1427150037.479,-1.3491416
1427150037.495,-1.0210013
1427150037.51,-0.61485267
1427150037.526,-0.25815916
1427150037.541,-0.047949553
1427150037.557,0.069187164
1427150037.573,0.25848722
1427150037.588,0.7397027
1427150037.604,1.6483312
1427150037.62,3.0069327
1427150037.635,4.4130683
1427150037.651,5.505781
1427150037.666,5.989545
1427150037.682,5.784053
1427150037.698,5.028515
1427150037.713,4.075693
1427150037.729,3.3526263
1427150037.745,3.2362103
1427150037.76,3.9816904
1427150037.776,5.662154
1427150037.791,8.167561
1427150037.807,11.137993
1427150037.823,13.96216
1427150037.838,15.874741
1427150037.854,16.141277
1427150037.87,14.364441
1427150037.885,10.659695
1427150037.901,5.7191496
1427150037.916,0.58482814
1427150037.932,-3.6427543
1427150037.948,-6.257221
1427150037.963,-7.120094
1427150037.979,-6.649418
1427150037.995,-5.543689
1427150038.01,-4.4727187
1427150038.026,-3.8459642
1427150038.041,-3.7697453
1427150038.057,-4.1496897
1427150038.073,-4.81743
1427150038.088,-5.680561
1427150038.104,-6.6652637
1427150038.12,-7.671836
1427150038.135,-8.532583
1427150038.151,-9.033136
1427150038.166,-9.063095
1427150038.182,-8.66452
1427150038.198,-8.119043
1427150038.213,-7.7662387
1427150038.229,-7.9076586
1427150038.245,-8.590951
1427150038.26,-9.625397
1427150038.276,-10.629492
1427150038.292,-11.22172
1427150038.307,-11.169605
1427150038.323,-10.446792
1427150038.338,-9.224091
1427150038.354,-7.795068
1427150038.37,-6.421772
1427150038.385,-5.3211646
1427150038.401,-4.575363
1427150038.416,-4.1794605
1427150038.432,-4.028137
1427150038.448,-3.9836497
1427150038.463,-3.8758984
1427150038.479,-3.600945
1427150038.495,-3.0931659
1427150038.51,-2.371276
1427150038.526,-1.4735389
1427150038.542,-0.4682312
1427150038.557,0.5796032
1427150038.573,1.6189632
1427150038.588,2.5900097
1427150038.604,3.4453783
1427150038.62,4.1491766
1427150038.635,4.725501
1427150038.651,5.267806
1427150038.667,5.9217052
1427150038.682,6.8449764
1427150038.698,8.12322
1427150038.713,9.743837
1427150038.729,11.54549
1427150038.745,13.308592
1427150038.76,14.768667
1427150038.776,15.752104
1427150038.792,16.204477
1427150038.807,16.221224
1427150038.823,15.996202
1427150038.838,15.805213
1427150038.854,15.914844
1427150038.87,16.563267
1427150038.885,17.853527
1427150038.901,19.730934
1427150038.917,21.878433
1427150038.932,23.765678
1427150038.948,24.72425
1427150038.963,24.180344
1427150038.979,21.850533
1427150038.995,17.903408
1427150039.01,12.923998
1427150039.026,7.75605
1427150039.042,3.2075486
1427150039.057,-0.16025543
1427150039.073,-2.2014189
1427150039.088,-3.1063256
1427150039.104,-3.2972593
1427150039.12,-3.2172272
1427150039.135,-3.2082636
1427150039.151,-3.4308658
1427150039.167,-3.9098697
1427150039.182,-4.577224
1427150039.198,-5.3632345
1427150039.213,-6.207494
1427150039.229,-7.083007
1427150039.245,-7.943817
1427150039.26,-8.74645
1427150039.276,-9.4429245
1427150039.292,-10.054053
1427150039.307,-10.632692
1427150039.323,-11.290926
1427150039.338,-12.108384
1427150039.354,-13.107515
1427150039.37,-14.18231
1427150039.385,-15.163134
1427150039.401,-15.863247
1427150039.417,-16.17873
1427150039.432,-16.107422
1427150039.448,-15.758759
1427150039.463,-15.262699
1427150039.479,-14.733923
1427150039.495,-14.20097
1427150039.51,-13.658618
1427150039.526,-13.032098
1427150039.542,-12.281592
1427150039.557,-11.394449
1427150039.573,-10.433971
1427150039.588,-9.505512
1427150039.604,-8.726989
1427150039.62,-8.16229
1427150039.635,-7.7972794
1427150039.651,-7.5254498
1427150039.667,-7.180092
1427150039.682,-6.6041727
1427150039.698,-5.7461452
1427150039.713,-4.664092
1427150039.729,-3.5272164
1427150039.745,-2.4850574
1427150039.76,-1.6181784
1427150039.776,-0.85714865
1427150039.792,-0.066625595
1427150039.807,0.90372324
1427150039.823,2.1030288
1427150039.838,3.4727087
1427150039.854,4.8845425
1427150039.87,6.2313104
1427150039.885,7.465937
1427150039.901,8.595091
1427150039.917,9.64139
1427150039.932,10.623693
1427150039.948,11.536681
1427150039.963,12.436796
1427150039.979,13.468819
1427150039.995,14.920252
1427150040.01,17.075739
1427150040.026,20.089352
1427150040.042,23.778347
1427150040.057,27.562956
1427150040.073,30.542194
1427150040.088,31.777393
1427150040.104,30.625439
1427150040.12,27.037601
1427150040.135,21.625353
1427150040.151,15.474976
1427150040.167,9.770385
1427150040.182,5.3910046
1427150040.198,2.6600256
1427150040.213,1.344243
1427150040.229,0.85696125
1427150040.245,0.56278324
1427150040.26,-0.008271217
1427150040.276,-1.0629225
1427150040.292,-2.6123238
1427150040.307,-4.5377283
1427150040.323,-6.6784906
1427150040.338,-8.806542
1427150040.354,-10.665628
1427150040.37,-11.966575
1427150040.385,-12.520669
1427150040.401,-12.32979
1427150040.417,-11.620697
1427150040.432,-10.784594
1427150040.448,-10.223407
1427150040.463,-10.166399
1427150040.479,-10.62174
1427150040.495,-11.390797
1427150040.51,-12.209709
1427150040.526,-12.831499
1427150040.542,-13.135643
1427150040.557,-13.058668
1427150040.573,-12.625814
1427150040.588,-11.884277
1427150040.604,-10.931559
1427150040.62,-9.947798
1427150040.635,-9.142006
1427150040.651,-8.685436
1427150040.667,-8.623371
1427150040.682,-8.812975
1427150040.698,-8.987949
1427150040.713,-8.909653
1427150040.729,-8.496931
1427150040.745,-7.846817
1427150040.76,-7.2167625
1427150040.776,-6.8489895
1427150040.792,-6.871752
1427150040.807,-7.221184
1427150040.823,-7.7112694
1427150040.838,-8.0792465
1427150040.854,-8.113913
1427150040.87,-7.7106247
1427150040.885,-6.8994465
1427150040.901,-5.83292
1427150040.917,-4.735855
1427150040.932,-3.8227997
1427150040.948,-3.243721
1427150040.963,-2.971918
1427150040.979,-2.8265476
1427150040.995,-2.487402
1427150041.01,-1.64328
1427150041.026,-0.06414509
1427150041.042,2.24121
1427150041.057,5.0547504
1427150041.073,7.9902506
1427150041.088,10.64404
1427150041.104,12.707973
1427150041.12,14.074562
1427150041.135,14.878178
1427150041.151,15.425937
1427150041.167,16.071815
1427150041.182,17.118357
1427150041.198,18.702417
1427150041.214,20.737766
1427150041.229,22.888905
1427150041.245,24.621763
1427150041.26,25.294834
1427150041.276,24.353104
1427150041.292,21.52388
1427150041.307,17.002663
1427150041.323,11.429616
1427150041.339,5.729395
1427150041.354,0.769578
1427150041.37,-2.918931
1427150041.385,-5.2609425
1427150041.401,-6.5581026
1427150041.417,-7.2579355
1427150041.432,-7.7233753
1427150041.448,-8.154434
1427150041.464,-8.5772505
1427150041.479,-8.97256
1427150041.495,-9.3334465
1427150041.51,-9.683217
1427150041.526,-10.008553
1427150041.542,-10.271011
1427150041.557,-10.381194
1427150041.573,-10.264194
1427150041.589,-9.877505
1427150041.604,-9.2654295
1427150041.62,-8.538651
1427150041.635,-7.866742
1427150041.651,-7.4115753
1427150041.667,-7.301955
1427150041.682,-7.5642815
1427150041.698,-8.077508
1427150041.714,-8.59801
1427150041.729,-8.862331
1427150041.745,-8.687188
1427150041.76,-8.063311
1427150041.776,-7.1640396
1427150041.792,-6.2852955
1427150041.807,-5.680073
1427150041.823,-5.4686747
1427150041.839,-5.5871305
1427150041.854,-5.8327084
1427150041.87,-5.9752073
1427150041.885,-5.8737
1427150041.901,-5.499714
1427150041.917,-4.935851
1427150041.932,-4.299204
1427150041.948,-3.6885586
1427150041.964,-3.1072254
1427150041.979,-2.4990025
1427150041.995,-1.7815604
1427150042.01,-0.9352083
1427150042.026,-0.017296314
1427150042.042,0.8067355
1427150042.057,1.358654
1427150042.073,1.5062814
1427150042.089,1.2303185
1427150042.104,0.6426821
1427150042.12,-0.04737687
1427150042.135,-0.6050155
1427150042.151,-0.80891645
1427150042.167,-0.5344743
1427150042.182,0.23279023
1427150042.198,1.3925811
1427150042.214,2.788424
1427150042.229,4.217712
1427150042.245,5.5454626
1427150042.26,6.703289
1427150042.276,7.7628274
1427150042.292,8.895898
1427150042.307,10.356997
1427150042.323,12.340844
1427150042.339,14.835622
1427150042.354,17.548923
1427150042.37,19.891989
1427150042.385,21.145452
1427150042.401,20.745811
1427150042.417,18.517128
1427150042.432,14.8387165
1427150042.448,10.50759
1427150042.464,6.461125
1427150042.479,3.4220486
1427150042.495,1.6765914
1427150042.51,1.0634689
1427150042.526,1.1488776
1427150042.542,1.4196181
1427150042.557,1.4871454
1427150042.573,1.1026487
1427150042.589,0.17814016
1427150042.604,-1.2322955
1427150042.62,-2.912373
1427150042.635,-4.537788
1427150042.651,-5.7348557
1427150042.667,-6.272126
1427150042.682,-6.1465683
1427150042.698,-5.615222
1427150042.714,-5.0410657
1427150042.729,-4.7420864
1427150042.745,-4.827469
1427150042.76,-5.210988
1427150042.776,-5.6958556
1427150042.792,-6.13363
1427150042.807,-6.4863925
1427150042.823,-6.790409
1427150042.839,-7.0710034
1427150042.854,-7.303537
1427150042.87,-7.391338
1427150042.885,-7.307631
1427150042.901,-7.1051083
1427150042.917,-6.9843426
1427150042.932,-7.1160116
1427150042.948,-7.5807
1427150042.964,-8.237419
1427150042.979,-8.813002
1427150042.995,-9.014764
1427150043.01,-8.68181
1427150043.026,-7.856826
1427150043.042,-6.7819624
1427150043.057,-5.7337275
1427150043.073,-4.8562965
1427150043.089,-4.10501
1427150043.104,-3.2822733
1427150043.12,-2.1987772
1427150043.135,-0.83536816
1427150043.151,0.6114435
1427150043.167,1.8048124
1427150043.182,2.5339413
1427150043.198,2.828104
1427150043.214,3.0635347
1427150043.229,3.7761087
1427150043.245,5.4515142
1427150043.26,8.239337
1427150043.276,11.902238
1427150043.292,15.893695
1427150043.307,19.554165
1427150043.323,22.327038
1427150043.339,23.85188
1427150043.354,23.984522
1427150043.37,22.754107
1427150043.385,20.31873
1427150043.401,16.97493
1427150043.417,13.201524
1427150043.432,9.599808
1427150043.448,6.7822685
1427150043.464,5.2305145
1427150043.479,5.0936117
1427150043.495,6.125004
1427150043.51,7.7246246
1427150043.526,9.176078
1427150043.542,9.854045
1427150043.557,9.479257
1427150043.573,8.20359
1427150043.589,6.519784
1427150043.604,4.985772
1427150043.62,3.9896145
1427150043.635,3.5686102
1427150043.651,3.4492264
1427150043.667,3.2114143
1427150043.682,2.5259104
1427150043.698,1.2616873
1427150043.714,-0.4946308
1427150043.729,-2.5951886
1427150043.745,-4.926952
1427150043.76,-7.4278474
1427150043.776,-10.019767
1427150043.792,-12.507387
1427150043.807,-14.543744
1427150043.823,-15.774224
1427150043.839,-16.0377
1427150043.854,-15.519131
1427150043.87,-14.743868
1427150043.886,-14.365501
1427150043.901,-14.829051
1427150043.917,-16.162907
1427150043.932,-17.932364
1427150043.948,-19.469826
1427150043.964,-20.190845
1427150043.979,-19.847103
1427150043.995,-18.56791
1427150044.011,-16.75195
1427150044.026,-14.783435
1427150044.042,-12.875007
1427150044.057,-11.027214
1427150044.073,-9.100975
1427150044.089,-6.9474897
1427150044.104,-4.5386925
1427150044.12,-1.9608765
1427150044.136,0.6212311
1427150044.151,3.04276
1427150044.167,5.1777205
1427150044.182,6.9943495
1427150044.198,8.52459
1427150044.214,9.856405
1427150044.229,11.08036
1427150044.245,12.281254
1427150044.261,13.521139
1427150044.276,14.851634
1427150044.292,16.334799
1427150044.307,18.002455
1427150044.323,19.75748
1427150044.339,21.30262
1427150044.354,22.117496
1427150044.37,21.59876
1427150044.386,19.271706
1427150044.401,15.094246
1427150044.417,9.553154
1427150044.432,3.5919957
1427150044.448,-1.7348552
1427150044.464,-5.6091843
1427150044.479,-7.749805
1427150044.495,-8.405382
1427150044.511,-8.182909
1427150044.526,-7.6863403
1427150044.542,-7.2779565
1427150044.557,-6.9800396
1427150044.573,-6.605527
1427150044.589,-5.9597235
1427150044.604,-5.0349593
1427150044.62,-4.0641766
1427150044.636,-3.3731184
1427150044.651,-3.1878886
1427150044.667,-3.4900112
1427150044.682,-4.028835
1427150044.698,-4.4712753
1427150044.714,-4.630096
1427150044.729,-4.5723634
1427150044.745,-4.5005136
1427150044.761,-4.5829277
1427150044.776,-4.7626014
1427150044.792,-4.757985
1427150044.807,-4.2050195
1427150044.823,-2.94451
1427150044.839,-1.1682992
1427150044.854,0.591691
1427150044.87,1.7227902
1427150044.886,1.7941561
1427150044.901,0.76571655
1427150044.917,-1.0220919
1427150044.932,-3.006672
1427150044.948,-4.6456
1427150044.964,-5.6208453
1427150044.979,-5.932405
1427150044.995,-5.8374767
1427150045.011,-5.750528
1427150045.026,-6.050555
1427150045.042,-6.945276
1427150045.057,-8.316853
1427150045.073,-9.710817
1427150045.089,-10.482972
1427150045.104,-10.054978
1427150045.12,-8.211391
1427150045.136,-5.2891836
1427150045.151,-2.0864835
1427150045.167,0.4366703
1427150045.182,1.5662575
1427150045.198,1.1488771
1427150045.214,-0.33943272
1427150045.229,-2.0328178
1427150045.245,-3.0286884
1427150045.261,-2.7604704
1427150045.276,-1.1405306
1427150045.292,1.462451
1427150045.307,4.4523706
1427150045.323,7.2382307
1427150045.339,9.432099
1427150045.354,10.888129
1427150045.37,11.7274
1427150045.386,12.228147
1427150045.401,12.755285
1427150045.417,13.652365
1427150045.432,15.145182
1427150045.448,17.269802
1427150045.464,19.841087
1427150045.479,22.450424
1427150045.495,24.551159
1427150045.511,25.61094
1427150045.526,25.307383
1427150045.542,23.619888
1427150045.557,20.91709
1427150045.573,17.841675
1427150045.589,15.111834
1427150045.604,13.270523
1427150045.62,12.546789
1427150045.636,12.786713
1427150045.651,13.563263
1427150045.667,14.3576355
1427150045.682,14.712458
1427150045.698,14.327289
1427150045.714,13.099761
1427150045.729,11.076682
1427150045.745,8.439039
1427150045.761,5.4371243
1427150045.776,2.3572235
1427150045.792,-0.5369859
1427150045.807,-3.03411
1427150045.823,-5.0129576
1427150045.839,-6.3606873
1427150045.854,-6.965616
1427150045.87,-6.678897
1427150045.886,-5.372512
1427150045.901,-2.9867535
1427150045.917,0.32032013
1427150045.932,4.1951923
1427150045.948,8.134354
1427150045.964,11.655312
1427150045.979,14.5000515
1427150045.995,16.76107
1427150046.011,18.941402
1427150046.026,21.83469
1427150046.042,26.304821
1427150046.057,32.956295
1427150046.073,41.83192
1427150046.089,52.257923
1427150046.104,62.96131
1427150046.12,72.4846
1427150046.136,79.744415
1427150046.151,84.47359
1427150046.167,87.29059
1427150046.182,89.413124
1427150046.198,92.02425
1427150046.214,95.77147
1427150046.229,100.463936
1427150046.245,105.29026
1427150046.261,109.21791
1427150046.276,111.49945
1427150046.292,111.89612
1427150046.307,110.63341
1427150046.323,108.14215
1427150046.339,104.771576
1427150046.354,100.61841
1427150046.37,95.54208
1427150046.386,89.22862
1427150046.401,81.416565
1427150046.417,71.98193
1427150046.432,61.036804
1427150046.448,48.775635
1427150046.464,35.31639
1427150046.479,20.480057
1427150046.495,3.8592987
1427150046.511,-14.928116
1427150046.526,-35.782715
1427150046.542,-57.864807
1427150046.558,-79.61987
1427150046.573,-99.19519
1427150046.589,-115.0715
1427150046.604,-126.57733
1427150046.62,-134.03885
1427150046.636,-138.45148
1427150046.651,-140.91913
1427150046.667,-142.12335
1427150046.683,-142.04315
1427150046.698,-140.14948
1427150046.714,-135.87918
1427150046.729,-129.18362
1427150046.745,-120.76849
1427150046.761,-111.96054
1427150046.776,-104.164154
1427150046.792,-98.27081
1427150046.808,-94.35812
1427150046.823,-91.88229
1427150046.839,-90.18207
1427150046.854,-88.89145
1427150046.87,-87.91763
1427150046.886,-87.095795
1427150046.901,-85.85019
1427150046.917,-83.370575
1427150046.933,-79.17963
1427150046.948,-73.88794
1427150046.964,-69.387726
1427150046.979,-68.30481
1427150046.995,-72.85886
1427150047.011,-83.819305
1427150047.026,-100.075836
1427150047.042,-119.06259
1427150047.058,-137.71082
1427150047.073,-153.27747
1427150047.089,-163.73688
1427150047.104,-167.82098
1427150047.12,-164.9155
1427150047.136,-155.04276
1427150047.151,-138.9325
1427150047.167,-118.00098
1427150047.183,-94.01526
1427150047.198,-68.69968
1427150047.214,-43.400085
1427150047.229,-19.082916
1427150047.245,3.5362244
1427150047.261,23.787048
1427150047.276,41.074127
1427150047.292,54.962677
1427150047.308,65.28284
1427150047.323,72.03708
1427150047.339,75.201904
1427150047.354,74.60083
1427150047.37,70.042114
1427150047.386,61.733215
1427150047.401,50.710876
1427150047.417,38.87448
1427150047.433,28.494507
1427150047.448,21.322006
1427150047.464,17.825607
1427150047.479,16.989746
1427150047.495,16.800186
1427150047.511,15.204361
1427150047.526,11.036179
1427150047.542,4.389084
1427150047.558,-3.6885223
1427150047.573,-11.903473
1427150047.589,-19.361374
1427150047.604,-25.820969
1427150047.62,-31.514877
1427150047.636,-36.79875
1427150047.651,-41.79448
1427150047.667,-46.291916
1427150047.683,-49.760574
1427150047.698,-51.41591
1427150047.714,-50.255135
1427150047.729,-45.113037
1427150047.745,-34.859886
1427150047.761,-18.832054
1427150047.776,2.6630402
1427150047.792,28.007637
1427150047.808,54.37986
1427150047.823,78.3356
1427150047.839,96.781166
1427150047.854,107.843376
1427150047.87,111.32055
1427150047.886,108.52042
1427150047.901,101.614365
1427150047.917,92.85299
1427150047.933,83.98227
1427150047.948,76.00027
1427150047.964,69.338806
1427150047.979,64.24205
1427150047.995,60.98168
1427150048.011,59.795654
1427150048.026,60.579742
1427150048.042,62.586597
1427150048.058,64.451675
1427150048.073,64.589165
1427150048.089,61.882217
1427150048.104,56.19812
1427150048.12,48.553497
1427150048.136,40.684105
1427150048.151,34.33529
1427150048.167,30.580692
1427150048.183,29.558348
1427150048.198,30.604778
1427150048.214,32.741524
1427150048.229,35.07148
1427150048.245,37.0268
1427150048.261,38.36048
1427150048.276,38.990036
1427150048.292,38.916344
1427150048.308,38.179573
1427150048.323,36.89566
1427150048.339,35.25264
1427150048.354,33.450645
1427150048.37,31.64299
1427150048.386,29.929878
1427150048.401,28.384209
1427150048.417,27.05267
1427150048.433,25.95509
1427150048.448,25.027689
1427150048.464,24.093876
1427150048.479,22.909828
1427150048.495,21.288727
1427150048.511,19.167126
1427150048.526,16.611176
1427150048.542,13.706379
1427150048.558,10.437267
1427150048.573,6.635359
1427150048.589,2.1210985
1427150048.604,-3.1390429
1427150048.62,-8.895084
1427150048.636,-14.612255
1427150048.651,-19.643517
1427150048.667,-23.428688
1427150048.683,-25.692297
1427150048.698,-26.524845
1427150048.714,-26.317951
1427150048.729,-25.627943
1427150048.745,-25.001799
1427150048.761,-24.822458
1427150048.776,-25.200352
1427150048.792,-25.915016
1427150048.808,-26.488068
1427150048.823,-26.342262
1427150048.839,-24.996326
1427150048.854,-22.280684
1427150048.87,-18.45593
1427150048.886,-14.19725
1427150048.901,-10.385605
1427150048.917,-7.881383
1427150048.933,-7.200822
1427150048.948,-8.362919
1427150048.964,-10.852531
1427150048.979,-13.803051
1427150048.995,-16.24379
1427150049.011,-17.424011
1427150049.026,-16.984715
1427150049.042,-15.046652
1427150049.058,-12.083851
1427150049.073,-8.747322
1427150049.089,-5.6267433
1427150049.104,-3.117342
1427150049.12,-1.3277683
1427150049.136,-0.15115738
1427150049.151,0.6330223
1427150049.167,1.2657452
1427150049.183,1.9274883
1427150049.198,2.7179546
1427150049.214,3.6808395
1427150049.23,4.787874
1427150049.245,5.9753475
1427150049.261,7.13669
1427150049.276,8.200348
1427150049.292,9.17897
1427150049.308,10.224545
1427150049.323,11.574514
1427150049.339,13.399567
1427150049.354,15.637276
1427150049.37,17.908905
1427150049.386,19.600029
1427150049.401,20.113308
1427150049.417,19.106514
1427150049.433,16.64606
1427150049.448,13.146385
1427150049.464,9.204536
1427150049.48,5.3638763
1427150049.495,1.9816551
1427150049.511,-0.8150711
1427150049.526,-3.055481
1427150049.542,-4.83733
1427150049.558,-6.2335663
1427150049.573,-7.289852
1427150049.589,-8.004101
1427150049.605,-8.402527
1427150049.62,-8.520443
1427150049.636,-8.428848
1427150049.651,-8.218147
1427150049.667,-7.96315
1427150049.683,-7.696411
1427150049.698,-7.427582
1427150049.714,-7.141781
1427150049.73,-6.836422
1427150049.745,-6.533943
1427150049.761,-6.2935486
1427150049.776,-6.1352997
1427150049.792,-6.06316
1427150049.808,-6.0336227
1427150049.823,-6.0076675
1427150049.839,-5.964405
1427150049.855,-5.935253
1427150049.87,-5.9881516
1427150049.886,-6.173622
1427150049.901,-6.5182533
1427150049.917,-7.0060654
1427150049.933,-7.5838966
1427150049.948,-8.166714
1427150049.964,-8.678284
1427150049.98,-9.049438
1427150049.995,-9.232216
1427150050.011,-9.212807
1427150050.026,-9.001839
1427150050.042,-8.676735
1427150050.058,-8.308575
1427150050.073,-7.963711
1427150050.089,-7.6650352
1427150050.105,-7.3827477
1427150050.12,-7.054592
1427150050.136,-6.607109
1427150050.151,-5.9836845
1427150050.167,-5.1826935
1427150050.183,-4.26157
1427150050.198,-3.3251114
1427150050.214,-2.4937973
1427150050.23,-1.8429031
1427150050.245,-1.3627663
1427150050.261,-0.96933365
1427150050.276,-0.513958
1427150050.292,0.114162445
1427150050.308,0.963192
1427150050.323,1.9670563
1427150050.339,3.028698
1427150050.355,4.048271
1427150050.37,4.9859085
1427150050.386,5.894207
1427150050.401,6.8933487
1427150050.417,8.137997
1427150050.433,9.779713
1427150050.448,11.950726
1427150050.464,14.624802
1427150050.48,17.56717
1427150050.495,20.289253
1427150050.511,22.124546
1427150050.526,22.477974
1427150050.542,21.036343
1427150050.558,17.964878
1427150050.573,13.855278
1427150050.589,9.538498
1427150050.605,5.7762337
1427150050.62,3.0414429
1427150050.636,1.4134674
1427150050.651,0.66098785
1427150050.667,0.40385056
1427150050.683,0.28806305
1427150050.698,0.0463562
1427150050.714,-0.45214462
1427150050.73,-1.2481537
1427150050.745,-2.3070717
1427150050.761,-3.5423698
1427150050.776,-4.8111877
1427150050.792,-5.9936714
1427150050.808,-6.968643
1427150050.823,-7.692917
1427150050.839,-8.152645
1427150050.855,-8.396397
1427150050.87,-8.494255
1427150050.886,-8.516796
1427150050.901,-8.544075
1427150050.917,-8.629372
1427150050.933,-8.7989235
1427150050.948,-9.03294
1427150050.964,-9.2533
1427150050.98,-9.361309
1427150050.995,-9.244579
1427150051.011,-8.853001
1427150051.026,-8.197968
1427150051.042,-7.3775826
1427150051.058,-6.501461
1427150051.073,-5.700096
1427150051.089,-5.0565567
1427150051.105,-4.634693
1427150051.12,-4.447853
1427150051.136,-4.504627
1427150051.151,-4.7702446
1427150051.167,-5.185814
1427150051.183,-5.6506805
1427150051.198,-6.0496674
1427150051.214,-6.2647705
1427150051.23,-6.2087364
1427150051.245,-5.8307533
1427150051.261,-5.130821
1427150051.276,-4.108589
1427150051.292,-2.807808
1427150051.308,-1.2856903
1427150051.323,0.33150864
1427150051.339,1.8856201
1427150051.355,3.1730003
1427150051.37,4.096695
1427150051.386,4.701866
1427150051.401,5.214798
1427150051.417,5.952877
1427150051.433,7.2191925
1427150051.448,9.150551
1427150051.464,11.654709
1427150051.48,14.415401
1427150051.495,16.946465
1427150051.511,18.717712
1427150051.526,19.24939
1427150051.542,18.24218
1427150051.558,15.68306
1427150051.573,11.893856
1427150051.589,7.506588
1427150051.605,3.289837
1427150051.62,-0.07197952
1427150051.636,-2.2195892
1427150051.651,-3.1903343
1427150051.667,-3.3768082
1427150051.683,-3.288971
1427150051.698,-3.3480682
1427150051.714,-3.7085152
1427150051.73,-4.2929344
1427150051.745,-4.8823853
1427150051.761,-5.2859306
1427150051.776,-5.417389
1427150051.792,-5.358433
1427150051.808,-5.272072
1427150051.823,-5.327427
1427150051.839,-5.6085014
1427150051.855,-6.08807
1427150051.87,-6.653244
1427150051.886,-7.1706085
1427150051.902,-7.566189
1427150051.917,-7.870842
1427150051.933,-8.188602
1427150051.948,-8.637428
1427150051.964,-9.2457695
1427150051.98,-9.921917
1427150051.995,-10.472324
1427150052.011,-10.713047
1427150052.026,-10.574802
1427150052.042,-10.138721
1427150052.058,-9.568901
1427150052.073,-9.044773
1427150052.089,-8.630314
1427150052.105,-8.237114
1427150052.12,-7.689945
1427150052.136,-6.8346214
1427150052.152,-5.6581306
1427150052.167,-4.3316727
1427150052.183,-3.1333466
1427150052.198,-2.3187485
1427150052.214,-1.9584007
1427150052.23,-1.9039459
1427150052.245,-1.8116226
1427150052.261,-1.355011
1427150052.277,-0.31198883
1427150052.292,1.2935371
1427150052.308,3.2378235
1427150052.323,5.2025757
1427150052.339,6.9436035
1427150052.355,8.326546
1427150052.37,9.374718
1427150052.386,10.230293
1427150052.402,11.083191
1427150052.417,12.125507
1427150052.433,13.540836
1427150052.448,15.456257
1427150052.464,17.88136
1427150052.48,20.595772
1427150052.495,23.153893
1427150052.511,24.92339
1427150052.527,25.298
1427150052.542,23.923653
1427150052.558,20.889938
1427150052.573,16.730377
1427150052.589,12.271767
1427150052.605,8.313232
1427150052.62,5.354046
1427150052.636,3.4711685
1427150052.652,2.4005814
1427150052.667,1.7236099
1427150052.683,1.0815125
1427150052.698,0.29749298
1427150052.714,-0.6489868
1427150052.73,-1.6927948
1427150052.745,-2.7716064
1427150052.761,-3.8706932
1427150052.777,-4.97274
1427150052.792,-6.0383186
1427150052.808,-6.9895096
1427150052.823,-7.7493324
1427150052.839,-8.271248
1427150052.855,-8.605389
1427150052.87,-8.854038
1427150052.886,-9.126102
1427150052.902,-9.453308
1427150052.917,-9.782295
1427150052.933,-9.98558
1427150052.948,-9.949322
1427150052.964,-9.634064
1427150052.98,-9.127075
1427150052.995,-8.559723
1427150053.011,-8.064636
1427150053.027,-7.676426
1427150053.042,-7.33123
1427150053.058,-6.9325943
1427150053.073,-6.4730644
1427150053.089,-6.045223
1427150053.105,-5.826782
1427150053.12,-5.926132
1427150053.136,-6.3240395
1427150053.152,-6.816242
1427150053.167,-7.138794
1427150053.183,-7.058277
1427150053.198,-6.5221634
1427150053.214,-5.6103516
1427150053.23,-4.5019836
1427150053.245,-3.37006
1427150053.261,-2.3468895
1427150053.277,-1.4822998
1427150053.292,-0.7699127
1427150053.308,-0.14113998
1427150053.323,0.5592537
1427150053.339,1.5137444
1427150053.355,2.8668022
1427150053.37,4.60363
1427150053.386,6.514885
1427150053.402,8.258228
1427150053.417,9.5083885
1427150053.433,10.127018
1427150053.448,10.253101
1427150053.464,10.246342
1427150053.48,10.5179405
1427150053.495,11.3827095
1427150053.511,12.945454
1427150053.527,15.13068
1427150053.542,17.707111
1427150053.558,20.328922
1427150053.573,22.534214
1427150053.589,23.809105
1427150053.605,23.676567
1427150053.62,21.906567
1427150053.636,18.660568
1427150053.652,14.519772
1427150053.667,10.29303
1427150053.683,6.7768517
1427150053.698,4.4000626
1427150053.714,3.1606064
1427150053.73,2.6809425
1427150053.745,2.4516754
1427150053.761,2.0662384
1427150053.777,1.356247
1427150053.792,0.35186386
1427150053.808,-0.78715515
1427150053.823,-1.9308739
1427150053.839,-3.0043564
1427150053.855,-3.9993324
1427150053.87,-4.8944855
1427150053.886,-5.662098
1427150053.902,-6.2614784
1427150053.917,-6.683014
1427150053.933,-6.9741096
1427150053.948,-7.253422
1427150053.964,-7.640396
1427150053.98,-8.20467
1427150053.995,-8.8718605
1427150054.011,-9.479813
1427150054.027,-9.831093
1427150054.042,-9.842743
1427150054.058,-9.60474
1427150054.073,-9.35387
1427150054.089,-9.357468
1427150054.105,-9.779896
1427150054.12,-10.572662
1427150054.136,-11.523979
1427150054.152,-12.341164
1427150054.167,-12.83046
1427150054.183,-12.888618
1427150054.198,-12.54528
1427150054.214,-11.880699
1427150054.23,-10.967918
1427150054.245,-9.853447
1427150054.261,-8.613335
1427150054.277,-7.3499603
1427150054.292,-6.203125
1427150054.308,-5.2498474
1427150054.323,-4.4968185
1427150054.339,-3.8155441
1427150054.355,-3.0199356
1427150054.37,-1.9259262
1427150054.386,-0.46884918
1427150054.402,1.2684326
1427150054.417,3.0387344
1427150054.433,4.582939
1427150054.448,5.691345
1427150054.464,6.34729
1427150054.48,6.672783
1427150054.495,6.9028473
1427150054.511,7.259102
1427150054.527,7.874092
1427150054.542,8.766014
1427150054.558,9.8632965
1427150054.573,11.075859
1427150054.589,12.35553
1427150054.605,13.725868
1427150054.62,15.286362
1427150054.636,17.129768
1427150054.652,19.267769
1427150054.667,21.508339
1427150054.683,23.435394
1427150054.698,24.490997
1427150054.714,24.16587
1427150054.73,22.193481
1427150054.745,18.77742
1427150054.761,14.520836
1427150054.777,10.23806
1427150054.792,6.6532516
1427150054.808,4.147011
1427150054.824,2.6718674
1427150054.839,1.8676224
1427150054.855,1.2799911
1427150054.87,0.5492325
1427150054.886,-0.46971893
1427150054.902,-1.7299423
1427150054.917,-3.0904999
1427150054.933,-4.384239
1427150054.949,-5.525551
1427150054.964,-6.4783783
1427150054.98,-7.267212
1427150054.995,-7.9285736
1427150055.011,-8.501236
1427150055.027,-8.9841
1427150055.042,-9.395256
1427150055.058,-9.762955
1427150055.074,-10.132095
1427150055.089,-10.556549
1427150055.105,-11.059792
1427150055.12,-11.625885
1427150055.136,-12.190811
1427150055.152,-12.681587
1427150055.167,-13.037476
1427150055.183,-13.223015
1427150055.199,-13.23719
1427150055.214,-13.082344
1427150055.23,-12.79615
1427150055.245,-12.422256
1427150055.261,-11.988739
1427150055.277,-11.50161
1427150055.292,-10.928818
1427150055.308,-10.207298
1427150055.324,-9.301086
1427150055.339,-8.211044
1427150055.355,-6.990654
1427150055.37,-5.728554
1427150055.386,-4.5247116
1427150055.402,-3.4600754
1427150055.417,-2.572647
1427150055.433,-1.8821106
1427150055.449,-1.3574753
1427150055.464,-0.903656
1427150055.48,-0.3697052
1427150055.495,0.408638
1427150055.511,1.5298615
1427150055.527,2.9670944
1427150055.542,4.512802
1427150055.558,5.884941
1427150055.574,6.864456
1427150055.589,7.4461975
1427150055.605,7.83374
1427150055.62,8.415428
1427150055.636,9.581741
1427150055.652,11.583244
1427150055.667,14.42424
1427150055.683,17.8441
1427150055.699,21.32856
1427150055.714,24.242554
1427150055.73,25.957787
1427150055.745,26.031082
1427150055.761,24.372177
1427150055.777,21.274498
1427150055.792,17.354462
1427150055.808,13.347252
1427150055.824,9.849388
1427150055.839,7.1405106
1427150055.855,5.1299515
1427150055.87,3.5478363
1427150055.886,2.081871
1427150055.902,0.5758896
1427150055.917,-0.9614334
1427150055.933,-2.4009247
1427150055.949,-3.664917
1427150055.964,-4.7445984
1427150055.98,-5.729271
1427150055.995,-6.745468
1427150056.011,-7.8915863
1427150056.027,-9.1688385
1427150056.042,-10.499756
1427150056.058,-11.737259
1427150056.074,-12.737808
1427150056.089,-13.420876
1427150056.105,-13.835884
1427150056.12,-14.120956
1427150056.136,-14.441689
1427150056.152,-14.877922
1427150056.167,-15.38726
1427150056.183,-15.806221
1427150056.199,-15.949234
1427150056.214,-15.689354
1427150056.23,-15.065033
1427150056.245,-14.206612
1427150056.261,-13.293419
1427150056.277,-12.423119
1427150056.292,-11.609619
1427150056.308,-10.764923
1427150056.324,-9.803894
1427150056.339,-8.689667
1427150056.355,-7.502228
1427150056.37,-6.382736
1427150056.386,-5.474411
1427150056.402,-4.816818
1427150056.417,-4.328232
1427150056.433,-3.7951813
1427150056.449,-3.0128174
1427150056.464,-1.8797607
1427150056.48,-0.48973083
1427150056.495,0.92529297
1427150056.511,2.1086578
1427150056.527,2.9284363
1427150056.542,3.4673004
1427150056.558,3.9563751
1427150056.574,4.679016
1427150056.589,5.845642
1427150056.605,7.569092
1427150056.62,9.938721
1427150056.636,12.984619
1427150056.652,16.655014
1427150056.667,20.63826
1427150056.683,24.331314
1427150056.699,26.910065
1427150056.714,27.667877
1427150056.73,26.24556
1427150056.745,22.867859
1427150056.761,18.26004
1427150056.777,13.374405
1427150056.792,9.051712
1427150056.808,5.777069
1427150056.824,3.6133118
1427150056.839,2.3003235
1427150056.855,1.4410095
1427150056.87,0.6680908
1427150056.886,-0.2648468
1427150056.902,-1.4519043
1427150056.917,-2.8851318
1427150056.933,-4.480652
1427150056.949,-6.1166534
1427150056.964,-7.661865
1427150056.98,-9.038681
1427150056.995,-10.172638
1427150057.011,-11.048233
1427150057.027,-11.686523
1427150057.042,-12.16629
1427150057.058,-12.606964
1427150057.074,-13.126999
1427150057.089,-13.798248
1427150057.105,-14.617065
1427150057.12,-15.495102
1427150057.136,-16.31987
1427150057.152,-16.984283
1427150057.167,-17.409058
1427150057.183,-17.52919
1427150057.199,-17.320694
1427150057.214,-16.76651
1427150057.23,-15.90593
1427150057.245,-14.828659
1427150057.261,-13.685623
1427150057.277,-12.6250305
1427150057.292,-11.751434
1427150057.308,-11.082321
1427150057.324,-10.546158
1427150057.339,-10.00592
1427150057.355,-9.353165
1427150057.37,-8.499496
1427150057.386,-7.453949
1427150057.402,-6.2656403
1427150057.417,-5.00885
1427150057.433,-3.7526245
1427150057.449,-2.5365448
1427150057.464,-1.3747559
1427150057.48,-0.26211548
1427150057.496,0.8115845
1427150057.511,1.8638
1427150057.527,2.896347
1427150057.542,3.914032
1427150057.558,4.920349
1427150057.574,5.8979797
1427150057.589,6.8238525
1427150057.605,7.662445
1427150057.621,8.447525
1427150057.636,9.2821045
1427150057.652,10.374817
1427150057.667,11.957184
1427150057.683,14.229065
1427150057.699,17.230621
1427150057.714,20.780914
1427150057.73,24.44571
1427150057.746,27.635254
1427150057.761,29.709488
1427150057.777,30.169952
1427150057.792,28.797867
1427150057.808,25.734589
1427150057.824,21.474747
1427150057.839,16.736984
1427150057.855,12.224701
1427150057.871,8.445038
1427150057.886,5.564148
1427150057.902,3.448059
1427150057.917,1.8016052
1427150057.933,0.3821106
1427150057.949,-0.95710754
1427150057.964,-2.229126
1427150057.98,-3.455536
1427150057.996,-4.6767273
1427150058.011,-5.9603577
1427150058.027,-7.3150177
1427150058.042,-8.665329
1427150058.058,-9.862595
1427150058.074,-10.803543
1427150058.089,-11.493469
1427150058.105,-12.075211
1427150058.121,-12.702316
1427150058.136,-13.449188
1427150058.152,-14.245728
1427150058.167,-14.939178
1427150058.183,-15.373322
1427150058.199,-15.496887
1427150058.214,-15.356995
1427150058.23,-15.063065
1427150058.246,-14.702927
1427150058.261,-14.314438
1427150058.277,-13.89238
1427150058.292,-13.43634
1427150058.308,-12.950424
1427150058.324,-12.460907
1427150058.339,-11.984207
1427150058.355,-11.518356
1427150058.371,-11.0156555
1427150058.386,-10.4375
1427150058.402,-9.7556
1427150058.417,-8.993179
1427150058.433,-8.211456
1427150058.449,-7.5156097
1427150058.464,-6.9913483
1427150058.48,-6.692383
1427150058.496,-6.5466003
1427150058.511,-6.410095
1427150058.527,-6.1000977
1427150058.542,-5.4841614
1427150058.558,-4.5370026
1427150058.574,-3.3781128
1427150058.589,-2.20047
1427150058.605,-1.2143402
1427150058.621,-0.54745483
1427150058.636,-0.18238068
1427150058.652,0.063438416
1427150058.667,0.47599792
1427150058.683,1.3491058
1427150058.699,2.8344498
1427150058.714,4.850998
1427150058.73,7.110092
1427150058.746,9.265022
1427150058.761,11.035126
1427150058.777,12.383911
1427150058.792,13.494362
1427150058.808,14.668022
1427150058.824,16.204224
1427150058.839,18.29316
1427150058.855,20.965958
1427150058.871,24.126595
1427150058.886,27.496437
1427150058.902,30.640495
1427150058.917,32.92077
1427150058.933,33.66696
1427150058.949,32.37677
1427150058.964,28.99405
1427150058.98,23.982506
1427150058.996,18.266586
1427150059.011,12.875328
1427150059.027,8.584114
1427150059.042,5.6623154
1427150059.058,3.9195251
1427150059.074,2.857666
1427150059.089,1.924675
1427150059.105,0.73184204
1427150059.121,-0.8985367
1427150059.136,-2.9474869
1427150059.152,-5.2740784
1427150059.167,-7.644577
1427150059.183,-9.805038
1427150059.199,-11.524757
1427150059.214,-12.66246
1427150059.23,-13.256989
1427150059.246,-13.443748
1427150059.261,-13.466766
1427150059.277,-13.536827
1427150059.292,-13.76963
1427150059.308,-14.157608
1427150059.324,-14.639282
1427150059.339,-15.10685
1427150059.355,-15.480202
1427150059.371,-15.676361
1427150059.386,-15.630112
1427150059.402,-15.262558
1427150059.417,-14.531319
1427150059.433,-13.472427
1427150059.449,-12.243576
1427150059.464,-11.096611
1427150059.48,-10.296265
1427150059.496,-9.966858
1427150059.511,-10.056068
1427150059.527,-10.3007965
1427150059.542,-10.432259
1427150059.558,-10.2571335
1427150059.574,-9.78772
1427150059.589,-9.1862335
1427150059.605,-8.642876
1427150059.621,-8.209602
1427150059.636,-7.7866898
1427150059.652,-7.180954
1427150059.667,-6.2497406
1427150059.683,-4.9778137
1427150059.699,-3.512886
1427150059.714,-2.036232
1427150059.73,-0.6928253
1427150059.746,0.4900818
1427150059.761,1.5662308
1427150059.777,2.6149597
1427150059.792,3.6974487
1427150059.808,4.862137
1427150059.824,6.1044235
1427150059.839,7.4204483
1427150059.855,8.751717
1427150059.871,10.0473175
1427150059.886,11.246765
1427150059.902,12.362801
1427150059.917,13.477608
1427150059.933,14.770813
1427150059.949,16.434372
1427150059.964,18.632515
1427150059.98,21.39531
1427150059.996,24.560959
1427150060.011,27.729202
1427150060.027,30.29486
1427150060.042,31.560318
1427150060.058,30.973396
1427150060.074,28.354385
1427150060.089,24.03228
1427150060.105,18.761337
1427150060.121,13.505508
1427150060.136,9.090141
1427150060.152,5.9365234
1427150060.168,3.9745178
1427150060.183,2.8010178
1427150060.199,1.8811951
1427150060.214,0.810997
1427150060.23,-0.5843048
1427150060.246,-2.244339
1427150060.261,-3.9812088
1427150060.277,-5.579033
1427150060.292,-6.915619
1427150060.308,-7.9432983
1427150060.324,-8.712044
1427150060.339,-9.298889
1427150060.355,-9.787033
1427150060.371,-10.225853
1427150060.386,-10.656616
1427150060.402,-11.105827
1427150060.418,-11.616364
1427150060.433,-12.221542
1427150060.449,-12.942276
1427150060.464,-13.737289
1427150060.48,-14.50399
1427150060.496,-15.090118
1427150060.511,-15.3534775
1427150060.527,-15.184395
1427150060.543,-14.567261
1427150060.558,-13.56282
1427150060.574,-12.319649
1427150060.589,-11.019516
1427150060.605,-9.87014
1427150060.621,-9.011963
1427150060.636,-8.485924
1427150060.652,-8.199982
1427150060.668,-7.9631195
1427150060.683,-7.560318
1427150060.699,-6.8632813
1427150060.714,-5.860283
1427150060.73,-4.6752777
1427150060.746,-3.4595718
1427150060.761,-2.3118744
1427150060.777,-1.2266922
1427150060.793,-0.1210022
1427150060.808,1.1030884
1427150060.824,2.4353333
1427150060.839,3.77565
1427150060.855,4.9646683
1427150060.871,5.903015
1427150060.886,6.598198
1427150060.902,7.22316
1427150060.918,7.9726563
1427150060.933,9.052933
1427150060.949,10.580139
1427150060.964,12.588936
1427150060.98,15.072968
1427150060.996,17.971588
1427150061.011,21.128525
1427150061.027,24.247833
1427150061.043,26.849808
1427150061.058,28.35456
1427150061.074,28.242851
1427150061.089,26.256874
1427150061.105,22.536758
1427150061.121,17.646729
1427150061.136,12.366425
1427150061.152,7.4893417
1427150061.168,3.5406036
1427150061.183,0.7125702
1427150061.199,-1.1590805
1427150061.214,-2.407524
1427150061.23,-3.3998947
1427150061.246,-4.3846283
1427150061.261,-5.4677353
1427150061.277,-6.6220474
1427150061.293,-7.7734222
1427150061.308,-8.799324
1427150061.324,-9.625458
1427150061.339,-10.216766
1427150061.355,-10.59697
1427150061.371,-10.815216
1427150061.386,-10.960922
1427150061.402,-11.107109
1427150061.418,-11.318413
1427150061.433,-11.655586
1427150061.449,-12.167839
1427150061.464,-12.864143
1427150061.48,-13.687119
1427150061.496,-14.459915
1427150061.511,-14.956764
1427150061.527,-14.952087
1427150061.543,-14.3673935
1427150061.558,-13.311966
1427150061.574,-12.069046
1427150061.589,-10.980858
1427150061.605,-10.302025
1427150061.621,-10.095055
1427150061.636,-10.231415
1427150061.652,-10.454353
1427150061.668,-10.4743805
1427150061.683,-10.047554
1427150061.699,-9.056297
1427150061.714,-7.520111
1427150061.73,-5.6280975
1427150061.746,-3.6742096
1427150061.761,-1.9680328
1427150061.777,-0.6817169
1427150061.793,0.21368408
1427150061.808,0.96556854
1427150061.824,1.8918457
1427150061.839,3.2383652
1427150061.855,5.008713
1427150061.871,7.0171432
1427150061.886,8.987732
1427150061.902,10.732468
1427150061.918,12.226585
1427150061.933,13.632225
1427150061.949,15.172775
1427150061.964,17.087639
1427150061.98,19.512146
1427150061.996,22.499863
1427150062.011,25.937218
1427150062.027,29.528046
1427150062.043,32.757553
1427150062.058,34.978012
1427150062.074,35.559616
1427150062.089,34.12452
1427150062.105,30.723083
1427150062.121,25.850372
1427150062.136,20.295921
1427150062.152,14.871735
1427150062.168,10.174179
1427150062.183,6.4589157
1427150062.199,3.6764984
1427150062.214,1.5873566
1427150062.23,-0.12662506
1427150062.246,-1.7395477
1427150062.261,-3.476204
1427150062.277,-5.4625854
1427150062.293,-7.692421
1427150062.308,-10.015701
1427150062.324,-12.194847
1427150062.339,-13.961708
1427150062.355,-15.13633
1427150062.371,-15.734261
1427150062.386,-15.95034
1427150062.402,-16.087166
1427150062.418,-16.404396
1427150062.433,-17.007782
1427150062.449,-17.828491
1427150062.464,-18.671844
1427150062.48,-19.357872
1427150062.496,-19.762825
1427150062.511,-19.874222
1427150062.527,-19.726097
1427150062.543,-19.361855
1427150062.558,-18.807808
1427150062.574,-18.10051
1427150062.589,-17.326027
1427150062.605,-16.601646
1427150062.621,-16.07309
1427150062.636,-15.79763
1427150062.652,-15.716019
1427150062.668,-15.653656
1427150062.683,-15.413162
1427150062.699,-14.859589
1427150062.714,-14.011864
1427150062.73,-13.015289
1427150062.746,-12.051842
1427150062.761,-11.235657
1427150062.777,-10.553642
1427150062.793,-9.855949
1427150062.808,-8.915344
1427150062.824,-7.541191
1427150062.84,-5.6867065
1427150062.855,-3.4644928
1427150062.871,-1.144844
1427150062.886,0.97306824
1427150062.902,2.686264
1427150062.918,4.008026
1427150062.933,5.1222916
1427150062.949,6.3136215
1427150062.964,7.798416
1427150062.98,9.619476
1427150062.996,11.655212
1427150063.011,13.698364
1427150063.027,15.571541
1427150063.043,17.215553
1427150063.058,18.694572
1427150063.074,20.171677
1427150063.09,21.852089
1427150063.105,23.9656
1427150063.121,26.663239
1427150063.136,29.947426
1427150063.152,33.520844
1427150063.168,36.79483
1427150063.183,39.004196
1427150063.199,39.452324
1427150063.215,37.766655
1427150063.23,34.10856
1427150063.246,29.104889
1427150063.261,23.644714
1427150063.277,18.541992
1427150063.293,14.27713
1427150063.308,10.9197235
1427150063.324,8.243843
1427150063.34,5.8795013
1427150063.355,3.5451202
1427150063.371,1.0964508
1427150063.386,-1.4583206
1427150063.402,-4.048851
1427150063.418,-6.565567
1427150063.433,-8.901001
1427150063.449,-10.949036
1427150063.465,-12.63559
1427150063.48,-13.916458
1427150063.496,-14.841866
1427150063.511,-15.508148
1427150063.527,-16.07145
1427150063.543,-16.66684
1427150063.558,-17.374367
1427150063.574,-18.210686
1427150063.59,-19.16246
1427150063.605,-20.179588
1427150063.621,-21.195564
1427150063.636,-22.081291
1427150063.652,-22.679665
1427150063.668,-22.847221
1427150063.683,-22.55436
1427150063.699,-21.87616
1427150063.715,-21.017609
1427150063.73,-20.157997
1427150063.746,-19.384064
1427150063.761,-18.657219
1427150063.777,-17.872086
1427150063.793,-16.965546
1427150063.808,-15.942734
1427150063.824,-14.862572
1427150063.84,-13.779434
1427150063.855,-12.717117
1427150063.871,-11.699959
1427150063.886,-10.755417
1427150063.902,-9.950264
1427150063.918,-9.299675
1427150063.933,-8.698303
1427150063.949,-7.9133453
1427150063.965,-6.7015
1427150063.98,-4.9344025
1427150063.996,-2.739174
1427150064.011,-0.4455719
1427150064.027,1.5631485
1427150064.043,3.069046
1427150064.058,4.0887985
1427150064.074,4.868477
1427150064.09,5.6849823
1427150064.105,6.727211
1427150064.121,8.028809
1427150064.136,9.50959
1427150064.152,11.051231
1427150064.168,12.581947
1427150064.183,14.053711
1427150064.199,15.460114
1427150064.215,16.807602
1427150064.23,18.154854
1427150064.246,19.60965
1427150064.261,21.346443
1427150064.277,23.518661
1427150064.293,26.163704
1427150064.308,29.12828
1427150064.324,31.998291
1427150064.34,34.184616
1427150064.355,35.03779
1427150064.371,34.06736
1427150064.386,31.136757
1427150064.402,26.534164
1427150064.418,20.95604
1427150064.433,15.244141
1427150064.449,10.158066
1427150064.465,6.114731
1427150064.48,3.1487885
1427150064.496,0.98015594
1427150064.511,-0.76605225
1427150064.527,-2.411415
1427150064.543,-4.1129456
1427150064.558,-5.8974686
1427150064.574,-7.700775
1427150064.59,-9.458908
1427150064.605,-11.11039
1427150064.621,-12.618752
1427150064.636,-13.945747
1427150064.652,-15.046455
1427150064.668,-15.879242
1427150064.683,-16.399628
1427150064.699,-16.600014
1427150064.715,-16.536583
1427150064.73,-16.317635
1427150064.746,-16.10373
1427150064.761,-16.030602
1427150064.777,-16.152985
1427150064.793,-16.39138
1427150064.808,-16.576447
1427150064.824,-16.547508
1427150064.84,-16.230316
1427150064.855,-15.670593
1427150064.871,-14.975632
1427150064.886,-14.237473
1427150064.902,-13.472656
1427150064.918,-12.621315
1427150064.933,-11.645973
1427150064.949,-10.583687
1427150064.965,-9.578262
1427150064.98,-8.817947
1427150064.996,-8.429939
1427150065.011,-8.396378
1427150065.027,-8.515739
1427150065.043,-8.489235
1427150065.058,-8.042931
1427150065.074,-7.085434
1427150065.09,-5.7506943
1427150065.105,-4.344452
1427150065.121,-3.1649323
1427150065.136,-2.3407288
1427150065.152,-1.7444382
1427150065.168,-1.0802689
1427150065.183,-0.05290222
1427150065.199,1.4605789
1427150065.215,3.3411407
1427150065.23,5.3189163
1427150065.246,7.115814
1427150065.261,8.608429
1427150065.277,9.839485
1427150065.293,10.955048
1427150065.308,12.13755
1427150065.324,13.510735
1427150065.34,15.183701
1427150065.355,17.278496
1427150065.371,19.910011
1427150065.386,23.051651
1427150065.402,26.440117
1427150065.418,29.48816
1427150065.433,31.425385
1427150065.449,31.528465
1427150065.465,29.42994
1427150065.48,25.306519
1427150065.496,19.879524
1427150065.511,14.1471405
1427150065.527,9.053558
1427150065.543,5.1576614
1427150065.558,2.5080566
1427150065.574,0.74768066
1427150065.59,-0.6335678
1427150065.605,-2.029457
1427150065.621,-3.5788727
1427150065.636,-5.2128983
1427150065.652,-6.773033
1427150065.668,-8.170204
1427150065.683,-9.379166
1427150065.699,-10.436241
1427150065.715,-11.351418
1427150065.73,-12.103241
1427150065.746,-12.66391
1427150065.762,-13.056725
1427150065.777,-13.346939
1427150065.793,-13.629318
1427150065.808,-13.933426
1427150065.824,-14.25573
1427150065.84,-14.579933
1427150065.855,-14.913902
1427150065.871,-15.285767
1427150065.887,-15.697853
1427150065.902,-16.067131
1427150065.918,-16.2537
1427150065.933,-16.125626
1427150065.949,-15.674339
1427150065.965,-15.029297
1427150065.98,-14.374893
1427150065.996,-13.815796
1427150066.012,-13.288811
1427150066.027,-12.582726
1427150066.043,-11.505653
1427150066.058,-10.014023
1427150066.074,-8.268959
1427150066.09,-6.571312
1427150066.105,-5.1780167
1427150066.121,-4.1683197
1427150066.137,-3.4207
1427150066.152,-2.6683273
1427150066.168,-1.6660614
1427150066.183,-0.26815033
1427150066.199,1.504776
1427150066.215,3.5170288
1427150066.23,5.572693
1427150066.246,7.4980087
1427150066.262,9.193726
1427150066.277,10.68248
1427150066.293,12.050537
1427150066.308,13.448837
1427150066.324,15.003044
1427150066.34,16.809738
1427150066.355,18.916664
1427150066.371,21.37606
1427150066.387,24.156754
1427150066.402,27.086555
1427150066.418,29.73655
1427150066.433,31.460014
1427150066.449,31.563232
1427150066.465,29.599815
1427150066.48,25.616768
1427150066.496,20.21569
1427150066.512,14.360466
1427150066.527,9.039101
1427150066.543,4.8799667
1427150066.558,2.019188
1427150066.574,0.13148499
1427150066.59,-1.2769089
1427150066.605,-2.6445084
1427150066.621,-4.1932373
1427150066.637,-5.9174194
1427150066.652,-7.6717606
1427150066.668,-9.294083
1427150066.683,-10.659691
1427150066.699,-11.719666
1427150066.715,-12.484398
1427150066.73,-13.017357
1427150066.746,-13.379082
1427150066.762,-13.638275
1427150066.777,-13.82502
1427150066.793,-13.994911
1427150066.808,-14.206078
1427150066.824,-14.528519
1427150066.84,-14.995308
1427150066.855,-15.572571
1427150066.871,-16.129295
1427150066.887,-16.502045
1427150066.902,-16.536064
1427150066.918,-16.190872
1427150066.933,-15.541336
1427150066.949,-14.760437
1427150066.965,-14.012962
1427150066.98,-13.380272
1427150066.996,-12.846939
1427150067.012,-12.336914
1427150067.027,-11.765205
1427150067.043,-11.093803
1427150067.058,-10.329147
1427150067.074,-9.537094
1427150067.09,-8.756935
1427150067.105,-8.038834
1427150067.121,-7.394554
1427150067.137,-6.8271065
1427150067.152,-6.3010864
1427150067.168,-5.764717
1427150067.183,-5.1210976
1427150067.199,-4.284321
1427150067.215,-3.2043152
1427150067.23,-1.9063339
1427150067.246,-0.517704
1427150067.262,0.7785759
1427150067.277,1.816227
1427150067.293,2.530487
1427150067.308,3.0418663
1427150067.324,3.5918999
1427150067.34,4.469616
1427150067.355,5.834938
1427150067.371,7.684559
1427150067.387,9.783855
1427150067.402,11.838299
1427150067.418,13.579292
1427150067.433,14.928871
1427150067.449,15.977612
1427150067.465,16.999584
1427150067.48,18.324883
1427150067.496,20.259773
1427150067.512,22.961369
1427150067.527,26.308846
1427150067.543,29.853264
1427150067.558,32.858776
1427150067.574,34.48126
1427150067.59,34.068398
1427150067.605,31.406757
1427150067.621,26.846836
1427150067.637,21.183556
1427150067.652,15.3948555
1427150067.668,10.298977
1427150067.683,6.369282
1427150067.699,3.6612473
1427150067.715,1.9355278
1427150067.73,0.79732513
1427150067.746,-0.14664459
1427150067.762,-1.2094383
1427150067.777,-2.583416
1427150067.793,-4.3120575
1427150067.808,-6.2883453
1427150067.824,-8.2787895
1427150067.84,-10.011574
1427150067.855,-11.271709
1427150067.871,-11.9503975
1427150067.887,-12.116056
1427150067.902,-11.944679
1427150067.918,-11.699102
1427150067.933,-11.605892
1427150067.949,-11.821922
1427150067.965,-12.375074
1427150067.98,-13.169592
1427150067.996,-14.026266
1427150068.012,-14.736065
1427150068.027,-15.140064
1427150068.043,-15.182644
1427150068.058,-14.888035
1427150068.074,-14.362249
1427150068.09,-13.736242
1427150068.105,-13.143089
1427150068.121,-12.674984
1427150068.137,-12.374254
1427150068.152,-12.213551
1427150068.168,-12.115494
1427150068.183,-11.95397
1427150068.199,-11.624422
1427150068.215,-11.051945
1427150068.23,-10.243122
1427150068.246,-9.261278
1427150068.262,-8.236727
1427150068.277,-7.304476
1427150068.293,-6.554945
1427150068.308,-5.9940815
1427150068.324,-5.513933
1427150068.34,-4.931843
1427150068.355,-4.0535526
1427150068.371,-2.7806892
1427150068.387,-1.1864891
1427150068.402,0.5189533
1427150068.418,2.0801134
1427150068.434,3.345066
1427150068.449,4.3333406
1427150068.465,5.225093
1427150068.48,6.241453
1427150068.496,7.5135627
1427150068.512,8.989862
1427150068.527,10.48242
1427150068.543,11.749075
1427150068.559,12.654203
1427150068.574,13.218212
1427150068.59,13.62473
1427150068.605,14.127077
1427150068.621,14.977118
1427150068.637,16.356977
1427150068.652,18.352196
1427150068.668,20.951584
1427150068.684,24.02022
1427150068.699,27.211956
1427150068.715,29.987074
1427150068.73,31.659023
1427150068.746,31.610441
1427150068.762,29.508352
1427150068.777,25.50248
1427150068.793,20.23543
1427150068.809,14.666077
1427150068.824,9.70845
1427150068.84,5.9492598
1427150068.855,3.4705322
1427150068.871,1.9598856
1427150068.887,0.90420246
1427150068.902,-0.14444256
1427150068.918,-1.4484701
1427150068.934,-3.0667062
1427150068.949,-4.9216323
1427150068.965,-6.88472
1427150068.98,-8.808334
1427150068.996,-10.508392
1427150069.012,-11.791495
1427150069.027,-12.505741
1427150069.043,-12.62734
1427150069.059,-12.262882
1427150069.074,-11.68672
1427150069.09,-11.213026
1427150069.105,-11.111082
1427150069.121,-11.488327
1427150069.137,-12.275099
1427150069.152,-13.253126
1427150069.168,-14.166372
1427150069.184,-14.780417
1427150069.199,-14.964573
1427150069.215,-14.724217
1427150069.23,-14.1623955
1427150069.246,-13.42964
1427150069.262,-12.676273
1427150069.277,-12.021553
1427150069.293,-11.507652
1427150069.309,-11.112375
1427150069.324,-10.775189
1427150069.34,-10.395785
1427150069.355,-9.9125185
1427150069.371,-9.283456
1427150069.387,-8.548179
1427150069.402,-7.765935
1427150069.418,-7.0133934
1427150069.434,-6.306512
1427150069.449,-5.6135426
1427150069.465,-4.8502064
1427150069.48,-3.9260902
1427150069.496,-2.8345528
1427150069.512,-1.6383533
1427150069.527,-0.4537449
1427150069.543,0.6024399
1427150069.559,1.5107193
1427150069.574,2.3423405
1427150069.59,3.2249374
1427150069.605,4.2541656
1427150069.621,5.4663715
1427150069.637,6.791828
1427150069.652,8.11739
1427150069.668,9.317543
1427150069.684,10.310715
1427150069.699,11.099852
1427150069.715,11.765713
1427150069.73,12.460354
1427150069.746,13.41724
1427150069.762,14.869448
1427150069.777,16.974773
1427150069.793,19.696978
1427150069.809,22.760218
1427150069.824,25.613424
1427150069.84,27.609463
1427150069.855,28.137897
1427150069.871,26.871626
1427150069.887,23.867516
1427150069.902,19.580809
1427150069.918,14.717697
1427150069.934,10.05653
1427150069.949,6.1937847
1427150069.965,3.409481
1427150069.98,1.647255
1427150069.996,0.5895424
1427150070.012,-0.17624855
1427150070.027,-0.98197365
1427150070.043,-2.0053673
1427150070.059,-3.2514172
1427150070.074,-4.6201363
1427150070.09,-5.9856606
1427150070.105,-7.2576675
1427150070.121,-8.34519
1427150070.137,-9.193537
1427150070.152,-9.72385
1427150070.168,-9.911501
1427150070.184,-9.786781
1427150070.199,-9.482367
1427150070.215,-9.17942
1427150070.23,-9.067711
1427150070.246,-9.26326
1427150070.262,-9.785547
1427150070.277,-10.536507
1427150070.293,-11.361174
1427150070.309,-12.05805
1427150070.324,-12.4596195
1427150070.34,-12.454443
1427150070.355,-12.031122
1427150070.371,-11.254791
1427150070.387,-10.2756405
1427150070.402,-9.229773
1427150070.418,-8.223892
1427150070.434,-7.2763557
1427150070.449,-6.3567314
1427150070.465,-5.4061317
1427150070.48,-4.3988914
1427150070.496,-3.321682
1427150070.512,-2.2092361
1427150070.527,-1.1073608
1427150070.543,-0.0544281
1427150070.559,0.92451096
1427150070.574,1.8396072
1427150070.59,2.7458878
1427150070.605,3.6987991
1427150070.621,4.727642
1427150070.637,5.781292
1427150070.652,6.7694054
1427150070.668,7.570385
1427150070.684,8.12743
1427150070.699,8.490715
1427150070.715,8.831997
1427150070.73,9.380444
1427150070.746,10.399384
1427150070.762,12.065701
1427150070.777,14.473171
1427150070.793,17.551079
1427150070.809,21.017818
1427150070.824,24.364372
1427150070.84,26.928009
1427150070.855,28.060837
1427150070.871,27.389088
1427150070.887,24.962234
1427150070.902,21.259941
1427150070.918,17.005775
1427150070.934,12.901943
1427150070.949,9.357212
1427150070.965,6.4744606
1427150070.98,4.1219482
1427150070.996,2.129322
1427150071.012,0.37961578
1427150071.027,-1.171814
1427150071.043,-2.5617752
1427150071.059,-3.8426933
1427150071.074,-5.109108
1427150071.09,-6.4120865
1427150071.106,-7.7102146
1427150071.121,-8.852118
1427150071.137,-9.699736
1427150071.152,-10.176933
1427150071.168,-10.355465
1427150071.184,-10.423033
1427150071.199,-10.610987
1427150071.215,-11.055695
1427150071.231,-11.768461
1427150071.246,-12.614426
1427150071.262,-13.422892
1427150071.277,-14.059662
1427150071.293,-14.489662
1427150071.309,-14.74567
1427150071.324,-14.887947
1427150071.34,-14.90173
1427150071.356,-14.73485
1427150071.371,-14.323402
1427150071.387,-13.677595
1427150071.402,-12.899284
1427150071.418,-12.142897
1427150071.434,-11.469585
1427150071.449,-10.852034
1427150071.465,-10.125839
1427150071.481,-9.132559
1427150071.496,-7.7962284
1427150071.512,-6.180668
1427150071.527,-4.420698
1427150071.543,-2.6927452
1427150071.559,-1.117487
1427150071.574,0.23925972
1427150071.59,1.3634663
1427150071.606,2.2523384
1427150071.621,2.9484806
1427150071.637,3.504387
1427150071.652,4.0328655
1427150071.668,4.647976
1427150071.684,5.440588
1427150071.699,6.4304543
1427150071.715,7.5810146
1427150071.731,8.807005
1427150071.746,10.012091
1427150071.762,11.141083
1427150071.777,12.217094
1427150071.793,13.3861885
1427150071.809,14.9342785
1427150071.824,17.153534
1427150071.84,20.1911
1427150071.856,23.831146
1427150071.871,27.489714
1427150071.887,30.32022
1427150071.902,31.522139
1427150071.918,30.642168
1427150071.934,27.766136
1427150071.949,23.43959
1427150071.965,18.462267
1427150071.981,13.613781
1427150071.996,9.443354
1427150072.012,6.195837
1427150072.027,3.849554
1427150072.043,2.1896305
1427150072.059,0.92588806
1427150072.074,-0.24710846
1427150072.09,-1.5596733
1427150072.106,-3.116417
1427150072.121,-4.8517647
1427150072.137,-6.6281433
1427150072.152,-8.268005
1427150072.168,-9.658756
1427150072.184,-10.745604
1427150072.199,-11.5508
1427150072.215,-12.108904
1427150072.231,-12.489384
1427150072.246,-12.792822
1427150072.262,-13.131201
1427150072.277,-13.62292
1427150072.293,-14.328746
1427150072.309,-15.216297
1427150072.324,-16.152418
1427150072.34,-16.94873
1427150072.356,-17.447287
1427150072.371,-17.528568
1427150072.387,-17.177101
1427150072.402,-16.46017
1427150072.418,-15.539527
1427150072.434,-14.584058
1427150072.449,-13.753661
1427150072.465,-13.112814
1427150072.481,-12.631195
1427150072.496,-12.21083
1427150072.512,-11.736969
1427150072.527,-11.157808
1427150072.543,-10.504621
1427150072.559,-9.850745
1427150072.574,-9.260554
1427150072.59,-8.746337
1427150072.606,-8.268061
1427150072.621,-7.741433
1427150072.637,-7.0840273
1427150072.652,-6.2130013
1427150072.668,-5.1161203
1427150072.684,-3.8093023
1427150072.699,-2.3837109
1427150072.715,-0.9686794
1427150072.731,0.28273487
1427150072.746,1.2845144
1427150072.762,2.048233
1427150072.777,2.6994438
1427150072.793,3.4380398
1427150072.809,4.4369774
1427150072.824,5.7701683
1427150072.84,7.3854294
1427150072.856,9.085432
1427150072.871,10.634172
1427150072.887,11.8308525
1427150072.902,12.610186
1427150072.918,13.088287
1427150072.934,13.578966
1427150072.949,14.49659
1427150072.965,16.237053
1427150072.981,18.956713
1427150072.996,22.475166
1427150073.012,26.181023
1427150073.027,29.19585
1427150073.043,30.634348
1427150073.059,29.924467
1427150073.074,27.026743
1427150073.09,22.485304
1427150073.106,17.214596
1427150073.121,12.187307
1427150073.137,8.107365
1427150073.152,5.2322245
1427150073.168,3.385641
1427150073.184,2.1727266
1427150073.199,1.1711369
1427150073.215,0.11549187
1427150073.231,-1.1268768
1427150073.246,-2.5934954
1427150073.262,-4.2914724
1427150073.277,-6.2111397
1427150073.293,-8.250462
1427150073.309,-10.197307
1427150073.324,-11.798397
1427150073.34,-12.830179
1427150073.356,-13.274344
1427150073.371,-13.294997
1427150073.387,-13.21622
1427150073.402,-13.324906
1427150073.418,-13.757807
1427150073.434,-14.447432
1427150073.449,-15.213471
1427150073.465,-15.851141
1427150073.481,-16.249994
1427150073.496,-16.375256
1427150073.512,-16.240623
1427150073.527,-15.86431
1427150073.543,-15.283817
1427150073.559,-14.5729065
1427150073.574,-13.855006
1427150073.59,-13.26083
1427150073.606,-12.876894
1427150073.621,-12.672675
1427150073.637,-12.51011
1427150073.652,-12.207593
1427150073.668,-11.637776
1427150073.684,-10.746943
1427150073.699,-9.616755
1427150073.715,-8.387857
1427150073.731,-7.217531
1427150073.746,-6.215575
1427150073.762,-5.415538
1427150073.778,-4.773383
1427150073.793,-4.190837
1427150073.809,-3.5656872
1427150073.824,-2.847021
1427150073.84,-2.0531216
1427150073.856,-1.2765732
1427150073.871,-0.5532055
1427150073.887,0.12100029
1427150073.902,0.8481369
1427150073.918,1.7411842
1427150073.934,2.866518
1427150073.949,4.14921
1427150073.965,5.427458
1427150073.981,6.5071907
1427150073.996,7.2844315
1427150074.012,7.805399
1427150074.028,8.249073
1427150074.043,8.821226
1427150074.059,9.694849
1427150074.074,10.963161
1427150074.09,12.657209
1427150074.106,14.775772
1427150074.121,17.288422
1427150074.137,20.045006
1427150074.153,22.712145
1427150074.168,24.721722
1427150074.184,25.44179
1427150074.199,24.387619
1427150074.215,21.488188
1427150074.231,17.182789
1427150074.246,12.33309
1427150074.262,7.874323
1427150074.278,4.489683
1427150074.293,2.3704948
1427150074.309,1.261486
1427150074.324,0.6573334
1427150074.34,0.093860626
1427150074.356,-0.69874
1427150074.371,-1.7532749
1427150074.387,-2.9821854
1427150074.403,-4.2759876
1427150074.418,-5.5788403
1427150074.434,-6.844925
1427150074.449,-8.019873
1427150074.465,-9.00769
1427150074.481,-9.7278805
1427150074.496,-10.141201
1427150074.512,-10.285612
1427150074.528,-10.236887
1427150074.543,-10.113298
1427150074.559,-10.038582
1427150074.574,-10.138662
1427150074.59,-10.494778
1427150074.606,-11.114412
1427150074.621,-11.862167
1427150074.637,-12.484987
1427150074.653,-12.704487
1427150074.668,-12.347675
1427150074.684,-11.44421
1427150074.699,-10.215576
1427150074.715,-8.965088
1427150074.731,-7.93758
1427150074.746,-7.203556
1427150074.762,-6.666168
1427150074.778,-6.135803
1427150074.793,-5.4916573
1427150074.809,-4.679657
1427150074.824,-3.7607307
1427150074.84,-2.8125992
1427150074.856,-1.9104385
1427150074.871,-1.0773697
1427150074.887,-0.31591415
1427150074.903,0.3854103
1427150074.918,1.0239334
1427150074.934,1.610878
1427150074.949,2.1659203
1427150074.965,2.7520256
1427150074.981,3.4282684
1427150074.996,4.2634544
1427150075.012,5.2661095
1427150075.028,6.3978157
1427150075.043,7.5586853
1427150075.059,8.669674
1427150075.074,9.702908
1427150075.09,10.7684555
1427150075.106,12.063995
1427150075.121,13.803921
1427150075.137,16.082771
1427150075.153,18.749256
1427150075.168,21.373688
1427150075.184,23.361595
1427150075.199,24.121803
1427150075.215,23.287128
1427150075.231,20.846989
1427150075.246,17.152767
1427150075.262,12.808033
1427150075.278,8.502396
1427150075.293,4.7758255
1427150075.309,1.935566
1427150075.324,-0.0043029785
1427150075.34,-1.2356453
1427150075.356,-2.0819817
1427150075.371,-2.8251648
1427150075.387,-3.6552238
1427150075.403,-4.618141
1427150075.418,-5.6534195
1427150075.434,-6.609516
1427150075.449,-7.3841705
1427150075.465,-7.9276657
1427150075.481,-8.280392
1427150075.496,-8.552841
1427150075.512,-8.862785
1427150075.528,-9.282398
1427150075.543,-9.808464
1427150075.559,-10.350449
1427150075.574,-10.800152
1427150075.59,-11.06628
1427150075.606,-11.140224
1427150075.621,-11.081402
1427150075.637,-10.968609
1427150075.653,-10.817951
1427150075.668,-10.59021
1427150075.684,-10.197624
1427150075.699,-9.585743
1427150075.715,-8.7856865
1427150075.731,-7.9215317
1427150075.746,-7.1266136
1427150075.762,-6.4732513
1427150075.778,-5.9167137
1427150075.793,-5.3531
1427150075.809,-4.633396
1427150075.824,-3.6979828
1427150075.84,-2.5687714
1427150075.856,-1.3491554
1427150075.871,-0.15919113
1427150075.887,0.937767
1427150075.903,1.9419937
1427150075.918,2.9095802
1427150075.934,3.9397316
1427150075.949,5.0898056
1427150075.965,6.362732
1427150075.981,7.678982
1427150075.996,8.944283
1427150076.012,10.122429
1427150076.028,11.284782
1427150076.043,12.614571
1427150076.059,14.315243
1427150076.074,16.496372
1427150076.09,19.04208
1427150076.106,21.574173
1427150076.121,23.560295
1427150076.137,24.445423
1427150076.153,23.875927
1427150076.168,21.811974
1427150076.184,18.564137
1427150076.199,14.70034
1427150076.215,10.873623
1427150076.231,7.6209564
1427150076.246,5.2122917
1427150076.262,3.5917702
1427150076.278,2.465248
1427150076.293,1.4104042
1427150076.309,0.13209534
1427150076.324,-1.507927
1427150076.34,-3.4224358
1427150076.356,-5.4246597
1427150076.371,-7.2914276
1427150076.387,-8.853409
1427150076.403,-9.998985
1427150076.418,-10.678116
1427150076.434,-10.919388
1427150076.449,-10.832924
1427150076.465,-10.611046
1427150076.481,-10.474285
1427150076.496,-10.586952
1427150076.512,-10.996063
1427150076.528,-11.621204
1427150076.543,-12.308083
1427150076.559,-12.89975
1427150076.574,-13.2973175
1427150076.59,-13.452984
1427150076.606,-13.364334
1427150076.621,-13.028664
1427150076.637,-12.475021
1427150076.653,-11.751865
1427150076.668,-10.987003
1427150076.684,-10.294018
1427150076.7,-9.770191
1427150076.715,-9.410824
1427150076.731,-9.115326
1427150076.746,-8.739655
1427150076.762,-8.140598
1427150076.778,-7.267906
1427150076.793,-6.18565
1427150076.809,-5.0162582
1427150076.825,-3.9254417
1427150076.84,-3.0076904
1427150076.856,-2.3037148
1427150076.871,-1.7627258
1427150076.887,-1.3093414
1427150076.903,-0.85466003
1427150076.918,-0.3300972
1427150076.934,0.31366348
1427150076.95,1.1195374
1427150076.965,2.143921
1427150076.981,3.408577
1427150076.996,4.884186
1427150077.012,6.466858
1427150077.028,7.9811363
1427150077.043,9.269588
1427150077.059,10.269535
1427150077.075,11.060276
1427150077.09,11.846386
1427150077.106,12.875916
1427150077.121,14.400135
1427150077.137,16.537601
1427150077.153,19.263382
1427150077.168,22.326908
1427150077.184,25.268787
1427150077.2,27.477333
1427150077.215,28.347084
1427150077.231,27.485516
1427150077.246,24.931076
1427150077.262,21.156494
1427150077.278,16.943638
1427150077.293,13.100208
1427150077.309,10.182819
1427150077.325,8.29948
1427150077.34,7.190895
1427150077.356,6.377121
1427150077.371,5.4184723
1427150077.387,4.0516357
1427150077.403,2.2439651
1427150077.418,0.11317825
1427150077.434,-2.136303
1427150077.45,-4.3214684
1427150077.465,-6.305828
1427150077.481,-8.008842
1427150077.496,-9.3785515
1427150077.512,-10.398369
1427150077.528,-11.069847
1427150077.543,-11.443382
1427150077.559,-11.624519
1427150077.575,-11.777248
1427150077.59,-12.048801
1427150077.606,-12.552589
1427150077.621,-13.261372
1427150077.637,-14.035748
1427150077.653,-14.657005
1427150077.668,-14.935272
1427150077.684,-14.776123
1427150077.7,-14.217209
1427150077.715,-13.395325
1427150077.731,-12.523079
1427150077.746,-11.786949
1427150077.762,-11.317242
1427150077.778,-11.135513
1427150077.793,-11.146656
1427150077.809,-11.128056
1427150077.825,-10.855495
1427150077.84,-10.165047
1427150077.856,-9.090633
1427150077.871,-7.797657
1427150077.887,-6.560482
1427150077.903,-5.5852966
1427150077.918,-4.9465523
1427150077.934,-4.5502434
1427150077.95,-4.224636
1427150077.965,-3.8142738
1427150077.981,-3.2523575
1427150077.996,-2.507145
1427150078.012,-1.6035881
1427150078.028,-0.54782104
1427150078.043,0.6408386
1427150078.059,1.9414978
1427150078.075,3.292698
1427150078.09,4.6410675
1427150078.106,5.9317627
1427150078.121,7.155163
1427150078.137,8.311722
1427150078.153,9.394783
1427150078.168,10.364754
1427150078.184,11.233002
1427150078.2,12.0394745
1427150078.215,12.938484
1427150078.231,14.114189
1427150078.246,15.751034
1427150078.262,17.917194
1427150078.278,20.506104
1427150078.293,23.189564
1427150078.309,25.439178
1427150078.325,26.633053
1427150078.34,26.259724
1427150078.356,24.09077
1427150078.371,20.358082
1427150078.387,15.701477
1427150078.403,10.968578
1427150078.418,6.909359
1427150078.434,3.9489288
1427150078.45,2.0786781
1427150078.465,1.0075073
1427150078.481,0.3090515
1427150078.496,-0.3480606
1427150078.512,-1.1398239
1427150078.528,-2.0965462
1427150078.543,-3.2023582
1427150078.559,-4.399517
1427150078.575,-5.6389847
1427150078.59,-6.844696
1427150078.606,-7.927067
1427150078.621,-8.783764
1427150078.637,-9.356518
1427150078.653,-9.659866
1427150078.668,-9.789791
1427150078.684,-9.891415
1427150078.7,-10.138472
1427150078.715,-10.6346035
1427150078.731,-11.3891735
1427150078.746,-12.247908
1427150078.762,-12.984285
1427150078.778,-13.377691
1427150078.793,-13.323189
1427150078.809,-12.882652
1427150078.825,-12.25013
1427150078.84,-11.609512
1427150078.856,-11.065712
1427150078.871,-10.607231
1427150078.887,-10.151964
1427150078.903,-9.635784
1427150078.918,-9.067921
1427150078.934,-8.493103
1427150078.95,-7.970112
1427150078.965,-7.4857883
1427150078.981,-7.0091667
1427150078.996,-6.4888573
1427150079.012,-5.9127197
1427150079.028,-5.3206234
1427150079.043,-4.802374
1427150079.059,-4.4461384
1427150079.075,-4.2787724
1427150079.09,-4.2475204
1427150079.106,-4.1942005
1427150079.121,-3.8708324
1427150079.137,-3.0723572
1427150079.153,-1.7079468
1427150079.168,0.10668564
1427150079.184,2.1024895
1427150079.2,3.9423046
1427150079.215,5.388233
1427150079.231,6.368059
1427150079.246,6.9979115
1427150079.262,7.4857063
1427150079.278,8.041761
1427150079.293,8.831022
1427150079.309,10.01288
1427150079.325,11.716293
1427150079.34,14.011072
1427150079.356,16.762331
1427150079.372,19.538202
1427150079.387,21.660135
1427150079.403,22.41679
1427150079.418,21.351507
1427150079.434,18.550043
1427150079.45,14.5926075
1427150079.465,10.367739
1427150079.481,6.7043953
1427150079.497,4.0940266
1427150079.512,2.5694447
1427150079.528,1.8110371
1427150079.543,1.359396
1427150079.559,0.8121071
1427150079.575,-0.05969429
1427150079.59,-1.306593
1427150079.606,-2.8684464
1427150079.622,-4.589262
1427150079.637,-6.2680683
1427150079.653,-7.6887455
1427150079.668,-8.698622
1427150079.684,-9.224495
1427150079.7,-9.348389
1427150079.715,-9.259882
1427150079.731,-9.186419
1427150079.747,-9.3070965
1427150079.762,-9.691311
1427150079.778,-10.278824
1427150079.793,-10.952972
1427150079.809,-11.586668
1427150079.825,-12.074757
1427150079.84,-12.343178
1427150079.856,-12.3342285
1427150079.872,-11.997301
1427150079.887,-11.351166
1427150079.903,-10.490461
1427150079.918,-9.610743
1427150079.934,-8.884445
1427150079.95,-8.419001
1427150079.965,-8.135246
1427150079.981,-7.865658
1427150079.997,-7.4153957
1427150080.012,-6.699791
1427150080.028,-5.7768326
1427150080.043,-4.814766
1427150080.059,-3.9685268
1427150080.075,-3.3046246
1427150080.09,-2.773777
1427150080.106,-2.263504
1427150080.122,-1.6791496
1427150080.137,-0.9865074
1427150080.153,-0.18588638
1427150080.168,0.67458916
1427150080.184,1.5643959
1427150080.2,2.4688988
1427150080.215,3.4068832
1427150080.231,4.410446
1427150080.247,5.603077
1427150080.262,7.124527
1427150080.278,9.118744
1427150080.293,11.616968
1427150080.309,14.462416
1427150080.325,17.277977
1427150080.34,19.534609
1427150080.356,20.69604
1427150080.372,20.41218
1427150080.387,18.657967
1427150080.403,15.771807
1427150080.418,12.331175
1427150080.434,8.981438
1427150080.45,6.1720085
1427150080.465,4.0578175
1427150080.481,2.4826794
1427150080.497,1.1565704
1427150080.512,-0.18154144
1427150080.528,-1.5964394
1427150080.543,-2.9908829
1427150080.559,-4.2032356
1427150080.575,-5.1474876
1427150080.59,-5.866169
1427150080.606,-6.517166
1427150080.622,-7.2291565
1427150080.637,-8.041492
1427150080.653,-8.856094
1427150080.668,-9.528248
1427150080.684,-9.913139
1427150080.7,-9.959385
1427150080.715,-9.69165
1427150080.731,-9.244709
1427150080.747,-8.775913
1427150080.762,-8.453243
1427150080.778,-8.37989
1427150080.793,-8.563065
1427150080.809,-8.888706
1427150080.825,-9.176708
1427150080.84,-9.266846
1427150080.856,-9.093685
1427150080.872,-8.731514
1427150080.887,-8.317833
1427150080.903,-7.947853
1427150080.918,-7.612068
1427150080.934,-7.2018776
1427150080.95,-6.5917625
1427150080.965,-5.7231026
1427150080.981,-4.6710815
1427150080.997,-3.5515747
1427150081.012,-2.4923859
1427150081.028,-1.5456505
1427150081.043,-0.72475815
1427150081.059,-0.010574341
1427150081.075,0.615654
1427150081.09,1.1698723
1427150081.106,1.6829262
1427150081.122,2.2114487
1427150081.137,2.7962418
1427150081.153,3.447075
1427150081.168,4.122875
1427150081.184,4.8044662
1427150081.2,5.499981
1427150081.215,6.3118668
1427150081.231,7.3821983
1427150081.247,8.856899
1427150081.262,10.815285
1427150081.278,13.247276
1427150081.293,15.996635
1427150081.309,18.743797
1427150081.325,21.027683
1427150081.34,22.311062
1427150081.356,22.167213
1427150081.372,20.456787
1427150081.387,17.429878
1427150081.403,13.706261
1427150081.418,10.047344
1427150081.434,7.0808983
1427150081.45,5.0882072
1427150081.465,3.9602623
1427150081.481,3.2957
1427150081.497,2.6565971
1427150081.512,1.740036
1427150081.528,0.4785385
1427150081.543,-1.0205116
1427150081.559,-2.5503044
1427150081.575,-3.9538345
1427150081.59,-5.1613274
1427150081.606,-6.1980896
1427150081.622,-7.107403
1427150081.637,-7.9086723
1427150081.653,-8.566578
1427150081.668,-9.042213
1427150081.684,-9.305668
1427150081.7,-9.417957
1427150081.715,-9.485596
1427150081.731,-9.64064
1427150081.747,-9.936104
1427150081.762,-10.34145
1427150081.778,-10.745731
1427150081.793,-11.006649
1427150081.809,-11.042984
1427150081.825,-10.852047
1427150081.84,-10.506649
1427150081.856,-10.112167
1427150081.872,-9.734772
1427150081.887,-9.394489
1427150081.903,-9.037724
1427150081.918,-8.609104
1427150081.934,-8.065746
1427150081.95,-7.422123
1427150081.965,-6.7242203
1427150081.981,-6.0325394
1427150081.997,-5.3758926
1427150082.012,-4.730999
1427150082.028,-4.0540695
1427150082.044,-3.3301392
1427150082.059,-2.5681992
1427150082.075,-1.8257446
1427150082.09,-1.1568565
1427150082.106,-0.5906639
1427150082.122,-0.09327698
1427150082.137,0.37644958
1427150082.153,0.85736465
1427150082.169,1.3580322
1427150082.184,1.8859634
1427150082.2,2.4590645
1427150082.215,3.136734
1427150082.231,3.9562836
1427150082.247,4.945526
1427150082.262,6.0693665
1427150082.278,7.2407
1427150082.294,8.352211
1427150082.309,9.321999
1427150082.325,10.108391
1427150082.34,10.727509
1427150082.356,11.257759
1427150082.372,11.838196
1427150082.387,12.666733
1427150082.403,13.9683075
1427150082.419,15.873665
1427150082.434,18.333496
1427150082.45,21.001305
1427150082.465,23.26715
1427150082.481,24.418762
1427150082.497,23.934036
1427150082.512,21.6818
1427150082.528,18.05088
1427150082.544,13.810921
1427150082.559,9.83419
1427150082.575,6.776306
1427150082.59,4.8529434
1427150082.606,3.8364258
1427150082.622,3.249199
1427150082.637,2.6127243
1427150082.653,1.6612854
1427150082.669,0.381073
1427150082.684,-1.0554428
1427150082.7,-2.4588242
1427150082.715,-3.6899948
1427150082.731,-4.739464
1427150082.747,-5.642189
1427150082.762,-6.433075
1427150082.778,-7.095665
1427150082.794,-7.5928345
1427150082.809,-7.902252
1427150082.825,-8.07711
1427150082.84,-8.213776
1427150082.856,-8.470139
1427150082.872,-8.942024
1427150082.887,-9.643288
1427150082.903,-10.445717
1427150082.919,-11.141014
1427150082.934,-11.497208
1427150082.95,-11.380554
1427150082.965,-10.805092
1427150082.981,-9.967514
1427150082.997,-9.108513
1427150083.012,-8.447304
1427150083.028,-8.069767
1427150083.044,-7.931576
1427150083.059,-7.8843727
1427150083.075,-7.7716713
1427150083.09,-7.481537
1427150083.106,-6.9927216
1427150083.122,-6.368046
1427150083.137,-5.740093
1427150083.153,-5.228264
1427150083.169,-4.9019814
1427150083.184,-4.7347565
1427150083.2,-4.62072
1427150083.215,-4.3886642
1427150083.231,-3.9112244
1427150083.247,-3.1596985
1427150083.262,-2.2301025
1427150083.278,-1.300827
1427150083.294,-0.55135345
1427150083.309,-0.066467285
1427150083.325,0.17171478
1427150083.34,0.30416107
1427150083.356,0.47003937
1427150083.372,0.80280304
1427150083.387,1.3838043
1427150083.403,2.241829
1427150083.419,3.347847
1427150083.434,4.639267
1427150083.45,6.013504
1427150083.465,7.359047
1427150083.481,8.581741
1427150083.497,9.670013
1427150083.512,10.666237
1427150083.528,11.698677
1427150083.544,12.9142
1427150083.559,14.457092
1427150083.575,16.389267
1427150083.59,18.649338
1427150083.606,20.989601
1427150083.622,23.002708
1427150083.637,24.173485
1427150083.653,24.067299
1427150083.669,22.48925
1427150083.684,19.615807
1427150083.7,15.945099
1427150083.715,12.146698
1427150083.731,8.825073
1427150083.747,6.297867
1427150083.762,4.5549355
1427150083.778,3.3531914
1427150083.794,2.3771973
1427150083.809,1.3904572
1427150083.825,0.27735138
1427150083.84,-0.93711853
1427150083.856,-2.1888924
1427150083.872,-3.3853188
1427150083.887,-4.4528427
1427150083.903,-5.308731
1427150083.919,-5.9320755
1427150083.934,-6.327793
1427150083.95,-6.5749626
1427150083.965,-6.792885
1427150083.981,-7.087368
1427150083.997,-7.4763107
1427150084.012,-7.9234085
1427150084.028,-8.3330765
1427150084.044,-8.640671
1427150084.059,-8.831234
1427150084.075,-8.935665
1427150084.09,-8.973228
1427150084.106,-8.927471
1427150084.122,-8.756248
1427150084.137,-8.429573
1427150084.153,-7.980793
1427150084.169,-7.52507
1427150084.184,-7.174782
1427150084.2,-6.9874077
1427150084.215,-6.90921
1427150084.231,-6.797287
1427150084.247,-6.476406
1427150084.262,-5.859665
1427150084.278,-4.977337
1427150084.294,-3.9918556
1427150084.309,-3.107174
1427150084.325,-2.485443
1427150084.34,-2.1695595
1427150084.356,-2.0725594
1427150084.372,-1.985611
1427150084.387,-1.7067909
1427150084.403,-1.1063843
1427150084.419,-0.18938065
1427150084.434,0.9291992
1427150084.45,2.0926323
1427150084.465,3.210228
1427150084.481,4.26622
1427150084.497,5.3427467
1427150084.512,6.5331306
1427150084.528,7.9244614
1427150084.544,9.54084
1427150084.559,11.392105
1427150084.575,13.429718
1427150084.59,15.522133
1427150084.606,17.392319
1427150084.622,18.636608
1427150084.637,18.837402
1427150084.653,17.760803
1427150084.669,15.48151
1427150084.684,12.424564
1427150084.7,9.200169
1427150084.716,6.3863487
1427150084.731,4.2791023
1427150084.747,2.8711777
1427150084.762,1.9108963
1427150084.778,1.0998878
1427150084.794,0.22739029
1427150084.809,-0.7628479
1427150084.825,-1.8144875
1427150084.84,-2.818201
1427150084.856,-3.7135258
1427150084.872,-4.4777794
1427150084.887,-5.127945
1427150084.903,-5.6677933
1427150084.919,-6.08457
1427150084.934,-6.361805
1427150084.95,-6.52227
1427150084.966,-6.62368
1427150084.981,-6.7601547
1427150084.997,-7.010113
1427150085.012,-7.398529
1427150085.028,-7.872122
1427150085.044,-8.361898
1427150085.059,-8.7945
1427150085.075,-9.145708
1427150085.091,-9.420471
1427150085.106,-9.643452
1427150085.122,-9.798046
1427150085.137,-9.861361
1427150085.153,-9.793053
1427150085.169,-9.581858
1427150085.184,-9.2433605
1427150085.2,-8.794052
1427150085.216,-8.20915
1427150085.231,-7.4542446
1427150085.247,-6.488653
1427150085.262,-5.3225193
1427150085.278,-4.0203047
1427150085.294,-2.6766386
1427150085.309,-1.3553886
1427150085.325,-0.063158035
1427150085.341,1.2474518
1427150085.356,2.621687
1427150085.372,4.0549145
1427150085.387,5.499137
1427150085.403,6.8904667
1427150085.419,8.202486
1427150085.434,9.505416
1427150085.45,10.9244995
1427150085.466,12.639707
1427150085.481,14.764735
1427150085.497,17.303127
1427150085.512,20.041882
1427150085.528,22.585125
1427150085.544,24.391077
1427150085.559,24.948967
1427150085.575,23.964125
1427150085.591,21.488214
1427150085.606,17.90239
1427150085.622,13.805696
1427150085.637,9.788857
1427150085.653,6.258473
1427150085.669,3.3725636
1427150085.684,1.0966961
1427150085.7,-0.7267667
1427150085.716,-2.2528105
1427150085.731,-3.6224115
1427150085.747,-4.937128
1427150085.762,-6.2512255
1427150085.778,-7.5493956
1427150085.794,-8.739424
1427150085.809,-9.666151
1427150085.825,-10.209117
1427150085.841,-10.339047
1427150085.856,-10.182749
1427150085.872,-9.96917
1427150085.887,-9.952547
1427150085.903,-10.2963505
1427150085.919,-11.047128
1427150085.934,-12.095153
1427150085.95,-13.246278
1427150085.966,-14.27946
1427150085.981,-15.009417
1427150085.997,-15.322776
1427150086.012,-15.193449
1427150086.028,-14.681253
1427150086.044,-13.896374
1427150086.059,-12.961773
1427150086.075,-12.02286
1427150086.091,-11.199789
1427150086.106,-10.613674
1427150086.122,-10.312672
1427150086.137,-10.234823
1427150086.153,-10.185612
1427150086.169,-9.895145
1427150086.184,-9.132101
1427150086.2,-7.8152924
1427150086.216,-6.1108494
1427150086.231,-4.367859
1427150086.247,-2.9476051
1427150086.262,-2.042616
1427150086.278,-1.5706749
1427150086.294,-1.2361794
1427150086.309,-0.67198944
1427150086.325,0.35017204
1427150086.341,1.8303165
1427150086.356,3.5662708
1427150086.372,5.297947
1427150086.387,6.8512897
1427150086.403,8.261814
1427150086.419,9.73403
1427150086.434,11.5488205
1427150086.45,13.956856
1427150086.466,17.053127
1427150086.481,20.722622
1427150086.497,24.623745
1427150086.512,28.251608
1427150086.528,31.012163
1427150086.544,32.341965
1427150086.559,31.874266
1427150086.575,29.555481
1427150086.591,25.703592
1427150086.606,20.924711
1427150086.622,15.960094
1427150086.637,11.456715
1427150086.653,7.8188972
1427150086.669,5.135311
1427150086.684,3.2488976
1427150086.7,1.8812294
1427150086.716,0.7482605
1427150086.731,-0.3859558
1427150086.747,-1.6824837
1427150086.762,-3.2491531
1427150086.778,-5.121563
1427150086.794,-7.235153
1427150086.809,-9.408268
1427150086.825,-11.407875
1427150086.841,-13.005863
1427150086.856,-14.092434
1427150086.872,-14.694164
1427150086.887,-14.9683
1427150086.903,-15.122604
1427150086.919,-15.334404
1427150086.934,-15.709431
1427150086.95,-16.253498
1427150086.966,-16.88182
1427150086.981,-17.479801
1427150086.997,-17.922913
1427150087.012,-18.132702
1427150087.028,-18.074791
1427150087.044,-17.784592
1427150087.059,-17.330807
1427150087.075,-16.798405
1427150087.091,-16.245472
1427150087.106,-15.71468
1427150087.122,-15.214127
1427150087.137,-14.7379265
1427150087.153,-14.252659
1427150087.169,-13.737251
1427150087.184,-13.169086
1427150087.2,-12.55508
1427150087.216,-11.88789
1427150087.231,-11.141064
1427150087.247,-10.256653
1427150087.262,-9.166248
1427150087.278,-7.8302193
1427150087.294,-6.2821236
1427150087.309,-4.624527
1427150087.325,-2.9782715
1427150087.341,-1.4210091
1427150087.356,0.032814026
1427150087.372,1.4471779
1427150087.387,2.877903
1427150087.403,4.3683395
1427150087.419,5.9003944
1427150087.434,7.437649
1427150087.45,8.922878
1427150087.466,10.317535
1427150087.481,11.592503
1427150087.497,12.744091
1427150087.512,13.807587
1427150087.528,14.899513
1427150087.544,16.216854
1427150087.559,18.011337
1427150087.575,20.458244
1427150087.591,23.551743
1427150087.606,26.998428
1427150087.622,30.25425
1427150087.638,32.638275
1427150087.653,33.534317
1427150087.669,32.597847
1427150087.684,29.867863
1427150087.7,25.762314
1427150087.716,20.949642
1427150087.731,16.132069
1427150087.747,11.872929
1427150087.763,8.443146
1427150087.778,5.833351
1427150087.794,3.8057747
1427150087.809,2.0615768
1427150087.825,0.34171677
1427150087.841,-1.4963646
1427150087.856,-3.4626503
1427150087.872,-5.484268
1427150087.888,-7.423073
1427150087.903,-9.158386
1427150087.919,-10.602524
1427150087.934,-11.709595
1427150087.95,-12.494606
1427150087.966,-13.00592
1427150087.981,-13.347862
1427150087.997,-13.627647
1427150088.013,-13.969322
1427150088.028,-14.453209
1427150088.044,-15.13562
1427150088.059,-15.97937
1427150088.075,-16.906212
1427150088.091,-17.775612
1427150088.106,-18.451942
1427150088.122,-18.828766
1427150088.138,-18.861053
1427150088.153,-18.585556
1427150088.169,-18.100449
1427150088.184,-17.519447
1427150088.2,-16.928055
1427150088.216,-16.335678
1427150088.231,-15.708839
1427150088.247,-14.989067
1427150088.263,-14.144737
1427150088.278,-13.18959
1427150088.294,-12.203987
1427150088.309,-11.27552
1427150088.325,-10.4984665
1427150088.341,-9.902374
1427150088.356,-9.444611
1427150088.372,-8.984856
1427150088.388,-8.331726
1427150088.403,-7.3215866
1427150088.419,-5.9128723
1427150088.434,-4.204178
1427150088.45,-2.4354858
1427150088.466,-0.8473816
1427150088.481,0.40693665
1427150088.497,1.3639755
1427150088.513,2.2133026
1427150088.528,3.2043533
1427150088.544,4.5193787
1427150088.559,6.189781
1427150088.575,8.1020355
1427150088.591,10.057167
1427150088.606,11.879051
1427150088.622,13.460747
1427150088.638,14.807953
1427150088.653,16.072533
1427150088.669,17.49199
1427150088.684,19.355225
1427150088.7,21.824287
1427150088.716,24.859123
1427150088.731,28.119934
1427150088.747,31.016838
1427150088.763,32.87259
1427150088.778,33.13617
1427150088.794,31.548355
1427150088.809,28.22918
1427150088.825,23.637138
1427150088.841,18.435867
1427150088.856,13.311623
1427150088.872,8.821526
1427150088.888,5.255554
1427150088.903,2.6478348
1427150088.919,0.8020859
1427150088.934,-0.5720291
1427150088.95,-1.769165
1427150088.966,-2.967598
1427150088.981,-4.2598343
1427150088.997,-5.629692
1427150089.013,-7.029381
1427150089.028,-8.403206
1427150089.044,-9.701637
1427150089.059,-10.871056
1427150089.075,-11.891739
1427150089.091,-12.787575
1427150089.106,-13.651871
1427150089.122,-14.589172
1427150089.138,-15.681267
1427150089.153,-16.892944
1427150089.169,-18.106827
1427150089.184,-19.128326
1427150089.2,-19.792908
1427150089.216,-20.000961
1427150089.231,-19.72335
1427150089.247,-18.977692
1427150089.263,-17.837563
1427150089.278,-16.399605
1427150089.294,-14.821632
1427150089.309,-13.277603
1427150089.325,-11.922745
1427150089.341,-10.808723
1427150089.356,-9.863144
1427150089.372,-8.920845
1427150089.388,-7.8216553
1427150089.403,-6.4900513
1427150089.419,-5.0090485
1427150089.434,-3.537674
1427150089.45,-2.2611923
1427150089.466,-1.2557983
1427150089.481,-0.47457886
1427150089.497,0.25509644
1427150089.513,1.1287079
1427150089.528,2.304634
1427150089.544,3.8332214
1427150089.559,5.6555023
1427150089.575,7.6005096
1427150089.591,9.468567
1427150089.606,11.090912
1427150089.622,12.4253845
1427150089.638,13.546982
1427150089.653,14.67038
1427150089.669,16.054977
1427150089.684,17.96128
1427150089.7,20.517937
1427150089.716,23.658142
1427150089.731,27.019424
1427150089.747,30.001167
1427150089.763,31.879189
1427150089.778,32.021225
1427150089.794,30.097878
1427150089.809,26.262634
1427150089.825,21.040451
1427150089.841,15.229317
1427150089.856,9.601433
1427150089.872,4.7066727
1427150089.888,0.7745514
1427150089.903,-2.211853
1427150089.919,-4.438179
1427150089.934,-6.1045074
1427150089.95,-7.4018784
1427150089.966,-8.46563
1427150089.981,-9.399658
1427150089.997,-10.258148
1427150090.013,-11.067444
1427150090.028,-11.81649
1427150090.044,-12.515846
1427150090.059,-13.182945
1427150090.075,-13.839394
1427150090.091,-14.480827
1427150090.106,-15.098503
1427150090.122,-15.650124
1427150090.138,-16.115448
1427150090.153,-16.504341
1427150090.169,-16.85305
1427150090.184,-17.175095
1427150090.2,-17.45546
1427150090.216,-17.59938
1427150090.231,-17.52768
1427150090.247,-17.154968
1427150090.263,-16.47496
1427150090.278,-15.568077
1427150090.294,-14.549866
1427150090.31,-13.5097885
1427150090.325,-12.464188
1427150090.341,-11.341667
1427150090.356,-10.034012
1427150090.372,-8.465012
1427150090.388,-6.6735535
1427150090.403,-4.802231
1427150090.419,-3.0512085
1427150090.435,-1.5571594
1427150090.45,-0.33652496
1427150090.466,0.7546234
1427150090.481,1.9275055
1427150090.497,3.3868027
1427150090.513,5.1795654
1427150090.528,7.1909256
1427150090.544,9.188614
1427150090.56,10.941467
1427150090.575,12.305412
1427150090.591,13.340073
1427150090.606,14.267105
1427150090.622,15.423195
1427150090.638,17.187439
1427150090.653,19.831802
1427150090.669,23.41883
1427150090.685,27.72873
1427150090.7,32.213425
1427150090.716,36.108856
1427150090.731,38.55123
1427150090.747,38.874405
1427150090.763,36.781914
1427150090.778,32.488625
1427150090.794,26.662697
1427150090.81,20.24881
1427150090.825,14.19632
1427150090.841,9.212273
1427150090.856,5.577591
1427150090.872,3.158928
1427150090.888,1.5055084
1427150090.903,0.064086914
1427150090.919,-1.6234589
1427150090.935,-3.7580109
1427150090.95,-6.2944565
1427150090.966,-8.982315
1427150090.981,-11.537621
1427150090.997,-13.706207
1427150091.013,-15.359123
1427150091.028,-16.476646
1427150091.044,-17.13826
1427150091.06,-17.48172
1427150091.075,-17.698837
1427150091.091,-17.962875
1427150091.106,-18.43708
1427150091.122,-19.183594
1427150091.138,-20.157646
1427150091.153,-21.208511
1427150091.169,-22.134964
1427150091.185,-22.759193
1427150091.2,-22.971474
1427150091.216,-22.771355
1427150091.231,-22.26271
1427150091.247,-21.577797
1427150091.263,-20.812286
1427150091.278,-19.982918
1427150091.294,-19.038826
1427150091.31,-17.907219
1427150091.325,-16.581375
1427150091.341,-15.126274
1427150091.356,-13.676926
1427150091.372,-12.328667
1427150091.388,-11.10762
1427150091.403,-9.905304
1427150091.419,-8.591255
1427150091.435,-7.0647964
1427150091.45,-5.368469
1427150091.466,-3.6393814
1427150091.481,-2.043457
1427150091.497,-0.65478516
1427150091.513,0.58493805
1427150091.528,1.8435516
1427150091.544,3.3016663
1427150091.56,5.0913925
1427150091.575,7.2142563
1427150091.591,9.569946
1427150091.606,11.969521
1427150091.622,14.235924
1427150091.638,16.235916
1427150091.653,17.974922
1427150091.669,19.567558
1427150091.685,21.254921
1427150091.7,23.321564
1427150091.716,26.037872
1427150091.731,29.50544
1427150091.747,33.57383
1427150091.763,37.751114
1427150091.778,41.250763
1427150091.794,43.15513
1427150091.81,42.70759
1427150091.825,39.60476
1427150091.841,34.15097
1427150091.856,27.217705
1427150091.872,19.937523
1427150091.888,13.322571
1427150091.903,7.976097
1427150091.919,3.960289
1427150091.935,0.96990204
1427150091.95,-1.4369278
1427150091.966,-3.5844727
1427150091.981,-5.6408157
1427150091.997,-7.6045227
1427150092.013,-9.456108
1427150092.028,-11.19799
1427150092.044,-12.851761
1427150092.06,-14.423836
1427150092.075,-15.890572
1427150092.091,-17.195587
1427150092.106,-18.315422
1427150092.122,-19.263031
1427150092.138,-20.063972
1427150092.153,-20.740013
1427150092.169,-21.305435
1427150092.185,-21.771393
1427150092.2,-22.159561
1427150092.216,-22.490799
1427150092.231,-22.755875
1427150092.247,-22.870575
1427150092.263,-22.738083
1427150092.278,-22.281372
1427150092.294,-21.52745
1427150092.31,-20.596497
1427150092.325,-19.651566
1427150092.341,-18.791763
1427150092.356,-18.01799
1427150092.372,-17.219406
1427150092.388,-16.280457
1427150092.403,-15.162216
1427150092.419,-13.946899
1427150092.435,-12.794418
1427150092.45,-11.870789
1427150092.466,-11.2066345
1427150092.481,-10.699661
1427150092.497,-10.129631
1427150092.513,-9.256897
1427150092.528,-7.945404
1427150092.544,-6.2191544
1427150092.56,-4.276863
1427150092.575,-2.3841705
1427150092.591,-0.7598877
1427150092.606,0.5124512
1427150092.622,1.5504913
1427150092.638,2.5860977
1427150092.653,3.8876572
1427150092.669,5.603531
1427150092.685,7.728279
1427150092.7,10.107605
1427150092.716,12.530533
1427150092.731,14.818779
1427150092.747,16.906029
1427150092.763,18.865593
1427150092.778,20.85492
1427150092.794,23.09536
1427150092.81,25.796455
1427150092.825,29.046455
1427150092.841,32.742134
1427150092.856,36.4591
1427150092.872,39.50641
1427150092.888,41.082558
1427150092.903,40.53533
1427150092.919,37.610115
1427150092.935,32.59794
1427150092.95,26.216904
1427150092.966,19.387405
1427150092.982,12.911049
1427150092.997,7.299629
1427150093.013,2.7136383
1427150093.028,-0.9125366
1427150093.044,-3.760994
1427150093.06,-6.0514145
1427150093.075,-7.975853
1427150093.091,-9.726341
1427150093.107,-11.453476
1427150093.122,-13.20739
1427150093.138,-14.930435
1427150093.153,-16.477142
1427150093.169,-17.705704
1427150093.185,-18.52594
1427150093.2,-18.97519
1427150093.216,-19.1594
1427150093.232,-19.232552
1427150093.247,-19.316452
1427150093.263,-19.47882
1427150093.278,-19.732147
1427150093.294,-20.050224
1427150093.31,-20.362251
1427150093.325,-20.577492
1427150093.341,-20.586403
1427150093.357,-20.301643
1427150093.372,-19.674469
1427150093.388,-18.7463
1427150093.403,-17.624718
1427150093.419,-16.457123
1427150093.435,-15.360825
1427150093.45,-14.367737
1427150093.466,-13.398087
1427150093.482,-12.303345
1427150093.497,-10.917976
1427150093.513,-9.175331
1427150093.528,-7.160202
1427150093.544,-5.1091843
1427150093.56,-3.3048859
1427150093.575,-1.9715042
1427150093.591,-1.1262589
1427150093.607,-0.57440186
1427150093.622,0.036712646
1427150093.638,1.0672836
1427150093.653,2.7299652
1427150093.669,4.9678802
1427150093.685,7.5085907
1427150093.7,9.9526825
1427150093.716,11.964844
1427150093.732,13.429764
1427150093.747,14.500381
1427150093.763,15.540382
1427150093.778,17.007858
1427150093.794,19.284546
1427150093.81,22.540451
1427150093.825,26.606873
1427150093.841,30.962456
1427150093.857,34.745132
1427150093.872,36.993004
1427150093.888,36.89099
1427150093.903,34.078598
1427150093.919,28.784706
1427150093.935,21.804543
1427150093.95,14.223038
1427150093.966,7.097046
1427150093.982,1.1425018
1427150093.997,-3.3725128
1427150094.013,-6.546295
1427150094.028,-8.680145
1427150094.044,-10.140793
1427150094.06,-11.256241
1427150094.075,-12.30513
1427150094.091,-13.466644
1427150094.107,-14.804436
1427150094.122,-16.225563
1427150094.138,-17.54116
1427150094.153,-18.529625
1427150094.169,-19.087875
1427150094.185,-19.242912
1427150094.2,-19.13192
1427150094.216,-18.940414
1427150094.232,-18.822502
1427150094.247,-18.873962
1427150094.263,-19.14029
1427150094.278,-19.627037
1427150094.294,-20.275131
1427150094.31,-20.940231
1427150094.325,-21.415749
1427150094.341,-21.453537
1427150094.357,-20.893799
1427150094.372,-19.708046
1427150094.388,-18.041885
1427150094.403,-16.115494
1427150094.419,-14.171173
1427150094.435,-12.377434
1427150094.45,-10.807838
1427150094.466,-9.431747
1427150094.482,-8.161797
1427150094.497,-6.873596
1427150094.513,-5.480728
1427150094.528,-3.9590683
1427150094.544,-2.3887863
1427150094.56,-0.8998108
1427150094.575,0.41801453
1427150094.591,1.5850601
1427150094.607,2.7207718
1427150094.622,4.0147476
1427150094.638,5.598831
1427150094.653,7.4689713
1427150094.669,9.475868
1427150094.685,11.4090805
1427150094.7,13.107063
1427150094.716,14.536133
1427150094.732,15.814507
1427150094.747,17.181168
1427150094.763,18.908203
1427150094.778,21.256721
1427150094.794,24.383415
1427150094.81,28.2706
1427150094.825,32.611565
1427150094.841,36.832176
1427150094.857,40.12023
1427150094.872,41.66295
1427150094.888,40.880905
1427150094.903,37.674675
1427150094.919,32.44689
1427150094.935,26.018913
1427150094.95,19.355469
1427150094.966,13.290947
1427150094.982,8.314293
1427150094.997,4.527359
1427150095.013,1.7263184
1427150095.028,-0.4431305
1427150095.044,-2.337883
1427150095.06,-4.2291183
1427150095.075,-6.2753296
1427150095.091,-8.520012
1427150095.107,-10.920464
1427150095.122,-13.346123
1427150095.138,-15.591202
1427150095.153,-17.42163
1427150095.169,-18.678856
1427150095.185,-19.329285
1427150095.2,-19.514656
1427150095.216,-19.490204
1427150095.232,-19.5551
1427150095.247,-19.902573
1427150095.263,-20.57177
1427150095.278,-21.44918
1427150095.294,-22.323036
1427150095.31,-22.970718
1427150095.325,-23.242287
1427150095.341,-23.045254
1427150095.357,-22.373821
1427150095.372,-21.277336
1427150095.388,-19.87236
1427150095.403,-18.314
1427150095.419,-16.79012
1427150095.435,-15.4347
1427150095.45,-14.28838
1427150095.466,-13.262386
1427150095.482,-12.198475
1427150095.497,-10.987194
1427150095.513,-9.610897
1427150095.528,-8.183052
1427150095.544,-6.89151
1427150095.56,-5.891918
1427150095.575,-5.212513
1427150095.591,-4.7332993
1427150095.607,-4.241226
1427150095.622,-3.5100288
1427150095.638,-2.42062
1427150095.654,-0.9885025
1427150095.669,0.6273308
1427150095.685,2.2151337
1427150095.7,3.565998
1427150095.716,4.603073
1427150095.732,5.3937798
1427150095.747,6.1430397
1427150095.763,7.102585
1427150095.778,8.433144
1427150095.794,10.125717
1427150095.81,11.987476
1427150095.825,13.745239
1427150095.841,15.163097
1427150095.857,16.200304
1427150095.872,17.00672
1427150095.888,17.895687
1427150095.904,19.188267
1427150095.919,21.128817
1427150095.935,23.822695
1427150095.95,27.226648
1427150095.966,31.13386
1427150095.982,35.150074
1427150095.997,38.65957
1427150096.013,40.872612
1427150096.029,41.021576
1427150096.044,38.65177
1427150096.06,33.853592
1427150096.075,27.338545
1427150096.091,20.207216
1427150096.107,13.575317
1427150096.122,8.188671
1427150096.138,4.276123
1427150096.154,1.5792007
1427150096.169,-0.3622818
1427150096.185,-1.9817982
1427150096.2,-3.5514936
1427150096.216,-5.1711445
1427150096.232,-6.8604317
1427150096.247,-8.622881
1427150096.263,-10.413185
1427150096.279,-12.117199
1427150096.294,-13.574589
1427150096.31,-14.632815
1427150096.325,-15.210187
1427150096.341,-15.394088
1427150096.357,-15.368079
1427150096.372,-15.383017
1427150096.388,-15.638749
1427150096.404,-16.242931
1427150096.419,-17.158909
1427150096.435,-18.25817
1427150096.45,-19.30938
1427150096.466,-20.05798
1427150096.482,-20.282177
1427150096.497,-19.884922
1427150096.513,-18.93152
1427150096.529,-17.683016
1427150096.544,-16.477135
1427150096.56,-15.626293
1427150096.575,-15.273677
1427150096.591,-15.341508
1427150096.607,-15.555588
1427150096.622,-15.573893
1427150096.638,-15.089899
1427150096.654,-13.951541
1427150096.669,-12.210594
1427150096.685,-10.094139
1427150096.7,-7.8943915
1427150096.716,-5.8907604
1427150096.732,-4.2206116
1427150096.747,-2.8938704
1427150096.763,-1.8136833
1427150096.779,-0.8631961
1427150096.794,0.023274481
1427150096.81,0.8377615
1427150096.825,1.5858979
1427150096.841,2.3115697
1427150096.857,3.162085
1427150096.872,4.3113914
1427150096.888,5.878596
1427150096.904,7.8046465
1427150096.919,9.883777
1427150096.935,11.8240185
1427150096.95,13.408797
1427150096.966,14.591269
1427150096.982,15.512042
1427150096.997,16.393368
1427150097.013,17.480816
1427150097.029,18.923138
1427150097.044,20.792253
1427150097.06,23.109875
1427150097.075,25.855927
1427150097.091,28.910921
1427150097.107,31.982014
1427150097.122,34.54502
1427150097.138,35.927605
1427150097.154,35.5047
1427150097.169,32.963257
1427150097.185,28.471308
1427150097.2,22.707613
1427150097.216,16.596367
1427150097.232,11.023569
1427150097.247,6.54583
1427150097.263,3.2751007
1427150097.279,0.97138405
1427150097.294,-0.7450161
1427150097.31,-2.2285175
1427150097.325,-3.6804867
1427150097.341,-5.1804447
1427150097.357,-6.710644
1427150097.372,-8.206285
1427150097.388,-9.548422
1427150097.404,-10.613897
1427150097.419,-11.279783
1427150097.435,-11.520159
1427150097.45,-11.429352
1427150097.466,-11.227211
1427150097.482,-11.153769
1427150097.497,-11.392473
1427150097.513,-11.962547
1427150097.529,-12.758951
1427150097.544,-13.577736
1427150097.56,-14.23348
1427150097.575,-14.601185
1427150097.591,-14.651358
1427150097.607,-14.4144745
1427150097.622,-13.963211
1427150097.638,-13.373337
1427150097.654,-12.733398
1427150097.669,-12.102045
1427150097.685,-11.553637
1427150097.7,-11.105465
1427150097.716,-10.741383
1427150097.732,-10.375164
1427150097.747,-9.879829
1427150097.763,-9.1197605
1427150097.779,-8.035349
1427150097.794,-6.6673985
1427150097.81,-5.1726875
1427150097.825,-3.7385826
1427150097.841,-2.5113125
1427150097.857,-1.484314
1427150097.872,-0.5228214
1427150097.888,0.5852356
1427150097.904,1.984375
1427150097.919,3.6875687
1427150097.935,5.539982
1427150097.95,7.3285503
1427150097.966,8.879042
1427150097.982,10.161276
1427150097.997,11.287376
1427150098.013,12.510017
1427150098.029,14.077347
1427150098.044,16.211588
1427150098.06,18.998774
1427150098.075,22.337925
1427150098.091,25.884682
1427150098.107,29.056448
1427150098.122,31.1123
1427150098.138,31.37556
1427150098.154,29.48059
1427150098.169,25.568508
1427150098.185,20.271805
1427150098.2,14.525782
1427150098.216,9.19779
1427150098.232,4.825926
1427150098.247,1.4992466
1427150098.263,-1.0011864
1427150098.279,-3.0109196
1427150098.294,-4.759121
1427150098.31,-6.329994
1427150098.326,-7.6762867
1427150098.341,-8.764273
1427150098.357,-9.59959
1427150098.372,-10.248125
1427150098.388,-10.773407
1427150098.404,-11.237516
1427150098.419,-11.670185
1427150098.435,-12.110973
1427150098.45,-12.593592
1427150098.466,-13.153666
1427150098.482,-13.771963
1427150098.497,-14.373762
1427150098.513,-14.818462
1427150098.529,-15.004488
1427150098.544,-14.879372
1427150098.56,-14.515198
1427150098.576,-14.040337
1427150098.591,-13.604351
1427150098.607,-13.290047
1427150098.622,-13.089512
1427150098.638,-12.907351
1427150098.654,-12.610325
1427150098.669,-12.115461
1427150098.685,-11.435652
1427150098.701,-10.6488285
1427150098.716,-9.873293
1427150098.732,-9.186296
1427150098.747,-8.590487
1427150098.763,-8.003309
1427150098.779,-7.3628807
1427150098.794,-6.6336784
1427150098.81,-5.8639603
1427150098.826,-5.134506
1427150098.841,-4.5168686
1427150098.857,-4.015724
1427150098.872,-3.5557861
1427150098.888,-2.9720345
1427150098.904,-2.0874596
1427150098.919,-0.7764206
1427150098.935,0.97148514
1427150098.951,3.0490723
1427150098.966,5.2740173
1427150098.982,7.436405
1427150098.997,9.384407
1427150099.013,11.067905
1427150099.029,12.514942
1427150099.044,13.847622
1427150099.06,15.199539
1427150099.076,16.7565
1427150099.091,18.679195
1427150099.107,21.116825
1427150099.122,24.127563
1427150099.138,27.63308
1427150099.154,31.31969
1427150099.169,34.64363
1427150099.185,36.894497
1427150099.201,37.395657
1427150099.216,35.70784
1427150099.232,31.820961
1427150099.247,26.195946
1427150099.263,19.704506
1427150099.279,13.331455
1427150099.294,7.913952
1427150099.31,3.8847275
1427150099.326,1.2133217
1427150099.341,-0.49773407
1427150099.357,-1.7870255
1427150099.372,-3.092865
1427150099.388,-4.622547
1427150099.404,-6.3466377
1427150099.419,-8.088593
1427150099.435,-9.666569
1427150099.451,-10.9590645
1427150099.466,-11.954689
1427150099.482,-12.70483
1427150099.497,-13.285984
1427150099.513,-13.755886
1427150099.529,-14.170452
1427150099.544,-14.572113
1427150099.56,-15.016258
1427150099.576,-15.53825
1427150099.591,-16.156174
1427150099.607,-16.81237
1427150099.622,-17.425991
1427150099.638,-17.860985
1427150099.654,-18.005238
1427150099.669,-17.794083
1427150099.685,-17.273933
1427150099.701,-16.560162
1427150099.716,-15.811199
1427150099.732,-15.151279
1427150099.747,-14.60424
1427150099.763,-14.103569
1427150099.779,-13.519012
1427150099.794,-12.740307
1427150099.81,-11.752041
1427150099.826,-10.623531
1427150099.841,-9.499489
1427150099.857,-8.513588
1427150099.872,-7.734638
1427150099.888,-7.1319427
1427150099.904,-6.603813
1427150099.919,-6.008236
1427150099.935,-5.22649
1427150099.951,-4.1854744
1427150099.966,-2.8954163
1427150099.982,-1.4291611
1427150099.997,0.094646454
1427150100.013,1.5554962
1427150100.029,2.8555222
1427150100.044,3.9609566
1427150100.06,4.9261208
1427150100.076,5.8604584
1427150100.091,6.8694763
1427150100.107,8.0387535
1427150100.122,9.361477
1427150100.138,10.754482
1427150100.154,12.078136
1427150100.169,13.222305
1427150100.185,14.145508
1427150100.201,14.934162
1427150100.216,15.755848
1427150100.232,16.830029
1427150100.247,18.34668
1427150100.263,20.435707
1427150100.279,23.111115
1427150100.294,26.230694
1427150100.31,29.438202
1427150100.326,32.14948
1427150100.341,33.651363
1427150100.357,33.325546
1427150100.372,30.88264
1427150100.388,26.564507
1427150100.404,21.079369
1427150100.419,15.381905
1427150100.435,10.29631
1427150100.451,6.2918587
1427150100.466,3.3780022
1427150100.482,1.2536926
1427150100.497,-0.4848671
1427150100.513,-2.1465836
1427150100.529,-3.891838
1427150100.544,-5.756695
1427150100.56,-7.704685
1427150100.576,-9.625927
1427150100.591,-11.379658
1427150100.607,-12.809105
1427150100.622,-13.829075
1427150100.638,-14.444893
1427150100.654,-14.774624
1427150100.669,-14.958252
1427150100.685,-15.069397
1427150100.701,-15.103287
1427150100.716,-15.046444
1427150100.732,-14.931309
1427150100.747,-14.879597
1427150100.763,-15.017754
1427150100.779,-15.387791
1427150100.794,-15.860546
1427150100.81,-16.194946
1427150100.826,-16.189957
1427150100.841,-15.8045845
1427150100.857,-15.172878
1427150100.872,-14.527344
1427150100.888,-14.025429
1427150100.904,-13.6367035
1427150100.919,-13.168472
1427150100.935,-12.425129
1427150100.951,-11.2986145
1427150100.966,-9.883015
1427150100.982,-8.404808
1427150100.997,-7.1138916
1427150101.013,-6.1450653
1427150101.029,-5.4765816
1427150101.044,-4.993389
1427150101.06,-4.5785866
1427150101.076,-4.177433
1427150101.091,-3.811077
1427150101.107,-3.5229263
1427150101.122,-3.3236122
1427150101.138,-3.1387405
1427150101.154,-2.867443
1427150101.169,-2.4146729
1427150101.185,-1.7545319
1427150101.201,-0.9124031
1427150101.216,0.0039711
1427150101.232,0.8937187
1427150101.248,1.6731567
1427150101.263,2.346489
1427150101.279,2.9762077
1427150101.294,3.7161942
1427150101.31,4.694969
1427150101.326,5.996353
1427150101.341,7.5771103
1427150101.357,9.280182
1427150101.373,10.894768
1427150101.388,12.238571
1427150101.404,13.249168
1427150101.419,14.013901
1427150101.435,14.686665
1427150101.451,15.458759
1427150101.466,16.499058
1427150101.482,17.956242
1427150101.498,19.927818
1427150101.513,22.433144
1427150101.529,25.247581
1427150101.544,27.875347
1427150101.56,29.557571
1427150101.576,29.550385
1427150101.591,27.42292
1427150101.607,23.286568
1427150101.623,17.81343
1427150101.638,11.984413
1427150101.654,6.728367
1427150101.669,2.6307106
1427150101.685,-0.19579315
1427150101.701,-1.9623528
1427150101.716,-3.0185547
1427150101.732,-3.6673393
1427150101.748,-4.1319656
1427150101.763,-4.5445213
1427150101.779,-5.0516777
1427150101.794,-5.751339
1427150101.81,-6.6785316
1427150101.826,-7.7363167
1427150101.841,-8.7641945
1427150101.857,-9.573528
1427150101.873,-10.095272
1427150101.888,-10.368927
1427150101.904,-10.553394
1427150101.919,-10.790291
1427150101.935,-11.184788
1427150101.951,-11.738976
1427150101.966,-12.395119
1427150101.982,-13.055096
1427150101.998,-13.632763
1427150102.013,-14.030209
1427150102.029,-14.157196
1427150102.044,-13.924751
1427150102.06,-13.330868
1427150102.076,-12.449528
1427150102.091,-11.457886
1427150102.107,-10.550575
1427150102.123,-9.873737
1427150102.138,-9.430614
1427150102.154,-9.110035
1427150102.169,-8.703518
1427150102.185,-8.046249
1427150102.201,-7.0838356
1427150102.216,-5.914421
1427150102.232,-4.716648
1427150102.248,-3.686184
1427150102.263,-2.8944702
1427150102.279,-2.2999802
1427150102.294,-1.7428246
1427150102.31,-1.0949249
1427150102.326,-0.2833519
1427150102.341,0.6476593
1427150102.357,1.6074829
1427150102.373,2.5202408
1427150102.388,3.3802528
1427150102.404,4.2448425
1427150102.419,5.1698
1427150102.435,6.1604004
1427150102.451,7.1871986
1427150102.466,8.186554
1427150102.482,9.171856
1427150102.498,10.219887
1427150102.513,11.49514
1427150102.529,13.167076
1427150102.544,15.357079
1427150102.56,18.065239
1427150102.576,21.108566
1427150102.591,24.120232
1427150102.607,26.548054
1427150102.623,27.7911
1427150102.638,27.418907
1427150102.654,25.305176
1427150102.669,21.747467
1427150102.685,17.372917
1427150102.701,12.939701
1427150102.716,9.046551
1427150102.732,5.9931717
1427150102.748,3.7078094
1427150102.763,1.8961487
1427150102.779,0.21695328
1427150102.794,-1.5266914
1427150102.81,-3.353115
1427150102.826,-5.093216
1427150102.841,-6.539627
1427150102.857,-7.567623
1427150102.873,-8.207993
1427150102.888,-8.664322
1427150102.904,-9.188988
1427150102.919,-9.957119
1427150102.935,-10.975021
1427150102.951,-12.079227
1427150102.966,-13.040882
1427150102.982,-13.672806
1427150102.998,-13.962631
1427150103.013,-14.002651
1427150103.029,-13.967442
1427150103.044,-13.97155
1427150103.06,-14.061493
1427150103.076,-14.181572
1427150103.091,-14.23785
1427150103.107,-14.1239395
1427150103.123,-13.772892
1427150103.138,-13.160282
1427150103.154,-12.323578
1427150103.169,-11.344471
1427150103.185,-10.343544
1427150103.201,-9.393772
1427150103.216,-8.534828
1427150103.232,-7.735615
1427150103.248,-6.9274063
1427150103.263,-6.0404625
1427150103.279,-5.067566
1427150103.294,-4.0289
1427150103.31,-2.9985504
1427150103.326,-2.0355606
1427150103.341,-1.1996613
1427150103.357,-0.5037422
1427150103.373,0.08055878
1427150103.388,0.6568756
1427150103.404,1.3492393
1427150103.419,2.2836456
1427150103.435,3.5318565
1427150103.451,5.05941
1427150103.466,6.716614
1427150103.482,8.32132
1427150103.498,9.710278
1427150103.513,10.82951
1427150103.529,11.723091
1427150103.544,12.558559
1427150103.56,13.552006
1427150103.576,14.952694
1427150103.591,16.968723
1427150103.607,19.69117
1427150103.623,22.958057
1427150103.638,26.316647
1427150103.654,29.038467
1427150103.669,30.339542
1427150103.685,29.664257
1427150103.701,26.936306
1427150103.716,22.625008
1427150103.732,17.588348
1427150103.748,12.731724
1427150103.763,8.719364
1427150103.779,5.762268
1427150103.794,3.7191696
1427150103.81,2.2400856
1427150103.826,1.0072021
1427150103.841,-0.16685104
1427150103.857,-1.3553276
1427150103.873,-2.6102486
1427150103.888,-3.9798965
1427150103.904,-5.5349693
1427150103.92,-7.261593
1427150103.935,-9.036587
1427150103.951,-10.59375
1427150103.966,-11.703026
1427150103.982,-12.254459
1427150103.998,-12.3642845
1427150104.013,-12.294529
1427150104.029,-12.360886
1427150104.045,-12.762661
1427150104.06,-13.518253
1427150104.076,-14.466312
1427150104.091,-15.398525
1427150104.107,-16.119816
1427150104.123,-16.550049
1427150104.138,-16.65458
1427150104.154,-16.461426
1427150104.17,-15.999123
1427150104.185,-15.332069
1427150104.201,-14.535175
1427150104.216,-13.730785
1427150104.232,-13.00161
1427150104.248,-12.371811
1427150104.263,-11.777618
1427150104.279,-11.112732
1427150104.295,-10.294407
1427150104.31,-9.327267
1427150104.326,-8.277073
1427150104.341,-7.2645416
1427150104.357,-6.371578
1427150104.373,-5.6379433
1427150104.388,-5.019264
1427150104.404,-4.437996
1427150104.42,-3.7818336
1427150104.435,-2.9684258
1427150104.451,-1.9383316
1427150104.466,-0.7168045
1427150104.482,0.60889435
1427150104.498,1.8860779
1427150104.513,2.9778748
1427150104.529,3.8244514
1427150104.545,4.5000076
1427150104.56,5.1679497
1427150104.576,6.0553055
1427150104.591,7.2747993
1427150104.607,8.797504
1427150104.623,10.413063
1427150104.638,11.872124
1427150104.654,13.002529
1427150104.67,13.842735
1427150104.685,14.61644
1427150104.701,15.667442
1427150104.716,17.28286
1427150104.732,19.578861
1427150104.748,22.454048
1427150104.763,25.636051
1427150104.779,28.715466
1427150104.795,31.24395
1427150104.81,32.758625
1427150104.826,32.851284
1427150104.841,31.258793
1427150104.857,27.999752
1427150104.873,23.438316
1427150104.888,18.284874
1427150104.904,13.381657
1427150104.92,9.434563
1427150104.935,6.7447243
1427150104.951,5.1587715
1427150104.966,4.1599045
1427150104.982,3.1854477
1427150104.998,1.8480186
1427150105.013,0.055782318
1427150105.029,-2.0366173
1427150105.045,-4.1915665
1427150105.06,-6.2489853
1427150105.076,-8.133766
1427150105.091,-9.8284
1427150105.107,-11.309437
1427150105.123,-12.521492
1427150105.138,-13.394653
1427150105.154,-13.932724
1427150105.17,-14.230801
1427150105.185,-14.4762
1427150105.201,-14.855484
1427150105.216,-15.506004
1427150105.232,-16.41211
1427150105.248,-17.419481
1427150105.263,-18.261967
1427150105.279,-18.676184
1427150105.295,-18.51838
1427150105.31,-17.826017
1427150105.326,-16.81848
1427150105.341,-15.814564
1427150105.357,-15.096008
1427150105.373,-14.772633
1427150105.388,-14.759356
1427150105.404,-14.822401
1427150105.42,-14.702631
1427150105.435,-14.231537
1427150105.451,-13.353865
1427150105.466,-12.156427
1427150105.482,-10.792948
1427150105.498,-9.447519
1427150105.513,-8.288048
1427150105.529,-7.447445
1427150105.545,-6.965395
1427150105.56,-6.786911
1427150105.576,-6.746464
1427150105.591,-6.6455154
1427150105.607,-6.3018913
1427150105.623,-5.6534805
1427150105.638,-4.7421017
1427150105.654,-3.7068882
1427150105.67,-2.7083473
1427150105.685,-1.862669
1427150105.701,-1.2100582
1427150105.716,-0.7364254
1427150105.732,-0.40586853
1427150105.748,-0.18076324
1427150105.763,-0.01007843
1427150105.779,0.20156097
1427150105.795,0.59646225
1427150105.81,1.2839737
1427150105.826,2.3061714
1427150105.841,3.5461159
1427150105.857,4.7650757
1427150105.873,5.69627
1427150105.888,6.189808
1427150105.904,6.321846
1427150105.92,6.4122314
1427150105.935,6.9149857
1427150105.951,8.244446
1427150105.966,10.551109
1427150105.982,13.571083
1427150105.998,16.623222
1427150106.013,18.7795
1427150106.029,19.14933
1427150106.045,17.237228
1427150106.06,13.112404
1427150106.076,7.444004
1427150106.091,1.2637138
1427150106.107,-4.3691063
1427150106.123,-8.73774
1427150106.138,-11.619732
1427150106.154,-13.317257
1427150106.17,-14.416004
1427150106.185,-15.536232
1427150106.201,-17.06252
1427150106.216,-19.010006
1427150106.232,-20.993656
1427150106.248,-22.403442
1427150106.263,-22.634552
1427150106.279,-21.404583
1427150106.295,-18.970284
1427150106.31,-16.16859
1427150106.326,-14.163849
