1434498840.352,0.0
1434498840.367,0.0
1434498840.383,0.0
1434498840.398,0.0
1434498840.414,0.0
1434498840.43,0.0
1434498840.445,0.0
1434498840.461,0.0
1434498840.477,0.0
1434498840.492,0.0022315353
1434498840.508,-0.0045169927
1434498840.523,-0.011265522
1434498840.539,-0.011383951
1434498840.555,0.0011864507
1434498840.57,0.025910312
1434498840.586,0.050634187
1434498840.602,0.051362894
1434498840.617,-0.0014929791
1434498840.633,-0.1302426
1434498840.648,-0.35562757
1434498840.664,-0.6591247
1434498840.68,-1.0095103
1434498840.695,-1.3709826
1434498840.711,-1.7197359
1434498840.727,-2.0551105
1434498840.742,-2.39945
1434498840.758,-2.7866635
1434498840.773,-3.2399073
1434498840.789,-3.796012
1434498840.805,-4.418684
1434498840.82,-5.0592937
1434498840.836,-5.6644096
1434498840.852,-6.2021537
1434498840.867,-6.6808796
1434498840.883,-7.149598
1434498840.898,-7.6782336
1434498840.914,-8.310739
1434498840.93,-9.143657
1434498840.945,-10.089731
1434498840.961,-11.041313
1434498840.977,-11.8842125
1434498840.992,-12.564316
1434498841.008,-13.13563
1434498841.023,-13.760044
1434498841.039,-14.65232
1434498841.055,-15.962056
1434498841.07,-17.914442
1434498841.086,-20.317299
1434498841.102,-22.903854
1434498841.117,-25.37947
1434498841.133,-27.578028
1434498841.148,-29.57246
1434498841.164,-31.675173
1434498841.18,-34.3178
1434498841.195,-37.813618
1434498841.211,-42.541233
1434498841.227,-48.1463
1434498841.242,-54.104755
1434498841.258,-59.83309
1434498841.273,-64.972374
1434498841.289,-69.58293
1434498841.305,-74.14353
1434498841.32,-79.344986
1434498841.336,-85.70726
1434498841.352,-93.76193
1434498841.367,-102.99779
1434498841.383,-112.61757
1434498841.398,-121.73034
1434498841.414,-129.76602
1434498841.43,-136.75102
1434498841.445,-143.30344
1434498841.461,-150.74623
1434498841.477,-157.77356
1434498841.492,-166.64323
1434498841.508,-177.94798
1434498841.523,-191.79102
1434498841.539,-206.96808
1434498841.555,-220.56592
1434498841.57,-228.24644
1434498841.586,-225.36154
1434498841.602,-208.53198
1434498841.617,-176.87024
1434498841.633,-132.76222
1434498841.648,-80.04997
1434498841.664,-23.069275
1434498841.68,34.94339
1434498841.695,92.43695
1434498841.711,149.15695
1434498841.727,205.22772
1434498841.742,260.36963
1434498841.758,313.74133
1434498841.774,363.87396
1434498841.789,409.83353
1434498841.805,450.90775
1434498841.82,486.50244
1434498841.836,515.73865
1434498841.852,537.2274
1434498841.867,549.22
1434498841.883,549.9613
1434498841.898,538.367
1434498841.914,514.2055
1434498841.93,478.674
1434498841.945,433.87952
1434498841.961,382.45126
1434498841.977,327.02106
1434498841.992,269.84186
1434498842.008,212.63379
1434498842.024,156.6594
1434498842.039,102.95233
1434498842.055,52.373596
1434498842.07,5.9046936
1434498842.086,-35.580414
1434498842.102,-71.42584
1434498842.117,-101.35184
1434498842.133,-125.50113
1434498842.149,-144.3797
1434498842.164,-158.69403
1434498842.18,-169.15071
1434498842.195,-176.3711
1434498842.211,-180.75139
1434498842.227,-182.57419
1434498842.242,-182.06863
1434498842.258,-179.5066
1434498842.274,-175.23325
1434498842.289,-169.65286
1434498842.305,-163.17691
1434498842.32,-156.14568
1434498842.336,-148.80681
1434498842.352,-141.29686
1434498842.367,-133.68983
1434498842.383,-126.01962
1434498842.399,-118.33268
1434498842.414,-110.68864
1434498842.43,-103.15572
1434498842.445,-95.80455
1434498842.461,-88.684166
1434498842.477,-81.82744
1434498842.492,-75.24594
1434498842.508,-68.9526
1434498842.524,-62.949085
1434498842.539,-57.247494
1434498842.555,-51.857185
1434498842.57,-46.78282
1434498842.586,-42.02776
1434498842.602,-37.58521
1434498842.617,-33.451748
1434498842.633,-29.613855
1434498842.649,-26.070963
1434498842.664,-22.808779
1434498842.68,-19.824995
1434498842.695,-17.113392
1434498842.711,-14.666497
1434498842.727,-12.47932
1434498842.742,-10.538469
1434498842.758,-8.833674
1434498842.774,-7.3478527
1434498842.789,-6.067689
1434498842.805,-4.9734235
1434498842.82,-4.046258
1434498842.836,-3.2673752
1434498842.852,-2.6211367
1434498842.867,-2.088365
1434498842.883,-1.6507506
1434498842.899,-1.2976913
1434498842.914,-1.0147024
1434498842.93,-0.79105926
1434498842.945,-0.6133206
1434498842.961,-0.47516227
1434498842.977,-0.3684653
1434498842.992,-0.28461677
1434498843.008,-0.22397345
1434498843.024,-0.17647654
1434498843.039,-0.14055526
1434498843.055,-0.11251485
1434498843.07,-0.0926249
1434498843.086,-0.07977182
1434498843.102,-0.06783539
1434498843.117,-0.05929327
1434498843.133,-0.052183747
1434498843.149,-0.046860814
1434498843.164,-0.044131815
1434498843.18,-0.040358156
1434498843.195,-0.039164305
1434498843.211,-0.034330726
1434498843.227,-0.03515649
1434498843.242,-0.03181714
1434498843.258,-0.030750751
1434498843.274,-0.02810505
1434498843.289,-0.029290557
1434498843.305,-0.027453512
1434498843.32,-0.026081413
1434498843.336,-0.023851603
1434498843.352,-0.022989094
1434498843.367,-0.022172749
1434498843.383,-0.022157341
1434498843.399,-0.020828396
1434498843.414,-0.020277172
1434498843.43,-0.01940465
1434498843.445,-0.018795371
1434498843.461,-0.019169807
1434498843.477,-0.017195046
1434498843.492,-0.016264498
1434498843.508,-0.01676847
1434498843.524,-0.016039208
1434498843.539,-0.016356274
1434498843.555,-0.012255222
1434498843.57,-0.014531761
1434498843.586,-0.013970271
1434498843.602,-0.0151048
1434498843.617,-0.011057541
1434498843.633,-0.0131264925
1434498843.649,-0.011830375
1434498843.664,-0.011561602
1434498843.68,-0.011305705
1434498843.695,-0.011717141
1434498843.711,-0.011107266
1434498843.727,-0.008715257
1434498843.742,-0.0095606595
1434498843.758,-0.009267479
1434498843.774,-0.007105872
1434498843.789,-0.010946423
1434498843.805,-0.007972583
1434498843.82,-0.008954003
1434498843.836,-0.009203717
1434498843.852,-0.01352118
1434498843.867,-0.017507702
1434498843.883,-0.03151706
1434498843.899,-0.039086998
1434498843.914,-0.05580911
1434498843.93,-0.07721031
1434498843.945,-0.10127929
1434498843.961,-0.12964308
1434498843.977,-0.161908
1434498843.992,-0.20165625
1434498844.008,-0.2337983
1434498844.024,-0.2781798
1434498844.039,-0.31600153
1434498844.055,-0.36253232
1434498844.07,-0.40768528
1434498844.086,-0.44834745
1434498844.102,-0.49270177
1434498844.117,-0.54287004
1434498844.133,-0.5893974
1434498844.149,-0.6438454
1434498844.164,-0.70117944
1434498844.18,-0.7612293
1434498844.195,-0.8212674
1434498844.211,-0.89250755
1434498844.227,-0.9704865
1434498844.242,-1.0598872
1434498844.258,-1.1724352
1434498844.274,-1.3048966
1434498844.289,-1.4448693
1434498844.305,-1.5849532
1434498844.32,-1.7092175
1434498844.336,-1.8154695
1434498844.352,-1.915468
1434498844.367,-2.0216768
1434498844.383,-2.1690347
1434498844.399,-2.3842523
1434498844.414,-2.6579509
1434498844.43,-2.992595
1434498844.445,-3.3552194
1434498844.461,-3.7126899
1434498844.477,-4.0569935
1434498844.492,-4.397409
1434498844.508,-4.759951
1434498844.524,-5.173721
1434498844.539,-5.6864476
1434498844.555,-6.285114
1434498844.57,-6.9465137
1434498844.586,-7.6256847
1434498844.602,-8.258924
1434498844.617,-8.831331
1434498844.633,-9.358733
1434498844.649,-9.896096
1434498844.664,-10.543375
1434498844.68,-11.363665
1434498844.696,-12.369794
1434498844.711,-13.482132
1434498844.727,-14.569378
1434498844.742,-15.4815
1434498844.758,-16.14133
1434498844.774,-16.543507
1434498844.789,-16.799173
1434498844.805,-17.014122
1434498844.821,-17.25818
1434498844.836,-17.408222
1434498844.852,-17.193151
1434498844.867,-16.234207
1434498844.883,-14.149187
1434498844.899,-10.808098
1434498844.914,-6.337017
1434498844.93,-1.1206894
1434498844.946,4.2864475
1434498844.961,9.375822
1434498844.977,13.910084
1434498844.992,17.969378
1434498845.008,21.857199
1434498845.024,25.893738
1434498845.039,30.199493
1434498845.055,34.54239
1434498845.071,38.394196
1434498845.086,41.192543
1434498845.102,42.585976
1434498845.117,42.578568
1434498845.133,41.62352
1434498845.149,40.362934
1434498845.164,39.455063
1434498845.18,39.387344
1434498845.196,40.510933
1434498845.211,42.988514
1434498845.227,46.580627
1434498845.242,50.377975
1434498845.258,52.662334
1434498845.274,51.33892
1434498845.289,44.789696
1434498845.305,32.7882
1434498845.321,16.992304
1434498845.336,0.484272
1434498845.352,-13.42672
1434498845.367,-22.535976
1434498845.383,-26.485662
1434498845.399,-26.567116
1434498845.414,-24.72251
1434498845.43,-22.548798
1434498845.446,-20.674734
1434498845.461,-18.979866
1434498845.477,-17.14222
1434498845.492,-15.154208
1434498845.508,-13.380091
1434498845.524,-12.275399
1434498845.539,-11.919559
1434498845.555,-11.912203
1434498845.571,-11.617942
1434498845.586,-10.515965
1434498845.602,-8.507568
1434498845.617,-6.0936165
1434498845.633,-4.0964146
1434498845.649,-3.2890558
1434498845.664,-4.042206
1434498845.68,-6.096828
1434498845.696,-8.657482
1434498845.711,-10.711796
1434498845.727,-11.438429
1434498845.742,-10.546066
1434498845.758,-8.299157
1434498845.774,-5.3847976
1434498845.789,-2.545579
1434498845.805,-0.39590883
1434498845.821,0.88903236
1434498845.836,1.5267658
1434498845.852,1.9258213
1434498845.867,2.4659271
1434498845.883,3.3327408
1434498845.899,4.3829794
1434498845.914,5.268011
1434498845.93,5.8723106
1434498845.946,5.994894
1434498845.961,5.60775
1434498845.977,4.8839645
1434498845.992,4.1143627
1434498846.008,3.5953312
1434498846.024,3.4792786
1434498846.039,3.7630768
1434498846.055,4.345173
1434498846.071,5.086838
1434498846.086,5.828087
1434498846.102,6.507822
1434498846.117,7.149353
1434498846.133,7.8011513
1434498846.149,8.495306
1434498846.164,9.253536
1434498846.18,10.070042
1434498846.196,10.914654
1434498846.211,11.7377205
1434498846.227,12.482567
1434498846.242,13.103569
1434498846.258,13.6629715
1434498846.274,14.269344
1434498846.289,15.154724
1434498846.305,16.54654
1434498846.321,18.636501
1434498846.336,21.448158
1434498846.352,24.788177
1434498846.367,28.202991
1434498846.383,31.054607
1434498846.399,32.669506
1434498846.414,32.550907
1434498846.43,30.473679
1434498846.446,26.613312
1434498846.461,21.470406
1434498846.477,15.716713
1434498846.492,10.004822
1434498846.508,4.81987
1434498846.524,0.42173004
1434498846.539,-3.125061
1434498846.555,-5.9173965
1434498846.571,-8.077148
1434498846.586,-9.697639
1434498846.602,-10.851479
1434498846.617,-11.583542
1434498846.633,-11.957733
1434498846.649,-12.081268
1434498846.664,-12.059059
1434498846.68,-11.969498
1434498846.696,-11.845673
1434498846.711,-11.703545
1434498846.727,-11.551788
1434498846.742,-11.428192
1434498846.758,-11.381683
1434498846.774,-11.451279
1434498846.789,-11.576019
1434498846.805,-11.622551
1434498846.821,-11.396591
1434498846.836,-10.749924
1434498846.852,-9.641434
1434498846.867,-8.219269
1434498846.883,-6.7140503
1434498846.899,-5.329773
1434498846.914,-4.123581
1434498846.93,-2.9781036
1434498846.946,-1.6688995
1434498846.961,-0.030334473
1434498846.977,1.9728851
1434498846.992,4.2000732
1434498847.008,6.4319916
1434498847.024,8.4752655
1434498847.039,10.318771
1434498847.055,12.089554
1434498847.071,14.042053
1434498847.086,16.43715
1434498847.102,19.462067
1434498847.117,23.139404
1434498847.133,27.281982
1434498847.149,31.42221
1434498847.164,34.8891
1434498847.18,36.86754
1434498847.196,36.68788
1434498847.211,34.028244
1434498847.227,29.065552
1434498847.242,22.458267
1434498847.258,15.10907
1434498847.274,7.874832
1434498847.289,1.3596954
1434498847.305,-4.189621
1434498847.321,-8.828644
1434498847.336,-12.742844
1434498847.352,-16.104431
1434498847.368,-18.994843
1434498847.383,-21.380096
1434498847.399,-23.202652
1434498847.414,-24.392776
1434498847.43,-24.983337
1434498847.446,-25.083252
1434498847.461,-24.893799
1434498847.477,-24.568268
1434498847.493,-24.204132
1434498847.508,-23.809326
1434498847.524,-23.33252
1434498847.539,-22.733124
1434498847.555,-22.05722
1434498847.571,-21.367096
1434498847.586,-20.743835
1434498847.602,-20.153717
1434498847.618,-19.46643
1434498847.633,-18.489685
1434498847.649,-17.063904
1434498847.664,-15.139648
1434498847.68,-12.834015
1434498847.696,-10.339935
1434498847.711,-7.8559265
1434498847.727,-5.478943
1434498847.743,-3.2150269
1434498847.758,-1.0094604
1434498847.774,1.1859436
1434498847.789,3.3618774
1434498847.805,5.425598
1434498847.821,7.2848206
1434498847.836,8.915985
1434498847.852,10.436249
1434498847.868,12.104553
1434498847.883,14.239014
1434498847.899,17.081055
1434498847.914,20.609955
1434498847.93,24.433655
1434498847.946,27.871033
1434498847.961,30.019531
1434498847.977,30.101349
1434498847.993,27.693481
1434498848.008,22.890228
1434498848.024,16.309113
1434498848.039,8.921722
1434498848.055,1.680481
1434498848.071,-4.693512
1434498848.086,-9.919006
1434498848.102,-14.080841
1434498848.118,-17.44986
1434498848.133,-20.303436
1434498848.149,-22.732117
1434498848.164,-24.6344
1434498848.18,-25.855408
1434498848.196,-26.299652
1434498848.211,-26.09314
1434498848.227,-25.53897
1434498848.243,-25.024048
1434498848.258,-24.845795
1434498848.274,-25.063538
1434498848.289,-25.52182
1434498848.305,-25.94455
1434498848.321,-26.115997
1434498848.336,-25.946503
1434498848.352,-25.544037
1434498848.368,-25.072968
1434498848.383,-24.651398
1434498848.399,-24.265015
1434498848.414,-23.763947
1434498848.43,-22.963531
1434498848.446,-21.691742
1434498848.461,-19.894745
1434498848.477,-17.651947
1434498848.493,-15.093964
1434498848.508,-12.370911
1434498848.524,-9.602081
1434498848.539,-6.8561707
1434498848.555,-4.1717224
1434498848.571,-1.5622559
1434498848.586,0.93759155
1434498848.602,3.3138733
1434498848.618,5.5685425
1434498848.633,7.83432
1434498848.649,10.322998
1434498848.664,13.310852
1434498848.68,16.873016
1434498848.696,20.790619
1434498848.711,24.415924
1434498848.727,26.873047
1434498848.743,27.333618
1434498848.758,25.349548
1434498848.774,21.061707
1434498848.789,15.076569
1434498848.805,8.293549
1434498848.821,1.5289917
1434498848.836,-4.6220703
1434498848.852,-9.854065
1434498848.868,-14.069794
1434498848.883,-17.279724
1434498848.899,-19.538757
1434498848.914,-20.910797
1434498848.93,-21.540222
1434498848.946,-21.590302
1434498848.961,-21.261047
1434498848.977,-20.709106
1434498848.993,-20.078735
1434498849.008,-19.45987
1434498849.024,-18.910461
1434498849.039,-18.440918
1434498849.055,-18.05194
1434498849.071,-17.746368
1434498849.086,-17.546356
1434498849.102,-17.501556
1434498849.118,-17.662567
1434498849.133,-18.00705
1434498849.149,-18.417084
1434498849.164,-18.654694
1434498849.18,-18.489868
1434498849.196,-17.70813
1434498849.211,-16.27835
1434498849.227,-14.291046
1434498849.243,-11.9375
1434498849.258,-9.428436
1434498849.274,-6.9082947
1434498849.289,-4.481903
1434498849.305,-2.2073975
1434498849.321,-0.14248657
1434498849.336,1.6855774
1434498849.352,3.3077393
1434498849.368,4.856415
1434498849.383,6.5394287
1434498849.399,8.620819
1434498849.414,11.308228
1434498849.43,14.615295
1434498849.446,18.303345
1434498849.461,21.812408
1434498849.477,24.420624
1434498849.493,25.382507
1434498849.508,24.196533
1434498849.524,20.769562
1434498849.539,15.484863
1434498849.555,9.072144
1434498849.571,2.3992615
1434498849.586,-3.7695007
1434498849.602,-8.927734
1434498849.618,-12.85965
1434498849.633,-15.56839
1434498849.649,-17.173523
1434498849.664,-17.824127
1434498849.68,-17.72647
1434498849.696,-17.09378
1434498849.711,-16.2099
1434498849.727,-15.312164
1434498849.743,-14.586853
1434498849.758,-14.079346
1434498849.774,-13.739838
1434498849.789,-13.438477
1434498849.805,-13.080231
1434498849.821,-12.637604
1434498849.836,-12.181305
1434498849.852,-11.808655
1434498849.868,-11.585205
1434498849.883,-11.492981
1434498849.899,-11.430511
1434498849.914,-11.2517395
1434498849.93,-10.864044
1434498849.946,-10.227295
1434498849.961,-9.386017
1434498849.977,-8.401184
1434498849.993,-7.325226
1434498850.008,-6.162903
1434498850.024,-4.9148254
1434498850.04,-3.5460205
1434498850.055,-2.0896912
1434498850.071,-0.55737305
1434498850.086,0.97991943
1434498850.102,2.4812927
1434498850.118,3.9192505
1434498850.133,5.3185425
1434498850.149,6.733246
1434498850.164,8.289673
1434498850.18,10.122803
1434498850.196,12.369446
1434498850.211,15.086395
1434498850.227,18.19806
1434498850.243,21.399963
1434498850.258,24.18338
1434498850.274,25.901215
1434498850.29,25.9263
1434498850.305,23.883087
1434498850.321,19.805634
1434498850.336,14.178406
1434498850.352,7.841919
1434498850.368,1.6815796
1434498850.383,-3.6174316
1434498850.399,-7.749481
1434498850.415,-10.749023
1434498850.43,-12.841949
1434498850.446,-14.2612
1434498850.461,-15.089691
1434498850.477,-15.315186
1434498850.493,-14.947327
1434498850.508,-14.096954
1434498850.524,-13.028564
1434498850.54,-12.05307
1434498850.555,-11.407959
1434498850.571,-11.1449585
1434498850.586,-11.14151
1434498850.602,-11.194183
1434498850.618,-11.159607
1434498850.633,-11.019226
1434498850.649,-10.855713
1434498850.665,-10.769714
1434498850.68,-10.776947
1434498850.696,-10.754211
1434498850.711,-10.52652
1434498850.727,-9.947723
1434498850.743,-9.006592
1434498850.758,-7.8345947
1434498850.774,-6.663452
1434498850.79,-5.6571655
1434498850.805,-4.8440857
1434498850.821,-4.0698853
1434498850.836,-3.1091614
1434498850.852,-1.7686157
1434498850.868,-0.019927979
1434498850.883,1.9880676
1434498850.899,4.034485
1434498850.915,5.9623413
1434498850.93,7.774048
1434498850.946,9.5729065
1434498850.961,11.529205
1434498850.977,13.759888
1434498850.993,16.277008
1434498851.008,18.98758
1434498851.024,21.67987
1434498851.04,24.045746
1434498851.055,25.690796
1434498851.071,26.142242
1434498851.086,25.01471
1434498851.102,22.150208
1434498851.118,17.749939
1434498851.133,12.405823
1434498851.149,6.9433594
1434498851.165,2.1629944
1434498851.18,-1.4546814
1434498851.196,-3.8197327
1434498851.211,-5.2158203
1434498851.227,-6.0606995
1434498851.243,-6.6865845
1434498851.258,-7.1838684
1434498851.274,-7.4595947
1434498851.29,-7.3627014
1434498851.305,-6.887848
1434498851.321,-6.2152405
1434498851.336,-5.6563416
1434498851.352,-5.476349
1434498851.368,-5.758087
1434498851.383,-6.3125305
1434498851.399,-6.8630066
1434498851.415,-7.160858
1434498851.43,-7.160858
1434498851.446,-7.0006714
1434498851.461,-6.88916
1434498851.477,-6.958893
1434498851.493,-7.156311
1434498851.508,-7.285858
1434498851.524,-7.136383
1434498851.54,-6.5797424
1434498851.555,-5.6338196
1434498851.571,-4.4425964
1434498851.586,-3.1780396
1434498851.602,-1.9281616
1434498851.618,-0.7381897
1434498851.633,0.43914795
1434498851.649,1.6231384
1434498851.665,2.8139954
1434498851.68,3.947754
1434498851.696,4.989563
1434498851.711,5.972931
1434498851.727,7.0185547
1434498851.743,8.325745
1434498851.758,10.106766
1434498851.774,12.471405
1434498851.79,15.338715
1434498851.805,18.351532
1434498851.821,20.963974
1434498851.836,22.524063
1434498851.852,22.530457
1434498851.868,20.771729
1434498851.883,17.430984
1434498851.899,13.014099
1434498851.915,8.200546
1434498851.93,3.6191864
1434498851.946,-0.27981567
1434498851.961,-3.284729
1434498851.977,-5.4061584
1434498851.993,-6.797409
1434498852.008,-7.633133
1434498852.024,-8.094223
1434498852.04,-8.29718
1434498852.055,-8.311752
1434498852.071,-8.139587
1434498852.086,-7.7672577
1434498852.102,-7.187546
1434498852.118,-6.4401703
1434498852.133,-5.628174
1434498852.149,-4.881775
1434498852.165,-4.3139496
1434498852.18,-3.9670563
1434498852.196,-3.831009
1434498852.211,-3.848175
1434498852.227,-3.933731
1434498852.243,-4.0343018
1434498852.258,-4.1063843
1434498852.274,-4.129181
1434498852.29,-4.0552216
1434498852.305,-3.8628235
1434498852.321,-3.5277405
1434498852.336,-3.0345764
1434498852.352,-2.3871307
1434498852.368,-1.6055756
1434498852.383,-0.6944275
1434498852.399,0.33403015
1434498852.415,1.467804
1434498852.43,2.645111
1434498852.446,3.7529602
1434498852.461,4.707199
1434498852.477,5.4745026
1434498852.493,6.1226654
1434498852.508,6.8679504
1434498852.524,8.006195
1434498852.54,9.8207245
1434498852.555,12.389236
1434498852.571,15.532974
1434498852.586,18.755127
1434498852.602,21.37445
1434498852.618,22.73735
1434498852.633,22.417862
1434498852.649,20.374756
1434498852.665,16.961105
1434498852.68,12.787399
1434498852.696,8.528229
1434498852.712,4.747513
1434498852.727,1.7561951
1434498852.743,-0.38542175
1434498852.758,-1.8115234
1434498852.774,-2.767212
1434498852.79,-3.455719
1434498852.805,-4.0404816
1434498852.821,-4.6207123
1434498852.836,-5.247223
1434498852.852,-5.9078674
1434498852.868,-6.587082
1434498852.883,-7.222595
1434498852.899,-7.735565
1434498852.915,-8.052719
1434498852.93,-8.11882
1434498852.946,-7.935257
1434498852.962,-7.5978394
1434498852.977,-7.195236
1434498852.993,-6.818802
1434498853.008,-6.508621
1434498853.024,-6.2709045
1434498853.04,-6.0495453
1434498853.055,-5.7957153
1434498853.071,-5.4575043
1434498853.087,-4.9769897
1434498853.102,-4.3108673
1434498853.118,-3.4632874
1434498853.133,-2.4895477
1434498853.149,-1.4694214
1434498853.165,-0.43807983
1434498853.18,0.6086731
1434498853.196,1.7233429
1434498853.212,2.9407806
1434498853.227,4.243881
1434498853.243,5.5394745
1434498853.258,6.744583
1434498853.274,7.8350983
1434498853.29,8.9448395
1434498853.305,10.269699
1434498853.321,11.954956
1434498853.337,13.916336
1434498853.352,15.801361
1434498853.368,17.051117
1434498853.383,17.11612
1434498853.399,15.677307
1434498853.415,12.815582
1434498853.43,8.972733
1434498853.446,4.8097534
1434498853.462,0.9594269
1434498853.477,-2.1477966
1434498853.493,-4.4234314
1434498853.508,-6.007065
1434498853.524,-7.144699
1434498853.54,-8.002731
1434498853.555,-8.580246
1434498853.571,-8.752823
1434498853.587,-8.420853
1434498853.602,-7.611496
1434498853.618,-6.5263214
1434498853.633,-5.4805603
1434498853.649,-4.749298
1434498853.665,-4.421829
1434498853.68,-4.3838196
1434498853.696,-4.382065
1434498853.712,-4.182785
1434498853.727,-3.6720734
1434498853.743,-2.9038086
1434498853.758,-2.0579376
1434498853.774,-1.3812103
1434498853.79,-1.0297089
1434498853.805,-1.0855255
1434498853.821,-1.4384155
1434498853.837,-1.8570251
1434498853.852,-2.0483398
1434498853.868,-1.7966919
1434498853.883,-0.9910431
1434498853.899,0.24665833
1434498853.915,1.6671906
1434498853.93,2.995102
1434498853.946,4.0584564
1434498853.962,4.840149
1434498853.977,5.497879
1434498853.993,6.207443
1434498854.008,7.1260986
1434498854.024,8.316498
1434498854.04,9.751747
1434498854.055,11.32901
1434498854.071,12.904297
1434498854.087,14.219978
1434498854.102,14.931274
1434498854.118,14.716179
1434498854.133,13.334511
1434498854.149,10.784645
1434498854.165,7.3753815
1434498854.18,3.615471
1434498854.196,0.092918396
1434498854.212,-2.7275238
1434498854.227,-4.6218567
1434498854.243,-5.6403503
1434498854.258,-6.0083694
1434498854.274,-6.0194473
1434498854.29,-5.892105
1434498854.305,-5.7241287
1434498854.321,-5.5100937
1434498854.337,-5.237007
1434498854.352,-4.9246216
1434498854.368,-4.687454
1434498854.383,-4.6777115
1434498854.399,-5.030533
1434498854.415,-5.773079
1434498854.43,-6.816429
1434498854.446,-7.965019
1434498854.462,-8.999954
1434498854.477,-9.746613
1434498854.493,-10.104759
1434498854.508,-10.064484
1434498854.524,-9.655235
1434498854.54,-8.931496
1434498854.555,-7.9706573
1434498854.571,-6.863678
1434498854.587,-5.677994
1434498854.602,-4.4694443
1434498854.618,-3.2234116
1434498854.633,-1.9153366
1434498854.649,-0.5500412
1434498854.665,0.8629303
1434498854.68,2.2304688
1434498854.696,3.4757233
1434498854.712,4.5401306
1434498854.727,5.4367065
1434498854.743,6.2714157
1434498854.758,7.1800995
1434498854.774,8.312569
1434498854.79,9.788849
1434498854.805,11.667755
1434498854.821,13.908333
1434498854.837,16.320732
1434498854.852,18.53727
1434498854.868,20.034126
1434498854.883,20.24102
1434498854.899,18.78859
1434498854.915,15.67334
1434498854.93,11.311424
1434498854.946,6.4568024
1434498854.962,1.8890152
1434498854.977,-1.8104095
1434498854.993,-4.439621
1434498855.008,-6.1423035
1434498855.024,-7.2479324
1434498855.04,-8.036491
1434498855.055,-8.640106
1434498855.071,-9.055191
1434498855.087,-9.201523
1434498855.102,-9.078682
1434498855.118,-8.791611
1434498855.133,-8.501221
1434498855.149,-8.357368
1434498855.165,-8.393898
1434498855.18,-8.529915
1434498855.196,-8.604118
1434498855.212,-8.492355
1434498855.227,-8.170685
1434498855.243,-7.751259
1434498855.258,-7.4002304
1434498855.274,-7.2542877
1434498855.29,-7.3073044
1434498855.305,-7.417
1434498855.321,-7.3730774
1434498855.337,-6.9955826
1434498855.352,-6.215927
1434498855.368,-5.1212006
1434498855.383,-3.8947754
1434498855.399,-2.7465744
1434498855.415,-1.7901154
1434498855.43,-1.0303421
1434498855.446,-0.35206604
1434498855.462,0.39100647
1434498855.477,1.3050919
1434498855.493,2.4057388
1434498855.508,3.6301956
1434498855.524,4.872154
1434498855.54,6.0650024
1434498855.555,7.191963
1434498855.571,8.31208
1434498855.587,9.519531
1434498855.602,10.946945
1434498855.618,12.678215
1434498855.634,14.739029
1434498855.649,17.001259
1434498855.665,19.123955
1434498855.68,20.572136
1434498855.696,20.77459
1434498855.712,19.293182
1434498855.727,16.066856
1434498855.743,11.468361
1434498855.759,6.251213
1434498855.774,1.2488861
1434498855.79,-2.8637238
1434498855.805,-5.7543488
1434498855.821,-7.4664803
1434498855.837,-8.250614
1434498855.852,-8.384949
1434498855.868,-8.109257
1434498855.884,-7.551834
1434498855.899,-6.8306236
1434498855.915,-6.0661163
1434498855.93,-5.3884964
1434498855.946,-4.890068
1434498855.962,-4.6079636
1434498855.977,-4.498188
1434498855.993,-4.4521027
1434498856.009,-4.385006
1434498856.024,-4.2721024
1434498856.04,-4.1394424
1434498856.055,-4.113762
1434498856.071,-4.299019
1434498856.087,-4.7456055
1434498856.102,-5.418144
1434498856.118,-6.1672363
1434498856.134,-6.794029
1434498856.149,-7.1278534
1434498856.165,-7.0798035
1434498856.18,-6.719635
1434498856.196,-6.1936836
1434498856.212,-5.6380386
1434498856.227,-5.12397
1434498856.243,-4.6331253
1434498856.259,-4.0597267
1434498856.274,-3.294777
1434498856.29,-2.2795486
1434498856.305,-1.0288582
1434498856.321,0.39064026
1434498856.337,1.9106369
1434498856.352,3.45615
1434498856.368,5.03413
1434498856.384,6.632004
1434498856.399,8.276421
1434498856.415,10.011009
1434498856.43,11.862087
1434498856.446,13.856968
1434498856.462,15.931404
1434498856.477,17.887047
1434498856.493,19.384258
1434498856.509,20.024021
1434498856.524,19.42419
1434498856.54,17.459854
1434498856.555,14.273813
1434498856.571,10.288021
1434498856.587,6.0774155
1434498856.602,2.157114
1434498856.618,-1.166748
1434498856.634,-3.7911587
1434498856.649,-5.78718
1434498856.665,-7.237074
1434498856.68,-8.201942
1434498856.696,-8.704393
1434498856.712,-8.806696
1434498856.727,-8.620758
1434498856.743,-8.32168
1434498856.759,-8.05637
1434498856.774,-7.908907
1434498856.79,-7.8512764
1434498856.805,-7.8094387
1434498856.821,-7.710703
1434498856.837,-7.5203342
1434498856.852,-7.2979546
1434498856.868,-7.126087
1434498856.884,-7.079878
1434498856.899,-7.155018
1434498856.915,-7.2582607
1434498856.93,-7.2281322
1434498856.946,-6.8954945
1434498856.962,-6.1591167
1434498856.977,-5.0041256
1434498856.993,-3.557972
1434498857.009,-2.0105648
1434498857.024,-0.560935
1434498857.04,0.64193726
1434498857.055,1.5429106
1434498857.071,2.183035
1434498857.087,2.6437635
1434498857.102,3.025241
1434498857.118,3.4027529
1434498857.134,3.8286076
1434498857.149,4.3306227
1434498857.165,4.9223347
1434498857.18,5.5739555
1434498857.196,6.2394447
1434498857.212,6.8819118
1434498857.227,7.5213246
1434498857.243,8.241292
1434498857.259,9.205839
1434498857.274,10.5500145
1434498857.29,12.3063965
1434498857.305,14.297241
1434498857.321,16.083485
1434498857.337,17.09811
1434498857.352,16.822906
1434498857.368,14.977867
1434498857.384,11.6607895
1434498857.399,7.3748627
1434498857.415,2.8183355
1434498857.43,-1.283988
1434498857.446,-4.424138
1434498857.462,-6.421132
1434498857.477,-7.4002066
1434498857.493,-7.7044334
1434498857.509,-7.68726
1434498857.524,-7.656815
1434498857.54,-7.757208
1434498857.555,-8.014299
1434498857.571,-8.368003
1434498857.587,-8.782016
1434498857.602,-9.219301
1434498857.618,-9.648653
1434498857.634,-10.030886
1434498857.649,-10.294972
1434498857.665,-10.382284
1434498857.68,-10.274921
1434498857.696,-10.038421
1434498857.712,-9.777008
1434498857.727,-9.580137
1434498857.743,-9.476442
1434498857.759,-9.36119
1434498857.774,-9.114671
1434498857.79,-8.608882
1434498857.805,-7.8181696
1434498857.821,-6.833211
1434498857.837,-5.8150215
1434498857.852,-4.920286
1434498857.868,-4.233982
1434498857.884,-3.7320042
1434498857.899,-3.291645
1434498857.915,-2.7278461
1434498857.93,-1.8724556
1434498857.946,-0.61219597
1434498857.962,1.0500088
1434498857.977,3.0226555
1434498857.993,5.0925083
1434498858.009,7.0183525
1434498858.024,8.599567
1434498858.04,9.738113
1434498858.055,10.510313
1434498858.071,11.160164
1434498858.087,11.958317
1434498858.102,13.142416
1434498858.118,14.7472725
1434498858.134,16.56125
1434498858.149,18.116825
1434498858.165,18.890938
1434498858.18,18.428095
1434498858.196,16.552435
1434498858.212,13.414616
1434498858.227,9.453369
1434498858.243,5.2603455
1434498858.259,1.4030724
1434498858.274,-1.7235985
1434498858.29,-3.9019432
1434498858.306,-5.154312
1434498858.321,-5.649639
1434498858.337,-5.645542
1434498858.352,-5.4087296
1434498858.368,-5.173641
1434498858.384,-5.0851784
1434498858.399,-5.184128
1434498858.415,-5.3959007
1434498858.431,-5.595989
1434498858.446,-5.638649
1434498858.462,-5.453762
1434498858.477,-5.061142
1434498858.493,-4.5657234
1434498858.509,-4.104828
1434498858.524,-3.795803
1434498858.54,-3.6758842
1434498858.556,-3.7225304
1434498858.571,-3.8734589
1434498858.587,-4.0513344
1434498858.602,-4.1914063
1434498858.618,-4.2664337
1434498858.634,-4.25016
1434498858.649,-4.1351776
1434498858.665,-3.9229584
1434498858.681,-3.6397057
1434498858.696,-3.330391
1434498858.712,-3.0126076
1434498858.727,-2.6638908
1434498858.743,-2.2134438
1434498858.759,-1.5507813
1434498858.774,-0.6242943
1434498858.79,0.5541878
1434498858.806,1.8524437
1434498858.821,3.131565
1434498858.837,4.2605515
1434498858.852,5.2327614
1434498858.868,6.1131325
1434498858.884,7.069824
1434498858.899,8.246826
1434498858.915,9.751717
1434498858.931,11.585587
1434498858.946,13.591637
1434498858.962,15.454765
1434498858.977,16.7168
1434498858.993,16.897018
1434498859.009,15.681141
1434498859.024,13.032185
1434498859.04,9.271828
1434498859.056,4.99971
1434498859.071,0.8954468
1434498859.087,-2.5051117
1434498859.102,-4.931114
1434498859.118,-6.4133835
1434498859.134,-7.185417
1434498859.149,-7.5226135
1434498859.165,-7.616493
1434498859.181,-7.543724
1434498859.196,-7.282242
1434498859.212,-6.81575
1434498859.227,-6.1493454
1434498859.243,-5.3626175
1434498859.259,-4.5854034
1434498859.274,-3.9582596
1434498859.29,-3.546608
1434498859.306,-3.3567047
1434498859.321,-3.2833862
1434498859.337,-3.2064514
1434498859.352,-3.0196152
1434498859.368,-2.7383575
1434498859.384,-2.4049835
1434498859.399,-2.1123505
1434498859.415,-1.8592453
1434498859.431,-1.5546265
1434498859.446,-1.0757599
1434498859.462,-0.34933472
1434498859.477,0.5811386
1434498859.493,1.552681
1434498859.509,2.3840714
1434498859.524,2.9698105
1434498859.54,3.318695
1434498859.556,3.558136
1434498859.571,3.8373413
1434498859.587,4.2438507
1434498859.602,4.799904
1434498859.618,5.5078278
1434498859.634,6.3862762
1434498859.649,7.4882507
1434498859.665,8.8871765
1434498859.681,10.621384
1434498859.696,12.624947
1434498859.712,14.711494
1434498859.727,16.55053
1434498859.743,17.706085
1434498859.759,17.772804
1434498859.774,16.476791
1434498859.79,13.855354
1434498859.806,10.280769
1434498859.821,6.3693542
1434498859.837,2.739685
1434498859.852,-0.20491028
1434498859.868,-2.4248123
1434498859.884,-4.1209564
1434498859.899,-5.5703506
1434498859.915,-6.9345093
1434498859.931,-8.134697
1434498859.946,-8.9496
1434498859.962,-9.165497
1434498859.977,-8.715691
1434498859.993,-7.740036
1434498860.009,-6.5246353
1434498860.024,-5.391464
1434498860.04,-4.594574
1434498860.056,-4.2408905
1434498860.071,-4.2688217
1434498860.087,-4.5192947
1434498860.102,-4.8000336
1434498860.118,-4.9670715
1434498860.134,-4.9823685
1434498860.149,-4.8890533
1434498860.165,-4.751007
1434498860.181,-4.580147
1434498860.196,-4.3115845
1434498860.212,-3.8209915
1434498860.227,-2.999649
1434498860.243,-1.826889
1434498860.259,-0.3866272
1434498860.274,1.1839752
1434498860.29,2.7146454
1434498860.306,4.099434
1434498860.321,5.2914658
1434498860.337,6.306137
1434498860.352,7.2027817
1434498860.368,8.076584
1434498860.384,9.026901
1434498860.399,10.184631
1434498860.415,11.638901
1434498860.431,13.377266
1434498860.446,15.287605
1434498860.462,17.097466
1434498860.477,18.432
1434498860.493,18.87175
1434498860.509,18.085075
1434498860.524,15.942345
1434498860.54,12.640213
1434498860.556,8.627502
1434498860.571,4.558342
1434498860.587,1.0188904
1434498860.602,-1.6305466
1434498860.618,-3.3460922
1434498860.634,-4.371826
1434498860.649,-5.0590744
1434498860.665,-5.6702194
1434498860.681,-6.2864227
1434498860.696,-6.8240204
1434498860.712,-7.1521835
1434498860.727,-7.2112274
1434498860.743,-7.1100235
1434498860.759,-7.0544586
1434498860.774,-7.2699127
1434498860.79,-7.854988
1434498860.806,-8.725563
1434498860.821,-9.610222
1434498860.837,-10.233444
1434498860.852,-10.396301
1434498860.868,-10.098778
1434498860.884,-9.522652
1434498860.899,-8.882576
1434498860.915,-8.323143
1434498860.931,-7.842636
1434498860.946,-7.309189
1434498860.962,-6.5681534
1434498860.978,-5.496643
1434498860.993,-4.072792
1434498861.009,-2.3426895
1434498861.024,-0.40621185
1434498861.04,1.6249084
1434498861.056,3.6012802
1434498861.071,5.394211
1434498861.087,6.8598557
1434498861.102,7.938362
1434498861.118,8.656235
1434498861.134,9.167549
1434498861.149,9.725937
1434498861.165,10.648293
1434498861.181,12.2109375
1434498861.196,14.524803
1434498861.212,17.42913
1434498861.228,20.402145
1434498861.243,22.681038
1434498861.259,23.495644
1434498861.274,22.327995
1434498861.29,19.185951
1434498861.306,14.576683
1434498861.321,9.352814
1434498861.337,4.3110733
1434498861.353,-0.012390137
1434498861.368,-3.4879532
1434498861.384,-6.256691
1434498861.399,-8.510857
1434498861.415,-10.327171
1434498861.431,-11.634224
1434498861.446,-12.333839
1434498861.462,-12.432224
1434498861.478,-12.088715
1434498861.493,-11.562336
1434498861.509,-11.064438
1434498861.524,-10.683773
1434498861.54,-10.3334465
1434498861.556,-9.878426
1434498861.571,-9.22221
1434498861.587,-8.413765
1434498861.603,-7.6266365
1434498861.618,-7.102806
1434498861.634,-7.0078964
1434498861.649,-7.355362
1434498861.665,-7.959469
1434498861.681,-8.542091
1434498861.696,-8.814014
1434498861.712,-8.629208
1434498861.728,-8.014931
1434498861.743,-7.140457
1434498861.759,-6.1991005
1434498861.774,-5.3029633
1434498861.79,-4.444275
1434498861.806,-3.5458221
1434498861.821,-2.4948807
1434498861.837,-1.2478828
1434498861.853,0.18376541
1434498861.868,1.7380257
1434498861.884,3.3364754
1434498861.899,4.9084663
1434498861.915,6.402256
1434498861.931,7.7436256
1434498861.946,8.903278
1434498861.962,9.917156
1434498861.978,10.900543
1434498861.993,12.034306
1434498862.009,13.491497
1434498862.024,15.2858925
1434498862.04,17.221058
1434498862.056,18.87564
1434498862.071,19.718555
1434498862.087,19.25528
1434498862.103,17.258957
1434498862.118,13.832989
1434498862.134,9.457542
1434498862.149,4.7990494
1434498862.165,0.5306778
1434498862.181,-2.8828697
1434498862.196,-5.281887
1434498862.212,-6.803936
1434498862.228,-7.6909943
1434498862.243,-8.19379
1434498862.259,-8.45023
1434498862.274,-8.504948
1434498862.29,-8.37291
1434498862.306,-8.135036
1434498862.321,-7.921177
1434498862.337,-7.8771515
1434498862.353,-8.081455
1434498862.368,-8.527283
1434498862.384,-9.099537
1434498862.399,-9.6621475
1434498862.415,-10.070923
1434498862.431,-10.273033
1434498862.446,-10.294991
1434498862.462,-10.242249
1434498862.478,-10.21991
1434498862.493,-10.269478
1434498862.509,-10.294205
1434498862.524,-10.084923
1434498862.54,-9.404873
1434498862.556,-8.153542
1434498862.571,-6.4221687
1434498862.587,-4.511818
1434498862.603,-2.7630882
1434498862.618,-1.4115639
1434498862.634,-0.44490433
1434498862.649,0.32098007
1434498862.665,1.16576
1434498862.681,2.2960968
1434498862.696,3.7427864
1434498862.712,5.34964
1434498862.728,6.928051
1434498862.743,8.260986
1434498862.759,9.237808
1434498862.774,9.81831
1434498862.79,10.129158
1434498862.806,10.416393
1434498862.821,10.996216
1434498862.837,12.161537
1434498862.853,14.004086
1434498862.868,16.287464
1434498862.884,18.459587
1434498862.899,19.816906
1434498862.915,19.761196
1434498862.931,18.011192
1434498862.946,14.733902
1434498862.962,10.428211
1434498862.978,5.75758
1434498862.993,1.3299904
1434498863.009,-2.4577217
1434498863.024,-5.446247
1434498863.04,-7.626686
1434498863.056,-9.097443
1434498863.071,-9.964081
1434498863.087,-10.364052
1434498863.103,-10.436188
1434498863.118,-10.361343
1434498863.134,-10.2800865
1434498863.149,-10.299114
1434498863.165,-10.438881
1434498863.181,-10.605434
1434498863.196,-10.660057
1434498863.212,-10.488167
1434498863.228,-10.048702
1434498863.243,-9.413902
1434498863.259,-8.714909
1434498863.274,-8.116423
1434498863.29,-7.721596
1434498863.306,-7.540922
1434498863.321,-7.4677296
1434498863.337,-7.373949
1434498863.353,-7.1135826
1434498863.368,-6.6296234
1434498863.384,-5.9569664
1434498863.399,-5.2375774
1434498863.415,-4.6462116
1434498863.431,-4.316147
1434498863.446,-4.2780914
1434498863.462,-4.408371
1434498863.478,-4.489441
1434498863.493,-4.2679176
1434498863.509,-3.5581894
1434498863.524,-2.305931
1434498863.54,-0.60298157
1434498863.556,1.3809986
1434498863.571,3.3990192
1434498863.587,5.230932
1434498863.603,6.77462
1434498863.618,8.04546
1434498863.634,9.216764
1434498863.65,10.544937
1434498863.665,12.312555
1434498863.681,14.67013
1434498863.696,17.572344
1434498863.712,20.724125
1434498863.728,23.595995
1434498863.743,25.56597
1434498863.759,26.03091
1434498863.774,24.624008
1434498863.79,21.342514
1434498863.806,16.555672
1434498863.821,10.955366
1434498863.837,5.3347454
1434498863.853,0.38908005
1434498863.868,-3.4819717
1434498863.884,-6.199686
1434498863.9,-7.9797
1434498863.915,-9.101074
1434498863.931,-9.844807
1434498863.946,-10.350243
1434498863.962,-10.672588
1434498863.978,-10.821909
1434498863.993,-10.857143
1434498864.009,-10.85618
1434498864.025,-10.9485855
1434498864.04,-11.206203
1434498864.056,-11.640841
1434498864.071,-12.179413
1434498864.087,-12.692972
1434498864.103,-13.076349
1434498864.118,-13.272867
1434498864.134,-13.325085
1434498864.15,-13.337452
1434498864.165,-13.369888
1434498864.181,-13.370356
1434498864.196,-13.172298
1434498864.212,-12.583057
1434498864.228,-11.497515
1434498864.243,-10.003979
1434498864.259,-8.349752
1434498864.275,-6.8531284
1434498864.29,-5.681011
1434498864.306,-4.8059006
1434498864.321,-3.9791965
1434498864.337,-2.935934
1434498864.353,-1.5507431
1434498864.368,0.100128174
1434498864.384,1.7939091
1434498864.4,3.2818775
1434498864.415,4.4350605
1434498864.431,5.2806168
1434498864.446,5.9606323
1434498864.462,6.6602497
1434498864.478,7.5730534
1434498864.493,8.845207
1434498864.509,10.568296
1434498864.525,12.73768
1434498864.54,15.173805
1434498864.556,17.52192
1434498864.571,19.268105
1434498864.587,19.881884
1434498864.603,18.979597
1434498864.618,16.461212
1434498864.634,12.615202
1434498864.65,7.9804287
1434498864.665,3.2504578
1434498864.681,-0.99473
1434498864.696,-4.397049
1434498864.712,-6.8963966
1434498864.728,-8.641712
1434498864.743,-9.858728
1434498864.759,-10.695852
1434498864.775,-11.195017
1434498864.79,-11.303856
1434498864.806,-11.041105
1434498864.821,-10.507153
1434498864.837,-9.917854
1434498864.853,-9.494152
1434498864.868,-9.373905
1434498864.884,-9.535715
1434498864.9,-9.851599
1434498864.915,-10.168692
1434498864.931,-10.426067
1434498864.946,-10.635731
1434498864.962,-10.874157
1434498864.978,-11.184036
1434498864.993,-11.533937
1434498865.009,-11.780901
1434498865.025,-11.764254
1434498865.04,-11.360607
1434498865.056,-10.540913
1434498865.071,-9.384502
1434498865.087,-8.07482
1434498865.103,-6.7806454
1434498865.118,-5.7104015
1434498865.134,-4.9434814
1434498865.15,-4.474781
1434498865.165,-4.1471977
1434498865.181,-3.7251244
1434498865.196,-2.9615555
1434498865.212,-1.6796074
1434498865.228,0.07014847
1434498865.243,2.072113
1434498865.259,3.9715958
1434498865.275,5.4666824
1434498865.29,6.437706
1434498865.306,6.969898
1434498865.321,7.3420715
1434498865.337,7.8686905
1434498865.353,8.784359
1434498865.368,10.178104
1434498865.384,12.016621
1434498865.4,14.1450615
1434498865.415,16.35984
1434498865.431,18.344883
1434498865.446,19.705318
1434498865.462,19.992916
1434498865.478,18.887691
1434498865.493,16.31474
1434498865.509,12.571171
1434498865.525,8.275997
1434498865.54,4.144245
1434498865.556,0.7731247
1434498865.571,-1.5600815
1434498865.587,-2.950657
1434498865.603,-3.7261505
1434498865.618,-4.2716713
1434498865.634,-4.84058
1434498865.65,-5.524399
1434498865.665,-6.243122
1434498865.681,-6.907791
1434498865.696,-7.4593086
1434498865.712,-7.887932
1434498865.728,-8.252159
1434498865.743,-8.565239
1434498865.759,-8.81712
1434498865.775,-8.994118
1434498865.79,-9.040329
1434498865.806,-8.953495
1434498865.821,-8.772865
1434498865.837,-8.578106
1434498865.853,-8.450558
1434498865.868,-8.472385
1434498865.884,-8.62912
1434498865.9,-8.822918
1434498865.915,-8.865627
1434498865.931,-8.537647
1434498865.946,-7.6907387
1434498865.962,-6.338146
1434498865.978,-4.6476097
1434498865.993,-2.9182663
1434498866.009,-1.4167061
1434498866.025,-0.27579498
1434498866.04,0.5534134
1434498866.056,1.2431412
1434498866.071,1.9870148
1434498866.087,2.8889084
1434498866.103,3.9097748
1434498866.118,4.931198
1434498866.134,5.8351746
1434498866.15,6.5698624
1434498866.165,7.2107162
1434498866.181,7.875267
1434498866.196,8.661407
1434498866.212,9.616608
1434498866.228,10.719559
1434498866.243,11.971329
1434498866.259,13.396568
1434498866.275,15.000435
1434498866.29,16.658173
1434498866.306,18.013977
1434498866.321,18.569931
1434498866.337,17.822937
1434498866.353,15.545486
1434498866.368,11.92849
1434498866.384,7.5737
1434498866.4,3.2476883
1434498866.415,-0.42284393
1434498866.431,-3.1487427
1434498866.446,-4.9726944
1434498866.462,-6.1640778
1434498866.478,-6.9834747
1434498866.493,-7.597313
1434498866.509,-8.0462265
1434498866.525,-8.310181
1434498866.54,-8.374657
1434498866.556,-8.231476
1434498866.572,-7.897148
1434498866.587,-7.3958817
1434498866.603,-6.776367
1434498866.618,-6.1175003
1434498866.634,-5.4687347
1434498866.65,-4.8823853
1434498866.665,-4.3354187
1434498866.681,-3.8390427
1434498866.697,-3.426651
1434498866.712,-3.1746216
1434498866.728,-3.164505
1434498866.743,-3.4325485
1434498866.759,-3.8962402
1434498866.775,-4.3548737
1434498866.79,-4.572174
1434498866.806,-4.380081
1434498866.822,-3.7890778
1434498866.837,-2.9744492
1434498866.853,-2.2047195
1434498866.868,-1.711853
1434498866.884,-1.5531006
1434498866.9,-1.5958786
1434498866.915,-1.5518341
1434498866.931,-1.1512833
1434498866.947,-0.2318039
1434498866.962,1.1451874
1434498866.978,2.7601318
1434498866.993,4.329239
1434498867.009,5.658684
1434498867.025,6.678627
1434498867.04,7.45076
1434498867.056,8.123741
1434498867.072,8.857338
1434498867.087,9.817558
1434498867.103,11.111229
1434498867.118,12.7213745
1434498867.134,14.426453
1434498867.15,15.795265
1434498867.165,16.270905
1434498867.181,15.414215
1434498867.197,13.118187
1434498867.212,9.692657
1434498867.228,5.796921
1434498867.243,2.1605225
1434498867.259,-0.69016266
1434498867.275,-2.5921097
1434498867.29,-3.700241
1434498867.306,-4.296623
1434498867.322,-4.6434174
1434498867.337,-4.8816147
1434498867.353,-5.0351944
1434498867.368,-5.0710754
1434498867.384,-4.9881363
1434498867.4,-4.853203
1434498867.415,-4.7147675
1434498867.431,-4.6311417
1434498867.447,-4.593071
1434498867.462,-4.5395737
1434498867.478,-4.4106445
1434498867.493,-4.1711273
1434498867.509,-3.8594742
1434498867.525,-3.528801
1434498867.54,-3.2371902
1434498867.556,-3.0407867
1434498867.572,-2.9205627
1434498867.587,-2.8333817
1434498867.603,-2.730751
1434498867.618,-2.584198
1434498867.634,-2.3878021
1434498867.65,-2.1553116
1434498867.665,-1.8819199
1434498867.681,-1.5331421
1434498867.697,-1.0321045
1434498867.712,-0.32006836
1434498867.728,0.62091064
1434498867.743,1.7430573
1434498867.759,2.9680862
1434498867.775,4.2015
1434498867.79,5.3466644
1434498867.806,6.343895
1434498867.822,7.1833725
1434498867.837,7.920906
1434498867.853,8.698952
1434498867.868,9.70871
1434498867.884,11.135712
1434498867.9,13.033569
1434498867.915,15.273254
1434498867.931,17.472923
1434498867.947,19.109024
1434498867.962,19.662292
1434498867.978,18.808517
1434498867.993,16.5504
1434498868.009,13.232307
1434498868.025,9.418755
1434498868.04,5.7295
1434498868.056,2.6440506
1434498868.072,0.40876007
1434498868.087,-0.9906845
1434498868.103,-1.739502
1434498868.118,-2.1048126
1434498868.134,-2.318245
1434498868.15,-2.5182724
1434498868.165,-2.7023392
1434498868.181,-2.8267746
1434498868.197,-2.7819443
1434498868.212,-2.5568085
1434498868.228,-2.1674042
1434498868.243,-1.7262192
1434498868.259,-1.3389206
1434498868.275,-1.1119232
1434498868.29,-1.0940323
1434498868.306,-1.2970123
1434498868.322,-1.6595535
1434498868.337,-2.1151123
1434498868.353,-2.604721
1434498868.368,-3.0882263
1434498868.384,-3.5159836
1434498868.4,-3.8214035
1434498868.415,-3.90477
1434498868.431,-3.645485
1434498868.447,-2.956459
1434498868.462,-1.8492279
1434498868.478,-0.395195
1434498868.493,1.2580109
1434498868.509,2.9674606
1434498868.525,4.644493
1434498868.54,6.235153
1434498868.556,7.713394
1434498868.572,9.061409
1434498868.587,10.229202
1434498868.603,11.223297
1434498868.618,12.122978
1434498868.634,13.102394
1434498868.65,14.364868
1434498868.665,16.061424
1434498868.681,18.154518
1434498868.697,20.37944
1434498868.712,22.27539
1434498868.728,23.356949
1434498868.743,23.19049
1434498868.759,21.621307
1434498868.775,18.734215
1434498868.79,14.8934555
1434498868.806,10.584732
1434498868.822,6.28434
1434498868.837,2.3460732
1434498868.853,-1.0015755
1434498868.868,-3.6950111
1434498868.884,-5.7487984
1434498868.9,-7.1932144
1434498868.915,-8.075489
1434498868.931,-8.474327
1434498868.947,-8.455177
1434498868.962,-8.14254
1434498868.978,-7.6786537
1434498868.993,-7.242504
1434498869.009,-6.959133
1434498869.025,-6.929062
1434498869.04,-7.144211
1434498869.056,-7.521858
1434498869.072,-7.9296684
1434498869.087,-8.279675
1434498869.103,-8.518116
1434498869.118,-8.674664
1434498869.134,-8.744221
1434498869.15,-8.699112
1434498869.165,-8.445099
1434498869.181,-7.8805275
1434498869.197,-6.987402
1434498869.212,-5.8734226
1434498869.228,-4.7061825
1434498869.244,-3.6472511
1434498869.259,-2.727417
1434498869.275,-1.8327694
1434498869.29,-0.7890663
1434498869.306,0.5348873
1434498869.322,2.1608448
1434498869.337,3.954855
1434498869.353,5.7467213
1434498869.369,7.431617
1434498869.384,9.040042
1434498869.4,10.72151
1434498869.415,12.6530695
1434498869.431,14.951328
1434498869.447,17.648258
1434498869.462,20.664824
1434498869.478,23.793098
1434498869.494,26.70294
1434498869.509,28.910759
1434498869.525,29.876976
1434498869.54,29.144512
1434498869.556,26.539555
1434498869.572,22.268171
1434498869.587,16.892454
1434498869.603,11.150816
1434498869.619,5.7146873
1434498869.634,1.0001783
1434498869.65,-2.8721867
1434498869.665,-5.968834
1434498869.681,-8.42956
1434498869.697,-10.364372
1434498869.712,-11.837082
1434498869.728,-12.870077
1434498869.744,-13.520998
1434498869.759,-13.879705
1434498869.775,-14.068882
1434498869.79,-14.174805
1434498869.806,-14.300808
1434498869.822,-14.4915085
1434498869.837,-14.755604
1434498869.853,-15.108616
1434498869.869,-15.528759
1434498869.884,-16.004528
1434498869.9,-16.517654
1434498869.915,-17.005882
1434498869.931,-17.359993
1434498869.947,-17.43325
1434498869.962,-17.080902
1434498869.978,-16.21519
1434498869.994,-14.813007
1434498870.009,-12.976692
1434498870.025,-10.839272
1434498870.04,-8.528706
1434498870.056,-6.1161957
1434498870.072,-3.6188507
1434498870.087,-1.0470276
1434498870.103,1.5934601
1434498870.119,4.2575073
1434498870.134,6.8665543
1434498870.15,9.330055
1434498870.165,11.595703
1434498870.181,13.662117
1434498870.197,15.605255
1434498870.212,17.587494
1434498870.228,19.805016
1434498870.244,22.476547
1434498870.259,25.666191
1434498870.275,29.215393
1434498870.29,32.696907
1434498870.306,35.432465
1434498870.322,36.689545
1434498870.337,35.84677
1434498870.353,32.68268
1434498870.369,27.39431
1434498870.384,20.620277
1434498870.4,13.21788
1434498870.415,6.021187
1434498870.431,-0.36180115
1434498870.447,-5.60672
1434498870.462,-9.6775055
1434498870.478,-12.707275
1434498870.494,-14.881775
1434498870.509,-16.394936
1434498870.525,-17.438332
1434498870.54,-18.185982
1434498870.556,-18.80957
1434498870.572,-19.409012
1434498870.587,-20.031342
1434498870.603,-20.659103
1434498870.619,-21.2359
1434498870.634,-21.693573
1434498870.65,-21.998474
1434498870.665,-22.11943
1434498870.681,-22.047684
1434498870.697,-21.795013
1434498870.712,-21.400711
1434498870.728,-20.905548
1434498870.744,-20.29422
1434498870.759,-19.492554
1434498870.775,-18.398117
1434498870.79,-16.919891
1434498870.806,-15.090958
1434498870.822,-13.038879
1434498870.837,-10.990967
1434498870.853,-9.109131
1434498870.869,-7.4142456
1434498870.884,-5.766678
1434498870.9,-3.9583893
1434498870.915,-1.8294678
1434498870.931,0.62080383
1434498870.947,3.2491913
1434498870.962,5.8550415
1434498870.978,8.2938385
1434498870.994,10.545563
1434498871.009,12.763489
1434498871.025,15.199936
1434498871.04,18.144272
1434498871.056,21.823761
1434498871.072,26.26239
1434498871.087,31.192078
1434498871.103,36.000336
1434498871.119,39.794693
1434498871.134,41.65712
1434498871.15,40.839264
1434498871.165,37.120834
1434498871.181,30.84018
1434498871.197,22.814423
1434498871.212,14.1102295
1434498871.228,5.7144165
1434498871.244,-1.6888733
1434498871.259,-7.8154907
1434498871.275,-12.66629
1434498871.29,-16.422684
1434498871.306,-19.266296
1434498871.322,-21.344116
1434498871.337,-22.75801
1434498871.353,-23.65213
1434498871.369,-24.21083
1434498871.384,-24.606476
1434498871.4,-24.96138
1434498871.415,-25.262497
1434498871.431,-25.413818
1434498871.447,-25.294968
1434498871.462,-24.92035
1434498871.478,-24.406784
1434498871.494,-23.975342
1434498871.509,-23.806595
1434498871.525,-23.915771
1434498871.54,-24.131104
1434498871.556,-24.175308
1434498871.572,-23.78299
1434498871.587,-22.804962
1434498871.603,-21.228928
1434498871.619,-19.178741
1434498871.634,-16.835861
1434498871.65,-14.405243
1434498871.665,-12.059158
1434498871.681,-9.915131
1434498871.697,-7.985718
1434498871.712,-6.1955566
1434498871.728,-4.377884
1434498871.744,-2.397583
1434498871.759,-0.16656494
1434498871.775,2.3020935
1434498871.79,4.938751
1434498871.806,7.67099
1434498871.822,10.46225
1434498871.837,13.360626
1434498871.853,16.48764
1434498871.869,19.985931
1434498871.884,23.950989
1434498871.9,28.35141
1434498871.916,32.87216
1434498871.931,36.885895
1434498871.947,39.5325
1434498871.962,39.925934
1434498871.978,37.491943
1434498871.994,32.19455
1434498872.009,24.629517
1434498872.025,15.813934
1434498872.041,6.9172974
1434498872.056,-1.1523132
1434498872.072,-7.889557
1434498872.087,-13.229828
1434498872.103,-17.362
1434498872.119,-20.511139
1434498872.134,-22.810608
1434498872.15,-24.269348
1434498872.166,-24.851715
1434498872.181,-24.594788
1434498872.197,-23.692657
1434498872.212,-22.496368
1434498872.228,-21.378998
1434498872.244,-20.673553
1434498872.259,-20.498322
1434498872.275,-20.791473
1434498872.291,-21.312164
1434498872.306,-21.809235
1434498872.322,-22.072296
1434498872.337,-22.031006
1434498872.353,-21.674316
1434498872.369,-21.06015
1434498872.384,-20.225983
1434498872.4,-19.185028
1434498872.416,-17.932129
1434498872.431,-16.43161
1434498872.447,-14.656952
1434498872.462,-12.565277
1434498872.478,-10.149353
1434498872.494,-7.4255676
1434498872.509,-4.4613953
1434498872.525,-1.3841248
1434498872.541,1.6657104
1434498872.556,4.5733337
1434498872.572,7.277588
1434498872.587,9.776947
1434498872.603,12.148621
1434498872.619,14.56604
1434498872.634,17.27353
1434498872.65,20.515564
1434498872.666,24.40451
1434498872.681,28.721832
1434498872.697,32.86731
1434498872.712,35.88022
1434498872.728,36.751343
1434498872.744,34.74814
1434498872.759,29.712006
1434498872.775,22.144653
1434498872.791,13.032471
1434498872.806,3.525116
1434498872.822,-5.362915
1434498872.837,-12.9964905
1434498872.853,-19.104065
1434498872.869,-23.695404
1434498872.884,-26.883057
1434498872.9,-28.788269
1434498872.916,-29.49524
1434498872.931,-29.121368
1434498872.947,-27.853638
1434498872.962,-26.017822
1434498872.978,-24.022217
1434498872.994,-22.254791
1434498873.009,-20.972504
1434498873.025,-20.223358
1434498873.041,-19.86969
1434498873.056,-19.658295
1434498873.072,-19.377838
1434498873.087,-18.927277
1434498873.103,-18.330597
1434498873.119,-17.660645
1434498873.134,-16.96048
1434498873.15,-16.163788
1434498873.166,-15.118683
1434498873.181,-13.638092
1434498873.197,-11.611206
1434498873.212,-9.066956
1434498873.228,-6.177063
1434498873.244,-3.219635
1434498873.259,-0.44256592
1434498873.275,2.0414734
1434498873.291,4.2753906
1434498873.306,6.4496765
1434498873.322,8.802368
1434498873.337,11.50943
1434498873.353,14.672943
1434498873.369,18.309387
1434498873.384,22.396301
1434498873.4,26.880707
1434498873.416,31.570892
1434498873.431,36.02115
1434498873.447,39.50241
1434498873.462,41.12686
1434498873.478,40.12979
1434498873.494,36.17502
1434498873.509,29.542114
1434498873.525,21.090546
1434498873.541,11.966919
1434498873.556,3.227478
1434498873.572,-4.399933
1434498873.587,-10.670532
1434498873.603,-15.676086
1434498873.619,-19.625397
1434498873.634,-22.682861
1434498873.65,-24.85028
1434498873.666,-26.088226
1434498873.681,-26.36206
1434498873.697,-25.811554
1434498873.712,-24.70163
1434498873.728,-23.389038
1434498873.744,-22.182892
1434498873.759,-21.266357
1434498873.775,-20.6586
1434498873.791,-20.269165
1434498873.806,-19.972778
1434498873.822,-19.668884
1434498873.837,-19.325592
1434498873.853,-18.876953
1434498873.869,-18.25296
1434498873.884,-17.391083
1434498873.9,-16.266174
1434498873.916,-14.928894
1434498873.931,-13.467987
1434498873.947,-11.94931
1434498873.962,-10.314636
1434498873.978,-8.445862
1434498873.994,-6.172333
1434498874.009,-3.4589844
1434498874.025,-0.39065552
1434498874.041,2.8208008
1434498874.056,5.940796
1434498874.072,8.8237915
1434498874.087,11.450409
1434498874.103,13.943115
1434498874.119,16.48352
1434498874.134,19.261703
1434498874.15,22.469254
1434498874.166,26.202927
1434498874.181,30.43097
1434498874.197,34.893616
1434498874.212,39.006348
1434498874.228,41.95668
1434498874.244,42.85414
1434498874.259,41.043716
1434498874.275,36.39862
1434498874.291,29.38469
1434498874.306,20.978165
1434498874.322,12.323669
1434498874.337,4.438553
1434498874.353,-2.1146698
1434498874.369,-7.215027
1434498874.384,-11.071625
1434498874.4,-14.01091
1434498874.416,-16.292343
1434498874.431,-18.042648
1434498874.447,-19.297546
1434498874.462,-20.111038
1434498874.478,-20.585999
1434498874.494,-20.859375
1434498874.509,-21.084717
1434498874.525,-21.31604
1434498874.541,-21.557251
1434498874.556,-21.749008
1434498874.572,-21.852524
1434498874.588,-21.872498
1434498874.603,-21.843521
1434498874.619,-21.747803
1434498874.634,-21.546234
1434498874.65,-21.101303
1434498874.666,-20.27565
1434498874.681,-18.989395
1434498874.697,-17.28653
1434498874.712,-15.319534
1434498874.728,-13.274796
1434498874.744,-11.277924
1434498874.759,-9.328323
1434498874.775,-7.319046
1434498874.791,-5.0747375
1434498874.806,-2.451706
1434498874.822,0.54696655
1434498874.838,3.781311
1434498874.853,6.967911
1434498874.869,9.827286
1434498874.884,12.19725
1434498874.9,14.126923
1434498874.916,15.856064
1434498874.931,17.791443
1434498874.947,20.322449
1434498874.963,23.699997
1434498874.978,27.867691
1434498874.994,32.399536
1434498875.009,36.499237
1434498875.025,39.182007
1434498875.041,39.556366
1434498875.056,37.100082
1434498875.072,31.873291
1434498875.088,24.530426
1434498875.103,16.127625
1434498875.119,7.757965
1434498875.134,0.26504517
1434498875.15,-5.912964
1434498875.166,-10.714478
1434498875.181,-14.274567
1434498875.197,-16.751663
1434498875.213,-18.247635
1434498875.228,-18.861893
1434498875.244,-18.767136
1434498875.259,-18.234985
1434498875.275,-17.575043
1434498875.291,-17.055191
1434498875.306,-16.786331
1434498875.322,-16.728302
1434498875.338,-16.74646
1434498875.353,-16.694809
1434498875.369,-16.509216
1434498875.384,-16.206268
1434498875.4,-15.858017
1434498875.416,-15.518707
1434498875.431,-15.187775
1434498875.447,-14.768906
1434498875.463,-14.130493
1434498875.478,-13.156143
1434498875.494,-11.794174
1434498875.509,-10.10025
1434498875.525,-8.223526
1434498875.541,-6.3533325
1434498875.556,-4.628189
1434498875.572,-3.126175
1434498875.588,-1.8182831
1434498875.603,-0.5890503
1434498875.619,0.69021606
1434498875.634,2.135666
1434498875.65,3.8228302
1434498875.666,5.7093964
1434498875.681,7.655884
1434498875.697,9.459381
1434498875.713,10.971436
1434498875.728,12.203766
1434498875.744,13.417557
1434498875.759,15.046234
1434498875.775,17.557137
1434498875.791,21.184952
1434498875.806,25.721092
1434498875.822,30.499886
1434498875.838,34.508087
1434498875.853,36.702415
1434498875.869,36.346275
1434498875.884,33.2416
1434498875.9,27.798775
1434498875.916,20.915947
1434498875.931,13.689636
1434498875.947,7.0967484
1434498875.963,1.7614136
1434498875.978,-2.148964
1434498875.994,-4.813507
1434498876.009,-6.623726
1434498876.025,-7.926056
1434498876.041,-8.987724
1434498876.056,-9.903366
1434498876.072,-10.705559
1434498876.088,-11.395088
1434498876.103,-12.000023
1434498876.119,-12.540985
1434498876.134,-13.017265
1434498876.15,-13.380981
1434498876.166,-13.571754
1434498876.181,-13.5683365
1434498876.197,-13.429108
1434498876.213,-13.250526
1434498876.228,-13.178902
1434498876.244,-13.270477
1434498876.259,-13.496849
1434498876.275,-13.689705
1434498876.291,-13.618431
1434498876.306,-13.101471
1434498876.322,-12.067474
1434498876.338,-10.618385
1434498876.353,-8.997635
1434498876.369,-7.4583206
1434498876.384,-6.1817093
1434498876.4,-5.1602707
1434498876.416,-4.242508
1434498876.431,-3.1761627
1434498876.447,-1.78199
1434498876.463,0.0259552
1434498876.478,2.171486
1434498876.494,4.50264
1434498876.509,6.8754425
1434498876.525,9.233536
1434498876.541,11.585632
1434498876.556,14.013771
1434498876.572,16.634438
1434498876.588,19.557457
1434498876.603,22.793777
1434498876.619,26.198906
1434498876.634,29.416538
1434498876.65,31.89404
1434498876.666,33.004803
1434498876.681,32.24263
1434498876.697,29.390049
1434498876.713,24.639408
1434498876.728,18.54858
1434498876.744,11.911892
1434498876.759,5.491211
1434498876.775,-0.1402359
1434498876.791,-4.7096977
1434498876.806,-8.18589
1434498876.822,-10.682926
1434498876.838,-12.311386
1434498876.853,-13.148174
1434498876.869,-13.24678
1434498876.884,-12.741085
1434498876.9,-11.87672
1434498876.916,-10.991859
1434498876.931,-10.400135
1434498876.947,-10.28204
1434498876.963,-10.569485
1434498876.978,-11.01696
1434498876.994,-11.339748
1434498877.009,-11.360718
1434498877.025,-11.091015
1434498877.041,-10.656918
1434498877.056,-10.197933
1434498877.072,-9.742268
1434498877.088,-9.198925
1434498877.103,-8.451866
1434498877.119,-7.448406
1434498877.134,-6.2528687
1434498877.15,-4.941433
1434498877.166,-3.5637817
1434498877.181,-2.0394974
1434498877.197,-0.23673248
1434498877.213,1.9034061
1434498877.228,4.2792873
1434498877.244,6.6693897
1434498877.259,8.79052
1434498877.275,10.467541
1434498877.291,11.720253
1434498877.306,12.738064
1434498877.322,13.785812
1434498877.338,15.110344
1434498877.353,16.834356
1434498877.369,19.032082
1434498877.384,21.65568
1434498877.4,24.501318
1434498877.416,27.23091
1434498877.431,29.310854
1434498877.447,30.081263
1434498877.463,29.000603
1434498877.478,25.815008
1434498877.494,20.759392
1434498877.51,14.479729
1434498877.525,7.8862534
1434498877.541,1.8125772
1434498877.556,-3.214347
1434498877.572,-7.0775833
1434498877.588,-9.930409
1434498877.603,-12.044814
1434498877.619,-13.577322
1434498877.635,-14.551207
1434498877.65,-14.922111
1434498877.666,-14.702342
1434498877.681,-14.047228
1434498877.697,-13.251089
1434498877.713,-12.608173
1434498877.728,-12.322313
1434498877.744,-12.415325
1434498877.76,-12.754641
1434498877.775,-13.107109
1434498877.791,-13.245498
1434498877.806,-13.014311
1434498877.822,-12.380495
1434498877.838,-11.414514
1434498877.853,-10.300318
1434498877.869,-9.210229
1434498877.885,-8.258691
1434498877.9,-7.4141045
1434498877.916,-6.5085607
1434498877.931,-5.293017
1434498877.947,-3.5595212
1434498877.963,-1.2376282
1434498877.978,1.5383116
1434498877.994,4.493744
1434498878.01,7.306641
1434498878.025,9.756962
1434498878.041,11.781109
1434498878.056,13.497253
1434498878.072,15.086889
1434498878.088,16.723225
1434498878.103,18.499619
1434498878.119,20.463604
1434498878.135,22.603256
1434498878.15,24.882227
1434498878.166,27.174486
1434498878.181,29.188545
1434498878.197,30.431734
1434498878.213,30.326092
1434498878.228,28.372503
1434498878.244,24.418259
1434498878.26,18.76262
1434498878.275,12.139299
1434498878.291,5.4516377
1434498878.306,-0.48002195
1434498878.322,-5.217084
1434498878.338,-8.677523
1434498878.353,-11.093687
1434498878.369,-12.779083
1434498878.385,-13.953758
1434498878.4,-14.691847
1434498878.416,-14.9567175
1434498878.431,-14.745038
1434498878.447,-14.134708
1434498878.463,-13.326037
1434498878.478,-12.549435
1434498878.494,-11.982067
1434498878.51,-11.683808
1434498878.525,-11.56947
1434498878.541,-11.511136
1434498878.556,-11.382176
1434498878.572,-11.148137
1434498878.588,-10.843283
1434498878.603,-10.530184
1434498878.619,-10.230278
1434498878.635,-9.897773
1434498878.65,-9.432292
1434498878.666,-8.752866
1434498878.681,-7.852127
1434498878.697,-6.8011637
1434498878.713,-5.6900673
1434498878.728,-4.572854
1434498878.744,-3.3894348
1434498878.76,-2.026476
1434498878.775,-0.3665161
1434498878.791,1.6351833
1434498878.806,3.8887243
1434498878.822,6.2272463
1434498878.838,8.464657
1434498878.853,10.476815
1434498878.869,12.23358
1434498878.885,13.831146
1434498878.9,15.454405
1434498878.916,17.337051
1434498878.931,19.721762
1434498878.947,22.739292
1434498878.963,26.307522
1434498878.978,30.019094
1434498878.994,33.18808
1434498879.01,34.929592
1434498879.025,34.52472
1434498879.041,31.632206
1434498879.056,26.526945
1434498879.072,19.965826
1434498879.088,12.984641
1434498879.103,6.5131865
1434498879.119,1.091363
1434498879.135,-3.1836061
1434498879.15,-6.519477
1434498879.166,-9.20561
1434498879.181,-11.411633
1434498879.197,-13.136685
1434498879.213,-14.290354
1434498879.228,-14.832361
1434498879.244,-14.815792
1434498879.26,-14.454575
1434498879.275,-13.962073
1434498879.291,-13.533299
1434498879.306,-13.259492
1434498879.322,-13.173229
1434498879.338,-13.272043
1434498879.353,-13.561643
1434498879.369,-14.009252
1434498879.385,-14.545328
1434498879.4,-15.034687
1434498879.416,-15.2960205
1434498879.431,-15.173679
1434498879.447,-14.579906
1434498879.463,-13.506944
1434498879.478,-12.042243
1434498879.494,-10.329219
1434498879.51,-8.516662
1434498879.525,-6.7673078
1434498879.541,-5.225362
1434498879.556,-3.9515572
1434498879.572,-2.9338298
1434498879.588,-1.9988699
1434498879.603,-0.92827415
1434498879.619,0.4930935
1434498879.635,2.348853
1434498879.65,4.586988
1434498879.666,7.067818
1434498879.681,9.603225
1434498879.697,12.07638
1434498879.713,14.439272
1434498879.728,16.744503
1434498879.744,19.08989
1434498879.76,21.603844
1434498879.775,24.400776
1434498879.791,27.522785
1434498879.806,30.79876
1434498879.822,33.78297
1434498879.838,35.798065
1434498879.853,36.072857
1434498879.869,34.065006
1434498879.885,29.67151
1434498879.9,23.34417
1434498879.916,15.947363
1434498879.931,8.464892
1434498879.947,1.6982538
1434498879.963,-3.90917
1434498879.978,-8.295929
1434498879.994,-11.608251
1434498880.01,-14.071827
1434498880.025,-15.8547735
1434498880.041,-17.05949
1434498880.056,-17.749891
1434498880.072,-18.045101
1434498880.088,-18.094337
1434498880.103,-18.04577
1434498880.119,-17.988256
1434498880.135,-17.934406
1434498880.15,-17.829926
1434498880.166,-17.650776
1434498880.182,-17.402851
1434498880.197,-17.150223
1434498880.213,-16.944994
1434498880.228,-16.798086
1434498880.244,-16.631514
1434498880.26,-16.352133
1434498880.275,-15.896234
1434498880.291,-15.22973
1434498880.307,-14.3560095
1434498880.322,-13.29469
1434498880.338,-12.056777
1434498880.353,-10.711531
1434498880.369,-9.3471155
1434498880.385,-8.07396
1434498880.4,-6.9326763
1434498880.416,-5.820752
1434498880.432,-4.4852657
1434498880.447,-2.6658096
1434498880.463,-0.21188545
1434498880.478,2.7637396
1434498880.494,5.93157
1434498880.51,8.880384
1434498880.525,11.329753
1434498880.541,13.211863
1434498880.557,14.697692
1434498880.572,16.12704
1434498880.588,17.861446
1434498880.603,20.209785
1434498880.619,23.301895
1434498880.635,27.018242
1434498880.65,30.930326
1434498880.666,34.27764
1434498880.682,36.14778
1434498880.697,35.735855
1434498880.713,32.66895
1434498880.728,27.132877
1434498880.744,19.912611
1434498880.76,12.120468
1434498880.775,4.8495846
1434498880.791,-1.1162395
1434498880.807,-5.4625683
1434498880.822,-8.332104
1434498880.838,-10.144743
1434498880.853,-11.397539
1434498880.869,-12.490635
1434498880.885,-13.607332
1434498880.9,-14.737898
1434498880.916,-15.765436
1434498880.932,-16.548548
1434498880.947,-17.066694
1434498880.963,-17.366833
1434498880.978,-17.567606
1434498880.994,-17.694485
1434498881.01,-17.755133
1434498881.025,-17.684906
1434498881.041,-17.447382
1434498881.057,-17.109608
1434498881.072,-16.771252
1434498881.088,-16.528168
1434498881.103,-16.38882
1434498881.119,-16.237467
1434498881.135,-15.897417
1434498881.15,-15.201897
1434498881.166,-14.052807
1434498881.182,-12.448849
1434498881.197,-10.511656
1434498881.213,-8.370003
1434498881.228,-6.1711235
1434498881.244,-3.9911423
1434498881.26,-1.8590488
1434498881.275,0.2586727
1434498881.291,2.3899384
1434498881.307,4.5464935
1434498881.322,6.6754074
1434498881.338,8.688152
1434498881.353,10.517294
1434498881.369,12.210587
1434498881.385,13.946089
1434498881.4,16.030537
1434498881.416,18.755135
1434498881.432,22.208557
1434498881.447,26.064848
1434498881.463,29.615442
1434498881.478,31.854944
1434498881.494,31.908287
1434498881.51,29.272802
1434498881.525,24.130272
1434498881.541,17.266533
1434498881.557,9.8246765
1434498881.572,2.8988514
1434498881.588,-2.7809029
1434498881.603,-7.008484
1434498881.619,-9.980457
1434498881.635,-12.081415
1434498881.65,-13.609932
1434498881.666,-14.725468
1434498881.682,-15.419765
1434498881.697,-15.646488
1434498881.713,-15.377501
1434498881.728,-14.7019615
1434498881.744,-13.7498
1434498881.76,-12.730007
1434498881.775,-11.808687
1434498881.791,-11.158089
1434498881.807,-10.829964
1434498881.822,-10.850859
1434498881.838,-11.160458
1434498881.853,-11.6901455
1434498881.869,-12.308254
1434498881.885,-12.874573
1434498881.9,-13.218805
1434498881.916,-13.224043
1434498881.932,-12.79384
1434498881.947,-11.924286
1434498881.963,-10.668896
1434498881.978,-9.09417
1434498881.994,-7.2594833
1434498882.01,-5.2225494
1434498882.025,-3.0184345
1434498882.041,-0.7162609
1434498882.057,1.5823364
1434498882.072,3.7613182
1434498882.088,5.766081
1434498882.103,7.624544
1434498882.119,9.4696865
1434498882.135,11.437181
1434498882.15,13.681259
1434498882.166,16.29767
1434498882.182,19.326967
1434498882.197,22.69669
1434498882.213,26.155003
1434498882.228,29.184658
1434498882.244,31.085981
1434498882.26,31.164581
1434498882.275,29.007477
1434498882.291,24.690104
1434498882.307,18.793005
1434498882.322,12.218918
1434498882.338,5.8351173
1434498882.353,0.21204376
1434498882.369,-4.4514694
1434498882.385,-8.24004
1434498882.4,-11.294548
1434498882.416,-13.673008
1434498882.432,-15.320311
1434498882.447,-16.18779
1434498882.463,-16.300549
1434498882.478,-15.802647
1434498882.494,-14.90984
1434498882.51,-13.844414
1434498882.525,-12.772194
1434498882.541,-11.817726
1434498882.557,-11.092491
1434498882.572,-10.69471
1434498882.588,-10.708168
1434498882.603,-11.1031
1434498882.619,-11.743477
1434498882.635,-12.399864
1434498882.65,-12.815422
1434498882.666,-12.790894
1434498882.682,-12.23101
1434498882.697,-11.206448
1434498882.713,-9.84655
1434498882.728,-8.349319
1434498882.744,-6.859993
1434498882.76,-5.4755745
1434498882.775,-4.1854897
1434498882.791,-2.917366
1434498882.807,-1.5701027
1434498882.822,-0.052547455
1434498882.838,1.6701088
1434498882.854,3.5691147
1434498882.869,5.564186
1434498882.885,7.565304
1434498882.9,9.505856
1434498882.916,11.397152
1434498882.932,13.338409
1434498882.947,15.493496
1434498882.963,18.054352
1434498882.979,21.091202
1434498882.994,24.46933
1434498883.01,27.736431
1434498883.025,30.196194
1434498883.041,31.058826
1434498883.057,29.744656
1434498883.072,26.081985
1434498883.088,20.439938
1434498883.104,13.593906
1434498883.119,6.519787
1434498883.135,0.04426956
1434498883.15,-5.3264008
1434498883.166,-9.455734
1434498883.182,-12.489883
1434498883.197,-14.641117
1434498883.213,-16.098927
1434498883.229,-16.974564
1434498883.244,-17.30209
1434498883.26,-17.16407
1434498883.275,-16.698486
1434498883.291,-16.094803
1434498883.307,-15.53344
1434498883.322,-15.121307
1434498883.338,-14.86734
1434498883.354,-14.757832
1434498883.369,-14.789581
1434498883.385,-15.007519
1434498883.4,-15.458057
1434498883.416,-16.07975
1434498883.432,-16.68124
1434498883.447,-17.003475
1434498883.463,-16.795921
1434498883.479,-15.957035
1434498883.494,-14.569691
1434498883.51,-12.844677
1434498883.525,-10.99218
1434498883.541,-9.127434
1434498883.557,-7.21743
1434498883.572,-5.189369
1434498883.588,-2.972231
1434498883.604,-0.59575844
1434498883.619,1.8296261
1434498883.635,4.1394596
1434498883.65,6.229206
1434498883.666,8.068846
1434498883.682,9.714493
1434498883.697,11.269428
1434498883.713,12.836763
1434498883.729,14.497622
1434498883.744,16.334177
1434498883.76,18.432055
1434498883.775,20.846981
1434498883.791,23.509829
1434498883.807,26.105267
1434498883.822,28.03835
1434498883.838,28.579313
1434498883.854,27.110023
1434498883.869,23.41312
1434498883.885,17.815685
1434498883.9,11.121582
1434498883.916,4.2727547
1434498883.932,-1.9269257
1434498883.947,-7.066883
1434498883.963,-11.09309
1434498883.979,-14.19598
1434498883.994,-16.56987
1434498884.01,-18.33316
1434498884.025,-19.497345
1434498884.041,-20.034002
1434498884.057,-19.985367
1434498884.072,-19.480848
1434498884.088,-18.706512
1434498884.104,-17.893482
1434498884.119,-17.21891
1434498884.135,-16.762213
1434498884.15,-16.498957
1434498884.166,-16.314804
1434498884.182,-16.108553
1434498884.197,-15.82881
1434498884.213,-15.520351
1434498884.229,-15.269991
1434498884.244,-15.085876
1434498884.26,-14.844539
1434498884.275,-14.309954
1434498884.291,-13.281799
1434498884.307,-11.710018
1434498884.322,-9.770802
1434498884.338,-7.7383556
1434498884.354,-5.8220863
1434498884.369,-4.0378656
1434498884.385,-2.2102242
1434498884.4,-0.12372494
1434498884.416,2.2996793
1434498884.432,4.908765
1434498884.447,7.3773837
1434498884.463,9.401224
1434498884.479,10.848806
1434498884.494,11.842047
1434498884.51,12.684293
1434498884.525,13.754936
1434498884.541,15.352898
1434498884.557,17.598858
1434498884.572,20.369217
1434498884.588,23.289072
1434498884.604,25.786922
1434498884.619,27.207024
1434498884.635,26.982475
1434498884.65,24.856524
1434498884.666,20.96723
1434498884.682,15.8481045
1434498884.697,10.213298
1434498884.713,4.7778244
1434498884.729,0.011772156
1434498884.744,-3.9110928
1434498884.76,-7.097046
1434498884.775,-9.7641735
1434498884.791,-12.150277
1434498884.807,-14.339078
1434498884.822,-16.280666
1434498884.838,-17.790108
1434498884.854,-18.6952
1434498884.869,-18.909266
1434498884.885,-18.544233
1434498884.9,-17.827625
1434498884.916,-17.040348
1434498884.932,-16.366941
1434498884.947,-15.861248
1434498884.963,-15.459862
1434498884.979,-15.063143
1434498884.994,-14.638172
1434498885.01,-14.220648
1434498885.025,-13.843746
1434498885.041,-13.468765
1434498885.057,-12.927349
1434498885.072,-12.041729
1434498885.088,-10.662704
1434498885.104,-8.842716
1434498885.119,-6.771927
1434498885.135,-4.7533455
1434498885.15,-3.002102
1434498885.166,-1.5686188
1434498885.182,-0.33813858
1434498885.197,0.90680313
1434498885.213,2.3560333
1434498885.229,4.062954
1434498885.244,5.9275665
1434498885.26,7.7753296
1434498885.275,9.4414215
1434498885.291,10.843113
1434498885.307,12.037155
1434498885.322,13.2056465
1434498885.338,14.60989
1434498885.354,16.476448
1434498885.369,18.940098
1434498885.385,21.909355
1434498885.4,25.042404
1434498885.416,27.756134
1434498885.432,29.420116
1434498885.447,29.46571
1434498885.463,27.628975
1434498885.479,24.004059
1434498885.494,19.096588
1434498885.51,13.618584
1434498885.526,8.331764
1434498885.541,3.8132553
1434498885.557,0.3623581
1434498885.572,-2.0713196
1434498885.588,-3.774704
1434498885.604,-5.1179047
1434498885.619,-6.3673706
1434498885.635,-7.6265106
1434498885.65,-8.81778
1434498885.666,-9.785706
1434498885.682,-10.458046
1434498885.697,-10.897278
1434498885.713,-11.229095
1434498885.729,-11.602112
1434498885.744,-12.039856
1434498885.76,-12.438263
1434498885.776,-12.658089
1434498885.791,-12.650017
1434498885.807,-12.490829
1434498885.822,-12.357262
1434498885.838,-12.347023
1434498885.854,-12.416252
1434498885.869,-12.354309
1434498885.885,-11.898926
1434498885.901,-10.882782
1434498885.916,-9.34993
1434498885.932,-7.512108
1434498885.947,-5.6639023
1434498885.963,-4.034981
1434498885.979,-2.708641
1434498885.994,-1.6013641
1434498886.01,-0.5583191
1434498886.026,0.604805
1434498886.041,2.002777
1434498886.057,3.6847916
1434498886.072,5.626793
1434498886.088,7.7573166
1434498886.104,9.91227
1434498886.119,11.928581
1434498886.135,13.617111
1434498886.151,14.839302
1434498886.166,15.586212
1434498886.182,15.995102
1434498886.197,16.390251
1434498886.213,17.1585
1434498886.229,18.6249
1434498886.244,20.880806
1434498886.26,23.63816
1434498886.276,26.275154
1434498886.291,27.944054
1434498886.307,27.905327
1434498886.322,25.762123
1434498886.338,21.657982
1434498886.354,16.212952
1434498886.369,10.334076
1434498886.385,4.8904037
1434498886.401,0.44883728
1434498886.416,-2.789566
1434498886.432,-4.9813385
1434498886.447,-6.447586
1434498886.463,-7.5131683
1434498886.479,-8.391365
1434498886.494,-9.167038
1434498886.51,-9.850174
1434498886.526,-10.42437
1434498886.541,-10.937683
1434498886.557,-11.448929
1434498886.572,-12.054939
1434498886.588,-12.770065
1434498886.604,-13.539787
1434498886.619,-14.218727
1434498886.635,-14.649086
1434498886.651,-14.719803
1434498886.666,-14.437202
1434498886.682,-13.942986
1434498886.697,-13.420891
1434498886.713,-13.0205765
1434498886.729,-12.773506
1434498886.744,-12.554634
1434498886.76,-12.152542
1434498886.776,-11.36602
1434498886.791,-10.098358
1434498886.807,-8.41275
1434498886.822,-6.5400543
1434498886.838,-4.7383957
1434498886.854,-3.2582092
1434498886.869,-2.2045593
1434498886.885,-1.4939194
1434498886.901,-0.92780304
1434498886.916,-0.26268005
1434498886.932,0.7034378
1434498886.947,2.0520248
1434498886.963,3.7226486
1434498886.979,5.600479
1434498886.994,7.5190125
1434498887.01,9.312607
1434498887.026,10.828613
1434498887.041,11.955093
1434498887.057,12.674576
1434498887.072,13.058182
1434498887.088,13.346832
1434498887.104,13.831696
1434498887.119,14.810318
1434498887.135,16.405014
1434498887.151,18.515076
1434498887.166,20.756317
1434498887.182,22.565643
1434498887.197,23.316055
1434498887.213,22.573624
1434498887.229,20.20848
1434498887.244,16.488892
1434498887.26,11.967834
1434498887.276,7.333847
1434498887.291,3.1708221
1434498887.307,-0.17485046
1434498887.322,-2.6691437
1434498887.338,-4.433197
1434498887.354,-5.6846466
1434498887.369,-6.543869
1434498887.385,-7.0621185
1434498887.401,-7.2161407
1434498887.416,-7.0267944
1434498887.432,-6.5935516
1434498887.447,-6.0769653
1434498887.463,-5.62146
1434498887.479,-5.3256073
1434498887.494,-5.171875
1434498887.51,-5.0878906
1434498887.526,-5.00264
1434498887.541,-4.914612
1434498887.557,-4.8815765
1434498887.572,-5.023056
1434498887.588,-5.400894
1434498887.604,-5.9910126
1434498887.619,-6.667938
1434498887.635,-7.2407684
1434498887.651,-7.5199127
1434498887.666,-7.4002075
1434498887.682,-6.8469086
1434498887.697,-5.9385986
1434498887.713,-4.778763
1434498887.729,-3.4981995
1434498887.744,-2.2169037
1434498887.76,-1.0681305
1434498887.776,-0.11399841
1434498887.791,0.6131592
1434498887.807,1.20401
1434498887.822,1.7882996
1434498887.838,2.5011444
1434498887.854,3.40477
1434498887.869,4.441284
1434498887.885,5.48497
1434498887.901,6.398651
1434498887.916,7.1581573
1434498887.932,7.8404846
1434498887.947,8.631195
1434498887.963,9.729965
1434498887.979,11.279739
1434498887.994,13.316086
1434498888.01,15.7005005
1434498888.026,18.166824
1434498888.041,20.3042
1434498888.057,21.656693
1434498888.072,21.751678
1434498888.088,20.322006
1434498888.104,17.388306
1434498888.119,13.298798
1434498888.135,8.669708
1434498888.151,4.2182465
1434498888.166,0.4692688
1434498888.182,-2.30365
1434498888.198,-4.171173
1434498888.213,-5.3807526
1434498888.229,-6.2270203
1434498888.244,-6.8903503
1434498888.26,-7.456009
1434498888.276,-7.8893433
1434498888.291,-8.150726
1434498888.307,-8.239319
1434498888.322,-8.2146
1434498888.338,-8.164108
1434498888.354,-8.165497
1434498888.369,-8.251678
1434498888.385,-8.40593
1434498888.401,-8.585022
1434498888.416,-8.75856
1434498888.432,-8.8975525
1434498888.448,-8.963333
1434498888.463,-8.905945
1434498888.479,-8.650635
1434498888.494,-8.125183
1434498888.51,-7.2850037
1434498888.526,-6.148697
1434498888.541,-4.8250275
1434498888.557,-3.4234009
1434498888.573,-2.0632935
1434498888.588,-0.80052185
1434498888.604,0.35458374
1434498888.619,1.4449158
1434498888.635,2.4912415
1434498888.651,3.5091553
1434498888.666,4.4931335
1434498888.682,5.4826355
1434498888.698,6.5106506
1434498888.713,7.609909
1434498888.729,8.785187
1434498888.744,10.003143
1434498888.76,11.222015
1434498888.776,12.486679
1434498888.791,13.910965
1434498888.807,15.684357
1434498888.823,17.918396
1434498888.838,20.529755
1434498888.854,23.158005
1434498888.869,25.20317
1434498888.885,26.019775
1434498888.901,25.170227
1434498888.916,22.572983
1434498888.932,18.59143
1434498888.948,13.881485
1434498888.963,9.185944
1434498888.979,5.079254
1434498888.994,1.8343658
1434498889.01,-0.5675354
1434498889.026,-2.3357391
1434498889.041,-3.6786041
1434498889.057,-4.7365875
1434498889.073,-5.5436707
1434498889.088,-6.0806885
1434498889.104,-6.362488
1434498889.119,-6.445343
1434498889.135,-6.4453735
1434498889.151,-6.427704
1434498889.166,-6.3668976
1434498889.182,-6.152809
1434498889.198,-5.6849213
1434498889.213,-4.9592514
1434498889.229,-4.1353455
1434498889.244,-3.484436
1434498889.26,-3.2661438
1434498889.276,-3.5886307
1434498889.291,-4.335373
1434498889.307,-5.223381
1434498889.323,-5.9083786
1434498889.338,-6.1478806
1434498889.354,-5.873413
1434498889.369,-5.1963882
1434498889.385,-4.3139725
1434498889.401,-3.3669815
1434498889.416,-2.4111252
1434498889.432,-1.3928452
1434498889.448,-0.21134186
1434498889.463,1.1744308
1434498889.479,2.7160645
1434498889.494,4.311241
1434498889.51,5.858803
1434498889.526,7.3307343
1434498889.541,8.809631
1434498889.557,10.43708
1434498889.573,12.344559
1434498889.588,14.61557
1434498889.604,17.243706
1434498889.619,20.160423
1434498889.635,23.213516
1434498889.651,26.141304
1434498889.666,28.520576
1434498889.682,29.826271
1434498889.698,29.544212
1434498889.713,27.377312
1434498889.729,23.38897
1434498889.744,18.08303
1434498889.76,12.222969
1434498889.776,6.591385
1434498889.791,1.7733841
1434498889.807,-2.0202026
1434498889.823,-4.882759
1434498889.838,-7.074173
1434498889.854,-8.859772
1434498889.869,-10.380501
1434498889.885,-11.689606
1434498889.901,-12.753006
1434498889.916,-13.570389
1434498889.932,-14.151268
1434498889.948,-14.558006
1434498889.963,-14.840176
1434498889.979,-15.025494
1434498889.994,-15.131519
1434498890.01,-15.173737
1434498890.026,-15.189198
1434498890.041,-15.211121
1434498890.057,-15.276833
1434498890.073,-15.408077
1434498890.088,-15.58144
1434498890.104,-15.729626
1434498890.119,-15.756218
1434498890.135,-15.544075
1434498890.151,-14.994068
1434498890.166,-14.07943
1434498890.182,-12.85915
1434498890.198,-11.443817
1434498890.213,-9.919865
1434498890.229,-8.3463745
1434498890.244,-6.670536
1434498890.26,-4.7860527
1434498890.276,-2.620491
1434498890.291,-0.16309357
1434498890.307,2.4852142
1434498890.323,5.1132107
1434498890.338,7.5028534
1434498890.354,9.506189
1434498890.369,11.120565
1434498890.385,12.533333
1434498890.401,14.05452
1434498890.416,15.999788
1434498890.432,18.602125
1434498890.448,21.849981
1434498890.463,25.432993
1434498890.479,28.778973
1434498890.494,31.15913
1434498890.51,31.875923
1434498890.526,30.48524
1434498890.541,26.936749
1434498890.557,21.635098
1434498890.573,15.283587
1434498890.588,8.695318
1434498890.604,2.5425332
1434498890.619,-2.767714
1434498890.635,-7.1745024
1434498890.651,-10.811004
1434498890.666,-13.881659
1434498890.682,-16.514706
1434498890.698,-18.727234
1434498890.713,-20.439045
1434498890.729,-21.573406
1434498890.744,-22.132343
1434498890.76,-22.20549
1434498890.776,-21.958641
1434498890.791,-21.563892
1434498890.807,-21.143085
1434498890.823,-20.761438
1434498890.838,-20.422226
1434498890.854,-20.150654
1434498890.869,-19.964127
1434498890.885,-19.902205
1434498890.901,-19.948511
1434498890.916,-20.037378
1434498890.932,-20.010862
1434498890.948,-19.686384
1434498890.963,-18.921547
1434498890.979,-17.693024
1434498890.994,-16.090223
1434498891.01,-14.285694
1434498891.026,-12.437853
1434498891.041,-10.684603
1434498891.057,-9.040543
1434498891.073,-7.472103
1434498891.088,-5.8531246
1434498891.104,-4.057184
1434498891.12,-1.9943504
1434498891.135,0.28953934
1434498891.151,2.6420135
1434498891.166,4.8117523
1434498891.182,6.6265564
1434498891.198,8.057766
1434498891.213,9.266628
1434498891.229,10.510437
1434498891.245,12.053555
1434498891.26,14.067829
1434498891.276,16.60904
1434498891.291,19.652039
1434498891.307,23.032291
1434498891.323,26.428009
1434498891.338,29.279171
1434498891.354,30.84882
1434498891.37,30.434105
1434498891.385,27.672092
1434498891.401,22.759903
1434498891.416,16.433636
1434498891.432,9.729187
1434498891.448,3.5904503
1434498891.463,-1.4621582
1434498891.479,-5.382084
1434498891.495,-8.438576
1434498891.51,-10.98933
1434498891.526,-13.236557
1434498891.541,-15.242157
1434498891.557,-16.949173
1434498891.573,-18.312763
1434498891.588,-19.358582
1434498891.604,-20.190273
1434498891.62,-20.903072
1434498891.635,-21.565498
1434498891.651,-22.153454
1434498891.666,-22.60429
1434498891.682,-22.836765
1434498891.698,-22.868542
1434498891.713,-22.762558
1434498891.729,-22.637482
1434498891.745,-22.52322
1434498891.76,-22.36034
1434498891.776,-21.993187
1434498891.791,-21.2775
1434498891.807,-20.153557
1434498891.823,-18.703377
1434498891.838,-17.089344
1434498891.854,-15.485523
1434498891.87,-14.012508
1434498891.885,-12.7101555
1434498891.901,-11.534004
1434498891.916,-10.377087
1434498891.932,-9.110596
1434498891.948,-7.5951233
1434498891.963,-5.7295227
1434498891.979,-3.5219574
1434498891.995,-1.0854034
1434498892.01,1.3628769
1434498892.026,3.6319122
1434498892.041,5.6410866
1434498892.057,7.461609
1434498892.073,9.279057
1434498892.088,11.314476
1434498892.104,13.703266
1434498892.12,16.47995
1434498892.135,19.524517
1434498892.151,22.519638
1434498892.166,24.973236
1434498892.182,26.27084
1434498892.198,25.816269
1434498892.213,23.285004
1434498892.229,18.765083
1434498892.245,12.813889
1434498892.26,6.283493
1434498892.276,0.08133316
1434498892.291,-5.098583
1434498892.307,-8.894264
1434498892.323,-11.324837
1434498892.338,-12.61784
1434498892.354,-13.152546
1434498892.37,-13.261492
1434498892.385,-13.173124
1434498892.401,-12.971346
1434498892.416,-12.586765
1434498892.432,-11.914989
1434498892.448,-10.919617
1434498892.463,-9.756336
1434498892.479,-8.7307625
1434498892.495,-8.195221
1434498892.51,-8.36375
1434498892.526,-9.192158
1434498892.541,-10.422445
1434498892.557,-11.697233
1434498892.573,-12.756449
1434498892.588,-13.415195
1434498892.604,-13.615021
1434498892.62,-13.278778
1434498892.635,-12.370155
1434498892.651,-10.889441
1434498892.666,-8.988211
1434498892.682,-6.9128
1434498892.698,-4.9443607
1434498892.713,-3.270443
1434498892.729,-1.901638
1434498892.745,-0.715992
1434498892.76,0.4378252
1434498892.776,1.6429405
1434498892.791,2.913231
1434498892.807,4.2458057
1434498892.823,5.675076
1434498892.838,7.285292
1434498892.854,9.162033
1434498892.87,11.325005
1434498892.885,13.719244
1434498892.901,16.227045
1434498892.916,18.671942
1434498892.932,20.80822
1434498892.948,22.29517
1434498892.963,22.721186
1434498892.979,21.74811
1434498892.995,19.248817
1434498893.01,15.402223
1434498893.026,10.704241
1434498893.041,5.794419
1434498893.057,1.2527709
1434498893.073,-2.577746
1434498893.088,-5.607456
1434498893.104,-7.9707184
1434498893.12,-9.836851
1434498893.135,-11.335843
1434498893.151,-12.489877
1434498893.166,-13.219244
1434498893.182,-13.433126
1434498893.198,-13.105075
1434498893.213,-12.327417
1434498893.229,-11.318216
1434498893.245,-10.347162
1434498893.26,-9.636936
1434498893.276,-9.259829
1434498893.291,-9.170742
1434498893.307,-9.2258835
1434498893.323,-9.285566
1434498893.338,-9.241938
1434498893.354,-9.061346
1434498893.37,-8.738445
1434498893.385,-8.241451
1434498893.401,-7.516943
1434498893.416,-6.509264
1434498893.432,-5.1917725
1434498893.448,-3.6145477
1434498893.463,-1.9069023
1434498893.479,-0.20973206
1434498893.495,1.392376
1434498893.51,2.869461
1434498893.526,4.2564316
1434498893.541,5.5853615
1434498893.557,6.845951
1434498893.573,7.9563065
1434498893.588,8.84671
1434498893.604,9.496471
1434498893.62,10.009579
1434498893.635,10.617119
1434498893.651,11.618816
1434498893.666,13.29303
1434498893.682,15.790268
1434498893.698,18.983173
1434498893.713,22.446384
1434498893.729,25.501522
1434498893.745,27.381916
1434498893.76,27.47332
1434498893.776,25.532207
1434498893.792,21.773342
1434498893.807,16.794724
1434498893.823,11.380146
1434498893.838,6.24815
1434498893.854,1.8346252
1434498893.87,-1.6998367
1434498893.885,-4.451515
1434498893.901,-6.577919
1434498893.917,-8.227749
1434498893.932,-9.471619
1434498893.948,-10.32526
1434498893.963,-10.7677765
1434498893.979,-10.805748
1434498893.995,-10.463623
1434498894.01,-9.787521
1434498894.026,-8.858608
1434498894.042,-7.802391
1434498894.057,-6.742363
1434498894.073,-5.825264
1434498894.088,-5.194664
1434498894.104,-4.973198
1434498894.12,-5.226059
1434498894.135,-5.905983
1434498894.151,-6.874161
1434498894.167,-7.9036865
1434498894.182,-8.711487
1434498894.198,-9.061211
1434498894.213,-8.830292
1434498894.229,-8.048103
1434498894.245,-6.884384
1434498894.26,-5.58712
1434498894.276,-4.3625565
1434498894.292,-3.306778
1434498894.307,-2.3980103
1434498894.323,-1.5237045
1434498894.338,-0.5481949
1434498894.354,0.60754395
1434498894.37,1.9604645
1434498894.385,3.4291306
1434498894.401,4.938408
1434498894.417,6.401161
1434498894.432,7.7717514
1434498894.448,9.089363
1434498894.463,10.522079
1434498894.479,12.308319
1434498894.495,14.728584
1434498894.51,17.864456
1434498894.526,21.472542
1434498894.542,24.92015
1434498894.557,27.31665
1434498894.573,27.8284
1434498894.588,26.030746
1434498894.604,22.066292
1434498894.62,16.606056
1434498894.635,10.586212
1434498894.651,4.8842697
1434498894.667,0.06871033
1434498894.682,-3.6201935
1434498894.698,-6.2652054
1434498894.713,-8.057373
1434498894.729,-9.221794
1434498894.745,-9.925606
1434498894.76,-10.312035
1434498894.776,-10.478699
1434498894.792,-10.511993
1434498894.807,-10.515999
1434498894.823,-10.548218
1434498894.838,-10.61911
1434498894.854,-10.651642
1434498894.87,-10.4798355
1434498894.885,-9.9653015
1434498894.901,-9.096031
1434498894.917,-8.000702
1434498894.932,-6.9271393
1434498894.948,-6.1225204
1434498894.963,-5.6669083
1434498894.979,-5.471794
1434498894.995,-5.2961807
1434498895.01,-4.900894
1434498895.026,-4.1747513
1434498895.042,-3.1549606
1434498895.057,-1.9767075
1434498895.073,-0.79244995
1434498895.088,0.32091522
1434498895.104,1.3721848
1434498895.12,2.4470596
1434498895.135,3.6201553
1434498895.151,4.9181137
1434498895.167,6.283348
1434498895.182,7.6333237
1434498895.198,8.855156
1434498895.213,9.905014
1434498895.229,10.835091
1434498895.245,11.795906
1434498895.26,12.967155
1434498895.276,14.50692
1434498895.292,16.50579
1434498895.307,18.954483
1434498895.323,21.695946
1434498895.338,24.412766
1434498895.354,26.59047
1434498895.37,27.632278
1434498895.385,27.002968
1434498895.401,24.46257
1434498895.417,20.202614
1434498895.432,14.845978
1434498895.448,9.190475
1434498895.463,3.969452
1434498895.479,-0.3958664
1434498895.495,-3.7984772
1434498895.51,-6.372093
1434498895.526,-8.28141
1434498895.542,-9.602631
1434498895.557,-10.330673
1434498895.573,-10.470764
1434498895.588,-10.100746
1434498895.604,-9.416054
1434498895.62,-8.654457
1434498895.635,-8.0203705
1434498895.651,-7.590988
1434498895.667,-7.3558426
1434498895.682,-7.2294083
1434498895.698,-7.11924
1434498895.713,-6.9625015
1434498895.729,-6.7629623
1434498895.745,-6.530792
1434498895.76,-6.3098984
1434498895.776,-6.14093
1434498895.792,-6.0248337
1434498895.807,-5.8868103
1434498895.823,-5.6348267
1434498895.838,-5.1884537
1434498895.854,-4.4877014
1434498895.87,-3.5066605
1434498895.885,-2.2590637
1434498895.901,-0.80578613
1434498895.917,0.7732544
1434498895.932,2.3845139
1434498895.948,3.9249802
1434498895.963,5.3740997
1434498895.979,6.776146
1434498895.995,8.277367
1434498896.01,10.02375
1434498896.026,12.121033
1434498896.042,14.568954
1434498896.057,17.289703
1434498896.073,20.090637
1434498896.088,22.750893
1434498896.104,24.918358
1434498896.12,26.180527
1434498896.135,26.111092
1434498896.151,24.396294
1434498896.167,21.032257
1434498896.182,16.369354
1434498896.198,11.07106
1434498896.213,5.885376
1434498896.229,1.4092941
1434498896.245,-2.0858383
1434498896.26,-4.6791
1434498896.276,-6.6037292
1434498896.292,-8.13929
1434498896.307,-9.417679
1434498896.323,-10.434731
1434498896.338,-11.052208
1434498896.354,-11.154205
1434498896.37,-10.702324
1434498896.385,-9.836281
1434498896.401,-8.867332
1434498896.417,-8.18161
1434498896.432,-8.083565
1434498896.448,-8.666496
1434498896.464,-9.734833
1434498896.479,-10.916695
1434498896.495,-11.81905
1434498896.51,-12.2028885
1434498896.526,-12.037949
1434498896.542,-11.480652
1434498896.557,-10.699593
1434498896.573,-9.787861
1434498896.588,-8.744877
1434498896.604,-7.5197754
1434498896.62,-6.08667
1434498896.635,-4.486992
1434498896.651,-2.790081
1434498896.667,-1.0330734
1434498896.682,0.83073425
1434498896.698,2.863327
1434498896.714,5.1166687
1434498896.729,7.587818
1434498896.745,10.190132
1434498896.76,12.794083
1434498896.776,15.288845
1434498896.792,17.687538
1434498896.807,20.086346
1434498896.823,22.613823
1434498896.839,25.345726
1434498896.854,28.12297
1434498896.87,30.55547
1434498896.885,32.04337
1434498896.901,32.01882
1434498896.917,30.10321
1434498896.932,26.311008
1434498896.948,21.04271
1434498896.964,14.956772
1434498896.979,8.771435
1434498896.995,3.0751057
1434498897.01,-1.8003483
1434498897.026,-5.7611523
1434498897.042,-8.905615
1434498897.057,-11.421207
1434498897.073,-13.472397
1434498897.089,-15.16239
1434498897.104,-16.502758
1434498897.12,-17.43983
1434498897.135,-17.937237
1434498897.151,-18.004063
1434498897.167,-17.748552
1434498897.182,-17.303951
1434498897.198,-16.826725
1434498897.214,-16.406677
1434498897.229,-16.11277
1434498897.245,-15.933838
1434498897.26,-15.844567
1434498897.276,-15.790619
1434498897.292,-15.660323
1434498897.307,-15.338739
1434498897.323,-14.724276
1434498897.339,-13.790601
1434498897.354,-12.589858
1434498897.37,-11.203069
1434498897.385,-9.687638
1434498897.401,-8.034095
1434498897.417,-6.177778
1434498897.432,-4.0570126
1434498897.448,-1.6556523
1434498897.464,0.9516816
1434498897.479,3.6562095
1434498897.495,6.3700504
1434498897.51,9.008628
1434498897.526,11.559002
1434498897.542,14.0112295
1434498897.557,16.419394
1434498897.573,18.880121
1434498897.589,21.53732
1434498897.604,24.521338
1434498897.62,27.87748
1434498897.635,31.415308
1434498897.651,34.67027
1434498897.667,36.991035
1434498897.682,37.686527
1434498897.698,36.284107
1434498897.714,32.679504
1434498897.729,27.19143
1434498897.745,20.484718
1434498897.76,13.346674
1434498897.776,6.5150986
1434498897.792,0.48324585
1434498897.807,-4.5019493
1434498897.823,-8.428867
1434498897.839,-11.427704
1434498897.854,-13.665104
1434498897.87,-15.268028
1434498897.885,-16.340927
1434498897.901,-16.944115
1434498897.917,-17.161217
1434498897.932,-17.096863
1434498897.948,-16.8885
1434498897.964,-16.659252
1434498897.979,-16.498158
1434498897.995,-16.417461
1434498898.01,-16.369976
1434498898.026,-16.273521
1434498898.042,-16.065067
1434498898.057,-15.740913
1434498898.073,-15.334591
1434498898.089,-14.887886
1434498898.104,-14.406822
1434498898.12,-13.845581
1434498898.135,-13.123329
1434498898.151,-12.143898
1434498898.167,-10.907806
1434498898.182,-9.454514
1434498898.198,-7.860634
1434498898.214,-6.1869354
1434498898.229,-4.417938
1434498898.245,-2.4722137
1434498898.26,-0.31595612
1434498898.276,2.039833
1434498898.292,4.470848
1434498898.307,6.816017
1434498898.323,8.978264
1434498898.339,11.004753
1434498898.354,13.040161
1434498898.37,15.3546295
1434498898.385,18.182396
1434498898.401,21.674873
1434498898.417,25.763298
1434498898.432,30.133461
1434498898.448,34.144592
1434498898.464,36.968796
1434498898.479,37.754333
1434498898.495,35.897423
1434498898.51,31.299713
1434498898.526,24.421059
1434498898.542,16.164146
1434498898.557,7.6067734
1434498898.573,-0.33113098
1434498898.589,-7.075691
1434498898.604,-12.414627
1434498898.62,-16.41587
1434498898.635,-19.281921
1434498898.651,-21.247345
1434498898.667,-22.562035
1434498898.682,-23.4301
1434498898.698,-24.01699
1434498898.714,-24.38552
1434498898.729,-24.504204
1434498898.745,-24.295502
1434498898.76,-23.710403
1434498898.776,-22.802017
1434498898.792,-21.73465
1434498898.807,-20.734772
1434498898.823,-20.01677
1434498898.839,-19.701065
1434498898.854,-19.77359
1434498898.87,-20.091187
1434498898.885,-20.43161
1434498898.901,-20.574448
1434498898.917,-20.3443
1434498898.932,-19.658173
1434498898.948,-18.52353
1434498898.964,-16.985214
1434498898.979,-15.072342
1434498898.995,-12.797974
1434498899.01,-10.16069
1434498899.026,-7.1767426
1434498899.042,-3.9490967
1434498899.057,-0.6411438
1434498899.073,2.5559845
1434498899.089,5.4920807
1434498899.104,8.119278
1434498899.12,10.479446
1434498899.136,12.690247
1434498899.151,14.945847
1434498899.167,17.492798
1434498899.182,20.597122
1434498899.198,24.371902
1434498899.214,28.670639
1434498899.229,32.928253
1434498899.245,36.244263
1434498899.26,37.599014
1434498899.276,36.237183
1434498899.292,31.962585
1434498899.307,25.26181
1434498899.323,17.11023
1434498899.339,8.646149
1434498899.354,0.7758484
1434498899.37,-5.992096
1434498899.386,-11.572296
1434498899.401,-16.076035
1434498899.417,-19.635727
1434498899.432,-22.283142
1434498899.448,-23.96547
1434498899.464,-24.66005
1434498899.479,-24.485199
1434498899.495,-23.716476
1434498899.511,-22.701569
1434498899.526,-21.730682
1434498899.542,-20.980759
1434498899.557,-20.457428
1434498899.573,-20.1053
1434498899.589,-19.850815
1434498899.604,-19.679276
1434498899.62,-19.586761
1434498899.636,-19.559418
1434498899.651,-19.513245
1434498899.667,-19.33696
1434498899.682,-18.896255
1434498899.698,-18.121414
1434498899.714,-16.999496
1434498899.729,-15.5542145
1434498899.745,-13.786301
1434498899.761,-11.67157
1434498899.776,-9.212418
1434498899.792,-6.463867
1434498899.807,-3.5394745
1434498899.823,-0.6088867
1434498899.839,2.1944427
1434498899.854,4.7999573
1434498899.87,7.2604218
1434498899.886,9.713898
1434498899.901,12.350189
1434498899.917,15.357849
1434498899.932,18.863342
1434498899.948,22.83957
1434498899.964,27.069168
1434498899.979,31.106216
1434498899.995,34.29744
1434498900.011,35.899796
1434498900.026,35.267105
1434498900.042,32.05342
1434498900.057,26.35353
1434498900.073,18.736221
1434498900.089,10.083282
1434498900.104,1.3726349
1434498900.12,-6.594742
1434498900.136,-13.34375
1434498900.151,-18.730682
1434498900.167,-22.823395
1434498900.182,-25.737701
1434498900.198,-27.55455
1434498900.214,-28.290894
1434498900.229,-28.048141
1434498900.245,-27.035446
1434498900.261,-25.59871
1434498900.276,-24.132126
1434498900.292,-22.913818
1434498900.307,-22.02179
1434498900.323,-21.376877
1434498900.339,-20.782394
1434498900.354,-20.083664
1434498900.37,-19.227463
1434498900.386,-18.283432
1434498900.401,-17.371246
1434498900.417,-16.598724
1434498900.432,-15.994644
1434498900.448,-15.492493
1434498900.464,-14.923325
1434498900.479,-14.098129
1434498900.495,-12.830856
1434498900.511,-11.047943
1434498900.526,-8.787857
1434498900.542,-6.212845
1434498900.557,-3.5329285
1434498900.573,-0.9512634
1434498900.589,1.4292908
1434498900.604,3.603714
1434498900.62,5.667755
1434498900.636,7.755707
1434498900.651,9.977081
1434498900.667,12.447235
1434498900.682,15.294632
1434498900.698,18.658112
1434498900.714,22.609085
1434498900.729,27.016418
1434498900.745,31.420181
1434498900.761,35.035385
1434498900.776,36.9189
1434498900.792,36.249832
1434498900.807,32.664993
1434498900.823,26.414429
1434498900.839,18.372849
1434498900.854,9.705582
1434498900.87,1.5268555
1434498900.886,-5.402542
1434498900.901,-10.8064575
1434498900.917,-14.781082
1434498900.932,-17.584808
1434498900.948,-19.47023
1434498900.964,-20.59439
1434498900.979,-21.05925
1434498900.995,-20.9906
1434498901.011,-20.564651
1434498901.026,-20.004807
1434498901.042,-19.496338
1434498901.057,-19.134018
1434498901.073,-18.935059
1434498901.089,-18.853745
1434498901.104,-18.856094
1434498901.12,-18.89853
1434498901.136,-18.9431
1434498901.151,-18.887009
1434498901.167,-18.590576
1434498901.182,-17.9077
1434498901.198,-16.773499
1434498901.214,-15.238312
1434498901.229,-13.415817
1434498901.245,-11.44574
1434498901.261,-9.427231
1434498901.276,-7.3756256
1434498901.292,-5.2772064
1434498901.307,-3.1147003
1434498901.323,-0.9330597
1434498901.339,1.2088928
1434498901.354,3.2481842
1434498901.37,5.1601257
1434498901.386,6.9600983
1434498901.401,8.692703
1434498901.417,10.422043
1434498901.432,12.23716
1434498901.448,14.262703
1434498901.464,16.68351
1434498901.479,19.664642
1434498901.495,23.272667
1434498901.511,27.318382
1434498901.526,31.307968
1434498901.542,34.4637
1434498901.557,35.940773
1434498901.573,35.08055
1434498901.589,31.661491
1434498901.604,25.98217
1434498901.62,18.832024
1434498901.636,11.187485
1434498901.651,3.9844055
1434498901.667,-2.1531677
1434498901.682,-6.976753
1434498901.698,-10.5249405
1434498901.714,-12.980049
1434498901.729,-14.522156
1434498901.745,-15.26413
1434498901.761,-15.336182
1434498901.776,-14.907341
1434498901.792,-14.243393
1434498901.807,-13.617226
1434498901.823,-13.237267
1434498901.839,-13.161324
1434498901.854,-13.266754
1434498901.87,-13.388794
1434498901.886,-13.418533
1434498901.901,-13.3358
1434498901.917,-13.222275
1434498901.932,-13.193657
1434498901.948,-13.291435
1434498901.964,-13.45649
1434498901.979,-13.556557
1434498901.995,-13.443283
1434498902.011,-12.996124
1434498902.026,-12.133514
1434498902.042,-10.818443
1434498902.058,-9.056473
1434498902.073,-6.8980103
1434498902.089,-4.444954
1434498902.104,-1.8458176
1434498902.12,0.741745
1434498902.136,3.2107468
1434498902.151,5.5661926
1434498902.167,7.8678665
1434498902.183,10.219131
1434498902.198,12.645821
1434498902.214,15.1167755
1434498902.229,17.549187
1434498902.245,19.903862
1434498902.261,22.254547
1434498902.276,24.757835
1434498902.292,27.557503
1434498902.308,30.601143
1434498902.323,33.527325
1434498902.339,35.679768
1434498902.354,36.26609
1434498902.37,34.675285
1434498902.386,30.69862
1434498902.401,24.676102
1434498902.417,17.403248
1434498902.433,9.894661
1434498902.448,3.0366821
1434498902.464,-2.630947
1434498902.479,-6.9893684
1434498902.495,-10.25108
1434498902.511,-12.728157
1434498902.526,-14.646244
1434498902.542,-16.014355
1434498902.558,-16.719425
1434498902.573,-16.669891
1434498902.589,-15.928646
1434498902.604,-14.740261
1434498902.62,-13.474182
1434498902.636,-12.461533
1434498902.651,-11.864128
1434498902.667,-11.661579
1434498902.683,-11.714031
1434498902.698,-11.855564
1434498902.714,-11.975815
1434498902.729,-12.015705
1434498902.745,-11.924713
1434498902.761,-11.644741
1434498902.776,-11.127678
1434498902.792,-10.342552
1434498902.808,-9.315907
1434498902.823,-8.085541
1434498902.839,-6.6260796
1434498902.854,-4.8527603
1434498902.87,-2.6472168
1434498902.886,0.037288666
1434498902.901,3.13554
1434498902.917,6.4269447
1434498902.933,9.6330185
1434498902.948,12.525684
1434498902.964,14.99065
1434498902.979,17.071123
1434498902.995,18.955015
1434498903.011,20.897684
1434498903.026,23.132929
1434498903.042,25.826786
1434498903.058,28.978666
1434498903.073,32.330173
1434498903.089,35.355377
1434498903.104,37.335945
1434498903.12,37.53942
1434498903.136,35.484688
1434498903.151,31.126804
1434498903.167,24.934706
1434498903.183,17.753742
1434498903.198,10.550457
1434498903.214,4.1145096
1434498903.229,-1.1237602
1434498903.245,-5.0971584
1434498903.261,-7.9999847
1434498903.276,-10.09354
1434498903.292,-11.580011
1434498903.308,-12.549999
1434498903.323,-13.054876
1434498903.339,-13.160015
1434498903.354,-12.99658
1434498903.37,-12.753145
1434498903.386,-12.627367
1434498903.401,-12.753141
1434498903.417,-13.141399
1434498903.433,-13.704281
1434498903.448,-14.278332
1434498903.464,-14.689499
1434498903.479,-14.84276
1434498903.495,-14.702984
1434498903.511,-14.281647
1434498903.526,-13.608841
1434498903.542,-12.685625
1434498903.558,-11.470303
1434498903.573,-9.938307
1434498903.589,-8.042257
1434498903.604,-5.8047504
1434498903.62,-3.2547932
1434498903.636,-0.48835182
1434498903.651,2.3883533
1434498903.667,5.2520676
1434498903.683,7.977789
1434498903.698,10.481346
1434498903.714,12.7487545
1434498903.729,14.876078
1434498903.745,17.079708
1434498903.761,19.609978
1434498903.776,22.714998
1434498903.792,26.48543
1434498903.808,30.80087
1434498903.823,35.208275
1434498903.839,39.031124
1434498903.854,41.421432
1434498903.87,41.669094
1434498903.886,39.358837
1434498903.901,34.59301
1434498903.917,27.95319
1434498903.933,20.343681
1434498903.948,12.686165
1434498903.964,5.713112
1434498903.979,-0.21017456
1434498903.995,-5.0357285
1434498904.011,-8.884754
1434498904.026,-11.907089
1434498904.042,-14.183582
1434498904.058,-15.723625
1434498904.073,-16.591553
1434498904.089,-16.911873
1434498904.104,-16.921906
1434498904.12,-16.8368
1434498904.136,-16.846237
1434498904.151,-17.02729
1434498904.167,-17.383152
1434498904.183,-17.850086
1434498904.198,-18.387962
1434498904.214,-18.954853
1434498904.229,-19.488247
1434498904.245,-19.864681
1434498904.261,-19.960407
1434498904.276,-19.633244
1434498904.292,-18.801453
1434498904.308,-17.489769
1434498904.323,-15.809822
1434498904.339,-13.878304
1434498904.354,-11.809628
1434498904.37,-9.612686
1434498904.386,-7.2596817
1434498904.401,-4.6995277
1434498904.417,-1.9091988
1434498904.433,1.0776596
1434498904.448,4.1267204
1434498904.464,7.119198
1434498904.479,9.95332
1434498904.495,12.63892
1434498904.511,15.285194
1434498904.526,18.10479
1434498904.542,21.312435
1434498904.558,25.076508
1434498904.573,29.385147
1434498904.589,33.98802
1434498904.604,38.350254
1434498904.62,41.70433
1434498904.636,43.21084
1434498904.651,42.194057
1434498904.667,38.35053
1434498904.683,31.973026
1434498904.698,23.830078
1434498904.714,15.004944
1434498904.73,6.5168457
1434498904.745,-0.8909836
1434498904.761,-6.9103622
1434498904.776,-11.604912
1434498904.792,-15.166672
1434498904.808,-17.835625
1434498904.823,-19.7668
1434498904.839,-21.060387
1434498904.855,-21.814919
1434498904.87,-22.142319
1434498904.886,-22.164223
1434498904.901,-21.99572
1434498904.917,-21.72461
1434498904.933,-21.383865
1434498904.948,-21.059845
1434498904.964,-20.772812
1434498904.98,-20.55783
1434498904.995,-20.368492
1434498905.011,-20.138947
1434498905.026,-19.740738
1434498905.042,-19.08461
1434498905.058,-18.154778
1434498905.073,-16.996101
1434498905.089,-15.713486
1434498905.105,-14.397011
1434498905.12,-13.071548
1434498905.136,-11.697578
1434498905.151,-10.146828
1434498905.167,-8.252846
1434498905.183,-5.879959
1434498905.198,-3.0058746
1434498905.214,0.25511932
1434498905.23,3.6386108
1434498905.245,6.865158
1434498905.261,9.746956
1434498905.276,12.245781
1434498905.292,14.529549
1434498905.308,16.86605
1434498905.323,19.536476
1434498905.339,22.756714
1434498905.355,26.568085
1434498905.37,30.790314
1434498905.386,34.969193
1434498905.401,38.367073
1434498905.417,40.103752
1434498905.433,39.424713
1434498905.448,35.924522
1434498905.464,29.782684
1434498905.48,21.739372
1434498905.495,12.885139
1434498905.511,4.290474
1434498905.526,-3.2606506
1434498905.542,-9.421402
1434498905.558,-14.207405
1434498905.573,-17.798225
1434498905.589,-20.408524
1434498905.605,-22.193924
1434498905.62,-23.248283
1434498905.636,-23.689034
1434498905.651,-23.65361
1434498905.667,-23.31623
1434498905.683,-22.86657
1434498905.698,-22.44168
1434498905.714,-22.13852
1434498905.73,-21.993172
1434498905.745,-21.96492
1434498905.761,-22.010399
1434498905.776,-22.068428
1434498905.792,-22.126625
1434498905.808,-22.152077
1434498905.823,-22.142021
1434498905.839,-22.037697
1434498905.855,-21.755554
1434498905.87,-21.172127
1434498905.886,-20.168182
1434498905.901,-18.678757
1434498905.917,-16.710258
1434498905.933,-14.306358
1434498905.948,-11.55127
1434498905.964,-8.518707
1434498905.98,-5.26931
1434498905.995,-1.8430176
1434498906.011,1.6675644
1434498906.026,5.1591873
1434498906.042,8.470711
1434498906.058,11.4381485
1434498906.073,13.9822235
1434498906.089,16.202278
1434498906.105,18.4031
1434498906.12,21.028572
1434498906.136,24.466743
1434498906.151,28.801537
1434498906.167,33.66336
1434498906.183,38.179977
1434498906.198,41.229378
1434498906.214,41.783485
1434498906.23,39.25724
1434498906.245,33.753265
1434498906.261,25.989128
1434498906.276,17.057236
1434498906.292,8.054016
1434498906.308,-0.18217468
1434498906.323,-7.168068
1434498906.339,-12.730873
1434498906.355,-16.880356
1434498906.37,-19.703522
1434498906.386,-21.335815
1434498906.401,-21.939491
1434498906.417,-21.757011
1434498906.433,-21.052917
1434498906.448,-20.09533
1434498906.464,-19.0923
1434498906.48,-18.148155
1434498906.495,-17.323746
1434498906.511,-16.644592
1434498906.526,-16.12503
1434498906.542,-15.787193
1434498906.558,-15.63073
1434498906.573,-15.628784
1434498906.589,-15.710213
1434498906.605,-15.803436
1434498906.62,-15.826141
1434498906.636,-15.691063
1434498906.651,-15.28949
1434498906.667,-14.494232
1434498906.683,-13.195381
1434498906.698,-11.308876
1434498906.714,-8.8307495
1434498906.73,-5.817917
1434498906.745,-2.4061203
1434498906.761,1.2356796
1434498906.776,4.921768
1434498906.792,8.458733
1434498906.808,11.719093
1434498906.823,14.65226
1434498906.839,17.330704
1434498906.855,19.993927
1434498906.87,22.985886
1434498906.886,26.629509
1434498906.901,31.04493
1434498906.917,35.98871
1434498906.933,40.752098
1434498906.948,44.33371
1434498906.964,45.67579
1434498906.98,44.02974
1434498906.995,39.21032
1434498907.011,31.709114
1434498907.026,22.567001
1434498907.042,13.073296
1434498907.058,4.341263
1434498907.073,-2.9590225
1434498907.089,-8.7293625
1434498907.105,-13.301903
1434498907.12,-17.136871
1434498907.136,-20.51764
1434498907.151,-23.400581
1434498907.167,-25.491112
1434498907.183,-26.472153
1434498907.198,-26.23413
1434498907.214,-25.038734
1434498907.23,-23.352432
1434498907.245,-21.70211
1434498907.261,-20.439392
1434498907.276,-19.66259
1434498907.292,-19.25621
1434498907.308,-19.046219
1434498907.323,-18.87072
1434498907.339,-18.657822
1434498907.355,-18.399345
1434498907.37,-18.080193
1434498907.386,-17.647247
1434498907.402,-16.97116
1434498907.417,-15.882744
1434498907.433,-14.231186
1434498907.448,-11.959953
1434498907.464,-9.158142
1434498907.48,-6.0125504
1434498907.495,-2.7675781
1434498907.511,0.4262619
1434498907.526,3.5166397
1434498907.542,6.5658646
1434498907.558,9.635353
1434498907.573,12.748993
1434498907.589,15.82653
1434498907.605,18.834404
1434498907.62,21.813576
1434498907.636,24.979599
1434498907.652,28.5999
1434498907.667,32.82026
1434498907.683,37.4308
1434498907.698,41.807472
1434498907.714,44.97499
1434498907.73,45.918427
1434498907.745,43.93096
1434498907.761,38.923523
1434498907.777,31.453545
1434498907.792,22.62133
1434498907.808,13.609093
1434498907.823,5.3961334
1434498907.839,-1.5422211
1434498907.855,-7.1896286
1434498907.87,-11.784531
1434498907.886,-15.582306
1434498907.902,-18.677849
1434498907.917,-20.995476
1434498907.933,-22.421417
1434498907.948,-22.925003
1434498907.964,-22.662697
1434498907.98,-21.952103
1434498907.995,-21.149918
1434498908.011,-20.540184
1434498908.027,-20.236153
1434498908.042,-20.19603
1434498908.058,-20.269371
1434498908.073,-20.296585
1434498908.089,-20.167587
1434498908.105,-19.832542
1434498908.12,-19.285774
1434498908.136,-18.531624
1434498908.152,-17.552132
1434498908.167,-16.28563
1434498908.183,-14.675468
1434498908.198,-12.681526
1434498908.214,-10.28727
1434498908.23,-7.485504
1434498908.245,-4.268074
1434498908.261,-0.6578522
1434498908.277,3.2413177
1434498908.292,7.218994
1434498908.308,10.970703
1434498908.323,14.250595
1434498908.339,16.96141
1434498908.355,19.227203
1434498908.37,21.373001
1434498908.386,23.8051
1434498908.402,26.846687
1434498908.417,30.656761
1434498908.433,35.113937
1434498908.448,39.813904
1434498908.464,44.05665
1434498908.48,46.938614
1434498908.495,47.533775
1434498908.511,45.165756
1434498908.527,39.6651
1434498908.542,31.535347
1434498908.558,21.819077
1434498908.573,11.817818
1434498908.589,2.6413345
1434498908.605,-5.049568
1434498908.62,-11.1258545
1434498908.636,-15.81739
1434498908.652,-19.454193
1434498908.667,-22.266136
1434498908.683,-24.319687
1434498908.698,-25.586617
1434498908.714,-26.083878
1434498908.73,-25.94873
1434498908.745,-25.432724
1434498908.761,-24.819527
1434498908.777,-24.36113
1434498908.792,-24.140938
1434498908.808,-24.1465
1434498908.823,-24.221764
1434498908.839,-24.202171
1434498908.855,-23.945564
1434498908.87,-23.421005
1434498908.886,-22.652145
1434498908.902,-21.71611
1434498908.917,-20.59233
1434498908.933,-19.207901
1434498908.948,-17.423645
1434498908.964,-15.150864
1434498908.98,-12.368515
1434498908.995,-9.178223
1434498909.011,-5.766037
1434498909.027,-2.3517761
1434498909.042,0.87527466
1434498909.058,3.7896423
1434498909.073,6.354294
1434498909.089,8.615311
1434498909.105,10.7034
1434498909.12,12.764267
1434498909.136,14.982956
1434498909.152,17.544067
1434498909.167,20.654373
1434498909.183,24.448624
1434498909.198,28.889389
1434498909.214,33.596344
1434498909.23,37.82277
1434498909.245,40.501556
1434498909.261,40.617218
1434498909.277,37.530563
1434498909.292,31.317505
1434498909.308,22.7594
1434498909.323,13.102768
1434498909.339,3.6165466
1434498909.355,-4.7672577
1434498909.37,-11.632172
1434498909.386,-17.002502
1434498909.402,-21.15039
1434498909.417,-24.345154
1434498909.433,-26.759216
1434498909.448,-28.436218
1434498909.464,-29.388947
1434498909.48,-29.606766
1434498909.495,-29.11882
1434498909.511,-28.061752
1434498909.527,-26.662521
1434498909.542,-25.215866
1434498909.558,-24.008347
1434498909.573,-23.235474
1434498909.589,-22.924362
1434498909.605,-22.889236
1434498909.62,-22.875702
1434498909.636,-22.618774
1434498909.652,-21.993195
1434498909.667,-20.990097
1434498909.683,-19.678604
1434498909.698,-18.13182
1434498909.714,-16.370651
1434498909.73,-14.325134
1434498909.745,-11.895439
1434498909.761,-9.0462265
1434498909.777,-5.8629303
1434498909.792,-2.5435562
1434498909.808,0.65348816
1434498909.823,3.502243
1434498909.839,5.905983
1434498909.855,7.916443
1434498909.87,9.713196
1434498909.886,11.5215
1434498909.902,13.518753
1434498909.917,15.829666
1434498909.933,18.550102
1434498909.948,21.73957
1434498909.964,25.33245
1434498909.98,29.080605
1434498909.995,32.407112
1434498910.011,34.490143
1434498910.027,34.43119
1434498910.042,31.657845
1434498910.058,26.173973
1434498910.074,18.645462
1434498910.089,10.151794
1434498910.105,1.8400497
1434498910.12,-5.4872284
1434498910.136,-11.48172
1434498910.152,-16.170105
1434498910.167,-19.75776
1434498910.183,-22.410843
1434498910.198,-24.177925
1434498910.214,-25.090866
1434498910.23,-25.212242
1434498910.245,-24.731339
1434498910.261,-23.903542
1434498910.277,-23.018425
1434498910.292,-22.255386
1434498910.308,-21.682396
1434498910.324,-21.250984
1434498910.339,-20.861565
1434498910.355,-20.435394
1434498910.37,-19.902695
1434498910.386,-19.277649
1434498910.402,-18.570442
1434498910.417,-17.78054
1434498910.433,-16.866997
1434498910.449,-15.760986
1434498910.464,-14.412987
1434498910.48,-12.7949295
1434498910.495,-10.924156
1434498910.511,-8.806633
1434498910.527,-6.4764633
1434498910.542,-3.9906769
1434498910.558,-1.4576416
1434498910.574,0.9836273
1434498910.589,3.1737366
1434498910.605,5.0644226
1434498910.62,6.7287674
1434498910.636,8.313499
1434498910.652,10.006615
1434498910.667,11.959461
1434498910.683,14.268871
1434498910.699,17.020462
1434498910.714,20.223515
1434498910.73,23.795345
1434498910.745,27.375729
1434498910.761,30.3485
1434498910.777,31.924107
1434498910.792,31.453205
1434498910.808,28.667988
1434498910.824,23.85965
1434498910.839,17.777313
1434498910.855,11.358715
1434498910.87,5.3994637
1434498910.886,0.33982468
1434498910.902,-3.7405128
1434498910.917,-7.012356
1434498910.933,-9.701321
1434498910.949,-11.948151
1434498910.964,-13.755087
1434498910.98,-15.03121
1434498910.995,-15.682705
1434498911.011,-15.680532
1434498911.027,-15.138046
1434498911.042,-14.252031
1434498911.058,-13.28982
1434498911.074,-12.481787
1434498911.089,-11.982531
1434498911.105,-11.822971
1434498911.12,-11.962225
1434498911.136,-12.296414
1434498911.152,-12.743373
1434498911.167,-13.206598
1434498911.183,-13.605722
1434498911.199,-13.8220825
1434498911.214,-13.754412
1434498911.23,-13.283478
1434498911.245,-12.361999
1434498911.261,-10.993801
1434498911.277,-9.246369
1434498911.292,-7.2151446
1434498911.308,-5.020406
1434498911.324,-2.7101765
1434498911.339,-0.33438873
1434498911.355,2.108924
1434498911.37,4.59289
1434498911.386,7.029499
1434498911.402,9.3063755
1434498911.417,11.352682
1434498911.433,13.213894
1434498911.449,15.084639
1434498911.464,17.266638
1434498911.48,20.001617
1434498911.495,23.318146
1434498911.511,26.925983
1434498911.527,30.23016
1434498911.542,32.509968
1434498911.558,33.136833
1434498911.574,31.766464
1434498911.589,28.41336
1434498911.605,23.481407
1434498911.62,17.588757
1434498911.636,11.436329
1434498911.652,5.605423
1434498911.667,0.503849
1434498911.683,-3.6872177
1434498911.699,-6.9722824
1434498911.714,-9.486103
1434498911.73,-11.356567
1434498911.745,-12.713123
1434498911.761,-13.625267
1434498911.777,-14.16888
1434498911.792,-14.397728
1434498911.808,-14.430851
1434498911.824,-14.37925
1434498911.839,-14.340584
1434498911.855,-14.358093
1434498911.87,-14.399376
1434498911.886,-14.398918
1434498911.902,-14.2949295
1434498911.917,-14.059578
1434498911.933,-13.743469
1434498911.949,-13.378975
1434498911.964,-12.984421
1434498911.98,-12.469368
1434498911.995,-11.68235
1434498912.011,-10.474777
1434498912.027,-8.845055
1434498912.042,-6.937805
1434498912.058,-5.0356293
1434498912.074,-3.4158936
1434498912.089,-2.228691
1434498912.105,-1.4007721
1434498912.12,-0.67614746
1434498912.136,0.27668762
1434498912.152,1.6857376
1434498912.167,3.59655
1434498912.183,5.859352
1434498912.199,8.191772
1434498912.214,10.302696
1434498912.23,12.031288
1434498912.245,13.357697
1434498912.261,14.449829
1434498912.277,15.526558
1434498912.292,16.858894
1434498912.308,18.645638
1434498912.324,20.973274
1434498912.339,23.759644
1434498912.355,26.726433
1434498912.37,29.394035
1434498912.386,31.17414
1434498912.402,31.479004
1434498912.417,29.929306
1434498912.433,26.480453
1434498912.449,21.491089
1434498912.464,15.637802
1434498912.48,9.728424
1434498912.495,4.4559326
1434498912.511,0.20716858
1434498912.527,-2.9657593
1434498912.542,-5.281784
1434498912.558,-7.0178223
1434498912.574,-8.36969
1434498912.589,-9.424393
1434498912.605,-10.164261
1434498912.62,-10.61615
1434498912.636,-10.84819
1434498912.652,-11.003586
1434498912.667,-11.198837
1434498912.683,-11.46138
1434498912.699,-11.691971
1434498912.714,-11.75061
1434498912.73,-11.5215
1434498912.745,-11.005432
1434498912.761,-10.313126
1434498912.777,-9.657822
1434498912.792,-9.211151
1434498912.808,-9.034271
1434498912.824,-9.022186
1434498912.839,-8.923553
1434498912.855,-8.40712
1434498912.87,-7.2659607
1434498912.886,-5.4589386
1434498912.902,-3.2193146
1434498912.917,-0.9241028
1434498912.933,1.026413
1434498912.949,2.4034119
1434498912.964,3.2150726
1434498912.98,3.6967163
1434498912.996,4.2073517
1434498913.011,5.040283
1434498913.027,6.339813
1434498913.042,8.034866
1434498913.058,9.887833
1434498913.074,11.602234
1434498913.089,12.9210205
1434498913.105,13.733414
1434498913.121,14.107803
1434498913.136,14.269714
1434498913.152,14.544418
1434498913.167,15.268188
1434498913.183,16.665207
1434498913.199,18.781448
1434498913.214,21.36676
1434498913.23,23.889267
1434498913.246,25.619308
1434498913.261,25.823837
1434498913.277,24.017456
1434498913.292,20.217407
1434498913.308,14.921677
1434498913.324,8.990387
1434498913.339,3.3102112
1434498913.355,-1.4616241
1434498913.371,-5.071274
1434498913.386,-7.585846
1434498913.402,-9.245041
1434498913.417,-10.248215
1434498913.433,-10.711975
1434498913.449,-10.673157
1434498913.464,-10.2114105
1434498913.48,-9.472427
1434498913.496,-8.623703
1434498913.511,-7.782074
1434498913.527,-6.9761963
1434498913.542,-6.155548
1434498913.558,-5.296814
1434498913.574,-4.430786
1434498913.589,-3.6721497
1434498913.605,-3.1831207
1434498913.621,-3.0717773
1434498913.636,-3.3600616
1434498913.652,-3.973053
1434498913.667,-4.7591705
1434498913.683,-5.547882
1434498913.699,-6.170212
1434498913.714,-6.510788
1434498913.73,-6.479889
1434498913.746,-6.099518
1434498913.761,-5.4086456
1434498913.777,-4.5293884
1434498913.792,-3.5768433
1434498913.808,-2.633728
1434498913.824,-1.7103577
1434498913.839,-0.7705078
1434498913.855,0.27886963
1434498913.871,1.5555725
1434498913.886,3.12648
1434498913.902,4.989212
1434498913.917,7.064041
1434498913.933,9.155334
1434498913.949,11.028473
1434498913.964,12.510605
1434498913.98,13.537247
1434498913.996,14.215134
1434498914.011,14.791382
1434498914.027,15.544662
1434498914.042,16.735046
1434498914.058,18.432968
1434498914.074,20.495285
1434498914.089,22.520447
1434498914.105,23.970627
1434498914.121,24.288177
1434498914.136,23.09137
1434498914.152,20.306946
1434498914.167,16.240479
1434498914.183,11.482162
1434498914.199,6.7264404
1434498914.214,2.5736542
1434498914.23,-0.65956116
1434498914.246,-2.9616241
1434498914.261,-4.542755
1434498914.277,-5.6824036
1434498914.292,-6.5967712
1434498914.308,-7.3836975
1434498914.324,-8.057617
1434498914.339,-8.580551
1434498914.355,-8.932495
1434498914.371,-9.156525
1434498914.386,-9.276199
1434498914.402,-9.331711
1434498914.417,-9.282196
1434498914.433,-9.075348
1434498914.449,-8.683411
1434498914.464,-8.139496
1434498914.48,-7.5923157
1434498914.496,-7.239609
1434498914.511,-7.228119
1434498914.527,-7.593033
1434498914.542,-8.1707
1434498914.558,-8.662537
1434498914.574,-8.731888
1434498914.589,-8.1532135
1434498914.605,-6.900894
1434498914.621,-5.1641846
1434498914.636,-3.2517395
1434498914.652,-1.4736023
1434498914.667,-0.007156372
1434498914.683,1.1299133
1434498914.699,2.0788574
