1425519833.545,0.0
1425519833.561,0.0
1425519833.576,0.0
1425519833.592,0.0
1425519833.607,0.0
1425519833.623,0.0
1425519833.639,0.0
1425519833.654,0.0
1425519833.67,0.0
1425519833.686,0.0014141481
1425519833.701,-0.0062269913
1425519833.717,-0.013575646
1425519833.732,-0.013006561
1425519833.748,0.0023667384
1425519833.764,0.03138611
1425519833.779,0.058989506
1425519833.795,0.056981985
1425519833.811,-0.0065830103
1425519833.826,-0.15163909
1425519833.842,-0.38794798
1425519833.857,-0.68214154
1425519833.873,-0.98991853
1425519833.889,-1.2721285
1425519833.904,-1.5160006
1425519833.92,-1.7441657
1425519833.936,-2.005331
1425519833.951,-2.3505738
1425519833.967,-2.8041022
1425519833.982,-3.3815622
1425519833.998,-4.0170364
1425519834.014,-4.6353774
1425519834.029,-5.173308
1425519834.045,-5.6121674
1425519834.061,-5.9923058
1425519834.076,-6.3990936
1425519834.092,-6.924423
1425519834.107,-7.611353
1425519834.123,-8.515563
1425519834.139,-9.496143
1425519834.154,-10.395992
1425519834.17,-11.082992
1425519834.186,-11.533377
1425519834.201,-11.874203
1425519834.217,-12.353058
1425519834.232,-13.237678
1425519834.248,-14.671825
1425519834.264,-16.777372
1425519834.279,-19.22326
1425519834.295,-21.61721
1425519834.311,-23.62259
1425519834.326,-25.154823
1425519834.342,-26.474745
1425519834.357,-28.111263
1425519834.373,-30.63156
1425519834.389,-34.33586
1425519834.404,-39.3795
1425519834.42,-45.100636
1425519834.436,-50.70293
1425519834.451,-55.512405
1425519834.467,-59.335464
1425519834.482,-62.606747
1425519834.498,-66.228836
1425519834.514,-71.15733
1425519834.529,-77.88983
1425519834.545,-86.573425
1425519834.561,-96.16126
1425519834.576,-105.389755
1425519834.592,-113.21263
1425519834.607,-119.32318
1425519834.623,-124.336006
1425519834.639,-129.52275
1425519834.654,-136.46104
1425519834.67,-143.9408
1425519834.686,-153.74081
1425519834.701,-165.8764
1425519834.717,-179.95486
1425519834.732,-194.45052
1425519834.748,-206.2797
1425519834.764,-211.11642
1425519834.779,-204.72594
1425519834.795,-184.81241
1425519834.811,-152.28235
1425519834.826,-111.479454
1425519834.842,-67.52144
1425519834.857,-24.439835
1425519834.873,16.653076
1425519834.889,57.488403
1425519834.904,100.965576
1425519834.92,148.97629
1425519834.936,201.10938
1425519834.951,254.93878
1425519834.967,307.09006
1425519834.982,355.36957
1425519834.998,398.84933
1425519835.014,437.39194
1425519835.029,470.5442
1425519835.045,496.8407
1425519835.061,513.9784
1425519835.076,519.6068
1425519835.092,512.4375
1425519835.107,492.55997
1425519835.123,461.71823
1425519835.139,422.43338
1425519835.154,377.345
1425519835.17,328.5516
1425519835.186,277.54013
1425519835.201,225.35721
1425519835.217,172.97363
1425519835.232,121.59964
1425519835.248,72.62027
1425519835.264,27.595734
1425519835.279,-12.2378235
1425519835.295,-46.243256
1425519835.311,-74.47861
1425519835.326,-97.51456
1425519835.342,-116.117905
1425519835.357,-130.94142
1425519835.373,-142.3267
1425519835.389,-150.40288
1425519835.404,-155.19218
1425519835.42,-156.8903
1425519835.436,-155.93826
1425519835.451,-153.00696
1425519835.467,-148.78427
1425519835.482,-143.81049
1425519835.498,-138.36719
1425519835.514,-132.45093
1425519835.529,-125.86754
1425519835.545,-118.3246
1425519835.561,-109.631065
1425519835.576,-99.91236
1425519835.592,-89.80477
1425519835.607,-80.48051
1425519835.623,-73.395515
1425519835.639,-69.78563
1425519835.654,-70.07976
1425519835.67,-73.56576
1425519835.686,-78.48963
1425519835.701,-82.71187
1425519835.717,-84.46196
1425519835.732,-82.984085
1425519835.748,-78.65011
1425519835.764,-72.58882
1425519835.779,-66.10823
1425519835.795,-60.115685
1425519835.811,-55.06656
1425519835.826,-50.891094
1425519835.842,-47.398533
1425519835.858,-44.48015
1425519835.873,-42.110542
1425519835.889,-40.21206
1425519835.904,-38.5377
1425519835.92,-36.699924
1425519835.936,-34.260994
1425519835.951,-30.985542
1425519835.967,-26.933027
1425519835.983,-22.48792
1425519835.998,-18.227169
1425519836.014,-14.673582
1425519836.029,-12.118404
1425519836.045,-10.545368
1425519836.061,-9.6642685
1425519836.076,-9.069351
1425519836.092,-8.386032
1425519836.108,-7.391556
1425519836.123,-6.029934
1425519836.139,-4.4175224
1425519836.154,-2.7449303
1425519836.17,-1.2226105
1425519836.186,-0.036331177
1425519836.201,0.69617844
1425519836.217,0.92473984
1425519836.233,0.64944077
1425519836.248,-0.053211212
1425519836.264,-0.9666252
1425519836.279,-1.7591629
1425519836.295,-2.0038643
1425519836.311,-1.299366
1425519836.326,0.49090958
1425519836.342,3.127411
1425519836.358,5.964596
1425519836.373,8.178043
1425519836.389,9.058159
1425519836.404,8.363014
1425519836.42,6.3950577
1425519836.436,3.956192
1425519836.451,1.9450722
1425519836.467,1.0041199
1425519836.483,1.276989
1425519836.498,2.411541
1425519836.514,3.7872696
1425519836.529,4.8181915
1425519836.545,5.1970387
1425519836.561,4.939741
1425519836.576,4.290573
1425519836.592,3.5907993
1425519836.608,3.0719414
1425519836.623,2.8409462
1425519836.639,2.8376846
1425519836.654,2.9228725
1425519836.67,2.9187222
1425519836.686,2.657549
1425519836.701,2.0610867
1425519836.717,1.103281
1425519836.733,-0.18287659
1425519836.748,-1.7078228
1425519836.764,-3.3534584
1425519836.779,-4.968889
1425519836.795,-6.36586
1425519836.811,-7.347494
1425519836.826,-7.7572403
1425519836.842,-7.5111694
1425519836.858,-6.6581287
1425519836.873,-5.3366566
1425519836.889,-3.7809334
1425519836.904,-2.218153
1425519836.92,-0.8610115
1425519836.936,0.18060303
1425519836.951,0.89669037
1425519836.967,1.3195133
1425519836.983,1.5200195
1425519836.998,1.5464458
1425519837.014,1.4359589
1425519837.029,1.1858749
1425519837.045,0.8161583
1425519837.061,0.3391571
1425519837.076,-0.20612335
1425519837.092,-0.7445965
1425519837.108,-1.2143536
1425519837.123,-1.5207005
1425519837.139,-1.5936489
1425519837.154,-1.3823395
1425519837.17,-0.9079628
1425519837.186,-0.24074173
1425519837.201,0.49277878
1425519837.217,1.1506386
1425519837.233,1.6001072
1425519837.248,1.7958317
1425519837.264,1.7876091
1425519837.279,1.6501637
1425519837.295,1.5046082
1425519837.311,1.414793
1425519837.326,1.4399719
1425519837.342,1.614191
1425519837.358,1.9519863
1425519837.373,2.4272556
1425519837.389,2.940321
1425519837.404,3.335701
1425519837.42,3.508833
1425519837.436,3.4151573
1425519837.451,3.1427078
1425519837.467,2.8226757
1425519837.483,2.605629
1425519837.498,2.5499668
1425519837.514,2.6822796
1425519837.529,2.9427662
1425519837.545,3.2762775
1425519837.561,3.611885
1425519837.576,3.9151955
1425519837.592,4.168154
1425519837.608,4.3929863
1425519837.623,4.6590405
1425519837.639,5.0285473
1425519837.654,5.5239677
1425519837.67,6.0413437
1425519837.686,6.371029
1425519837.701,6.2493515
1425519837.717,5.4966965
1425519837.733,4.10651
1425519837.748,2.2498455
1425519837.764,0.2748413
1425519837.779,-1.5128632
1425519837.795,-2.8376846
1425519837.811,-3.5752964
1425519837.826,-3.7047482
1425519837.842,-3.3009777
1425519837.858,-2.490633
1425519837.873,-1.4358578
1425519837.889,-0.31938744
1425519837.904,0.6521492
1425519837.92,1.3173599
1425519837.936,1.5478897
1425519837.951,1.2313366
1425519837.967,0.31326866
1425519837.983,-1.177187
1425519837.998,-3.098095
1425519838.014,-5.168564
1425519838.029,-7.0590096
1425519838.045,-8.468575
1425519838.061,-9.295574
1425519838.076,-9.658127
1425519838.092,-9.891287
1425519838.108,-10.328512
1425519838.123,-11.199291
1425519838.139,-12.466124
1425519838.154,-13.898666
1425519838.17,-15.13637
1425519838.186,-15.88068
1425519838.201,-15.965836
1425519838.217,-15.405172
1425519838.233,-14.295359
1425519838.248,-12.775726
1425519838.264,-10.968056
1425519838.279,-8.882742
1425519838.295,-6.563629
1425519838.311,-4.0856447
1425519838.326,-1.5410986
1425519838.342,0.954196
1425519838.358,3.2951717
1425519838.373,5.3362827
1425519838.389,6.9519424
1425519838.404,8.026667
1425519838.42,8.525176
1425519838.436,8.4984045
1425519838.451,8.138696
1425519838.467,7.66553
1425519838.483,7.3123713
1425519838.498,7.187113
1425519838.514,7.2856627
1425519838.53,7.4792595
1425519838.545,7.6246204
1425519838.561,7.6163836
1425519838.576,7.4080334
1425519838.592,7.0422783
1425519838.608,6.6293964
1425519838.623,6.2465076
1425519838.639,5.980427
1425519838.654,5.83585
1425519838.67,5.777659
1425519838.686,5.7572546
1425519838.701,5.7804217
1425519838.717,5.8106675
1425519838.733,5.8507047
1425519838.748,5.842358
1425519838.764,5.7148685
1425519838.78,5.3775907
1425519838.795,4.876131
1425519838.811,4.3415647
1425519838.826,4.0095477
1425519838.842,4.0803046
1425519838.858,4.6399
1425519838.873,5.54673
1425519838.889,6.504364
1425519838.905,7.113039
1425519838.92,7.042807
1425519838.936,6.147018
1425519838.951,4.5147576
1425519838.967,2.411201
1425519838.983,0.2219429
1425519838.998,-1.6778135
1425519839.014,-3.0110645
1425519839.03,-3.6518831
1425519839.045,-3.6355987
1425519839.061,-3.1275382
1425519839.076,-2.341196
1425519839.092,-1.4824486
1425519839.108,-0.67141104
1425519839.123,0.022053719
1425519839.139,0.6473236
1425519839.155,1.2546892
1425519839.17,1.8909936
1425519839.186,2.5040464
1425519839.201,2.9880676
1425519839.217,3.1621695
1425519839.233,2.8946958
1425519839.248,2.0988178
1425519839.264,0.90108585
1425519839.28,-0.5710974
1425519839.295,-2.1453028
1425519839.311,-3.6766787
1425519839.326,-5.0619235
1425519839.342,-6.25348
1425519839.358,-7.232165
1425519839.373,-7.9895425
1425519839.389,-8.486568
1425519839.405,-8.700868
1425519839.42,-8.607006
1425519839.436,-8.239589
1425519839.451,-7.6880355
1425519839.467,-7.141973
1425519839.483,-6.79862
1425519839.498,-6.827882
1425519839.514,-7.2428217
1425519839.53,-7.8740005
1425519839.545,-8.41597
1425519839.561,-8.609924
1425519839.576,-8.335059
1425519839.592,-7.6804495
1425519839.608,-6.8847895
1425519839.623,-6.2035623
1425519839.639,-5.7699094
1425519839.655,-5.5740337
1425519839.67,-5.4951553
1425519839.686,-5.416504
1425519839.701,-5.2695704
1425519839.717,-5.055206
1425519839.733,-4.7925577
1425519839.748,-4.48505
1425519839.764,-4.095109
1425519839.78,-3.5983002
1425519839.795,-2.998279
1425519839.811,-2.353292
1425519839.826,-1.7171437
1425519839.842,-1.1473417
1425519839.858,-0.6084837
1425519839.873,-0.021924257
1425519839.889,0.75595117
1425519839.905,1.8166217
1425519839.92,3.206546
1425519839.936,4.8650446
1425519839.951,6.670229
1425519839.967,8.476294
1425519839.983,10.232008
1425519839.998,11.969853
1425519840.014,13.808951
1425519840.03,15.864506
1425519840.045,18.208078
1425519840.061,20.786102
1425519840.076,23.445251
1425519840.092,25.92771
1425519840.108,27.937952
1425519840.123,29.170448
1425519840.139,29.385582
1425519840.155,28.429274
1425519840.17,26.286896
1425519840.186,23.07547
1425519840.201,19.056942
1425519840.217,14.565105
1425519840.233,9.957771
1425519840.248,5.5576525
1425519840.264,1.5626607
1425519840.28,-1.968126
1425519840.295,-5.0693054
1425519840.311,-7.80245
1425519840.326,-10.122833
1425519840.342,-11.886331
1425519840.358,-12.85715
1425519840.373,-12.87019
1425519840.389,-11.94523
1425519840.405,-10.392261
1425519840.42,-8.7278805
1425519840.436,-7.5304785
1425519840.451,-7.176656
1425519840.467,-7.7766976
1425519840.483,-9.144113
1425519840.498,-10.938905
1425519840.514,-12.8139
1425519840.53,-14.518872
1425519840.545,-15.896086
1425519840.561,-16.896711
1425519840.576,-17.520294
1425519840.592,-17.829659
1425519840.608,-17.923824
1425519840.623,-17.894299
1425519840.639,-17.775936
1425519840.655,-17.534403
1425519840.67,-17.08044
1425519840.686,-16.351604
1425519840.701,-15.405536
1425519840.717,-14.478489
1425519840.733,-13.942528
1425519840.748,-14.123552
1425519840.764,-15.091049
1425519840.78,-16.534449
1425519840.795,-17.76579
1425519840.811,-17.904985
1425519840.826,-16.096611
1425519840.842,-11.765547
1425519840.858,-4.763394
1425519840.873,4.5185733
1425519840.889,15.181091
1425519840.905,25.889032
1425519840.92,35.093166
1425519840.936,41.274254
1425519840.951,43.341553
1425519840.967,40.840378
1425519840.983,34.146393
1425519840.998,24.346077
1425519841.014,12.921392
1425519841.03,1.3461142
1425519841.045,-9.248422
1425519841.061,-18.244514
1425519841.076,-25.431417
1425519841.092,-30.84362
1425519841.108,-34.55046
1425519841.123,-36.585716
1425519841.139,-36.907307
1425519841.155,-35.53997
1425519841.17,-32.599377
1425519841.186,-28.343433
1425519841.201,-23.167662
1425519841.217,-17.572388
1425519841.233,-12.086727
1425519841.248,-7.2744236
1425519841.264,-3.6323662
1425519841.28,-1.4837971
1425519841.295,-0.87192154
1425519841.311,-1.537405
1425519841.326,-2.9649296
1425519841.342,-4.5455475
1425519841.358,-5.7554398
1425519841.373,-6.292042
1425519841.389,-6.095875
1425519841.405,-5.2948456
1425519841.42,-4.0685654
1425519841.436,-2.603508
1425519841.452,-1.0015526
1425519841.467,0.6540985
1425519841.483,2.2855911
1425519841.498,3.7975693
1425519841.514,5.078018
1425519841.53,6.022583
1425519841.545,6.5895195
1425519841.561,6.7969284
1425519841.577,6.756893
1425519841.592,6.5959053
1425519841.608,6.4269905
1425519841.623,6.25259
1425519841.639,5.996933
1425519841.655,5.5065613
1425519841.67,4.675972
1425519841.686,3.523178
1425519841.702,2.2401276
1425519841.717,1.0971375
1425519841.733,0.35934448
1425519841.748,0.15048218
1425519841.764,0.40937805
1425519841.78,0.9454346
1425519841.795,1.5826187
1425519841.811,2.21669
1425519841.827,2.8869247
1425519841.842,3.6900787
1425519841.858,4.7005157
1425519841.873,5.890991
1425519841.889,7.145195
1425519841.905,8.29686
1425519841.92,9.242043
1425519841.936,9.965935
1425519841.952,10.566376
1425519841.967,11.21328
1425519841.983,12.078621
1425519841.998,13.247765
1425519842.014,14.691818
1425519842.03,16.224983
1425519842.045,17.630592
1425519842.061,18.719109
1425519842.077,19.458122
1425519842.092,19.964638
1425519842.108,20.471893
1425519842.123,21.19802
1425519842.139,22.268349
1425519842.155,23.68956
1425519842.17,25.407845
1425519842.186,27.329414
1425519842.202,29.328514
1425519842.217,31.167107
1425519842.233,32.45488
1425519842.248,32.705887
1425519842.264,31.495224
1425519842.28,28.611023
1425519842.295,24.259438
1425519842.311,18.95842
1425519842.327,13.431831
1425519842.342,8.353561
1425519842.358,4.2236176
1425519842.373,1.2717819
1425519842.389,-0.49843597
1425519842.405,-1.2406387
1425519842.42,-1.1942978
1425519842.436,-0.6525574
1425519842.452,0.071380615
1425519842.467,0.6722107
1425519842.483,0.9214325
1425519842.498,0.6698761
1425519842.514,-0.10254669
1425519842.53,-1.2945938
1425519842.545,-2.708931
1425519842.561,-4.138115
1425519842.577,-5.384056
1425519842.592,-6.3784027
1425519842.608,-7.1908035
1425519842.623,-8.015152
1425519842.639,-9.029907
1425519842.655,-10.317787
1425519842.67,-11.777084
1425519842.686,-13.164452
1425519842.702,-14.205414
1425519842.717,-14.747787
1425519842.733,-14.791428
1425519842.748,-14.48793
1425519842.764,-14.028198
1425519842.78,-13.579155
1425519842.795,-13.171417
1425519842.811,-12.753578
1425519842.827,-12.21759
1425519842.842,-11.492111
1425519842.858,-10.57975
1425519842.873,-9.559395
1425519842.889,-8.539169
1425519842.905,-7.624054
1425519842.92,-6.8396835
1425519842.936,-6.1367493
1425519842.952,-5.395958
1425519842.967,-4.526222
1425519842.983,-3.4718475
1425519842.998,-2.2828445
1425519843.014,-1.0693665
1425519843.03,0.071884155
1425519843.045,1.1204834
1425519843.061,2.1057053
1425519843.077,3.0991745
1425519843.092,4.126541
1425519843.108,5.1719055
1425519843.123,6.204239
1425519843.139,7.2870636
1425519843.155,8.576691
1425519843.17,10.306267
1425519843.186,12.684471
1425519843.202,15.753136
1425519843.217,19.262192
1425519843.233,22.718304
1425519843.248,25.452515
1425519843.264,26.873402
1425519843.28,26.617916
1425519843.295,24.699787
1425519843.311,21.45747
1425519843.327,17.46748
1425519843.342,13.305286
1425519843.358,9.441311
1425519843.373,6.1024055
1425519843.389,3.3424797
1425519843.405,1.0999985
1425519843.42,-0.67002106
1425519843.436,-1.9852943
1425519843.452,-2.82415
1425519843.467,-3.205555
1425519843.483,-3.2236252
1425519843.498,-3.0697937
1425519843.514,-2.9468765
1425519843.53,-3.0217972
1425519843.545,-3.3742638
1425519843.561,-3.9992561
1425519843.577,-4.8356056
1425519843.592,-5.817295
1425519843.608,-6.8873024
1425519843.623,-7.9888306
1425519843.639,-9.034855
1425519843.655,-9.932064
1425519843.67,-10.595688
1425519843.686,-11.025372
1425519843.702,-11.27356
1425519843.717,-11.44973
1425519843.733,-11.601051
1425519843.748,-11.703968
1425519843.764,-11.651585
1425519843.78,-11.344364
1425519843.795,-10.766924
1425519843.811,-10.048079
1425519843.827,-9.3945465
1425519843.842,-9.004316
1425519843.858,-8.904036
1425519843.873,-8.965214
1425519843.889,-8.947311
1425519843.905,-8.638586
1425519843.92,-8.015394
1425519843.936,-7.2350464
1425519843.952,-6.5424232
1425519843.967,-6.1603184
1425519843.983,-6.1529484
1425519843.998,-6.4571877
1425519844.014,-6.897335
1425519844.03,-7.303276
1425519844.045,-7.543806
1425519844.061,-7.5411243
1425519844.077,-7.2455826
1425519844.092,-6.637619
1425519844.108,-5.693184
1425519844.124,-4.4413776
1425519844.139,-2.93087
1425519844.155,-1.2646961
1425519844.17,0.47569084
1425519844.186,2.252142
1425519844.202,4.07745
1425519844.217,6.004383
1425519844.233,8.1303215
1425519844.249,10.572117
1425519844.264,13.402292
1425519844.28,16.60611
1425519844.295,20.00901
1425519844.311,23.238195
1425519844.327,25.797173
1425519844.342,27.158245
1425519844.358,26.988653
1425519844.374,25.238386
1425519844.389,22.21082
1425519844.405,18.464304
1425519844.42,14.619249
1425519844.436,11.14287
1425519844.452,8.26712
1425519844.467,5.9342003
1425519844.483,3.9483843
1425519844.499,2.0946302
1425519844.514,0.26653957
1425519844.53,-1.5041809
1425519844.545,-3.0800114
1425519844.561,-4.289467
1425519844.577,-5.0308065
1425519844.592,-5.318882
1425519844.608,-5.308691
1425519844.624,-5.239483
1425519844.639,-5.3204927
1425519844.655,-5.6711254
1425519844.67,-6.273505
1425519844.686,-7.0232897
1425519844.702,-7.8011236
1425519844.717,-8.590759
1425519844.733,-9.423703
1425519844.749,-10.36609
1425519844.764,-11.419996
1425519844.78,-12.505579
1425519844.795,-13.463324
1425519844.811,-14.163979
1425519844.827,-14.555725
1425519844.842,-14.673868
1425519844.858,-14.583173
1425519844.874,-14.353879
1425519844.889,-13.9990425
1425519844.905,-13.516405
1425519844.92,-12.903741
1425519844.936,-12.214635
1425519844.952,-11.510787
1425519844.967,-10.877777
1425519844.983,-10.391754
1425519844.999,-10.126738
1425519845.014,-10.1243925
1425519845.03,-10.405621
1425519845.045,-10.909592
1425519845.061,-11.524577
1425519845.077,-12.085558
1425519845.092,-12.452385
1425519845.108,-12.5635805
1425519845.124,-12.417192
1425519845.139,-12.065059
1425519845.155,-11.556546
1425519845.17,-10.91919
1425519845.186,-10.136651
1425519845.202,-9.191362
1425519845.217,-8.079398
1425519845.233,-6.776457
1425519845.249,-5.2709594
1425519845.264,-3.533657
1425519845.28,-1.5788951
1425519845.295,0.55334234
1425519845.311,2.7435336
1425519845.327,4.858853
1425519845.342,6.7953134
1425519845.358,8.546257
1425519845.374,10.198113
1425519845.389,11.927418
1425519845.405,13.904768
1425519845.42,16.25301
1425519845.436,18.941822
1425519845.452,21.784142
1425519845.467,24.44327
1425519845.483,26.514204
1425519845.499,27.58872
1425519845.514,27.425789
1425519845.53,25.957369
1425519845.545,23.34571
1425519845.561,19.873638
1425519845.577,15.942225
1425519845.592,11.931799
1425519845.608,8.162584
1425519845.624,4.8841195
1425519845.639,2.269274
1425519845.655,0.38381672
1425519845.67,-0.8130696
1425519845.686,-1.4804089
1425519845.702,-1.8367634
1425519845.717,-2.1171293
1425519845.733,-2.4791975
1425519845.749,-3.0074446
1425519845.764,-3.7154818
1425519845.78,-4.6105623
1425519845.795,-5.701277
1425519845.811,-7.015704
1425519845.827,-8.540549
1425519845.842,-10.229095
1425519845.858,-11.987463
1425519845.874,-13.739771
1425519845.889,-15.406294
1425519845.905,-16.963612
1425519845.92,-18.38644
1425519845.936,-19.646162
1425519845.952,-20.670755
1425519845.967,-21.406418
1425519845.983,-21.803381
1425519845.999,-21.883268
1425519846.014,-21.712538
1425519846.03,-21.407604
1425519846.045,-21.05159
1425519846.061,-20.706223
1425519846.077,-20.37619
1425519846.092,-20.042343
1425519846.108,-19.674616
1425519846.124,-19.265667
1425519846.139,-18.808311
1425519846.155,-18.27852
1425519846.17,-17.622456
1425519846.186,-16.787579
1425519846.202,-15.742259
1425519846.217,-14.553889
1425519846.233,-13.365442
1425519846.249,-12.368279
1425519846.264,-11.674419
1425519846.28,-11.272221
1425519846.295,-10.962524
1425519846.311,-10.47751
1425519846.327,-9.551249
1425519846.342,-8.018219
1425519846.358,-5.8532333
1425519846.374,-3.1756248
1425519846.389,-0.185215
1425519846.405,2.8635445
1425519846.42,5.7436943
1425519846.436,8.316303
1425519846.452,10.614725
1425519846.467,12.796337
1425519846.483,15.107807
1425519846.499,17.728249
1425519846.514,20.686295
1425519846.53,23.750042
1425519846.545,26.517857
1425519846.561,28.483543
1425519846.577,29.234749
1425519846.592,28.5736
1425519846.608,26.60117
1425519846.624,23.678574
1425519846.639,20.312504
1425519846.655,17.00336
1425519846.67,14.12608
1425519846.686,11.862164
1425519846.702,10.245884
1425519846.717,9.210091
1425519846.733,8.695015
1425519846.749,8.616592
1425519846.764,8.885082
1425519846.78,9.308987
1425519846.796,9.670258
1425519846.811,9.757484
1425519846.827,9.467678
1425519846.842,8.843697
1425519846.858,8.033546
1425519846.874,7.1898193
1425519846.889,6.413006
1425519846.905,5.698845
1425519846.921,4.9809074
1425519846.936,4.1817474
1425519846.952,3.2686234
1425519846.967,2.2358627
1425519846.983,1.1601334
1425519846.999,0.13912964
1425519847.014,-0.6863594
1425519847.03,-1.2022858
1425519847.046,-1.31353
1425519847.061,-1.0279388
1425519847.077,-0.4250183
1425519847.092,0.3514099
1425519847.108,1.1704788
1425519847.124,1.9652786
1425519847.139,2.7406235
1425519847.155,3.530037
1425519847.171,4.3785744
1425519847.186,5.2869453
1425519847.202,6.241791
1425519847.217,7.198696
1425519847.233,8.139282
1425519847.249,9.010159
1425519847.264,9.777645
1425519847.28,10.397495
1425519847.296,10.874237
1425519847.311,11.267651
1425519847.327,11.681728
1425519847.342,12.193306
1425519847.358,12.80471
1425519847.374,13.418999
1425519847.389,13.93375
1425519847.405,14.316242
1425519847.421,14.702744
1425519847.436,15.359699
1425519847.452,16.599564
1425519847.467,18.594563
1425519847.483,21.281624
1425519847.499,24.308945
1425519847.514,27.16446
1425519847.53,29.245358
1425519847.546,30.08926
1425519847.561,29.455097
1425519847.577,27.374722
1425519847.592,24.088692
1425519847.608,19.995426
1425519847.624,15.511936
1425519847.639,11.03331
1425519847.655,6.845419
1425519847.671,3.1639824
1425519847.686,0.10044479
1425519847.702,-2.289688
1425519847.717,-4.0537987
1425519847.733,-5.297983
1425519847.749,-6.2038345
1425519847.764,-6.962494
1425519847.78,-7.7647305
1425519847.796,-8.750321
1425519847.811,-10.019387
1425519847.827,-11.604653
1425519847.842,-13.476556
1425519847.858,-15.526042
1425519847.874,-17.610537
1425519847.889,-19.572266
1425519847.905,-21.314434
1425519847.921,-22.813087
1425519847.936,-24.126568
1425519847.952,-25.322777
1425519847.967,-26.461336
1425519847.983,-27.529873
1425519847.999,-28.460075
1425519848.014,-29.051071
1425519848.03,-29.106676
1425519848.046,-28.43983
1425519848.061,-26.95517
1425519848.077,-24.683243
1425519848.092,-21.790993
1425519848.108,-18.531013
1425519848.124,-15.184845
1425519848.139,-11.952631
1425519848.155,-8.961755
1425519848.171,-6.211568
1425519848.186,-3.6464481
1425519848.202,-1.1727562
1425519848.217,1.239914
1425519848.233,3.5449677
1425519848.249,5.6260014
1425519848.264,7.354782
1425519848.28,8.667286
1425519848.296,9.64817
1425519848.311,10.507082
1425519848.327,11.473734
1425519848.342,12.690578
1425519848.358,14.116459
1425519848.374,15.514513
1425519848.389,16.693926
1425519848.405,17.613682
1425519848.421,18.507298
1425519848.436,19.76004
1425519848.452,21.771141
1425519848.467,24.74936
1425519848.483,28.733547
1425519848.499,33.621025
1425519848.514,39.2777
1425519848.53,45.471634
1425519848.546,51.76607
1425519848.561,57.374146
1425519848.577,61.21939
1425519848.592,62.1839
1425519848.608,59.478634
1425519848.624,52.931564
1425519848.639,43.09492
1425519848.655,31.036839
1425519848.671,18.038635
1425519848.686,5.2439117
1425519848.702,-6.520378
1425519848.717,-16.811844
1425519848.733,-25.487656
1425519848.749,-32.625816
1425519848.764,-38.39367
1425519848.78,-42.96871
1425519848.796,-46.502068
1425519848.811,-49.12937
1425519848.827,-51.01393
1425519848.842,-52.38311
1425519848.858,-53.45845
1425519848.874,-54.39025
1425519848.889,-55.081757
1425519848.905,-55.234787
1425519848.921,-54.47834
1425519848.936,-52.59646
1425519848.952,-49.68451
1425519848.967,-46.192345
1425519848.983,-42.70858
1425519848.999,-39.715195
1425519849.014,-37.36857
1425519849.03,-35.48265
1425519849.046,-33.649048
1425519849.061,-31.493073
1425519849.077,-28.810478
1425519849.092,-25.676918
1425519849.108,-22.349724
1425519849.124,-19.134125
1425519849.139,-16.233604
1425519849.155,-13.712608
1425519849.171,-11.459785
1425519849.186,-9.315941
1425519849.202,-7.1460876
1425519849.217,-4.9625626
1425519849.233,-2.9085922
1425519849.249,-1.2178345
1425519849.264,-0.06639099
1425519849.28,0.5573654
1425519849.296,0.8783188
1425519849.311,1.2392731
1425519849.327,1.9407043
1425519849.342,3.060051
1425519849.358,4.412178
1425519849.374,5.633972
1425519849.389,6.4048004
1425519849.405,6.614067
1425519849.421,6.4657745
1425519849.436,6.350502
1425519849.452,6.6864166
1425519849.468,7.683296
1425519849.483,9.279175
1425519849.499,11.184013
1425519849.514,13.050102
1425519849.53,14.654778
1425519849.546,15.968353
1425519849.561,17.147308
1425519849.577,18.447968
1425519849.592,20.104568
1425519849.608,22.300568
1425519849.624,25.09156
1425519849.639,28.379433
1425519849.655,31.853836
1425519849.671,35.058678
1425519849.686,37.397682
1425519849.702,38.33568
1425519849.718,37.508293
1425519849.733,34.859512
1425519849.749,30.653465
1425519849.764,25.412163
1425519849.78,19.726364
1425519849.796,14.1594925
1425519849.811,9.119194
1425519849.827,4.8257675
1425519849.843,1.3125763
1425519849.858,-1.5120926
1425519849.874,-3.8062057
1425519849.889,-5.6895905
1425519849.905,-7.179512
1425519849.921,-8.189987
1425519849.936,-8.6386795
1425519849.952,-8.514069
1425519849.968,-8.014931
1425519849.983,-7.4864426
1425519849.999,-7.3003845
1425519850.014,-7.7036514
1425519850.03,-8.730629
1425519850.046,-10.2052
1425519850.061,-11.881569
1425519850.077,-13.550377
1425519850.093,-15.143295
1425519850.108,-16.63768
1425519850.124,-18.026741
1425519850.139,-19.220695
1425519850.155,-20.104942
1425519850.171,-20.627998
1425519850.186,-20.89151
1425519850.202,-21.10434
1425519850.218,-21.486046
1425519850.233,-22.132942
1425519850.249,-22.958694
1425519850.264,-23.715378
1425519850.28,-24.136513
1425519850.296,-24.069633
1425519850.311,-23.55989
1425519850.327,-22.77459
1425519850.343,-21.907959
1425519850.358,-21.050064
1425519850.374,-20.190231
1425519850.389,-19.241882
1425519850.405,-18.186829
1425519850.421,-17.10183
1425519850.436,-16.145813
1425519850.452,-15.422306
1425519850.468,-14.957066
1425519850.483,-14.624771
1425519850.499,-14.235657
1425519850.514,-13.649536
1425519850.53,-12.861145
1425519850.546,-11.964527
1425519850.561,-11.090126
1425519850.577,-10.23856
1425519850.593,-9.2970085
1425519850.608,-8.028362
1425519850.624,-6.254093
1425519850.639,-3.9554672
1425519850.655,-1.3117943
1425519850.671,1.3942413
1425519850.686,3.8834
1425519850.702,6.0199966
1425519850.718,7.8492126
1425519850.733,9.549597
1425519850.749,11.352291
1425519850.764,13.433599
1425519850.78,15.881107
1425519850.796,18.69333
1425519850.811,21.706144
1425519850.827,24.625895
1425519850.843,27.016417
1425519850.858,28.404152
1425519850.874,28.385735
1425519850.889,26.843992
1425519850.905,23.976368
1425519850.921,20.262512
1425519850.936,16.286858
1425519850.952,12.581541
1425519850.968,9.446217
1425519850.983,6.9750013
1425519850.999,5.086801
1425519851.014,3.6695793
1425519851.03,2.6307874
1425519851.046,1.9227179
1425519851.061,1.5023645
1425519851.077,1.3164914
1425519851.093,1.2799184
1425519851.108,1.3246617
1425519851.124,1.391593
1425519851.139,1.4523664
1425519851.155,1.4419603
1425519851.171,1.2995796
1425519851.186,0.88707256
1425519851.202,0.07779026
1425519851.218,-1.2053347
1425519851.233,-2.9476347
1425519851.249,-5.028244
1425519851.264,-7.2359905
1425519851.28,-9.349518
1425519851.296,-11.166203
1425519851.311,-12.577745
1425519851.327,-13.496962
1425519851.343,-13.885719
1425519851.358,-13.70764
1425519851.374,-12.980516
1425519851.389,-11.7653675
1425519851.405,-10.201981
1425519851.421,-8.42041
1425519851.436,-6.5278053
1425519851.452,-4.54957
1425519851.468,-2.4583359
1425519851.483,-0.2321701
1425519851.499,2.0780067
1425519851.514,4.3599434
1425519851.53,6.462002
1425519851.546,8.267578
1425519851.561,9.739315
1425519851.577,10.924431
1425519851.593,11.901016
1425519851.608,12.790195
1425519851.624,13.672211
1425519851.639,14.641003
1425519851.655,15.745186
1425519851.671,17.003456
1425519851.686,18.336502
1425519851.702,19.599056
1425519851.718,20.649624
1425519851.733,21.435192
1425519851.749,22.037746
1425519851.764,22.674961
1425519851.78,23.58155
1425519851.796,24.955902
1425519851.811,26.843723
1425519851.827,29.150127
1425519851.843,31.616096
1425519851.858,33.844692
1425519851.874,35.32869
1425519851.889,35.571716
1425519851.905,34.189213
1425519851.921,31.08561
1425519851.936,26.498314
1425519851.952,20.969608
1425519851.968,15.178177
1425519851.983,9.72385
1425519851.999,4.9680824
1425519852.014,1.0207443
1425519852.03,-2.229473
1425519852.046,-4.9013557
1425519852.061,-7.0505333
1425519852.077,-8.603897
1425519852.093,-9.475937
1425519852.108,-9.608303
1425519852.124,-9.107407
1425519852.139,-8.200073
1425519852.155,-7.204941
1425519852.171,-6.4019585
1425519852.186,-5.986408
1425519852.202,-6.008541
1425519852.218,-6.440674
1425519852.233,-7.207035
1425519852.249,-8.253984
1425519852.264,-9.543249
1425519852.28,-11.025791
1425519852.296,-12.575392
1425519852.311,-14.042309
1425519852.327,-15.26598
1425519852.343,-16.141031
1425519852.358,-16.64709
1425519852.374,-16.8433
1425519852.39,-16.802483
1425519852.405,-16.605473
1425519852.421,-16.303228
1425519852.436,-15.906427
1425519852.452,-15.386885
1425519852.468,-14.703068
1425519852.483,-13.797661
1425519852.499,-12.651257
1425519852.515,-11.298912
1425519852.53,-9.872477
1425519852.546,-8.503326
1425519852.561,-7.3093357
1425519852.577,-6.301914
1425519852.593,-5.409548
1425519852.608,-4.5023384
1425519852.624,-3.500229
1425519852.64,-2.3877773
1425519852.655,-1.2522488
1425519852.671,-0.1821289
1425519852.686,0.7689705
1425519852.702,1.6100559
1425519852.718,2.4189796
1425519852.733,3.302538
1425519852.749,4.359686
1425519852.765,5.6570683
1425519852.78,7.197319
1425519852.796,8.930698
1425519852.811,10.728052
1425519852.827,12.474451
1425519852.843,14.075602
1425519852.858,15.546711
1425519852.874,16.994967
1425519852.89,18.630653
1425519852.905,20.64781
1425519852.921,23.141323
1425519852.936,26.038166
1425519852.952,29.0229
1425519852.968,31.596375
1425519852.983,33.13978
1425519852.999,33.096977
1425519853.015,31.158941
1425519853.03,27.380589
1425519853.046,22.208696
1425519853.061,16.353262
1425519853.077,10.59095
1425519853.093,5.5276923
1425519853.108,1.4830465
1425519853.124,-1.504961
1425519853.14,-3.5573835
1425519853.155,-4.8768873
1425519853.171,-5.6129007
1425519853.186,-5.893507
1425519853.202,-5.8284492
1425519853.218,-5.546445
1425519853.233,-5.2130556
1425519853.249,-5.008004
1425519853.265,-5.0717096
1425519853.28,-5.484379
1425519853.296,-6.1998153
1425519853.311,-7.110395
1425519853.327,-8.0459175
1425519853.343,-8.902275
1425519853.358,-9.644339
1425519853.374,-10.345555
1425519853.39,-11.117231
1425519853.405,-12.04206
1425519853.421,-13.106494
1425519853.436,-14.181932
1425519853.452,-15.089418
1425519853.468,-15.670496
1425519853.483,-15.867058
1425519853.499,-15.742443
1425519853.515,-15.431423
1425519853.53,-15.087967
1425519853.546,-14.789516
1425519853.561,-14.556196
1425519853.577,-14.334232
1425519853.593,-14.05699
1425519853.608,-13.660906
1425519853.624,-13.125593
1425519853.64,-12.451118
1425519853.655,-11.674551
1425519853.671,-10.855717
1425519853.686,-10.072189
1425519853.702,-9.390738
1425519853.718,-8.860819
1425519853.733,-8.472765
1425519853.749,-8.163221
1425519853.765,-7.7880974
1425519853.78,-7.2003956
1425519853.796,-6.2883873
1425519853.811,-5.036049
1425519853.827,-3.4959297
1425519853.843,-1.7686405
1425519853.858,0.0849762
1425519853.874,2.0306396
1425519853.89,4.0733395
1425519853.905,6.18165
1425519853.921,8.293556
1425519853.936,10.312527
1425519853.952,12.213379
1425519853.968,14.065565
1425519853.983,16.056574
1425519853.999,18.401054
1425519854.015,21.224514
1425519854.03,24.420427
1425519854.046,27.630424
1425519854.061,30.258556
1425519854.077,31.67017
1425519854.093,31.37099
1425519854.108,29.220367
1425519854.124,25.432186
1425519854.14,20.55309
1425519854.155,15.272816
1425519854.171,10.241047
1425519854.186,5.8726807
1425519854.202,2.3228912
1425519854.218,-0.49343872
1425519854.233,-2.7657585
1425519854.249,-4.663929
1425519854.265,-6.247307
1425519854.28,-7.487797
1425519854.296,-8.335506
1425519854.311,-8.789646
1425519854.327,-8.94239
1425519854.343,-8.919769
1425519854.358,-8.810764
1425519854.374,-8.645592
1425519854.39,-8.391697
1425519854.405,-8.082497
1425519854.421,-7.8539734
1425519854.436,-7.944233
1425519854.452,-8.586742
1425519854.468,-9.882893
1425519854.483,-11.671093
1425519854.499,-13.589817
1425519854.515,-15.198833
1425519854.53,-16.215668
1425519854.546,-16.570168
1425519854.561,-16.438686
1425519854.577,-16.072243
1425519854.593,-15.684208
1425519854.608,-15.336399
1425519854.624,-14.977871
1425519854.64,-14.530766
1425519854.655,-13.984688
1425519854.671,-13.389141
1425519854.686,-12.829105
1425519854.702,-12.327324
1425519854.718,-11.861202
1425519854.733,-11.37891
1425519854.749,-10.902279
1425519854.765,-10.546139
1425519854.78,-10.464905
1425519854.796,-10.753452
1425519854.811,-11.35223
1425519854.827,-12.044983
1425519854.843,-12.559132
1425519854.858,-12.715126
1425519854.874,-12.479523
1425519854.89,-11.948605
1425519854.905,-11.268211
1425519854.921,-10.487736
1425519854.936,-9.531101
1425519854.952,-8.259193
1425519854.968,-6.621746
1425519854.983,-4.6676903
1425519854.999,-2.5907135
1425519855.015,-0.59358597
1425519855.03,1.1987381
1425519855.046,2.83078
1425519855.062,4.4454727
1425519855.077,6.2570724
1425519855.093,8.469276
1425519855.108,11.20816
1425519855.124,14.460407
1425519855.14,18.024857
1425519855.155,21.494144
1425519855.171,24.303337
1425519855.187,25.873062
1425519855.202,25.826008
1425519855.218,24.09002
1425519855.233,20.971405
1425519855.249,16.99789
1425519855.265,12.769993
1425519855.28,8.746456
1425519855.296,5.191086
1425519855.312,2.169098
1425519855.327,-0.3343811
1425519855.343,-2.317501
1425519855.358,-3.73003
1425519855.374,-4.4837837
1425519855.39,-4.543892
1425519855.405,-4.0285263
1425519855.421,-3.2006607
1425519855.437,-2.43882
1425519855.452,-2.092144
1425519855.468,-2.358799
1425519855.483,-3.2107124
1425519855.499,-4.4439526
1425519855.515,-5.793789
1425519855.53,-7.0844135
1425519855.546,-8.291803
1425519855.562,-9.553661
1425519855.577,-11.007687
1425519855.593,-12.720419
1425519855.608,-14.580343
1425519855.624,-16.37811
1425519855.64,-17.836214
1425519855.655,-18.718493
1425519855.671,-18.89358
1425519855.687,-18.395609
1425519855.702,-17.397907
1425519855.718,-16.177868
1425519855.733,-15.009693
1425519855.749,-14.077845
1425519855.765,-13.411581
1425519855.78,-12.921789
1425519855.796,-12.456919
1425519855.812,-11.881388
1425519855.827,-11.105076
1425519855.843,-10.081473
1425519855.858,-8.781677
1425519855.874,-7.236677
1425519855.89,-5.511059
1425519855.905,-3.7120695
1425519855.921,-1.9111624
1425519855.937,-0.111946106
1425519855.952,1.7644863
1425519855.968,3.7817516
1425519855.983,5.8974347
1425519855.999,7.9248133
1425519856.015,9.608814
1425519856.03,10.856917
1425519856.046,11.824853
1425519856.062,12.882823
1425519856.077,14.453528
1425519856.093,16.754599
1425519856.108,19.757473
1425519856.124,23.1787
1425519856.14,26.668941
1425519856.155,29.903477
1425519856.171,32.622917
1425519856.187,34.509434
1425519856.202,35.18209
1425519856.218,34.26886
1425519856.233,31.610985
1425519856.249,27.429148
1425519856.265,22.30407
1425519856.28,16.995544
1425519856.296,12.154647
1425519856.312,8.119716
1425519856.327,4.9327316
1425519856.343,2.4647522
1425519856.358,0.5949936
1425519856.374,-0.70671463
1425519856.39,-1.3830757
1425519856.405,-1.3864145
1425519856.421,-0.7516203
1425519856.437,0.3311987
1425519856.452,1.5826464
1425519856.468,2.6813278
1425519856.483,3.3444853
1425519856.499,3.4008884
1425519856.515,2.7963266
1425519856.53,1.6060219
1425519856.546,8.020401E-4
1425519856.562,-1.7914352
1425519856.577,-3.5353413
1425519856.593,-5.0518894
1425519856.608,-6.2157497
1425519856.624,-6.9848976
1425519856.64,-7.3903084
1425519856.655,-7.5043907
1425519856.671,-7.410848
1425519856.687,-7.198002
1425519856.702,-6.9064426
1425519856.718,-6.557316
1425519856.733,-6.161197
1425519856.749,-5.6950903
1425519856.765,-5.1313934
1425519856.78,-4.379109
1425519856.796,-3.3150363
1425519856.812,-1.8582273
1425519856.827,-0.0420022
1425519856.843,1.9308434
1425519856.858,3.7691329
1425519856.874,5.208122
1425519856.89,6.1730146
1425519856.905,6.786047
1425519856.921,7.313895
1425519856.937,7.9746313
1425519856.952,8.870792
1425519856.968,9.975717
1425519856.983,11.220391
1425519856.999,12.594431
1425519857.015,14.182909
1425519857.03,16.13303
1425519857.046,18.518959
1425519857.062,21.265062
1425519857.077,24.096218
1425519857.093,26.532959
1425519857.108,28.026455
1425519857.124,28.080055
1425519857.14,26.4219
1425519857.155,23.124542
1425519857.171,18.605774
1425519857.187,13.498046
1425519857.202,8.452125
1425519857.218,3.9566422
1425519857.233,0.23488235
1425519857.249,-2.7008743
1425519857.265,-4.9485416
1425519857.28,-6.6354923
1425519857.296,-7.863121
1425519857.312,-8.750961
1425519857.327,-9.419346
1425519857.343,-9.981262
1425519857.358,-10.50716
1425519857.374,-11.044086
1425519857.39,-11.62019
1425519857.405,-12.292311
1425519857.421,-13.109537
1425519857.437,-14.0981045
1425519857.452,-15.186573
1425519857.468,-16.26308
1425519857.483,-17.212795
1425519857.499,-17.988358
1425519857.515,-18.605839
1425519857.53,-19.066814
1425519857.546,-19.326813
1425519857.562,-19.26752
1425519857.577,-18.743347
1425519857.593,-17.72258
1425519857.608,-16.312511
1425519857.624,-14.752953
1425519857.64,-13.29427
1425519857.655,-12.090237
1425519857.671,-11.105759
1425519857.687,-10.191135
1425519857.702,-9.149296
1425519857.718,-7.8616104
1425519857.734,-6.3310165
1425519857.749,-4.7091103
1425519857.765,-3.195446
1425519857.78,-1.9617424
1425519857.796,-1.0647545
1425519857.812,-0.42328644
1425519857.827,0.13908386
1425519857.843,0.77218246
1425519857.859,1.5552292
1425519857.874,2.4616547
1425519857.89,3.4300194
1425519857.905,4.462265
1425519857.921,5.6187477
1425519857.937,6.961941
1425519857.952,8.504936
1425519857.968,10.168369
1425519857.984,11.8480835
1425519857.999,13.510063
1425519858.015,15.292927
1425519858.03,17.449253
1425519858.046,20.194775
1425519858.062,23.509575
1425519858.077,27.036076
1425519858.093,30.118656
1425519858.109,32.000175
1425519858.124,32.069176
1425519858.14,30.101429
1425519858.155,26.271011
1425519858.171,21.126972
1425519858.187,15.390316
1425519858.202,9.750557
1425519858.218,4.718422
1425519858.234,0.5866928
1425519858.249,-2.5991516
1425519858.265,-4.9366684
1425519858.28,-6.598732
1425519858.296,-7.778824
1425519858.312,-8.683083
1425519858.327,-9.455139
1425519858.343,-10.141182
1425519858.359,-10.6879425
1425519858.374,-10.9776535
1425519858.39,-10.94558
1425519858.405,-10.691093
1425519858.421,-10.492332
1425519858.437,-10.701363
1425519858.452,-11.540115
1425519858.468,-12.937492
1425519858.484,-14.556526
1425519858.499,-16.000557
1425519858.515,-17.020111
1425519858.53,-17.632256
1425519858.546,-18.064651
1425519858.562,-18.546104
1425519858.577,-19.116112
1425519858.593,-19.62175
1425519858.609,-19.805153
1425519858.624,-19.498543
1425519858.64,-18.685738
1425519858.655,-17.507568
1425519858.671,-16.140694
1425519858.687,-14.715843
1425519858.702,-13.319405
1425519858.718,-11.990791
1425519858.734,-10.771034
1425519858.749,-9.736305
1425519858.765,-8.958435
1425519858.78,-8.498329
1425519858.796,-8.362587
1425519858.812,-8.478172
1425519858.827,-8.70211
1425519858.843,-8.791748
1425519858.859,-8.532799
1425519858.874,-7.817459
1425519858.89,-6.706421
1425519858.905,-5.40477
1425519858.921,-4.123581
1425519858.937,-2.9728317
1425519858.952,-1.8802261
1425519858.968,-0.6620636
1425519858.984,0.8654022
1425519858.999,2.7189941
1425519859.015,4.752617
1425519859.03,6.758011
1425519859.046,8.583382
1425519859.062,10.230385
1425519859.077,11.880241
1425519859.093,13.794998
1425519859.109,16.271385
1425519859.124,19.4739
1425519859.14,23.400345
1425519859.155,27.784416
1425519859.171,32.11064
1425519859.187,35.65277
1425519859.202,37.63893
1425519859.218,37.48616
1425519859.234,34.9992
1425519859.249,30.46215
1425519859.265,24.583862
1425519859.28,18.262886
1425519859.296,12.339836
1425519859.312,7.3852158
1425519859.327,3.6162338
1425519859.343,0.9345169
1425519859.359,-0.91954803
1425519859.374,-2.2451859
1425519859.39,-3.2540817
1425519859.405,-4.059044
1425519859.421,-4.697853
1425519859.437,-5.2022324
1425519859.452,-5.634697
1425519859.468,-6.128998
1425519859.484,-6.8147964
1425519859.499,-7.815811
1425519859.515,-9.144081
1425519859.53,-10.728722
1425519859.546,-12.436729
1425519859.562,-14.14222
1425519859.577,-15.80439
1425519859.593,-17.475449
1425519859.609,-19.22374
1425519859.624,-21.053696
1425519859.64,-22.796593
1425519859.655,-24.177177
1425519859.671,-24.898712
1425519859.687,-24.825935
1425519859.702,-24.03283
1425519859.718,-22.83242
1425519859.734,-21.565643
1425519859.749,-20.488556
1425519859.765,-19.620682
1425519859.78,-18.827545
1425519859.796,-17.911285
1425519859.812,-16.814255
1425519859.827,-15.644646
1425519859.843,-14.611633
1425519859.859,-13.903969
1425519859.874,-13.564095
1425519859.89,-13.4783325
1425519859.905,-13.476234
1425519859.921,-13.380348
1425519859.937,-13.108009
1425519859.952,-12.58831
1425519859.968,-11.768669
1425519859.984,-10.579987
1425519859.999,-9.078064
1425519860.015,-7.4236755
1425519860.03,-5.90197
1425519860.046,-4.7424088
1425519860.062,-4.0014725
1425519860.077,-3.4676132
1425519860.093,-2.79879
1425519860.109,-1.7078171
1425519860.124,-0.14060974
1425519860.14,1.738884
1425519860.155,3.6911697
1425519860.171,5.5750275
1425519860.187,7.4333878
1425519860.202,9.456154
1425519860.218,11.817368
1425519860.234,14.595711
1425519860.249,17.716637
1425519860.265,21.031227
1425519860.28,24.284485
1425519860.296,27.187515
1425519860.312,29.334213
1425519860.327,30.258484
1425519860.343,29.573776
1425519860.359,27.11525
1425519860.374,23.072926
1425519860.39,17.996582
1425519860.406,12.620399
1425519860.421,7.6237106
1425519860.437,3.4655151
1425519860.452,0.30552673
1425519860.468,-1.965416
1425519860.484,-3.559124
1425519860.499,-4.690815
1425519860.515,-5.461941
1425519860.53,-5.8467903
1425519860.546,-5.748287
1425519860.562,-5.163727
1425519860.577,-4.2741356
1425519860.593,-3.416706
1425519860.609,-2.9885368
1425519860.624,-3.2665253
1425519860.64,-4.2899475
1425519860.656,-5.8675613
1425519860.671,-7.7191505
1425519860.687,-9.608383
1425519860.702,-11.41581
1425519860.718,-13.110001
1425519860.734,-14.6559105
1425519860.749,-15.963345
1425519860.765,-16.861977
1425519860.781,-17.204433
1425519860.796,-16.94191
1425519860.812,-16.168705
1425519860.827,-15.074329
1425519860.843,-13.876781
1425519860.859,-12.718727
1425519860.874,-11.666523
1425519860.89,-10.700321
1425519860.906,-9.695881
1425519860.921,-8.503515
1425519860.937,-7.004509
1425519860.952,-5.1700153
1425519860.968,-3.1205215
1425519860.984,-1.0776901
1425519860.999,0.7008419
1425519861.015,2.0431995
1425519861.031,2.9097595
1425519861.046,3.4204674
1425519861.062,3.7734642
1425519861.077,4.173462
1425519861.093,4.7975636
1425519861.109,5.7650642
1425519861.124,7.1002502
1425519861.14,8.756807
1425519861.156,10.61389
1425519861.171,12.563459
1425519861.187,14.52663
1425519861.202,16.562319
1425519861.218,18.793972
1425519861.234,21.383835
1425519861.249,24.402718
1425519861.265,27.839512
1425519861.281,31.580128
1425519861.296,35.42927
1425519861.312,39.044216
1425519861.327,41.92933
1425519861.343,43.476334
1425519861.359,43.11479
1425519861.374,40.52014
1425519861.39,35.827156
1425519861.406,29.579765
1425519861.421,22.619585
1425519861.437,15.765856
1425519861.452,9.637138
1425519861.468,4.533622
1425519861.484,0.53529644
1425519861.499,-2.4265442
1425519861.515,-4.4703894
1425519861.531,-5.745698
1425519861.546,-6.4135513
1425519861.562,-6.685526
1425519861.577,-6.736432
1425519861.593,-6.7144117
1425519861.609,-6.7374945
1425519861.624,-6.9139433
1425519861.64,-7.3412323
1425519861.656,-8.058063
1425519861.671,-9.0066395
1425519861.687,-10.08706
1425519861.702,-11.190166
1425519861.718,-12.30825
1425519861.734,-13.503644
1425519861.749,-14.858103
1425519861.765,-16.352293
1425519861.781,-17.842194
1425519861.796,-19.072458
1425519861.812,-19.818478
1425519861.827,-20.019777
1425519861.843,-19.769802
1425519861.859,-19.248318
1425519861.874,-18.617826
1425519861.89,-17.921247
1425519861.906,-17.113827
1425519861.921,-16.112825
1425519861.937,-14.884203
1425519861.952,-13.45001
1425519861.968,-11.936996
1425519861.984,-10.454532
1425519861.999,-9.109767
1425519862.015,-7.957037
1425519862.031,-6.986186
1425519862.046,-6.1609364
1425519862.062,-5.468999
1425519862.077,-4.92229
1425519862.093,-4.506505
1425519862.109,-4.157116
1425519862.124,-3.7271338
1425519862.14,-2.9896002
1425519862.156,-1.7686939
1425519862.171,0.03168106
1425519862.187,2.3207664
1425519862.202,4.9004936
1425519862.218,7.5479164
1425519862.234,10.08946
1425519862.249,12.443738
1425519862.265,14.627009
1425519862.281,16.671444
1425519862.296,18.642815
1425519862.312,20.665161
1425519862.327,22.929932
1425519862.343,25.651775
1425519862.359,28.94498
1425519862.374,32.613914
1425519862.39,36.088123
1425519862.406,38.557796
1425519862.421,39.206326
1425519862.437,37.55775
1425519862.452,33.675552
1425519862.468,28.144278
1425519862.484,21.834568
1425519862.499,15.593337
1425519862.515,9.990789
1425519862.531,5.249031
1425519862.546,1.361968
1425519862.562,-1.7653637
1425519862.577,-4.1756105
1425519862.593,-5.8465986
1425519862.609,-6.7619734
1425519862.624,-7.0463066
1425519862.64,-6.946953
1425519862.656,-6.8084545
1425519862.671,-6.9289074
1425519862.687,-7.4510155
1425519862.702,-8.332758
1425519862.718,-9.38328
1425519862.734,-10.392794
1425519862.749,-11.255352
1425519862.765,-11.997936
1425519862.781,-12.734684
1425519862.796,-13.580971
1425519862.812,-14.578262
1425519862.827,-15.640369
1425519862.843,-16.614574
1425519862.859,-17.319345
1425519862.874,-17.68166
1425519862.89,-17.697538
1425519862.906,-17.479385
1425519862.921,-17.162598
1425519862.937,-16.86661
1425519862.952,-16.6098
1425519862.968,-16.301895
1425519862.984,-15.776617
1425519862.999,-14.868254
1425519863.015,-13.508881
1425519863.031,-11.811104
1425519863.046,-10.037476
1425519863.062,-8.510294
1425519863.078,-7.4378223
1425519863.093,-6.8510838
1425519863.109,-6.5797462
1425519863.124,-6.3715363
1425519863.14,-6.000044
1425519863.156,-5.3573265
1425519863.171,-4.437893
1425519863.187,-3.3201942
1425519863.202,-2.0899982
1425519863.218,-0.82914925
1425519863.234,0.4253025
1425519863.249,1.6373882
1425519863.265,2.7922592
1425519863.281,3.906435
1425519863.296,5.037237
1425519863.312,6.2464466
1425519863.328,7.5885735
1425519863.343,9.098671
1425519863.359,10.769205
1425519863.374,12.552113
1425519863.39,14.428551
1425519863.406,16.418226
1425519863.421,18.641453
1425519863.437,21.24157
1425519863.453,24.331139
1425519863.468,27.844559
1425519863.484,31.419863
1425519863.499,34.409534
1425519863.515,36.03974
1425519863.531,35.67304
1425519863.546,33.084515
1425519863.562,28.57385
1425519863.578,22.893192
1425519863.593,16.947172
1425519863.609,11.498344
1425519863.624,6.9519215
1425519863.64,3.3478775
1425519863.656,0.4960804
1425519863.671,-1.803112
1425519863.687,-3.6512146
1425519863.703,-5.0149384
1425519863.718,-5.8408012
1425519863.734,-6.1390533
1425519863.749,-6.0580635
1425519863.765,-5.8444824
1425519863.781,-5.745804
1425519863.796,-5.904011
1425519863.812,-6.339756
1425519863.828,-6.9750595
1425519863.843,-7.7250214
1425519863.859,-8.566856
1425519863.874,-9.5824585
1425519863.89,-10.864647
1425519863.906,-12.501484
1425519863.921,-14.439987
1425519863.937,-16.524403
1425519863.953,-18.492878
1425519863.968,-20.105133
1425519863.984,-21.164806
1425519863.999,-21.613705
1425519864.015,-21.504871
1425519864.031,-21.011967
1425519864.046,-20.34438
1425519864.062,-19.70897
1425519864.078,-19.201176
1425519864.093,-18.781567
1425519864.109,-18.28947
1425519864.124,-17.556469
1425519864.14,-16.519222
1425519864.156,-15.28297
1425519864.171,-14.077137
1425519864.187,-13.127838
1425519864.203,-12.52319
1425519864.218,-12.184799
1425519864.234,-11.937393
1425519864.249,-11.630573
1425519864.265,-11.189953
1425519864.281,-10.632011
1425519864.296,-9.962311
1425519864.312,-9.160076
1425519864.328,-8.160408
1425519864.343,-6.925659
1425519864.359,-5.460247
1425519864.374,-3.8371964
1425519864.39,-2.0898361
1425519864.406,-0.22520065
1425519864.421,1.8345642
1425519864.437,4.154415
1425519864.453,6.7259254
1425519864.468,9.460468
1425519864.484,12.247654
1425519864.499,15.004862
1425519864.515,17.748024
1425519864.531,20.573135
1425519864.546,23.614134
1425519864.562,26.951296
1425519864.578,30.55459
1425519864.593,34.220196
1425519864.609,37.56743
1425519864.624,40.069954
1425519864.64,41.17999
1425519864.656,40.529476
1425519864.671,38.026596
1425519864.687,33.919945
1425519864.703,28.70615
1425519864.718,22.960245
1425519864.734,17.188662
1425519864.749,11.7302685
1425519864.765,6.782158
1425519864.781,2.4415073
1425519864.796,-1.1999741
1425519864.812,-4.0551605
1425519864.828,-6.051937
1425519864.843,-7.193903
1425519864.859,-7.5900726
1425519864.874,-7.46883
1425519864.89,-7.103451
1425519864.906,-6.7844124
1425519864.921,-6.7206078
1425519864.937,-7.023636
1425519864.953,-7.702957
1425519864.968,-8.725311
1425519864.984,-10.039997
1425519864.999,-11.623161
1425519865.015,-13.459679
1425519865.031,-15.503086
1425519865.046,-17.626995
1425519865.062,-19.642708
1425519865.078,-21.337315
1425519865.093,-22.57962
1425519865.109,-23.348545
1425519865.124,-23.747726
1425519865.14,-23.932877
1425519865.156,-24.052906
1425519865.171,-24.146965
1425519865.187,-24.158306
1425519865.203,-23.996635
1425519865.218,-23.574944
1425519865.234,-22.88353
1425519865.249,-22.022411
1425519865.265,-21.12767
1425519865.281,-20.34895
1425519865.296,-19.751797
1425519865.312,-19.29206
1425519865.328,-18.827686
1425519865.343,-18.197292
1425519865.359,-17.291319
1425519865.374,-16.123713
1425519865.39,-14.802961
1425519865.406,-13.4783325
1425519865.421,-12.237713
1425519865.437,-11.080397
1425519865.453,-9.883532
1425519865.468,-8.518576
1425519865.484,-6.885189
1425519865.499,-4.9631805
1425519865.515,-2.7865906
1425519865.531,-0.4256611
1425519865.546,2.0528183
1425519865.562,4.566489
1425519865.578,7.0205526
1425519865.593,9.32508
1425519865.609,11.435783
1425519865.624,13.400882
1425519865.64,15.407791
1425519865.656,17.681112
1425519865.671,20.431654
1425519865.687,23.729315
1425519865.703,27.406654
1425519865.718,31.040407
1425519865.734,33.997913
1425519865.749,35.56552
1425519865.765,35.173233
1425519865.781,32.606113
1425519865.796,28.123335
1425519865.812,22.393412
1425519865.828,16.303314
1425519865.843,10.648396
1425519865.859,5.956716
1425519865.874,2.392252
1425519865.89,-0.1156311
1425519865.906,-1.7439327
1425519865.921,-2.6233063
1425519865.937,-2.8664684
1425519865.953,-2.5745087
1425519865.968,-1.9138756
1425519865.984,-1.121212
1425519866,-0.44530582
1425519866.015,-0.059667587
1425519866.031,-0.03211403
1425519866.046,-0.3364315
1425519866.062,-0.9095936
1425519866.078,-1.7048702
1425519866.093,-2.760643
1425519866.109,-4.135147
1425519866.125,-5.8930798
1425519866.14,-7.989809
1425519866.156,-10.253294
1425519866.171,-12.375959
1425519866.187,-14.064606
1425519866.203,-15.148796
1425519866.218,-15.649651
1425519866.234,-15.760475
1425519866.25,-15.725168
1425519866.265,-15.698425
1425519866.281,-15.721544
1425519866.296,-15.740139
1425519866.312,-15.703012
1425519866.328,-15.60491
1425519866.343,-15.45665
1425519866.359,-15.185509
1425519866.375,-14.630997
1425519866.39,-13.572914
1425519866.406,-11.921333
1425519866.421,-9.79248
1425519866.437,-7.526863
1425519866.453,-5.538986
1425519866.468,-4.136799
1425519866.484,-3.3546906
1425519866.5,-2.978157
1425519866.515,-2.6643105
1425519866.531,-2.1032257
1425519866.546,-1.1304245
1425519866.562,0.22397995
1425519866.578,1.8501167
1425519866.593,3.6340675
1425519866.609,5.5521507
1425519866.625,7.6614494
1425519866.64,10.091187
1425519866.656,12.959625
1425519866.671,16.374584
1425519866.687,20.35661
1425519866.703,24.826218
1425519866.718,29.554623
1425519866.734,34.122982
1425519866.75,37.92995
1425519866.765,40.30031
1425519866.781,40.69583
1425519866.796,38.919205
1425519866.812,35.24508
1425519866.828,30.36065
1425519866.843,25.136398
1425519866.859,20.353218
1425519866.875,16.46526
1425519866.89,13.6320305
1425519866.906,11.812725
1425519866.921,10.93428
1425519866.937,10.935318
1425519866.953,11.720024
1425519866.968,13.03606
1425519866.984,14.476578
1425519867,15.559185
1425519867.015,15.926987
1425519867.031,15.435593
1425519867.046,14.2057495
1425519867.062,12.467831
1425519867.078,10.445236
1425519867.093,8.253712
1425519867.109,5.9230576
1425519867.125,3.4314384
1425519867.14,0.80719376
1425519867.156,-1.9048424
1425519867.171,-4.6253853
1425519867.187,-7.26437
1425519867.203,-9.741463
1425519867.218,-11.981388
1425519867.234,-13.888294
1425519867.25,-15.402027
1425519867.265,-16.489773
1425519867.281,-17.138916
1425519867.296,-17.305584
1425519867.312,-16.931465
1425519867.328,-15.912735
1425519867.343,-14.201904
1425519867.359,-11.851852
1425519867.375,-9.080288
1425519867.39,-6.2120705
1425519867.406,-3.5837364
1425519867.421,-1.427433
1425519867.437,0.22843552
1425519867.453,1.5355682
1425519867.468,2.7653084
1425519867.484,4.144783
1425519867.5,5.7811394
1425519867.515,7.599468
1425519867.531,9.42054
1425519867.546,11.055576
1425519867.562,12.40892
1425519867.578,13.534023
1425519867.593,14.563091
1425519867.609,15.68693
1425519867.625,17.054134
1425519867.64,18.814745
1425519867.656,21.097042
1425519867.671,23.964998
1425519867.687,27.330187
1425519867.703,30.861317
1425519867.718,33.96112
1425519867.734,35.907364
1425519867.75,36.084213
1425519867.765,34.17646
1425519867.781,30.275581
1425519867.796,24.866703
1425519867.812,18.610706
1425519867.828,12.193859
1425519867.843,6.155872
1425519867.859,0.85576963
1425519867.875,-3.5513592
1425519867.89,-7.0278983
1425519867.906,-9.598521
1425519867.921,-11.330973
1425519867.937,-12.311092
1425519867.953,-12.678039
1425519867.968,-12.634122
1425519867.984,-12.444487
1425519868,-12.39758
1425519868.015,-12.695613
1425519868.031,-13.350794
1425519868.046,-14.181505
1425519868.062,-14.968693
1425519868.078,-15.53005
1425519868.093,-15.896362
1425519868.109,-16.25091
1425519868.125,-16.817102
1425519868.14,-17.702309
1425519868.156,-18.850574
1425519868.171,-20.063475
1425519868.187,-21.13453
1425519868.203,-21.90569
1425519868.218,-22.28968
1425519868.234,-22.250675
1425519868.25,-21.782295
1425519868.265,-20.944641
1425519868.281,-19.867092
1425519868.296,-18.715755
1425519868.312,-17.649323
1425519868.328,-16.733337
1425519868.343,-15.948505
1425519868.359,-15.211838
1425519868.375,-14.472305
1425519868.39,-13.729248
1425519868.406,-13.007507
1425519868.421,-12.304237
1425519868.437,-11.563736
1425519868.453,-10.712536
1425519868.468,-9.703205
1425519868.484,-8.530197
1425519868.5,-7.253334
1425519868.515,-5.926319
1425519868.531,-4.5538483
1425519868.546,-3.0966759
1425519868.562,-1.4984932
1425519868.578,0.2759285
1425519868.593,2.241497
1425519868.609,4.3941994
1425519868.625,6.72744
1425519868.64,9.246204
1425519868.656,11.956223
1425519868.672,14.928684
1425519868.687,18.2281
1425519868.703,21.927769
1425519868.718,25.945621
1425519868.734,29.957619
1425519868.75,33.35353
1425519868.765,35.36253
1425519868.781,35.332733
1425519868.797,32.987858
1425519868.812,28.540123
1425519868.828,22.636719
1425519868.843,16.150894
1425519868.859,9.880913
1425519868.875,4.3912582
1425519868.89,-0.07964325
1425519868.906,-3.5702362
1425519868.922,-6.25235
1425519868.937,-8.3363495
1425519868.953,-9.952728
1425519868.968,-11.152115
1425519868.984,-11.890198
1425519869,-12.147614
1425519869.015,-11.993469
1425519869.031,-11.623772
1425519869.047,-11.345383
1425519869.062,-11.438133
1425519869.078,-12.028839
1425519869.093,-13.06897
1425519869.109,-14.365585
1425519869.125,-15.732735
1425519869.14,-17.062721
1425519869.156,-18.332504
1425519869.172,-19.546371
1425519869.187,-20.665703
1425519869.203,-21.571663
1425519869.218,-22.12902
1425519869.234,-22.217209
1425519869.25,-21.827942
1425519869.265,-21.045525
1425519869.281,-20.04023
1425519869.297,-18.975311
1425519869.312,-17.995827
1425519869.328,-17.172455
1425519869.343,-16.500107
1425519869.359,-15.910439
1425519869.375,-15.287193
1425519869.39,-14.521187
1425519869.406,-13.562164
1425519869.422,-12.4226
1425519869.437,-11.179993
1425519869.453,-9.916176
1425519869.468,-8.705795
1425519869.484,-7.555046
1425519869.5,-6.460037
1425519869.515,-5.4291534
1425519869.531,-4.473381
1425519869.547,-3.6060486
1425519869.562,-2.815628
1425519869.578,-2.017006
1425519869.593,-1.0827713
1425519869.609,0.14080048
1425519869.625,1.7354355
1425519869.64,3.6807404
1425519869.656,5.8365707
1425519869.672,8.006004
1425519869.687,10.023521
1425519869.703,11.841362
1425519869.718,13.565956
1425519869.734,15.41021
1425519869.75,17.615135
1425519869.765,20.374832
1425519869.781,23.75402
1425519869.797,27.656761
1425519869.812,31.775482
1425519869.828,35.641487
1425519869.843,38.638626
1425519869.859,40.17562
1425519869.875,39.83187
1425519869.89,37.507896
1425519869.906,33.44049
1425519869.922,28.142525
1425519869.937,22.226639
1425519869.953,16.241425
1425519869.968,10.56414
1425519869.984,5.4260483
1425519870,0.9698944
1425519870.015,-2.6799088
1425519870.031,-5.412697
1425519870.047,-7.1723557
1425519870.062,-8.023163
1425519870.078,-8.162567
1425519870.093,-7.8960495
1425519870.109,-7.5448
1425519870.125,-7.364235
1425519870.14,-7.4933243
1425519870.156,-7.9541397
1425519870.172,-8.670357
1425519870.187,-9.547981
1425519870.203,-10.509834
1425519870.218,-11.561752
1425519870.234,-12.770859
1425519870.25,-14.24292
1425519870.265,-16.015396
1425519870.281,-18.021034
1425519870.297,-20.06913
1425519870.312,-21.958176
1425519870.328,-23.530418
1425519870.343,-24.731697
1425519870.359,-25.563477
1425519870.375,-26.048042
1425519870.39,-26.162598
1425519870.406,-25.877632
1425519870.422,-25.192352
1425519870.437,-24.19365
1425519870.453,-23.037506
1425519870.468,-21.885788
1425519870.484,-20.835922
1425519870.5,-19.90606
1425519870.515,-19.0439
1425519870.531,-18.220612
1425519870.547,-17.439293
1425519870.562,-16.752975
1425519870.578,-16.150124
1425519870.593,-15.576111
1425519870.609,-14.905914
1425519870.625,-14.035332
1425519870.64,-12.91584
1425519870.656,-11.573517
1425519870.672,-10.05201
1425519870.687,-8.377846
1425519870.703,-6.555973
1425519870.718,-4.5817146
1425519870.734,-2.5024223
1425519870.75,-0.41291046
1425519870.765,1.5746841
1425519870.781,3.3968124
1425519870.797,5.094883
1425519870.812,6.800007
1425519870.828,8.685604
1425519870.843,10.904263
1425519870.859,13.566788
1425519870.875,16.679298
1425519870.89,20.183655
1425519870.906,23.946636
1425519870.922,27.73801
1425519870.937,31.210354
1425519870.953,33.90235
1425519870.968,35.31334
1425519870.984,35.043186
1425519871,32.927925
1425519871.015,29.152359
1425519871.031,24.22284
1425519871.047,18.826813
1425519871.062,13.609295
1425519871.078,9.025459
1425519871.093,5.256489
1425519871.109,2.2645035
1425519871.125,-0.06705475
1425519871.14,-1.8207664
1425519871.156,-3.0161572
1425519871.172,-3.6241703
1425519871.187,-3.7083492
1425519871.203,-3.4286575
1425519871.218,-3.056717
1425519871.234,-2.87261
1425519871.25,-3.0819435
1425519871.265,-3.720951
1425519871.281,-4.7109413
1425519871.297,-5.8661594
1425519871.312,-7.0584927
1425519871.328,-8.25696
1425519871.344,-9.544949
1425519871.359,-11.026783
1425519871.375,-12.741016
1425519871.39,-14.582811
1425519871.406,-16.293694
1425519871.422,-17.564579
1425519871.437,-18.145405
1425519871.453,-17.94241
1425519871.468,-17.056805
1425519871.484,-15.7225895
1425519871.5,-14.240127
1425519871.515,-12.860372
1425519871.531,-11.722132
1425519871.547,-10.81441
1425519871.562,-10.004782
1425519871.578,-9.104805
1425519871.594,-7.9402122
1425519871.609,-6.4516954
1425519871.625,-4.7315187
1425519871.64,-2.9767485
1425519871.656,-1.4101228
1425519871.672,-0.131706
1425519871.687,0.9049089
1425519871.703,1.9108825
1425519871.719,3.155807
1425519871.734,4.8446083
1425519871.75,6.9883766
1425519871.765,9.420839
1425519871.781,11.846708
1425519871.797,14.021157
1425519871.812,15.848062
1425519871.828,17.454372
1425519871.844,19.102566
1425519871.859,21.10094
1425519871.875,23.648798
1425519871.89,26.769081
1425519871.906,30.27256
1425519871.922,33.84624
1425519871.937,37.04688
1425519871.953,39.378376
1425519871.969,40.341537
1425519871.984,39.5297
1425519872,36.728622
1425519872.015,32.076584
1425519872.031,26.095034
1425519872.047,19.581615
1425519872.062,13.360146
1425519872.078,8.03981
1425519872.094,3.8244152
1425519872.109,0.57520866
1425519872.125,-2.0054588
1425519872.14,-4.124405
1425519872.156,-5.7646217
1425519872.172,-6.727707
1425519872.187,-6.831106
1425519872.203,-6.0677547
1425519872.219,-4.7238445
1425519872.234,-3.2568865
1425519872.25,-2.1186447
1425519872.265,-1.5835724
1425519872.281,-1.6997089
1425519872.297,-2.3562298
1425519872.312,-3.420457
1425519872.328,-4.796567
1425519872.344,-6.42354
1425519872.359,-8.210529
1425519872.375,-9.998868
1425519872.39,-11.5778055
1425519872.406,-12.755231
1425519872.422,-13.395088
1425519872.437,-13.472097
1425519872.453,-13.074272
1425519872.469,-12.393211
1425519872.484,-11.649736
1425519872.5,-11.093729
1425519872.515,-10.872139
1425519872.531,-10.95904
1425519872.547,-11.142568
1425519872.562,-11.1081295
1425519872.578,-10.574669
1425519872.594,-9.434834
1425519872.609,-7.826497
1425519872.625,-6.069433
1425519872.64,-4.4990215
1425519872.656,-3.3151178
1425519872.672,-2.514151
1425519872.687,-1.9042745
1425519872.703,-1.2104139
1425519872.719,-0.16413689
1425519872.734,1.3937659
1425519872.75,3.4739661
1425519872.765,5.942832
1425519872.781,8.543633
1425519872.797,10.984261
1425519872.812,13.029541
1425519872.828,14.614901
1425519872.844,15.861784
1425519872.859,17.083447
1425519872.875,18.675926
1425519872.89,20.989471
1425519872.906,24.179333
1425519872.922,28.069355
1425519872.937,32.094387
1425519872.953,35.406994
1425519872.969,37.10128
1425519872.984,36.515373
1425519873,33.480476
1425519873.015,28.395912
1425519873.031,22.080334
1425519873.047,15.479811
1425519873.062,9.36734
1425519873.078,4.1778584
1425519873.094,0.026594162
1425519873.109,-3.176334
1425519873.125,-5.570954
1425519873.14,-7.2529507
1425519873.156,-8.283692
1425519873.172,-8.7429495
1425519873.187,-8.768778
1425519873.203,-8.534284
1425519873.219,-8.224076
1425519873.234,-7.991909
1425519873.25,-7.9487066
1425519873.265,-8.161816
1425519873.281,-8.653696
1425519873.297,-9.412022
1425519873.312,-10.446333
1425519873.328,-11.739313
1425519873.344,-13.281113
1425519873.359,-14.996489
1425519873.375,-16.754948
1425519873.39,-18.360224
1425519873.406,-19.603252
1425519873.422,-20.324017
1425519873.437,-20.472599
1425519873.453,-20.11958
1425519873.469,-19.436504
1425519873.484,-18.637264
1425519873.5,-17.89338
1425519873.515,-17.280983
1425519873.531,-16.754074
1425519873.547,-16.21355
1425519873.562,-15.577631
1425519873.578,-14.8251
1425519873.594,-14.029837
1425519873.609,-13.283432
1425519873.625,-12.651339
1425519873.64,-12.100994
1425519873.656,-11.52198
1425519873.672,-10.781933
1425519873.687,-9.852161
1425519873.703,-8.806875
1425519873.719,-7.79706
1425519873.734,-6.925888
1425519873.75,-6.1727715
1425519873.765,-5.3684807
1425519873.781,-4.3146763
1425519873.797,-2.83679
1425519873.812,-0.9460182
1425519873.828,1.2442894
1425519873.844,3.5608902
1425519873.859,5.887165
1425519873.875,8.190817
1425519873.89,10.515463
1425519873.906,12.93738
1425519873.922,15.546692
1425519873.937,18.458153
1425519873.953,21.824944
1425519873.969,25.73007
1425519873.984,30.10434
1425519874,34.55925
1425519874.016,38.4382
1425519874.031,40.953285
1425519874.047,41.44541
1425519874.062,39.630886
1425519874.078,35.711025
1425519874.094,30.286774
1425519874.109,24.18032
1425519874.125,18.126099
1425519874.14,12.634552
1425519874.156,7.8932304
1425519874.172,3.885334
1425519874.187,0.47088242
1425519874.203,-2.437992
1425519874.219,-4.814682
1425519874.234,-6.532978
1425519874.25,-7.495636
1425519874.266,-7.6995316
1425519874.281,-7.349621
1425519874.297,-6.7757874
1425519874.312,-6.3473625
1425519874.328,-6.3196297
1425519874.344,-6.7627068
1425519874.359,-7.551571
1425519874.375,-8.528442
1425519874.391,-9.570957
1425519874.406,-10.67947
1425519874.422,-11.943138
1425519874.437,-13.456463
1425519874.453,-15.177998
1425519874.469,-16.947834
1425519874.484,-18.473843
1425519874.5,-19.536594
1425519874.516,-20.062866
1425519874.531,-20.205227
1425519874.547,-20.24936
1425519874.562,-20.477032
1425519874.578,-21.0001
1425519874.594,-21.704937
1425519874.609,-22.292793
1425519874.625,-22.446663
1425519874.641,-22.001072
1425519874.656,-21.017986
1425519874.672,-19.69241
1425519874.687,-18.287941
1425519874.703,-16.972443
1425519874.719,-15.801266
1425519874.734,-14.721077
1425519874.75,-13.686855
1425519874.766,-12.687298
1425519874.781,-11.744225
1425519874.797,-10.867638
1425519874.812,-10.012146
1425519874.828,-9.06842
1425519874.844,-7.9028397
1425519874.859,-6.3931274
1425519874.875,-4.505924
1425519874.891,-2.2764473
1425519874.906,0.1778984
1425519874.922,2.7302132
1425519874.937,5.2523613
1425519874.953,7.666012
1425519874.969,9.93541
1425519874.984,12.091312
1425519875,14.194771
1425519875.016,16.363113
1425519875.031,18.710861
1425519875.047,21.371342
1425519875.062,24.445534
1425519875.078,27.940712
1425519875.094,31.705128
1425519875.109,35.369755
1425519875.125,38.357113
1425519875.141,40.003742
1425519875.156,39.748043
1425519875.172,37.326912
1425519875.187,32.891296
1425519875.203,27.002121
1425519875.219,20.427582
1425519875.234,13.978378
1425519875.25,8.259319
1425519875.266,3.6054497
1425519875.281,0.058185577
1425519875.297,-2.5003777
1425519875.312,-4.267559
1425519875.328,-5.406872
1425519875.344,-6.007908
1425519875.359,-6.145958
1425519875.375,-5.9220047
1425519875.391,-5.499714
1425519875.406,-5.1334686
1425519875.422,-5.0560646
1425519875.437,-5.4047585
1425519875.453,-6.201805
1425519875.469,-7.3465195
1425519875.484,-8.711525
1425519875.5,-10.251541
1425519875.516,-12.010239
1425519875.531,-14.080238
1425519875.547,-16.467354
1425519875.562,-19.024082
1425519875.578,-21.433937
1425519875.594,-23.358234
1425519875.609,-24.538029
1425519875.625,-24.966919
1425519875.641,-24.816307
1425519875.656,-24.359314
1425519875.672,-23.791084
1425519875.687,-23.19247
1425519875.703,-22.538074
1425519875.719,-21.79612
1425519875.734,-21.012424
1425519875.75,-20.307121
1425519875.766,-19.778114
1425519875.781,-19.423199
1425519875.797,-19.110939
1425519875.812,-18.684998
1425519875.828,-18.03511
1425519875.844,-17.20924
1425519875.859,-16.349731
1425519875.875,-15.597374
1425519875.891,-14.967567
1425519875.906,-14.321381
1425519875.922,-13.45433
1425519875.937,-12.219326
1425519875.953,-10.618462
1425519875.969,-8.774086
1425519875.984,-6.8607063
1425519876,-4.9721413
1425519876.016,-3.0794067
1425519876.031,-1.1062889
1425519876.047,1.0180664
1425519876.062,3.259941
1425519876.078,5.5290833
1425519876.094,7.759701
1425519876.109,10.021687
1425519876.125,12.522083
1425519876.141,15.535099
1425519876.156,19.222212
1425519876.172,23.48494
1425519876.187,27.856989
1425519876.203,31.58017
1425519876.219,33.788082
1425519876.234,33.837723
1425519876.25,31.518097
1425519876.266,27.19035
1425519876.281,21.661188
1425519876.297,15.866178
1425519876.312,10.560669
1425519876.328,6.105839
1425519876.344,2.4807358
1425519876.359,-0.48958683
1425519876.375,-2.922521
1425519876.391,-4.780986
1425519876.406,-5.9444847
1425519876.422,-6.3467593
1425519876.437,-6.129927
1425519876.453,-5.586796
1425519876.469,-5.0350275
1425519876.484,-4.684067
1425519876.5,-4.6038203
1425519876.516,-4.7727213
1425519876.531,-5.212814
1425519876.547,-5.954739
1425519876.562,-7.0328984
1425519876.578,-8.356948
1425519876.594,-9.699715
1425519876.609,-10.730917
1425519876.625,-11.141627
1425519876.641,-10.7802515
1425519876.656,-9.710179
1425519876.672,-8.193314
1425519876.687,-6.584832
1425519876.703,-5.210597
1425519876.719,-4.272043
1425519876.734,-3.7165642
1425519876.75,-3.3300056
1425519876.766,-2.7936153
1425519876.781,-1.8508472
1425519876.797,-0.44987106
1425519876.812,1.2502441
1425519876.828,2.9836082
1425519876.844,4.5572033
1425519876.859,5.99296
1425519876.875,7.5136395
1425519876.891,9.463341
1425519876.906,12.108046
1425519876.922,15.5353985
1425519876.938,19.582546
1425519876.953,23.903074
1425519876.969,27.978994
1425519876.984,31.197714
1425519877,32.953156
1425519877.016,32.835022
1425519877.031,30.826803
1425519877.047,27.45385
1425519877.063,23.686743
1425519877.078,20.686834
1425519877.094,19.379955
1425519877.109,20.138805
1425519877.125,22.67806
1425519877.141,26.207357
1425519877.156,29.720707
1425519877.172,32.31726
1425519877.188,33.340824
1425519877.203,32.45585
1425519877.219,29.546051
1425519877.234,24.732567
1425519877.25,18.287674
1425519877.266,10.683023
1425519877.281,2.4816494
1425519877.297,-5.696825
1425519877.313,-13.328266
1425519877.328,-20.017103
1425519877.344,-25.540113
1425519877.359,-29.765831
1425519877.375,-32.6867
1425519877.391,-34.346394
1425519877.406,-34.841133
1425519877.422,-34.313763
1425519877.438,-32.95104
1425519877.453,-30.984049
1425519877.469,-28.725285
1425519877.484,-26.544205
1425519877.5,-24.84671
1425519877.516,-23.980864
1425519877.531,-24.183065
1425519877.547,-25.450132
1425519877.563,-27.54925
1425519877.578,-30.011099
1425519877.594,-32.246826
1425519877.609,-33.66355
1425519877.625,-33.82263
1425519877.641,-32.50825
1425519877.656,-29.794792
1425519877.672,-25.935152
1425519877.688,-21.335562
1425519877.703,-16.383497
1425519877.719,-11.417553
1425519877.734,-6.6390057
1425519877.75,-2.1570454
1425519877.766,1.9980927
1425519877.781,5.823223
1425519877.797,9.326521
1425519877.813,12.510889
1425519877.828,15.426771
1425519877.844,18.126278
1425519877.859,20.671402
1425519877.875,23.056597
1425519877.891,25.235256
1425519877.906,27.127708
1425519877.922,28.71797
1425519877.938,30.094727
1425519877.953,31.493355
1425519877.969,33.221497
1425519877.984,35.535286
1425519878,38.49747
1425519878.016,41.89024
1425519878.031,45.204857
1425519878.047,47.731205
1425519878.063,48.7486
1425519878.078,47.744995
1425519878.094,44.54049
1425519878.109,39.373142
1425519878.125,32.78161
1425519878.141,25.499529
1425519878.156,18.240122
1425519878.172,11.581049
1425519878.188,5.8579903
1425519878.203,1.2087402
1425519878.219,-2.3839798
1425519878.234,-5.018772
1425519878.25,-6.8531284
1425519878.266,-8.070225
1425519878.281,-8.882097
1425519878.297,-9.471071
1425519878.313,-9.967958
1425519878.328,-10.427406
1425519878.344,-10.821594
1425519878.359,-11.081112
1425519878.375,-11.174118
1425519878.391,-11.135492
1425519878.406,-11.098572
1425519878.422,-11.216665
1425519878.438,-11.608222
1425519878.453,-12.30575
1425519878.469,-13.251588
1425519878.484,-14.298087
1425519878.5,-15.317549
1425519878.516,-16.1663
1425519878.531,-16.716549
1425519878.547,-16.864813
1425519878.563,-16.584818
1425519878.578,-15.906076
1425519878.594,-14.922405
1425519878.609,-13.70228
1425519878.625,-12.275295
1425519878.641,-10.618696
1425519878.656,-8.717615
1425519878.672,-6.6369696
1425519878.688,-4.5561438
1425519878.703,-2.6896615
1425519878.719,-1.1792006
1425519878.734,-0.005711794
1425519878.75,0.97132397
1425519878.766,1.9421751
1425519878.781,2.9724293
1425519878.797,4.024653
1425519878.813,4.984211
1425519878.828,5.772745
1425519878.844,6.4214716
1425519878.859,7.0955324
1425519878.875,7.9936333
1425519878.891,9.29432
1425519878.906,11.1084795
1425519878.922,13.496941
1425519878.938,16.502392
1425519878.953,20.117035
1425519878.969,24.201113
1425519878.984,28.448654
1425519879,32.309116
1425519879.016,35.0997
1425519879.031,36.154224
1425519879.047,35.043262
1425519879.063,31.6971
1425519879.078,26.493013
1425519879.094,20.124626
1425519879.109,13.429804
1425519879.125,7.1358585
1425519879.141,1.7264309
1425519879.156,-2.60672
1425519879.172,-5.8772163
1425519879.188,-8.186966
1425519879.203,-9.611118
1425519879.219,-10.244225
1425519879.234,-10.188084
1425519879.25,-9.657196
1425519879.266,-8.932087
1425519879.281,-8.329563
1425519879.297,-8.0866165
1425519879.313,-8.304256
1425519879.328,-8.930576
1425519879.344,-9.840576
1425519879.359,-10.890194
1425519879.375,-12.002556
1425519879.391,-13.140602
1425519879.406,-14.325249
1425519879.422,-15.543163
1425519879.438,-16.760025
1425519879.453,-17.89661
1425519879.469,-18.850937
1425519879.484,-19.521683
1425519879.5,-19.841835
1425519879.516,-19.794514
1425519879.531,-19.402138
1425519879.547,-18.709255
1425519879.563,-17.784496
1425519879.578,-16.688152
1425519879.594,-15.520004
1425519879.61,-14.375122
1425519879.625,-13.360245
1425519879.641,-12.5054245
1425519879.656,-11.774399
1425519879.672,-11.076096
1425519879.688,-10.343117
1425519879.703,-9.57502
1425519879.719,-8.878639
1425519879.735,-8.369705
1425519879.75,-8.109688
1425519879.766,-8.023697
1425519879.781,-7.93309
1425519879.797,-7.611328
1425519879.813,-6.9055023
1425519879.828,-5.773056
1425519879.844,-4.3131943
1425519879.86,-2.6720047
1425519879.875,-1.007927
1425519879.891,0.61880493
1425519879.906,2.2317963
1425519879.922,3.9835892
1425519879.938,6.071327
1425519879.953,8.699921
1425519879.969,11.989792
1425519879.985,15.941055
1425519880,20.381203
1425519880.016,24.98516
1425519880.031,29.272697
1425519880.047,32.686157
1425519880.063,34.66368
1425519880.078,34.796776
1425519880.094,32.950157
1425519880.11,29.383331
1425519880.125,24.621529
1425519880.141,19.310173
1425519880.156,13.962952
1425519880.172,8.859573
1425519880.188,4.074951
1425519880.203,-0.33882904
1425519880.219,-4.2324905
1425519880.235,-7.3370667
1425519880.25,-9.406723
1425519880.266,-10.362663
1425519880.281,-10.420784
1425519880.297,-9.967323
1425519880.313,-9.433319
1425519880.328,-9.128845
1425519880.344,-9.228607
1425519880.36,-9.761108
1425519880.375,-10.751984
1425519880.391,-12.195465
1425519880.406,-14.083206
1425519880.422,-16.34507
1425519880.438,-18.836899
1425519880.453,-21.341728
1425519880.469,-23.609665
1425519880.485,-25.39978
1425519880.5,-26.528893
1425519880.516,-26.908028
1425519880.531,-26.600746
1425519880.547,-25.811043
1425519880.563,-24.860146
1425519880.578,-24.046982
1425519880.594,-23.544212
1425519880.61,-23.317833
1425519880.625,-23.181374
1425519880.641,-22.891464
1425519880.656,-22.307915
1425519880.672,-21.434464
1425519880.688,-20.432907
1425519880.703,-19.50843
1425519880.719,-18.825058
1425519880.735,-18.424156
1425519880.75,-18.208427
1425519880.766,-17.987297
1425519880.781,-17.55413
1425519880.797,-16.782051
1425519880.813,-15.669769
1425519880.828,-14.345757
1425519880.844,-13.006317
1425519880.86,-11.789551
1425519880.875,-10.739265
1425519880.891,-9.742607
1425519880.906,-8.625626
1425519880.922,-7.1995087
1425519880.938,-5.3685837
1425519880.953,-3.1293488
1425519880.969,-0.5606537
1425519880.985,2.2140427
1425519881,5.051201
1425519881.016,7.8532944
1425519881.031,10.568409
1425519881.047,13.242458
1425519881.063,16.015945
1425519881.078,19.102459
1425519881.094,22.673477
1425519881.11,26.752743
1425519881.125,31.090393
1425519881.141,35.160084
1425519881.156,38.266117
1425519881.172,39.754826
1425519881.188,39.21079
1425519881.203,36.60054
1425519881.219,32.24841
1425519881.235,26.724407
1425519881.25,20.667183
1425519881.266,14.647789
1425519881.281,9.083134
1425519881.297,4.279232
1425519881.313,0.43794632
1425519881.328,-2.3033981
1425519881.344,-3.9210281
1425519881.36,-4.5161743
1425519881.375,-4.337162
1425519881.391,-3.7276115
1425519881.406,-3.0308304
1425519881.422,-2.500782
1425519881.438,-2.291809
1425519881.453,-2.4744816
1425519881.469,-3.1059742
1425519881.485,-4.221054
1425519881.5,-5.8551865
1425519881.516,-7.938116
1425519881.531,-10.3106785
1425519881.547,-12.7250595
1425519881.563,-14.9341755
1425519881.578,-16.770212
1425519881.594,-18.171198
1425519881.61,-19.185411
1425519881.625,-19.878155
1425519881.641,-20.283838
1425519881.656,-20.398518
1425519881.672,-20.200811
1425519881.688,-19.740093
1425519881.703,-19.136917
1425519881.719,-18.55595
1425519881.735,-18.109137
1425519881.75,-17.803673
1425519881.766,-17.500252
1425519881.781,-17.00826
1425519881.797,-16.13197
1425519881.813,-14.81728
1425519881.828,-13.149082
1425519881.844,-11.331248
1425519881.86,-9.545441
1425519881.875,-7.860701
1425519881.891,-6.145933
1425519881.906,-4.1129756
1425519881.922,-1.4415197
1425519881.938,2.0444121
1425519881.953,6.264186
1425519881.969,10.837877
1425519881.985,15.238327
1425519882,18.941505
1425519882.016,21.648834
1425519882.031,23.329515
1425519882.047,24.26022
1425519882.063,24.834305
1425519882.078,25.464262
1425519882.094,26.459948
1425519882.11,27.95747
1425519882.125,29.939075
1425519882.141,32.253784
1425519882.156,34.614273
1425519882.172,36.69019
1425519882.188,38.108986
1425519882.203,38.538666
1425519882.219,37.804344
1425519882.235,36.020134
1425519882.25,33.573315
1425519882.266,31.00958
1425519882.282,28.72076
1425519882.297,26.696478
1425519882.313,24.398314
1425519882.328,21.02905
1425519882.344,15.939438
1425519882.36,9.126141
1425519882.375,1.3435249
1425519882.391,-6.1683807
1425519882.407,-12.273716
1425519882.422,-16.425053
1425519882.438,-18.915245
1425519882.453,-20.582973
1425519882.469,-22.33495
1425519882.485,-24.72871
1425519882.5,-27.793465
1425519882.516,-31.195038
1425519882.532,-34.548656
1425519882.547,-37.55598
1425519882.563,-40.09954
1425519882.578,-42.11964
1425519882.594,-43.54769
1425519882.61,-44.23554
1425519882.625,-44.055527
1425519882.641,-42.876667
1425519882.657,-40.681343
1425519882.672,-37.568565
1425519882.688,-33.771454
1425519882.703,-29.635288
1425519882.719,-25.527225
1425519882.735,-21.686317
1425519882.75,-18.144756
1425519882.766,-14.726959
1425519882.782,-11.1804695
1425519882.797,-7.3065186
1425519882.813,-3.1092415
1425519882.828,1.2525864
1425519882.844,5.511383
1425519882.86,9.435066
1425519882.875,12.90065
1425519882.891,15.941097
1425519882.907,18.663593
1425519882.922,21.283936
1425519882.938,23.954224
1425519882.953,26.727722
1425519882.969,29.476357
1425519882.985,31.930779
1425519883,33.78209
1425519883.016,34.84957
1425519883.032,35.19358
1425519883.047,35.11801
1425519883.063,35.01905
1425519883.078,35.276436
1425519883.094,36.108185
1425519883.11,37.623245
1425519883.125,39.795593
1425519883.141,42.46546
1425519883.157,45.239388
1425519883.172,47.472847
1425519883.188,48.40452
1425519883.203,47.39821
1425519883.219,44.18962
1425519883.235,39.054268
1425519883.25,32.647682
1425519883.266,25.772987
1425519883.282,19.080582
1425519883.297,12.992119
1425519883.313,7.67572
1425519883.328,3.1770172
1425519883.344,-0.5008774
1425519883.36,-3.3626099
1425519883.375,-5.4510956
1425519883.391,-6.8247147
1425519883.407,-7.5713882
1425519883.422,-7.773163
1425519883.438,-7.530655
1425519883.453,-6.99028
1425519883.469,-6.3831024
1425519883.485,-5.969963
1425519883.5,-6.0115814
1425519883.516,-6.6460266
1425519883.532,-7.890766
1425519883.547,-9.607285
1425519883.563,-11.611038
1425519883.578,-13.659344
1425519883.594,-15.546177
1425519883.61,-17.095173
1425519883.625,-18.218357
1425519883.641,-18.878086
1425519883.657,-19.132576
1425519883.672,-19.063164
1425519883.688,-18.745983
1425519883.703,-18.22681
1425519883.719,-17.57423
1425519883.735,-16.850334
1425519883.75,-16.154224
1425519883.766,-15.568096
1425519883.782,-15.116268
1425519883.797,-14.734592
1425519883.813,-14.294895
1425519883.828,-13.65699
1425519883.844,-12.76445
1425519883.86,-11.627808
1425519883.875,-10.369057
1425519883.891,-9.131878
1425519883.907,-8.027489
1425519883.922,-7.0249405
1425519883.938,-5.9640236
1425519883.953,-4.565098
1425519883.969,-2.60429
1425519883.985,-0.015907288
1425519884,3.0143242
1425519884.016,6.1510353
1425519884.032,9.039375
1425519884.047,11.517124
1425519884.063,13.672585
1425519884.078,15.789261
1425519884.094,18.182243
1425519884.11,21.070545
1425519884.125,24.45934
1425519884.141,28.231583
1425519884.157,32.164696
1425519884.172,35.98451
1425519884.188,39.32185
1425519884.203,41.710518
1425519884.219,42.656998
1425519884.235,41.803307
1425519884.25,39.07563
1425519884.266,34.748657
1425519884.282,29.348251
1425519884.297,23.510891
1425519884.313,17.747444
1425519884.328,12.401884
1425519884.344,7.6226044
1425519884.36,3.4581566
1425519884.375,-0.06348038
1425519884.391,-2.8874073
1425519884.407,-4.9646626
1425519884.422,-6.2326527
1425519884.438,-6.724615
1425519884.453,-6.590109
1425519884.469,-6.157852
1425519884.485,-5.8416433
1425519884.5,-6.0753217
1425519884.516,-7.132755
1425519884.532,-9.044896
1425519884.547,-11.609581
1425519884.563,-14.515239
1425519884.578,-17.44606
1425519884.594,-20.187317
1425519884.61,-22.592001
1425519884.625,-24.625004
1425519884.641,-26.338001
1425519884.657,-27.904568
1425519884.672,-29.545523
1425519884.688,-31.464972
1425519884.703,-33.672012
1425519884.719,-35.93267
1425519884.735,-37.802906
1425519884.75,-38.83161
1425519884.766,-38.752556
1425519884.782,-37.61534
1425519884.797,-35.630848
1425519884.813,-33.076466
1425519884.828,-30.122692
1425519884.844,-26.855883
1425519884.86,-23.372519
1425519884.875,-19.856155
1425519884.891,-16.551643
1425519884.907,-13.647422
1425519884.922,-11.161142
1425519884.938,-8.949692
1425519884.954,-6.7855473
1425519884.969,-4.5502996
1425519884.985,-2.2205238
1425519885,0.10951996
1425519885.016,2.3573809
1425519885.032,4.4812555
1425519885.047,6.5183496
1425519885.063,8.491842
1425519885.078,10.40625
1425519885.094,12.221467
1425519885.11,13.904184
1425519885.125,15.4502
1425519885.141,16.938797
1425519885.157,18.477104
1425519885.172,20.251692
1425519885.188,22.469715
1425519885.204,25.329643
1425519885.219,28.8508
1425519885.235,32.768116
1425519885.25,36.45848
1425519885.266,39.063828
1425519885.282,39.71836
1425519885.297,37.903656
1425519885.313,33.613354
1425519885.329,27.379417
1425519885.344,20.05188
1425519885.36,12.5312195
1425519885.375,5.4902773
1425519885.391,-0.6861248
1425519885.407,-5.8695345
1425519885.422,-10.042811
1425519885.438,-13.214217
1425519885.454,-15.379147
1425519885.469,-16.590721
1425519885.485,-17.008295
1425519885.5,-16.889149
1425519885.516,-16.546873
1425519885.532,-16.244057
1425519885.547,-16.101223
1425519885.563,-16.09898
1425519885.579,-16.128685
1425519885.594,-16.095356
1425519885.61,-15.978498
1425519885.625,-15.874939
1425519885.641,-15.920538
1425519885.657,-16.229809
1425519885.672,-16.824627
1425519885.688,-17.62484
1425519885.704,-18.447546
1425519885.719,-19.111382
1425519885.735,-19.431498
1425519885.75,-19.300196
1425519885.766,-18.708591
1425519885.782,-17.755575
1425519885.797,-16.625378
1425519885.813,-15.546317
1425519885.829,-14.734359
1425519885.844,-14.328639
1425519885.86,-14.346117
1425519885.875,-14.674985
1425519885.891,-15.072046
1425519885.907,-15.256725
1425519885.922,-14.968031
1425519885.938,-14.085458
1425519885.954,-12.679541
1425519885.969,-11.02449
1425519885.985,-9.471413
1425519886,-8.317084
1425519886.016,-7.6084023
1425519886.032,-7.1604776
1425519886.047,-6.623337
1425519886.063,-5.67258
1425519886.079,-4.1669292
1425519886.094,-2.2153745
1425519886.11,-0.039045334
1425519886.125,2.160264
1425519886.141,4.3329496
1425519886.157,6.551651
1425519886.172,8.956103
1425519886.188,11.624821
1425519886.204,14.57533
1425519886.219,17.769613
1425519886.235,21.156431
1425519886.25,24.662813
1425519886.266,28.113888
1425519886.282,31.150421
1425519886.297,33.272713
1425519886.313,33.94091
1425519886.329,32.780594
1425519886.344,29.73822
1425519886.36,25.148596
1425519886.375,19.60579
1425519886.391,13.801018
1425519886.407,8.306595
1425519886.422,3.4619102
1425519886.438,-0.6257515
1425519886.454,-3.9816303
1425519886.469,-6.654396
1425519886.485,-8.60421
1425519886.5,-9.7488365
1425519886.516,-10.022175
1425519886.532,-9.512268
1425519886.547,-8.505932
1425519886.563,-7.4415016
1425519886.579,-6.7444916
1425519886.594,-6.6633034
1425519886.61,-7.191372
1425519886.625,-8.119961
1425519886.641,-9.179745
1425519886.657,-10.207653
1425519886.672,-11.16333
1425519886.688,-12.1290245
1425519886.704,-13.14748
1425519886.719,-14.17783
1425519886.735,-15.0774765
1425519886.75,-15.687698
1425519886.766,-15.93803
1425519886.782,-15.883583
1425519886.797,-15.670906
1425519886.813,-15.416546
1425519886.829,-15.109688
1425519886.844,-14.605694
1425519886.86,-13.683083
1425519886.875,-12.191521
1425519886.891,-10.119133
1425519886.907,-7.644638
1425519886.922,-5.031597
1425519886.938,-2.555355
1425519886.954,-0.35887527
1425519886.969,1.5266876
1425519886.985,3.2043457
1425519887,4.828949
1425519887.016,6.5753403
1425519887.032,8.57827
1425519887.047,10.92234
1425519887.063,13.582146
1425519887.079,16.42865
1425519887.094,19.250458
1425519887.11,21.844902
1425519887.125,24.094109
1425519887.141,26.041595
1425519887.157,27.876572
1425519887.172,29.890022
1425519887.188,32.352493
1425519887.204,35.453743
1425519887.219,39.157837
1425519887.235,43.19854
1425519887.25,47.022644
1425519887.266,49.894875
1425519887.282,51.044266
1425519887.297,49.91252
1425519887.313,46.33609
1425519887.329,40.64869
1425519887.344,33.58577
1425519887.36,26.058243
1425519887.375,18.856194
1425519887.391,12.520927
1425519887.407,7.2507324
1425519887.422,3.0386124
1425519887.438,-0.2424469
1425519887.454,-2.704399
1425519887.469,-4.469795
1425519887.485,-5.637985
1425519887.5,-6.3539963
1425519887.516,-6.8013916
1425519887.532,-7.1878204
1425519887.547,-7.6628914
1425519887.563,-8.313641
1425519887.579,-9.145729
1425519887.594,-10.104916
1425519887.61,-11.117027
1425519887.625,-12.1454315
1425519887.641,-13.219093
1425519887.657,-14.417004
1425519887.672,-15.798515
1425519887.688,-17.37819
1425519887.704,-19.031723
1425519887.719,-20.533657
1425519887.735,-21.62577
1425519887.75,-22.14259
1425519887.766,-22.05275
1425519887.782,-21.492897
1425519887.797,-20.642078
1425519887.813,-19.65932
1425519887.829,-18.616177
1425519887.844,-17.497707
1425519887.86,-16.254627
1425519887.876,-14.883919
1425519887.891,-13.443272
1425519887.907,-12.044651
1425519887.922,-10.774464
1425519887.938,-9.653915
1425519887.954,-8.580364
1425519887.969,-7.398033
1425519887.985,-5.9353867
1425519888.001,-4.0947723
1425519888.016,-1.8899956
1425519888.032,0.520031
1425519888.047,2.9513512
1425519888.063,5.245144
1425519888.079,7.333267
1425519888.094,9.266922
1425519888.11,11.182011
1425519888.126,13.197834
1425519888.141,15.416744
1425519888.157,17.91109
1425519888.172,20.803558
1425519888.188,24.234295
1425519888.204,28.282692
1425519888.219,32.764725
1425519888.235,37.172127
1425519888.251,40.677834
1425519888.266,42.399605
1425519888.282,41.708977
1425519888.297,38.495674
1425519888.313,33.2007
1425519888.329,26.661846
1425519888.344,19.771185
1425519888.36,13.273211
1425519888.376,7.58601
1425519888.391,2.8584995
1425519888.407,-0.9617405
1425519888.422,-3.9451752
1425519888.438,-6.1798344
1425519888.454,-7.723856
1425519888.469,-8.671665
1425519888.485,-9.159
1425519888.501,-9.389226
1425519888.516,-9.558304
1425519888.532,-9.853714
1425519888.547,-10.329801
1425519888.563,-10.933488
1425519888.579,-11.535127
1425519888.594,-12.055731
1425519888.61,-12.504381
1425519888.626,-13.057802
1425519888.641,-13.921697
1425519888.657,-15.257742
1425519888.672,-17.074266
1425519888.688,-19.223047
1425519888.704,-21.429365
1425519888.719,-23.404417
1425519888.735,-24.843573
1425519888.751,-25.517881
1425519888.766,-25.309551
1425519888.782,-24.29391
1425519888.797,-22.725134
1425519888.813,-21.014463
1425519888.829,-19.536049
1425519888.844,-18.508991
1425519888.86,-17.899452
1425519888.876,-17.481941
1425519888.891,-16.963472
1425519888.907,-16.144428
1425519888.922,-14.948681
1425519888.938,-13.434374
1425519888.954,-11.71059
1425519888.969,-9.9126215
1425519888.985,-8.137926
1425519889.001,-6.487382
1425519889.016,-4.9731812
1425519889.032,-3.5551653
1425519889.047,-2.1089268
1425519889.063,-0.5144043
1425519889.079,1.2995186
1425519889.094,3.3045921
1425519889.11,5.4452133
1425519889.126,7.6575804
1425519889.141,9.967486
1425519889.157,12.4522705
1425519889.172,15.223465
1425519889.188,18.368639
1425519889.204,21.951462
1425519889.219,25.966385
1425519889.235,30.298428
1425519889.251,34.637856
1425519889.266,38.44967
1425519889.282,41.03528
1425519889.297,41.795967
1425519889.313,40.420963
1425519889.329,37.05575
1425519889.344,32.21271
1425519889.36,26.588015
1425519889.376,20.768972
1425519889.391,15.124336
1425519889.407,9.816837
1425519889.422,4.9529
1425519889.438,0.67276
1425519889.454,-2.8368912
1425519889.469,-5.4279385
1425519889.485,-7.073139
1425519889.501,-7.9299183
1425519889.516,-8.282125
1425519889.532,-8.443911
1425519889.547,-8.6777725
1425519889.563,-9.173534
1425519889.579,-10.023521
1425519889.594,-11.26347
1425519889.61,-12.851934
1425519889.626,-14.720261
1425519889.641,-16.74986
1425519889.657,-18.797018
1425519889.672,-20.702015
1425519889.688,-22.31926
1425519889.704,-23.531738
1425519889.719,-24.253132
1425519889.735,-24.457981
1425519889.751,-24.208069
1425519889.766,-23.639618
1425519889.782,-22.956532
1425519889.797,-22.377209
1425519889.813,-22.05769
1425519889.829,-22.008041
1425519889.844,-22.10019
1425519889.86,-22.035515
1425519889.876,-21.543678
1425519889.891,-20.457382
1425519889.907,-18.870277
1425519889.922,-17.060593
1425519889.938,-15.39365
1425519889.954,-14.107803
1425519889.969,-13.206947
1425519889.985,-12.478119
1425519890.001,-11.636234
1425519890.016,-10.483372
1425519890.032,-9.012363
1425519890.047,-7.369385
1425519890.063,-5.750023
1425519890.079,-4.2709846
1425519890.094,-2.9399796
1425519890.11,-1.604641
1425519890.126,-0.074308395
1425519890.141,1.858757
1425519890.157,4.33799
1425519890.172,7.3962593
1425519890.188,10.896994
1425519890.204,14.543474
1425519890.219,17.925053
1425519890.235,20.698982
1425519890.251,22.677568
1425519890.266,23.913847
1425519890.282,24.679102
1425519890.297,25.397547
1425519890.313,26.479704
1425519890.329,28.22952
1425519890.344,30.729958
1425519890.36,33.754723
1425519890.376,36.730453
1425519890.391,38.871403
1425519890.407,39.355057
1425519890.422,37.677845
1425519890.438,33.859238
1425519890.454,28.435116
1425519890.469,22.251814
1425519890.485,16.14632
1425519890.501,10.623039
1425519890.516,5.817299
1425519890.532,1.6138611
1425519890.548,-2.151451
1425519890.563,-5.5387077
1425519890.579,-8.4386635
1425519890.594,-10.693405
1425519890.61,-12.128807
1425519890.626,-12.708694
1425519890.641,-12.57069
1425519890.657,-12.019306
1425519890.673,-11.427696
1425519890.688,-11.159679
1425519890.704,-11.433014
1425519890.719,-12.2703705
1425519890.735,-13.543728
1425519890.751,-15.082722
1425519890.766,-16.787418
1425519890.782,-18.657623
1425519890.798,-20.659817
1425519890.813,-22.657227
1425519890.829,-24.357124
1425519890.844,-25.435104
1425519890.86,-25.669167
1425519890.876,-25.139198
1425519890.891,-24.136848
1425519890.907,-23.05473
1425519890.923,-22.179996
1425519890.938,-21.574196
1425519890.954,-21.079094
1425519890.969,-20.465126
1425519890.985,-19.488094
1425519891.001,-18.052277
1425519891.016,-16.219772
1425519891.032,-14.193863
1425519891.048,-12.213177
1425519891.063,-10.509151
1425519891.079,-9.171654
1425519891.094,-8.173573
1425519891.11,-7.364506
1425519891.126,-6.5624504
1425519891.141,-5.630703
1425519891.157,-4.5519905
1425519891.173,-3.3247528
1425519891.188,-1.9466133
1425519891.204,-0.35176086
1425519891.219,1.5648689
1425519891.235,3.8627262
1425519891.251,6.4600983
1425519891.266,9.152964
1425519891.282,11.696108
1425519891.298,13.926893
1425519891.313,15.902725
1425519891.329,17.906137
1425519891.344,20.343758
1425519891.36,23.632288
1425519891.376,27.92491
1425519891.391,32.955246
1425519891.407,38.018326
1425519891.423,42.136864
1425519891.438,44.342194
1425519891.454,44.051003
1425519891.469,41.25582
1425519891.485,36.527054
1425519891.501,30.778059
1425519891.516,24.964993
1425519891.532,19.7715
1425519891.548,15.488441
1425519891.563,11.971306
1425519891.579,8.774879
1425519891.594,5.285984
1425519891.61,0.8505192
1425519891.626,-5.0932503
1425519891.641,-12.828163
1425519891.657,-22.183006
1425519891.673,-32.46839
1425519891.688,-42.543667
1425519891.704,-51.076157
1425519891.719,-56.9543
1425519891.735,-59.57779
1425519891.751,-59.075043
1425519891.766,-56.225365
1425519891.782,-52.16988
1425519891.798,-48.001522
1425519891.813,-44.439648
1425519891.829,-41.670235
1425519891.844,-39.47063
1425519891.86,-37.439747
1425519891.876,-35.27769
1425519891.891,-32.868103
1425519891.907,-30.231333
1425519891.923,-27.308582
1425519891.938,-23.90891
1425519891.954,-19.768887
1425519891.969,-14.749929
1425519891.985,-9.009936
1425519892.001,-3.0827353
1425519892.016,2.3390288
1425519892.032,6.660886
1425519892.048,9.667921
1425519892.063,11.560668
1425519892.079,12.837361
1425519892.094,14.000988
1425519892.11,15.401481
1425519892.126,17.062
1425519892.141,18.758152
1425519892.157,20.146832
1425519892.173,20.987946
1425519892.188,21.192394
1425519892.204,20.87712
1425519892.219,20.267712
1425519892.235,19.608288
1425519892.251,19.117477
1425519892.266,19.007576
1425519892.282,19.530525
1425519892.298,21.034832
1425519892.313,23.772892
1425519892.329,27.72137
1425519892.344,32.391716
1425519892.36,36.887356
1425519892.376,40.1269
1425519892.391,41.323112
1425519892.407,40.25557
1425519892.423,37.3453
1425519892.438,33.382015
1425519892.454,29.141327
1425519892.469,25.090855
1425519892.485,21.380733
1425519892.501,17.974823
1425519892.516,14.851601
1425519892.532,12.09045
1425519892.548,9.837044
1425519892.563,8.12495
1425519892.579,6.874359
1425519892.594,5.884922
1425519892.61,4.9736824
1425519892.626,4.0372124
1425519892.641,3.0616798
1425519892.657,2.001587
1425519892.673,0.8018303
1425519892.688,-0.64188766
1425519892.704,-2.413742
1425519892.719,-4.5426216
1425519892.735,-6.956005
1425519892.751,-9.528511
1425519892.766,-12.066509
1425519892.782,-14.380306
1425519892.798,-16.285488
1425519892.813,-17.657185
1425519892.829,-18.46392
1425519892.844,-18.768452
1425519892.86,-18.61671
1425519892.876,-18.041729
1425519892.891,-16.999725
1425519892.907,-15.486504
1425519892.923,-13.555641
1425519892.938,-11.408024
1425519892.954,-9.273808
1425519892.969,-7.3317375
1425519892.985,-5.597084
1425519893.001,-3.90493
1425519893.016,-2.0300674
1425519893.032,0.16781998
1425519893.048,2.7158737
1425519893.063,5.486145
1425519893.079,8.283562
1425519893.094,10.922665
1425519893.11,13.267769
1425519893.126,15.255833
1425519893.141,16.9323
1425519893.157,18.461575
1425519893.173,20.128525
1425519893.188,22.280132
1425519893.204,25.193878
1425519893.22,28.904396
1425519893.235,33.146713
1425519893.251,37.319824
1425519893.266,40.657722
1425519893.282,42.44793
1425519893.298,42.236786
1425519893.313,39.94233
1425519893.329,35.882698
1425519893.345,30.615238
1425519893.36,24.77589
1425519893.376,18.893951
1425519893.391,13.323105
1425519893.407,8.222908
1425519893.423,3.702135
1425519893.438,-0.1610794
1425519893.454,-3.285469
1425519893.47,-5.630678
1425519893.485,-7.252699
1425519893.501,-8.322929
1425519893.516,-9.046664
1425519893.532,-9.621893
1425519893.548,-10.1871
1425519893.563,-10.825149
1425519893.579,-11.580089
1425519893.595,-12.480022
1425519893.61,-13.514307
1425519893.626,-14.653417
1425519893.641,-15.844391
1425519893.657,-17.06062
1425519893.673,-18.288635
1425519893.688,-19.522537
1425519893.704,-20.702412
1425519893.72,-21.71244
1425519893.735,-22.40987
1425519893.751,-22.701797
1425519893.766,-22.623846
1425519893.782,-22.332333
1425519893.798,-21.98777
1425519893.813,-21.669243
1425519893.829,-21.31403
1425519893.845,-20.76508
1425519893.86,-19.870142
1425519893.876,-18.616182
1425519893.891,-17.10541
1425519893.907,-15.503454
1425519893.923,-13.931631
1425519893.938,-12.440763
1425519893.954,-11.029705
1425519893.97,-9.722054
1425519893.985,-8.550894
1425519894.001,-7.551096
1425519894.016,-6.6693897
1425519894.032,-5.7517433
1425519894.048,-4.5774937
1425519894.063,-2.9974499
1425519894.079,-0.99476624
1425519894.095,1.26268
1425519894.11,3.5051193
1425519894.126,5.500225
1425519894.141,7.1822453
1425519894.157,8.680489
1425519894.173,10.315207
1425519894.188,12.482771
1425519894.204,15.5294895
1425519894.22,19.60123
1425519894.235,24.600555
1425519894.251,30.104717
1425519894.266,35.450455
1425519894.282,39.840347
1425519894.298,42.539978
1425519894.313,43.089897
1425519894.329,41.455807
1425519894.345,38.070347
1425519894.36,33.72618
1425519894.376,29.299377
1425519894.391,25.42175
1425519894.407,22.267784
1425519894.423,19.598904
1425519894.438,16.909271
1425519894.454,13.816875
1425519894.47,10.233669
1425519894.485,6.3990326
1425519894.501,2.6674118
1425519894.516,-0.6810188
1425519894.532,-3.611721
1425519894.548,-6.227375
1425519894.563,-8.701984
1425519894.579,-11.101276
1425519894.595,-13.406834
1425519894.61,-15.5661125
1425519894.626,-17.614002
1425519894.641,-19.673374
1425519894.657,-21.885014
1425519894.673,-24.32666
1425519894.688,-26.916542
1425519894.704,-29.467567
1425519894.72,-31.710297
1425519894.735,-33.386482
1425519894.751,-34.29296
1425519894.766,-34.33522
1425519894.782,-33.578735
1425519894.798,-32.156105
1425519894.813,-30.315521
1425519894.829,-28.286072
1425519894.845,-26.289871
1425519894.86,-24.476791
1425519894.876,-22.934647
1425519894.891,-21.665253
1425519894.907,-20.577835
1425519894.923,-19.401978
1425519894.938,-17.807983
1425519894.954,-15.542175
1425519894.97,-12.578049
1425519894.985,-9.142342
1425519895.001,-5.6336136
1425519895.016,-2.418541
1425519895.032,0.3181305
1425519895.048,2.5848618
1425519895.063,4.437332
1425519895.079,5.8678894
1425519895.095,6.750046
1425519895.11,7.045532
1425519895.126,6.8760376
1425519895.141,6.57325
1425519895.157,6.530327
1425519895.173,7.0181656
1425519895.188,8.056747
1425519895.204,9.489044
1425519895.22,11.17363
1425519895.235,13.135391
1425519895.251,15.573929
1425519895.266,18.689262
1425519895.282,22.416847
1425519895.298,26.386993
1425519895.313,29.906952
1425519895.329,32.229866
1425519895.345,32.759438
1425519895.36,31.22976
1425519895.376,27.714226
1425519895.391,22.588608
1425519895.407,16.38752
1425519895.423,9.746315
1425519895.438,3.2953644
1425519895.454,-2.4056702
1425519895.47,-6.9953156
1425519895.485,-10.298744
1425519895.501,-12.371201
1425519895.516,-13.439125
1425519895.532,-13.842331
1425519895.548,-13.91349
1425519895.563,-13.938026
1425519895.579,-14.07386
1425519895.595,-14.357819
1425519895.61,-14.711235
1425519895.626,-15.042931
1425519895.641,-15.320755
1425519895.657,-15.64653
1425519895.673,-16.20813
1425519895.688,-17.221863
1425519895.704,-18.769524
1425519895.72,-20.74762
1425519895.735,-22.843353
1425519895.751,-24.692703
1425519895.766,-26.016869
1425519895.782,-26.752792
1425519895.798,-27.040123
1425519895.813,-27.108223
1425519895.829,-27.113976
1425519895.845,-27.085144
1425519895.86,-26.911888
1425519895.876,-26.502022
1425519895.892,-25.882889
1425519895.907,-25.297646
1425519895.923,-25.041153
1425519895.938,-25.372208
1425519895.954,-26.292847
1425519895.97,-27.582458
1425519895.985,-28.850685
1425519896.001,-29.727615
1425519896.016,-29.978104
1425519896.032,-29.536171
1425519896.048,-28.428345
1425519896.063,-26.699493
1425519896.079,-24.398846
1425519896.095,-21.594582
1425519896.11,-18.403297
1425519896.126,-14.947247
1425519896.142,-11.266521
1425519896.157,-7.251278
1425519896.173,-2.6373215
1425519896.188,2.809517
1425519896.204,9.121731
1425519896.22,15.945114
1425519896.235,22.60376
1425519896.251,28.253078
1425519896.267,32.196
1425519896.282,34.0628
1425519896.298,33.89659
1425519896.313,32.036873
1425519896.329,28.947624
1425519896.345,25.048965
1425519896.36,20.64995
1425519896.376,16.015406
1425519896.392,11.445224
1425519896.407,7.28557
1425519896.423,3.9287186
1425519896.438,1.6494646
1425519896.454,0.5200014
1425519896.47,0.32386565
1425519896.485,0.72437143
1425519896.501,1.3106513
1425519896.517,1.8144345
1425519896.532,2.1225443
1425519896.548,2.2218647
1425519896.563,2.1037445
1425519896.579,1.7605124
1425519896.595,1.1888504
1425519896.61,0.5160084
1425519896.626,-0.012851715
1425519896.642,-0.15415192
1425519896.657,0.16765594
1425519896.673,0.80174637
1425519896.688,1.3951378
1425519896.704,1.6431866
1425519896.72,1.4575367
1425519896.735,1.0338097
1425519896.751,0.73153305
1425519896.767,0.8764496
1425519896.782,1.5808411
1425519896.798,2.7843094
1425519896.813,4.3317223
1425519896.829,6.102619
1425519896.845,8.039898
1425519896.86,10.123375
1425519896.876,12.270542
1425519896.892,14.331711
1425519896.907,16.118103
1425519896.923,17.47778
1425519896.938,18.303234
1425519896.954,18.588379
1425519896.97,18.342472
1425519896.985,17.765915
1425519897.001,17.181477
1425519897.017,17.05931
1425519897.032,17.892948
1425519897.048,20.059269
1425519897.063,23.621593
1425519897.079,28.317852
1425519897.095,33.559834
1425519897.11,38.54409
1425519897.126,42.438454
1425519897.142,44.527424
1425519897.157,44.371265
1425519897.173,41.982746
1425519897.188,37.76255
1425519897.204,32.399456
1425519897.22,26.583149
1425519897.235,20.81271
1425519897.251,15.296616
1425519897.267,10.068199
1425519897.282,5.149849
1425519897.298,0.6896095
1425519897.313,-3.0495186
1425519897.329,-5.824112
1425519897.345,-7.536785
1425519897.36,-8.272785
1425519897.376,-8.285141
1425519897.392,-7.867874
1425519897.407,-7.3204765
1425519897.423,-6.876549
1425519897.438,-6.75753
1425519897.454,-7.0958443
1425519897.47,-7.974617
1425519897.485,-9.366352
1425519897.501,-11.154911
1425519897.517,-13.147976
1425519897.532,-15.136295
1425519897.548,-16.872883
1425519897.563,-18.15372
1425519897.579,-18.826649
1425519897.595,-18.829712
1425519897.61,-18.201916
1425519897.626,-17.080692
1425519897.642,-15.6343
1425519897.657,-14.064335
1425519897.673,-12.531563
1425519897.688,-11.169094
1425519897.704,-10.02235
1425519897.72,-9.040165
1425519897.735,-8.024899
1425519897.751,-6.721611
1425519897.767,-4.922001
1425519897.782,-2.596634
1425519897.798,0.060092926
1425519897.813,2.6827202
1425519897.829,4.926811
1425519897.845,6.6534195
1425519897.86,7.9881516
1425519897.876,9.231522
1425519897.892,10.740551
1425519897.907,12.754721
1425519897.923,15.434261
1425519897.938,18.815676
1425519897.954,22.876465
1425519897.97,27.407564
1425519897.985,31.958267
1425519898.001,35.804695
1425519898.017,38.11655
1425519898.032,38.239998
1425519898.048,35.980705
1425519898.063,31.732212
1425519898.079,26.323559
1425519898.095,20.702766
1425519898.11,15.617044
1425519898.126,11.39879
1425519898.142,8.004181
1425519898.157,5.178731
1425519898.173,2.716591
1425519898.188,0.52057934
1425519898.204,-1.375144
1425519898.22,-2.9486084
1425519898.235,-4.258935
1425519898.251,-5.479567
1425519898.267,-6.7913914
1425519898.282,-8.294369
1425519898.298,-9.888927
1425519898.313,-11.381983
1425519898.329,-12.570459
1425519898.345,-13.3661
1425519898.36,-13.814554
1425519898.376,-14.08077
1425519898.392,-14.32403
1425519898.407,-14.667996
1425519898.423,-15.141462
1425519898.438,-15.755846
1425519898.454,-16.468575
1425519898.47,-17.201696
1425519898.485,-17.760765
1425519898.501,-17.925953
1425519898.517,-17.506563
1425519898.532,-16.502922
1425519898.548,-15.120323
1425519898.563,-13.71377
1425519898.579,-12.596239
1425519898.595,-11.91139
1425519898.61,-11.557903
1425519898.626,-11.304344
1425519898.642,-10.894718
1425519898.657,-10.168533
1425519898.673,-9.026829
1425519898.688,-7.4094124
1425519898.704,-5.266632
1425519898.72,-2.627884
1425519898.735,0.365242
1425519898.751,3.3984146
1425519898.767,6.1428223
1425519898.782,8.344612
1425519898.798,9.98814
1425519898.814,11.263535
1425519898.829,12.519394
1425519898.845,14.105198
1425519898.86,16.344048
1425519898.876,19.41629
1425519898.892,23.29818
1425519898.907,27.650673
1425519898.923,31.835732
1425519898.939,34.980213
1425519898.954,36.248516
1425519898.97,35.143925
1425519898.985,31.663715
1425519899.001,26.319565
1425519899.017,19.950294
1425519899.032,13.427338
1425519899.048,7.4549065
1425519899.064,2.4259186
1425519899.079,-1.5503769
1425519899.095,-4.611046
1425519899.11,-6.99424
1425519899.126,-8.990814
1425519899.142,-10.787376
1425519899.157,-12.42886
1425519899.173,-13.816631
1425519899.189,-14.7939415
1425519899.204,-15.272873
1425519899.22,-15.329147
1425519899.235,-15.138077
1425519899.251,-14.931084
1425519899.267,-14.886002
1425519899.282,-15.131981
1425519899.298,-15.750992
1425519899.314,-16.826675
1425519899.329,-18.391884
1425519899.345,-20.388466
1425519899.36,-22.605827
1425519899.376,-24.724457
1425519899.392,-26.418022
1425519899.407,-27.506287
1425519899.423,-27.942726
1425519899.439,-27.837234
1425519899.454,-27.376266
1425519899.47,-26.736145
1425519899.485,-26.068848
1425519899.501,-25.492027
1425519899.517,-25.035194
1425519899.532,-24.625694
1425519899.548,-24.104294
1425519899.564,-23.268448
1425519899.579,-21.989998
1425519899.595,-20.286064
1425519899.61,-18.288223
1425519899.626,-16.22744
1425519899.642,-14.289757
1425519899.657,-12.560371
1425519899.673,-10.946976
1425519899.689,-9.26841
1425519899.704,-7.3146744
1425519899.72,-4.9557037
1425519899.735,-2.2159424
1425519899.751,0.7392044
1425519899.767,3.6726837
1425519899.782,6.371704
1425519899.798,8.786743
1425519899.814,11.038284
1425519899.829,13.373688
1425519899.845,16.032799
1425519899.86,19.167786
1425519899.876,22.757454
1425519899.892,26.703568
1425519899.907,30.837433
1425519899.923,34.952065
1425519899.939,38.741173
1425519899.954,41.774216
1425519899.97,43.509995
1425519899.985,43.481537
1425519900.001,41.44677
1425519900.017,37.509277
1425519900.032,32.09285
1425519900.048,25.791428
1425519900.064,19.186562
1425519900.079,12.714371
1425519900.095,6.6528244
1425519900.11,1.1872177
1425519900.126,-3.5386047
1425519900.142,-7.354599
1425519900.157,-10.184479
1425519900.173,-12.03521
1425519900.189,-13.091339
1425519900.204,-13.647522
1425519900.22,-14.053688
1425519900.235,-14.606056
1425519900.251,-15.487442
1425519900.267,-16.742561
1425519900.282,-18.329285
1425519900.298,-20.157196
1425519900.314,-22.157837
1425519900.329,-24.305275
1425519900.345,-26.5803
1425519900.36,-28.921837
1425519900.376,-31.195358
1425519900.392,-33.18419
1425519900.407,-34.677773
1425519900.423,-35.530052
1425519900.439,-35.746407
1425519900.454,-35.44976
1425519900.47,-34.843254
1425519900.485,-34.151566
1425519900.501,-33.55478
1425519900.517,-33.11615
1425519900.532,-32.75957
1425519900.548,-32.242863
1425519900.564,-31.262604
1425519900.579,-29.554684
1425519900.595,-27.056458
1425519900.61,-23.931763
1425519900.626,-20.582275
1425519900.642,-17.437454
1425519900.657,-14.820614
1425519900.673,-12.794388
1425519900.689,-11.200336
1425519900.704,-9.734814
1425519900.72,-8.128727
1425519900.735,-6.194107
1425519900.751,-3.8965797
1425519900.767,-1.3042755
1425519900.782,1.4385452
1425519900.798,4.163082
1425519900.814,6.7067757
1425519900.829,8.967802
1425519900.845,10.976088
1425519900.86,12.905466
1425519900.876,15.033327
1425519900.892,17.670696
1425519900.907,20.992651
1425519900.923,24.964188
1425519900.939,29.233078
1425519900.954,33.18282
1425519900.97,36.06312
1425519900.985,37.26039
1425519901.001,36.411713
1425519901.017,33.577583
1425519901.032,29.16271
1425519901.048,23.782055
1425519901.064,18.083183
1425519901.079,12.603323
1425519901.095,7.7162676
1425519901.11,3.7190323
1425519901.126,0.79674053
1425519901.142,-0.9886637
1425519901.157,-1.7533779
1425519901.173,-1.7972393
1425519901.189,-1.5638771
1425519901.204,-1.4656925
1425519901.22,-1.8030071
1425519901.235,-2.665348
1425519901.251,-3.991293
1425519901.267,-5.6251945
1425519901.282,-7.402361
1425519901.298,-9.109783
1425519901.314,-10.577045
1425519901.329,-11.684456
1425519901.345,-12.431515
1425519901.36,-12.938187
1425519901.376,-13.417267
1425519901.392,-14.045338
1425519901.407,-14.868961
1425519901.423,-15.75531
1425519901.439,-16.46828
1425519901.454,-16.75531
1425519901.47,-16.500362
1425519901.486,-15.665741
1425519901.501,-14.334335
1425519901.517,-12.597702
1425519901.532,-10.559555
1425519901.548,-8.312332
1425519901.564,-5.969715
1425519901.579,-3.6438904
1425519901.595,-1.445282
1425519901.611,0.5952225
1425519901.626,2.557373
1425519901.642,4.5793457
1425519901.657,6.799858
1425519901.673,9.318794
1425519901.689,12.106514
1425519901.704,15.035431
1425519901.72,17.899223
1425519901.736,20.52015
1425519901.751,22.806755
1425519901.767,24.834602
1425519901.782,26.778275
1425519901.798,28.903397
1425519901.814,31.409248
1425519901.829,34.37506
1425519901.845,37.665184
1425519901.861,40.956215
1425519901.876,43.73845
1425519901.892,45.44165
1425519901.907,45.543694
1425519901.923,43.745384
1425519901.939,40.05786
1425519901.954,34.8665
1425519901.97,28.78991
1425519901.986,22.528679
1425519902.001,16.638802
1425519902.017,11.436432
1425519902.032,6.9974747
1425519902.048,3.3102875
1425519902.064,0.3399048
1425519902.079,-1.8638458
1425519902.095,-3.288803
1425519902.111,-3.9880905
1425519902.126,-4.1695633
1425519902.142,-4.1089554
1425519902.157,-4.061943
1425519902.173,-4.177124
1425519902.189,-4.4944763
1425519902.204,-4.994667
1425519902.22,-5.663269
1425519902.236,-6.4990387
1425519902.251,-7.4869385
1425519902.267,-8.566719
1425519902.282,-9.641235
1425519902.298,-10.615654
1425519902.314,-11.459908
1425519902.329,-12.173355
1425519902.345,-12.75457
1425519902.361,-13.119759
1425519902.376,-13.130074
1425519902.392,-12.620483
1425519902.407,-11.528343
1425519902.423,-9.93264
1425519902.439,-8.049355
1425519902.454,-6.117546
1425519902.47,-4.3555984
1425519902.486,-2.8117142
1425519902.501,-1.4592743
1425519902.517,-0.17888641
1425519902.532,1.1368484
1425519902.548,2.5511475
1425519902.564,4.0266647
1425519902.579,5.506691
1425519902.595,6.9457016
1425519902.611,8.442474
1425519902.626,10.163216
1425519902.642,12.263733
1425519902.657,14.739174
1425519902.673,17.401237
1425519902.689,19.921936
1425519902.704,22.09938
1425519902.72,23.997559
1425519902.736,25.968712
1425519902.751,28.394028
1425519902.767,31.390282
1425519902.782,34.601616
1425519902.798,37.30519
1425519902.814,38.68406
1425519902.829,38.217712
1425519902.845,35.822647
1425519902.861,31.87355
1425519902.876,26.908226
1425519902.892,21.44503
1425519902.907,15.849106
1425519902.923,10.359642
1425519902.939,5.1860504
1425519902.954,0.59025574
1425519902.97,-3.2171936
1425519902.986,-6.002678
1425519903.001,-7.7149086
1425519903.017,-8.460819
1425519903.032,-8.544533
1425519903.048,-8.349136
1425519903.064,-8.302189
1425519903.079,-8.7033615
1425519903.095,-9.660515
1425519903.111,-11.073032
1425519903.126,-12.700668
1425519903.142,-14.254013
1425519903.157,-15.533062
1425519903.173,-16.393967
1425519903.189,-16.831524
1425519903.204,-16.911762
1425519903.22,-16.826393
1425519903.236,-16.785557
1425519903.251,-17.039764
1425519903.267,-17.708702
1425519903.282,-18.744434
1425519903.298,-19.899979
1425519903.314,-20.837925
1425519903.329,-21.237476
1425519903.345,-20.921555
1425519903.361,-19.843336
1425519903.376,-18.115793
1425519903.392,-15.920269
1425519903.407,-13.496052
1425519903.423,-11.078651
1425519903.439,-8.89702
1425519903.454,-7.086712
1425519903.47,-5.673256
1425519903.486,-4.5426292
1425519903.501,-3.4755135
1425519903.517,-2.2267513
1425519903.532,-0.648016
1425519903.548,1.3478527
1425519903.564,3.7032042
1425519903.579,6.3090715
1425519903.595,9.021743
1425519903.611,11.714806
1425519903.626,14.2689
1425519903.642,16.623734
1425519903.657,18.78515
1425519903.673,20.821705
1425519903.689,22.823269
1425519903.704,24.799757
1425519903.72,26.579184
1425519903.736,27.850887
1425519903.751,28.176651
1425519903.767,27.168116
1425519903.782,24.626581
1425519903.798,20.664162
1425519903.814,15.669108
1425519903.829,10.209808
1425519903.845,4.845696
1425519903.861,0.0018048286
1425519903.876,-4.1050844
1425519903.892,-7.417552
1425519903.907,-9.978021
1425519903.923,-11.806612
1425519903.939,-12.927056
1425519903.954,-13.357574
1425519903.97,-13.204102
1425519903.986,-12.655307
1425519904.001,-11.975977
1425519904.017,-11.399488
1425519904.032,-11.084579
1425519904.048,-11.05641
1425519904.064,-11.251957
1425519904.079,-11.576645
1425519904.095,-11.986681
1425519904.111,-12.473541
1425519904.126,-13.093813
1425519904.142,-13.87212
1425519904.158,-14.813995
1425519904.173,-15.842052
1425519904.189,-16.847012
1425519904.204,-17.707466
1425519904.22,-18.341446
1425519904.236,-18.722706
1425519904.251,-18.890676
1425519904.267,-18.909086
1425519904.283,-18.844206
1425519904.298,-18.672129
1425519904.314,-18.314518
1425519904.329,-17.626266
1425519904.345,-16.501072
1425519904.361,-14.940052
1425519904.376,-13.091175
1425519904.392,-11.194092
1425519904.408,-9.498199
1425519904.423,-8.1457405
1425519904.439,-7.124073
1425519904.454,-6.2470474
1425519904.47,-5.262657
1425519904.486,-3.9358978
1425519904.501,-2.18153
1425519904.517,-0.0566597
1425519904.533,2.2129097
1425519904.548,4.409073
1425519904.564,6.371689
1425519904.579,8.087669
1425519904.595,9.665081
1425519904.611,11.300953
1425519904.626,13.181393
1425519904.642,15.49654
1425519904.658,18.388214
1425519904.673,21.933834
1425519904.689,26.037937
1425519904.704,30.32555
1425519904.72,34.11007
1425519904.736,36.55199
1425519904.751,36.88201
1425519904.767,34.741917
1425519904.783,30.30766
1425519904.798,24.262733
1425519904.814,17.498203
1425519904.829,10.85614
1425519904.845,4.9096527
1425519904.861,-0.03419876
1425519904.876,-3.8713226
1425519904.892,-6.6209297
1425519904.908,-8.398777
1425519904.923,-9.437325
1425519904.939,-10.06963
1425519904.954,-10.661644
1425519904.97,-11.500233
1425519904.986,-12.704056
1425519905.001,-14.23542
1425519905.017,-15.917377
1425519905.033,-17.560051
1425519905.048,-18.96056
1425519905.064,-20.032978
1425519905.079,-20.793594
1425519905.095,-21.41394
1425519905.111,-22.133366
1425519905.126,-23.186863
1425519905.142,-24.649357
1425519905.158,-26.39553
1425519905.173,-28.11768
1425519905.189,-29.475979
1425519905.204,-30.24403
1425519905.22,-30.422775
1425519905.236,-30.164787
1425519905.251,-29.700417
1425519905.267,-29.177929
1425519905.283,-28.652351
1425519905.298,-28.071136
1425519905.314,-27.377163
1425519905.329,-26.535908
1425519905.345,-25.52744
1425519905.361,-24.36206
1425519905.376,-23.053188
1425519905.392,-21.604126
1425519905.408,-20.038445
1425519905.423,-18.333889
1425519905.439,-16.460339
1425519905.454,-14.381573
1425519905.47,-12.096128
1425519905.486,-9.662296
1425519905.501,-7.200697
1425519905.517,-4.804516
1425519905.533,-2.5134583
1425519905.548,-0.26294518
1425519905.564,2.0354977
1425519905.579,4.46682
1425519905.595,7.070677
1425519905.611,9.896566
1425519905.626,13.035539
1425519905.642,16.632195
1425519905.658,20.756077
1425519905.673,25.266851
1425519905.689,29.697893
1425519905.704,33.343002
1425519905.72,35.44455
1425519905.736,35.517075
1425519905.751,33.512024
1425519905.767,29.863249
1425519905.783,25.266441
1425519905.798,20.43626
1425519905.814,15.866331
1425519905.829,11.750473
1425519905.845,8.093153
1425519905.861,4.85306
1425519905.876,2.0479908
1425519905.892,-0.18814468
1425519905.908,-1.7250652
1425519905.923,-2.5073776
1425519905.939,-2.626274
1425519905.954,-2.302329
1425519905.97,-1.8241806
1425519905.986,-1.4100227
1425519906.001,-1.2130489
1425519906.017,-1.2579899
1425519906.033,-1.5650959
1425519906.048,-2.142702
1425519906.064,-3.038353
1425519906.079,-4.2691326
1425519906.095,-5.791168
1425519906.111,-7.4532356
1425519906.126,-9.0236435
1425519906.142,-10.29221
1425519906.158,-11.1138
1425519906.173,-11.4439125
1425519906.189,-11.3333435
1425519906.204,-10.85738
1425519906.22,-10.106907
1425519906.236,-9.136669
1425519906.251,-8.004135
1425519906.267,-6.7437477
1425519906.283,-5.4083977
1425519906.298,-4.0303
1425519906.314,-2.639473
1425519906.329,-1.2361641
1425519906.345,0.22664261
1425519906.361,1.8915672
1425519906.376,3.9141235
1425519906.392,6.430416
1425519906.408,9.442387
1425519906.423,12.790802
1425519906.439,16.15892
1425519906.454,19.197033
1425519906.47,21.615353
1425519906.486,23.334621
1425519906.501,24.475754
1425519906.517,25.316418
1425519906.533,26.153221
1425519906.548,27.240158
1425519906.564,28.728806
1425519906.579,30.699982
1425519906.595,33.140938
1425519906.611,35.98585
1425519906.626,39.04284
1425519906.642,41.971428
1425519906.658,44.26855
1425519906.673,45.339165
1425519906.689,44.64523
1425519906.704,41.91552
1425519906.72,37.30463
1425519906.736,31.421326
1425519906.751,25.108742
1425519906.767,19.13047
1425519906.783,13.858105
1425519906.798,9.2584915
1425519906.814,5.0210686
1425519906.83,0.8990898
1425519906.845,-3.0656242
1425519906.861,-6.5140038
1425519906.876,-9.026993
1425519906.892,-10.346386
1425519906.908,-10.592972
1425519906.923,-10.142189
1425519906.939,-9.46767
1425519906.954,-8.91576
1425519906.97,-8.697205
1425519906.986,-8.868462
1425519907.001,-9.502762
1425519907.017,-10.656864
1425519907.033,-12.34281
1425519907.048,-14.453598
1425519907.064,-16.777708
1425519907.08,-19.03085
1425519907.095,-20.975622
1425519907.111,-22.402004
1425519907.126,-23.184404
1425519907.142,-23.273636
1425519907.158,-22.721403
1425519907.173,-21.672754
1425519907.189,-20.399166
1425519907.205,-19.174326
1425519907.22,-18.21324
1425519907.236,-17.588337
1425519907.251,-17.1994
1425519907.267,-16.82631
1425519907.283,-16.237501
1425519907.298,-15.22636
1425519907.314,-13.705889
1425519907.33,-11.756736
1425519907.345,-9.592263
1425519907.361,-7.462083
1425519907.376,-5.58127
1425519907.392,-3.9754953
1425519907.408,-2.532174
1425519907.423,-1.0504351
1425519907.439,0.6113033
1425519907.455,2.4754553
1425519907.47,4.4330053
1425519907.486,6.443718
1425519907.501,8.550295
1425519907.517,10.917748
1425519907.533,13.701235
1425519907.548,16.967564
1425519907.564,20.622328
1425519907.58,24.500832
1425519907.595,28.410786
1425519907.611,32.146317
1425519907.626,35.425495
1425519907.642,37.837082
1425519907.658,38.89789
1425519907.673,38.26422
1425519907.689,35.870457
1425519907.705,32.043495
1425519907.72,27.353794
1425519907.736,22.401146
1425519907.751,17.578613
1425519907.767,13.031738
1425519907.783,8.759373
1425519907.798,4.773041
1425519907.814,1.2055969
1425519907.83,-1.6838274
1425519907.845,-3.6795874
1425519907.861,-4.7086945
1425519907.876,-4.9345913
1425519907.892,-4.6981983
1425519907.908,-4.4096375
1425519907.923,-4.4014664
1425519907.939,-4.882414
1425519907.955,-5.8724747
1425519907.97,-7.2941093
1425519907.986,-9.014282
1425519908.001,-10.9285755
1425519908.017,-12.961094
1425519908.033,-15.09104
