1433977564.135,0.0
1433977564.151,0.0
1433977564.166,0.0
1433977564.182,0.0
1433977564.197,0.0
1433977564.213,0.0
1433977564.229,0.0
1433977564.244,0.0
1433977564.26,0.0
1433977564.276,0.0022315353
1433977564.291,-0.0045169927
1433977564.307,-0.011265522
1433977564.322,-0.011383951
1433977564.338,0.0011864507
1433977564.354,0.025910312
1433977564.369,0.050634187
1433977564.385,0.051362894
1433977564.401,-0.0014929791
1433977564.416,-0.1302426
1433977564.432,-0.35562757
1433977564.447,-0.6591447
1433977564.463,-1.0097382
1433977564.479,-1.3717351
1433977564.494,-1.7212719
1433977564.51,-2.057376
1433977564.526,-2.4016147
1433977564.541,-2.787247
1433977564.557,-3.2375472
1433977564.572,-3.790946
1433977564.588,-4.414107
1433977564.604,-5.0609665
1433977564.619,-5.6776276
1433977564.635,-6.2264633
1433977564.651,-6.704932
1433977564.666,-7.148793
1433977564.682,-7.618244
1433977564.697,-8.156496
1433977564.713,-8.871072
1433977564.729,-9.695097
1433977564.744,-10.543295
1433977564.76,-11.316364
1433977564.776,-11.960672
1433977564.791,-12.515633
1433977564.807,-13.119148
1433977564.822,-13.964006
1433977564.838,-15.190354
1433977564.854,-17.032139
1433977564.869,-19.321188
1433977564.885,-21.818594
1433977564.901,-24.245789
1433977564.916,-26.429367
1433977564.932,-28.41108
1433977564.947,-30.45804
1433977564.963,-32.96482
1433977564.979,-36.235786
1433977564.994,-40.679543
1433977565.01,-46.003513
1433977565.026,-51.74969
1433977565.041,-57.368958
1433977565.057,-62.477867
1433977565.072,-67.0533
1433977565.088,-71.45763
1433977565.104,-76.28734
1433977565.119,-82.04021
1433977565.135,-89.3238
1433977565.151,-97.78259
1433977565.166,-106.78777
1433977565.182,-115.54492
1433977565.197,-123.44549
1433977565.213,-130.34082
1433977565.229,-136.59726
1433977565.244,-143.32729
1433977565.26,-149.16159
1433977565.276,-156.495
1433977565.291,-166.2191
1433977565.307,-178.76749
1433977565.322,-193.13864
1433977565.338,-206.37935
1433977565.354,-213.86546
1433977565.369,-210.52515
1433977565.385,-192.61792
1433977565.401,-159.13293
1433977565.416,-112.64976
1433977565.432,-57.433777
1433977565.448,1.6961823
1433977565.463,61.17108
1433977565.479,119.41272
1433977565.494,176.40997
1433977565.51,232.74704
1433977565.526,288.66165
1433977565.541,343.78143
1433977565.557,396.92987
1433977565.573,447.03967
1433977565.588,492.6591
1433977565.604,531.76013
1433977565.619,561.57117
1433977565.635,578.8871
1433977565.651,580.9797
1433977565.666,566.50183
1433977565.682,536.2717
1433977565.698,492.95154
1433977565.713,440.67554
1433977565.729,383.63052
1433977565.744,325.1581
1433977565.76,267.30765
1433977565.776,211.01157
1433977565.791,156.57388
1433977565.807,104.18585
1433977565.823,54.264297
1433977565.838,7.3335724
1433977565.854,-35.89763
1433977565.869,-74.84497
1433977565.885,-109.08388
1433977565.901,-138.32599
1433977565.916,-162.37473
1433977565.932,-181.1026
1433977565.948,-194.58334
1433977565.963,-203.22958
1433977565.979,-207.84091
1433977565.994,-209.4498
1433977566.01,-209.07257
1433977566.026,-207.43756
1433977566.041,-204.79276
1433977566.057,-200.92953
1433977566.073,-195.47087
1433977566.088,-188.16977
1433977566.104,-179.13098
1433977566.119,-168.8327
1433977566.135,-157.9462
1433977566.151,-147.07993
1433977566.166,-136.57907
1433977566.182,-126.479126
1433977566.198,-116.59459
1433977566.213,-106.7285
1433977566.229,-96.82924
1433977566.244,-87.04427
1433977566.26,-77.65958
1433977566.276,-68.947945
1433977566.291,-61.066727
1433977566.307,-54.018387
1433977566.323,-47.64767
1433977566.338,-41.763786
1433977566.354,-36.216496
1433977566.369,-30.967531
1433977566.385,-26.081314
1433977566.401,-21.771168
1433977566.416,-18.146826
1433977566.432,-15.260706
1433977566.448,-13.0510235
1433977566.463,-11.399406
1433977566.479,-10.116444
1433977566.494,-9.014214
1433977566.51,-7.91893
1433977566.526,-6.709114
1433977566.541,-5.2916756
1433977566.557,-3.636757
1433977566.573,-1.8164177
1433977566.588,0.0023155212
1433977566.604,1.6090813
1433977566.619,2.8138504
1433977566.635,3.5514984
1433977566.651,3.8862572
1433977566.666,3.9856186
1433977566.682,4.0103607
1433977566.698,4.0499153
1433977566.713,4.074627
1433977566.729,4.0072365
1433977566.744,3.807827
1433977566.76,3.5439835
1433977566.776,3.3362541
1433977566.791,3.3017235
1433977566.807,3.4469872
1433977566.823,3.6781845
1433977566.838,3.8263931
1433977566.854,3.7754517
1433977566.869,3.5125847
1433977566.885,3.1288795
1433977566.901,2.7669258
1433977566.916,2.5319843
1433977566.932,2.4537258
1433977566.948,2.505785
1433977566.963,2.632784
1433977566.979,2.7982216
1433977566.994,2.9775505
1433977567.01,3.1478367
1433977567.026,3.260786
1433977567.041,3.2766418
1433977567.057,3.1594067
1433977567.073,2.9285355
1433977567.088,2.637312
1433977567.104,2.363594
1433977567.119,2.16568
1433977567.135,2.072195
1433977567.151,2.0826874
1433977567.166,2.1822739
1433977567.182,2.3371143
1433977567.198,2.504902
1433977567.213,2.6376743
1433977567.229,2.6625748
1433977567.244,2.4951973
1433977567.26,2.0933437
1433977567.276,1.43433
1433977567.291,0.57844925
1433977567.307,-0.3913269
1433977567.323,-1.3180828
1433977567.338,-2.0761871
1433977567.354,-2.5481815
1433977567.369,-2.6676807
1433977567.385,-2.4357262
1433977567.401,-1.9554405
1433977567.416,-1.395483
1433977567.432,-0.94641495
1433977567.448,-0.7470112
1433977567.463,-0.8093262
1433977567.479,-1.0151768
1433977567.494,-1.1863346
1433977567.51,-1.1554699
1433977567.526,-0.8680706
1433977567.541,-0.35165977
1433977567.557,0.271698
1433977567.573,0.8896656
1433977567.588,1.3995552
1433977567.604,1.763176
1433977567.619,1.9410152
1433977567.635,1.9099865
1433977567.651,1.6804962
1433977567.666,1.2846775
1433977567.682,0.81002235
1433977567.698,0.3653412
1433977567.713,0.06973839
1433977567.729,-0.0029525757
1433977567.744,0.14211845
1433977567.76,0.4601555
1433977567.776,0.84238815
1433977567.791,1.2217007
1433977567.807,1.5036507
1433977567.823,1.6684284
1433977567.838,1.687233
1433977567.854,1.5873451
1433977567.869,1.4092636
1433977567.885,1.2309189
1433977567.901,1.1153679
1433977567.916,1.1148949
1433977567.932,1.2155342
1433977567.948,1.3712778
1433977567.963,1.5190887
1433977567.979,1.6387787
1433977567.994,1.7406664
1433977568.01,1.8737993
1433977568.026,2.048708
1433977568.041,2.2350397
1433977568.057,2.3152437
1433977568.073,2.1621914
1433977568.088,1.6907101
1433977568.104,0.9447565
1433977568.12,0.054662704
1433977568.135,-0.77692795
1433977568.151,-1.3574858
1433977568.166,-1.5951176
1433977568.182,-1.5018578
1433977568.198,-1.1858892
1433977568.213,-0.80465126
1433977568.229,-0.47852325
1433977568.244,-0.26451874
1433977568.26,-0.14322948
1433977568.276,-0.05676937
1433977568.291,0.058055878
1433977568.307,0.20293903
1433977568.323,0.3780365
1433977568.338,0.553154
1433977568.354,0.74033165
1433977568.37,0.9568844
1433977568.385,1.2169523
1433977568.401,1.5012197
1433977568.416,1.7429152
1433977568.432,1.8582954
1433977568.448,1.7957563
1433977568.463,1.5492945
1433977568.479,1.210494
1433977568.495,0.87796974
1433977568.51,0.657856
1433977568.526,0.57574844
1433977568.541,0.6011276
1433977568.557,0.61196804
1433977568.573,0.4906702
1433977568.588,0.16646862
1433977568.604,-0.32736588
1433977568.62,-0.90983105
1433977568.635,-1.4715662
1433977568.651,-1.9692411
1433977568.666,-2.4394178
1433977568.682,-2.9556017
1433977568.698,-3.5533447
1433977568.713,-4.192958
1433977568.729,-4.753392
1433977568.745,-5.119936
1433977568.76,-5.2697544
1433977568.776,-5.2911234
1433977568.791,-5.3447275
1433977568.807,-5.5639467
1433977568.823,-5.961584
1433977568.838,-6.422208
1433977568.854,-6.75712
1433977568.87,-6.7802687
1433977568.885,-6.406187
1433977568.901,-5.6896324
1433977568.916,-4.7650795
1433977568.932,-3.7762423
1433977568.948,-2.8283997
1433977568.963,-1.9813414
1433977568.979,-1.2031527
1433977568.995,-0.50509644
1433977569.01,0.08346462
1433977569.026,0.52410984
1433977569.041,0.82162476
1433977569.057,1.0339141
1433977569.073,1.2770419
1433977569.088,1.6476264
1433977569.104,2.1939964
1433977569.12,2.8650203
1433977569.135,3.5256982
1433977569.151,4.0369053
1433977569.166,4.30568
1433977569.182,4.3133364
1433977569.198,4.138962
1433977569.213,3.8814821
1433977569.229,3.6383204
1433977569.245,3.4545698
1433977569.26,3.3659096
1433977569.276,3.3540926
1433977569.291,3.3914187
1433977569.307,3.430667
1433977569.323,3.4226966
1433977569.338,3.3332758
1433977569.354,3.1402311
1433977569.37,2.8641803
1433977569.385,2.5419393
1433977569.401,2.220565
1433977569.416,1.9493136
1433977569.432,1.7484512
1433977569.448,1.6485249
1433977569.463,1.6441045
1433977569.479,1.7328248
1433977569.495,1.8872479
1433977569.51,2.0739665
1433977569.526,2.2518945
1433977569.541,2.3820028
1433977569.557,2.4402065
1433977569.573,2.414747
1433977569.588,2.3069165
1433977569.604,2.1440601
1433977569.62,1.9758506
1433977569.635,1.8603156
1433977569.651,1.8603098
1433977569.666,1.9989135
1433977569.682,2.2245948
1433977569.698,2.496873
1433977569.713,2.7284963
1433977569.729,2.8902192
1433977569.745,3.0016627
1433977569.76,3.133963
1433977569.776,3.3310134
1433977569.791,3.6066551
1433977569.807,3.9291828
1433977569.823,4.2679877
1433977569.838,4.641211
1433977569.854,5.0687675
1433977569.87,5.5399895
1433977569.885,5.959379
1433977569.901,6.1566153
1433977569.916,5.9583216
1433977569.932,5.253087
1433977569.948,4.0621576
1433977569.963,2.4379606
1433977569.979,0.63532495
1433977569.995,-1.0998113
1433977570.01,-2.629632
1433977570.026,-3.9562824
1433977570.041,-5.1461267
1433977570.057,-6.2478237
1433977570.073,-7.230826
1433977570.088,-8.01214
1433977570.104,-8.537795
1433977570.12,-8.819071
1433977570.135,-8.950379
1433977570.151,-9.034615
1433977570.166,-9.085405
1433977570.182,-9.032291
1433977570.198,-8.742862
1433977570.213,-8.172258
1433977570.229,-7.399722
1433977570.245,-6.628006
1433977570.26,-6.052956
1433977570.276,-5.7754593
1433977570.291,-5.736549
1433977570.307,-5.778553
1433977570.323,-5.7316923
1433977570.338,-5.5095186
1433977570.354,-5.146311
1433977570.37,-4.727723
1433977570.385,-4.315958
1433977570.401,-3.9156034
1433977570.416,-3.4864604
1433977570.432,-2.9953754
1433977570.448,-2.439521
1433977570.463,-1.8608227
1433977570.479,-1.285846
1433977570.495,-0.7308705
1433977570.51,-0.18113565
1433977570.526,0.38356292
1433977570.541,0.9931729
1433977570.557,1.645958
1433977570.573,2.3402443
1433977570.588,3.0752788
1433977570.604,3.8655198
1433977570.62,4.714356
1433977570.635,5.6077313
1433977570.651,6.505463
1433977570.666,7.372506
1433977570.682,8.184223
1433977570.698,8.9559145
1433977570.713,9.725609
1433977570.729,10.555103
1433977570.745,11.4815445
1433977570.76,12.49129
1433977570.776,13.498625
1433977570.792,14.3642025
1433977570.807,14.88828
1433977570.823,14.885371
1433977570.838,14.219423
1433977570.854,12.852924
1433977570.87,10.850339
1433977570.885,8.380174
1433977570.901,5.654523
1433977570.916,2.907177
1433977570.932,0.34947142
1433977570.948,-1.8614001
1433977570.963,-3.6420298
1433977570.979,-4.979525
1433977570.995,-5.921044
1433977571.01,-6.5459895
1433977571.026,-6.945738
1433977571.042,-7.1964345
1433977571.057,-7.3640842
1433977571.073,-7.490408
1433977571.088,-7.6274447
1433977571.104,-7.8096194
1433977571.12,-8.0497675
1433977571.135,-8.324601
1433977571.151,-8.584263
1433977571.167,-8.753084
1433977571.182,-8.774029
1433977571.198,-8.612387
1433977571.213,-8.288738
1433977571.229,-7.864806
1433977571.245,-7.431084
1433977571.26,-7.0638785
1433977571.276,-6.8163877
1433977571.292,-6.644827
1433977571.307,-6.4498415
1433977571.323,-6.0851736
1433977571.338,-5.4456873
1433977571.354,-4.509981
1433977571.37,-3.3797708
1433977571.385,-2.2353506
1433977571.401,-1.2656358
1433977571.417,-0.56703705
1433977571.432,-0.0932821
1433977571.448,0.30931935
1433977571.463,0.8245538
1433977571.479,1.5684896
1433977571.495,2.5436823
1433977571.51,3.6571271
1433977571.526,4.784207
1433977571.542,5.8347354
1433977571.557,6.7695556
1433977571.573,7.620578
1433977571.588,8.433929
1433977571.604,9.257166
1433977571.62,10.136826
1433977571.635,11.120638
1433977571.651,12.236347
1433977571.667,13.474998
1433977571.682,14.721924
1433977571.698,15.774735
1433977571.713,16.361187
1433977571.729,16.236792
1433977571.745,15.281544
1433977571.76,13.556361
1433977571.776,11.257548
1433977571.792,8.655991
1433977571.807,5.9840713
1433977571.823,3.4003432
1433977571.838,0.9949639
1433977571.854,-1.1619244
1433977571.87,-3.011754
1433977571.885,-4.504838
1433977571.901,-5.656645
1433977571.917,-6.568042
1433977571.932,-7.3819437
1433977571.948,-8.199247
1433977571.963,-9.021047
1433977571.979,-9.7242565
1433977571.995,-10.1437
1433977572.01,-10.167141
1433977572.026,-9.818317
1433977572.042,-9.2425785
1433977572.057,-8.660316
1433977572.073,-8.253336
1433977572.088,-8.109259
1433977572.104,-8.21185
1433977572.12,-8.469276
1433977572.135,-8.764173
1433977572.151,-8.990354
1433977572.167,-9.070431
1433977572.182,-8.966402
1433977572.198,-8.661921
1433977572.213,-8.164486
1433977572.229,-7.4915476
1433977572.245,-6.6766524
1433977572.26,-5.772025
1433977572.276,-4.844945
1433977572.292,-3.9669566
1433977572.307,-3.1949348
1433977572.323,-2.5574632
1433977572.338,-2.0258503
1433977572.354,-1.5324459
1433977572.37,-0.9962225
1433977572.385,-0.3430586
1433977572.401,0.4597969
1433977572.417,1.3983297
1433977572.432,2.4088554
1433977572.448,3.426106
1433977572.463,4.384947
1433977572.479,5.268023
1433977572.495,6.080696
1433977572.51,6.8571277
1433977572.526,7.6400995
1433977572.542,8.485752
1433977572.557,9.469877
1433977572.573,10.678608
1433977572.588,12.153474
1433977572.604,13.847927
1433977572.62,15.562722
1433977572.635,16.960653
1433977572.651,17.673113
1433977572.667,17.422705
1433977572.682,16.160452
1433977572.698,14.0879345
1433977572.713,11.57264
1433977572.729,9.00103
1433977572.745,6.6170764
1433977572.76,4.4706483
1433977572.776,2.4744258
1433977572.792,0.5238476
1433977572.807,-1.4000216
1433977572.823,-3.2075472
1433977572.838,-4.7510695
1433977572.854,-5.934862
1433977572.87,-6.768456
1433977572.885,-7.374173
1433977572.901,-7.911088
1433977572.917,-8.4669075
1433977572.932,-9.029868
1433977572.948,-9.496349
1433977572.963,-9.775963
1433977572.979,-9.8435545
1433977572.995,-9.779922
1433977573.01,-9.690045
1433977573.026,-9.647776
1433977573.042,-9.640384
1433977573.057,-9.596558
1433977573.073,-9.436564
1433977573.088,-9.151493
1433977573.104,-8.791557
1433977573.12,-8.4490795
1433977573.135,-8.18359
1433977573.151,-7.998287
1433977573.167,-7.8422194
1433977573.182,-7.6490993
1433977573.198,-7.3546667
1433977573.213,-6.934431
1433977573.229,-6.377615
1433977573.245,-5.691866
1433977573.26,-4.917734
1433977573.276,-4.1304245
1433977573.292,-3.4212093
1433977573.307,-2.856032
1433977573.323,-2.4115043
1433977573.338,-1.9569402
1433977573.354,-1.310844
1433977573.37,-0.32829237
1433977573.385,1.0068383
1433977573.401,2.5301518
1433977573.417,3.9872336
1433977573.432,5.1251683
1433977573.448,5.847154
1433977573.463,6.239818
1433977573.479,6.5386496
1433977573.495,6.9869637
1433977573.51,7.742323
1433977573.526,8.8243885
1433977573.542,10.157721
1433977573.557,11.626758
1433977573.573,13.152525
1433977573.588,14.654808
1433977573.604,16.006805
1433977573.62,16.987583
1433977573.635,17.310663
1433977573.651,16.73228
1433977573.667,15.163416
1433977573.682,12.745603
1433977573.698,9.839993
1433977573.714,6.873495
1433977573.729,4.200432
1433977573.745,1.9786959
1433977573.76,0.18824291
1433977573.776,-1.2970157
1433977573.792,-2.5877361
1433977573.807,-3.7371821
1433977573.823,-4.7486396
1433977573.839,-5.636465
1433977573.854,-6.460587
1433977573.87,-7.294336
1433977573.885,-8.157993
1433977573.901,-8.969499
1433977573.917,-9.552593
1433977573.932,-9.74316
1433977573.948,-9.495186
1433977573.964,-8.937481
1433977573.979,-8.33174
1433977573.995,-7.953471
1433977574.01,-7.945382
1433977574.026,-8.253542
1433977574.042,-8.649417
1433977574.057,-8.882538
1433977574.073,-8.787174
1433977574.089,-8.378014
1433977574.104,-7.814508
1433977574.12,-7.296415
1433977574.135,-6.947835
1433977574.151,-6.745397
1433977574.167,-6.5352373
1433977574.182,-6.148528
1433977574.198,-5.495774
1433977574.214,-4.620465
1433977574.229,-3.6717162
1433977574.245,-2.8084621
1433977574.26,-2.0976033
1433977574.276,-1.50634
1433977574.292,-0.9282737
1433977574.307,-0.28991747
1433977574.323,0.4186492
1433977574.339,1.1463518
1433977574.354,1.8455558
1433977574.37,2.5180297
1433977574.385,3.2132912
1433977574.401,3.9825897
1433977574.417,4.8220983
1433977574.432,5.6684203
1433977574.448,6.4461274
1433977574.464,7.1319504
1433977574.479,7.782485
1433977574.495,8.50147
1433977574.51,9.402169
1433977574.526,10.5155735
1433977574.542,11.790203
1433977574.557,13.072049
1433977574.573,14.139535
1433977574.589,14.729856
1433977574.604,14.6094
1433977574.62,13.652099
1433977574.635,11.913328
1433977574.651,9.612202
1433977574.667,7.0743837
1433977574.682,4.59494
1433977574.698,2.3504014
1433977574.714,0.36589384
1433977574.729,-1.4063375
1433977574.745,-3.0082352
1433977574.76,-4.4085827
1433977574.776,-5.5361443
1433977574.792,-6.338873
1433977574.807,-6.8485937
1433977574.823,-7.16409
1433977574.839,-7.4126797
1433977574.854,-7.681037
1433977574.87,-7.9855385
1433977574.885,-8.275489
1433977574.901,-8.490908
1433977574.917,-8.575424
1433977574.932,-8.510503
1433977574.948,-8.307982
1433977574.964,-8.002696
1433977574.979,-7.6564074
1433977574.995,-7.3386536
1433977575.01,-7.0885377
1433977575.026,-6.911694
1433977575.042,-6.7643795
1433977575.057,-6.5904703
1433977575.073,-6.344843
1433977575.089,-6.035711
1433977575.104,-5.6988673
1433977575.12,-5.3844547
1433977575.135,-5.1061354
1433977575.151,-4.8327637
1433977575.167,-4.4961157
1433977575.182,-4.0198693
1433977575.198,-3.3305016
1433977575.214,-2.411471
1433977575.229,-1.3113904
1433977575.245,-0.141711
1433977575.26,0.9634589
1433977575.276,1.8990457
1433977575.292,2.6330085
1433977575.307,3.2257667
1433977575.323,3.7854276
1433977575.339,4.4030623
1433977575.354,5.1079073
1433977575.37,5.8596573
1433977575.385,6.6155386
1433977575.401,7.363674
1433977575.417,8.178391
1433977575.432,9.164926
1433977575.448,10.397707
1433977575.464,11.867733
1433977575.479,13.44821
1433977575.495,14.934606
1433977575.51,16.108974
1433977575.526,16.796919
1433977575.542,16.894697
1433977575.557,16.349224
1433977575.573,15.158417
1433977575.589,13.339879
1433977575.604,10.977898
1433977575.62,8.215578
1433977575.635,5.287121
1433977575.651,2.4460359
1433977575.667,-0.061846256
1433977575.682,-2.0997658
1433977575.698,-3.6474535
1433977575.714,-4.7867146
1433977575.729,-5.6500845
1433977575.745,-6.3220167
1433977575.76,-6.825895
1433977575.776,-7.1331334
1433977575.792,-7.2459564
1433977575.807,-7.2239532
1433977575.823,-7.1857305
1433977575.839,-7.2400627
1433977575.854,-7.4224415
1433977575.87,-7.71119
1433977575.885,-8.025445
1433977575.901,-8.317166
1433977575.917,-8.569815
1433977575.932,-8.790979
1433977575.948,-8.961647
1433977575.964,-9.019527
1433977575.979,-8.870055
1433977575.995,-8.454217
1433977576.01,-7.798918
1433977576.026,-7.0222106
1433977576.042,-6.2868204
1433977576.057,-5.732926
1433977576.073,-5.4128656
1433977576.089,-5.280399
1433977576.104,-5.2259216
1433977576.12,-5.113884
1433977576.135,-4.8045454
1433977576.151,-4.2219696
1433977576.167,-3.3346133
1433977576.182,-2.2025483
1433977576.198,-0.94271374
1433977576.214,0.30226636
1433977576.229,1.4066856
1433977576.245,2.323547
1433977576.26,3.0909102
1433977576.276,3.796315
1433977576.292,4.5390263
1433977576.307,5.3540134
1433977576.323,6.2080765
1433977576.339,7.015701
1433977576.354,7.7266293
1433977576.37,8.355725
1433977576.386,9.035468
1433977576.401,9.927645
1433977576.417,11.157148
1433977576.432,12.707741
1433977576.448,14.388
1433977576.464,15.87351
1433977576.479,16.826502
1433977576.495,17.001925
1433977576.511,16.332132
1433977576.526,14.92196
1433977576.542,12.988802
1433977576.557,10.75061
1433977576.573,8.402102
1433977576.589,6.067066
1433977576.604,3.828661
1433977576.62,1.73905
1433977576.636,-0.17616796
1433977576.651,-1.9309468
1433977576.667,-3.5494702
1433977576.682,-5.0495105
1433977576.698,-6.3975344
1433977576.714,-7.5027037
1433977576.729,-8.271066
1433977576.745,-8.661123
1433977576.761,-8.729026
1433977576.776,-8.621205
1433977576.792,-8.499136
1433977576.807,-8.460014
1433977576.823,-8.490121
1433977576.839,-8.515052
1433977576.854,-8.444596
1433977576.87,-8.278256
1433977576.886,-8.067153
1433977576.901,-7.9155617
1433977576.917,-7.88655
1433977576.932,-7.976462
1433977576.948,-8.10844
1433977576.964,-8.176787
1433977576.979,-8.08996
1433977576.995,-7.805426
1433977577.011,-7.3293757
1433977577.026,-6.697907
1433977577.042,-5.9371204
1433977577.057,-5.0783195
1433977577.073,-4.133425
1433977577.089,-3.1472955
1433977577.104,-2.1737175
1433977577.12,-1.297873
1433977577.136,-0.568444
1433977577.151,0.0043998957
1433977577.167,0.49148023
1433977577.182,0.9830631
1433977577.198,1.572067
1433977577.214,2.290277
1433977577.229,3.1179113
1433977577.245,4.0079217
1433977577.261,4.939645
1433977577.276,5.917951
1433977577.292,6.9522495
1433977577.307,8.013186
1433977577.323,9.049209
1433977577.339,10.000141
1433977577.354,10.871483
1433977577.37,11.72653
1433977577.386,12.670432
1433977577.401,13.74204
1433977577.417,14.86594
1433977577.432,15.81916
1433977577.448,16.311865
1433977577.464,16.09286
1433977577.479,15.040839
1433977577.495,13.200537
1433977577.511,10.770988
1433977577.526,8.017316
1433977577.542,5.218955
1433977577.557,2.607419
1433977577.573,0.326118
1433977577.589,-1.580718
1433977577.604,-3.1406732
1433977577.62,-4.4404244
1433977577.636,-5.5446925
1433977577.651,-6.501393
1433977577.667,-7.318764
1433977577.682,-8.027957
1433977577.698,-8.636302
1433977577.714,-9.166589
1433977577.729,-9.598482
1433977577.745,-9.885807
1433977577.761,-9.978283
1433977577.776,-9.863435
1433977577.792,-9.589199
1433977577.807,-9.268616
1433977577.823,-8.99441
1433977577.839,-8.8224535
1433977577.854,-8.723622
1433977577.87,-8.619313
1433977577.886,-8.421024
1433977577.901,-8.100222
1433977577.917,-7.672165
1433977577.932,-7.1951656
1433977577.948,-6.716363
1433977577.964,-6.2421904
1433977577.979,-5.7480726
1433977577.995,-5.19314
1433977578.011,-4.536441
1433977578.026,-3.7641191
1433977578.042,-2.8892603
1433977578.057,-1.9522085
1433977578.073,-1.0023518
1433977578.089,-0.07997608
1433977578.104,0.80399704
1433977578.12,1.6566467
1433977578.136,2.5142527
1433977578.151,3.40199
1433977578.167,4.3319054
1433977578.182,5.295039
1433977578.198,6.3127413
1433977578.214,7.389476
1433977578.229,8.527003
1433977578.245,9.718299
1433977578.261,10.934908
1433977578.276,12.157881
1433977578.292,13.373362
1433977578.307,14.536092
1433977578.323,15.563656
1433977578.339,16.296627
1433977578.354,16.540401
1433977578.37,16.121502
1433977578.386,14.975464
1433977578.401,13.163417
1433977578.417,10.870119
1433977578.432,8.319435
1433977578.448,5.702712
1433977578.464,3.1413279
1433977578.479,0.7106199
1433977578.495,-1.5338516
1433977578.511,-3.525278
1433977578.526,-5.1966343
1433977578.542,-6.5177145
1433977578.557,-7.5063686
1433977578.573,-8.194493
1433977578.589,-8.619362
1433977578.604,-8.817526
1433977578.62,-8.848864
1433977578.636,-8.806555
1433977578.651,-8.813507
1433977578.667,-8.962528
1433977578.682,-9.266176
1433977578.698,-9.622112
1433977578.714,-9.864849
1433977578.729,-9.872942
1433977578.745,-9.619263
1433977578.761,-9.196348
1433977578.776,-8.750755
1433977578.792,-8.369818
1433977578.807,-8.051563
1433977578.823,-7.69858
1433977578.839,-7.2178955
1433977578.854,-6.5635147
1433977578.87,-5.797079
1433977578.886,-5.0192738
1433977578.901,-4.306299
1433977578.917,-3.6756935
1433977578.932,-3.0842361
1433977578.948,-2.4615498
1433977578.964,-1.7528992
1433977578.979,-0.9407425
1433977578.995,-0.01981926
1433977579.011,1.004549
1433977579.026,2.1416702
1433977579.042,3.3751678
1433977579.058,4.649288
1433977579.073,5.8838234
1433977579.089,7.0021553
1433977579.104,7.9879932
1433977579.12,8.90457
1433977579.136,9.899542
1433977579.151,11.112555
1433977579.167,12.58523
1433977579.182,14.180817
1433977579.198,15.61153
1433977579.214,16.527308
1433977579.229,16.664555
1433977579.245,15.93572
1433977579.261,14.4636135
1433977579.276,12.489523
1433977579.292,10.282473
1433977579.308,8.029465
1433977579.323,5.8400097
1433977579.339,3.7466698
1433977579.354,1.7641563
1433977579.37,-0.1042099
1433977579.386,-1.8574181
1433977579.401,-3.4920254
1433977579.417,-4.982687
1433977579.433,-6.277443
1433977579.448,-7.29566
1433977579.464,-7.973957
1433977579.479,-8.307917
1433977579.495,-8.382008
1433977579.511,-8.3189125
1433977579.526,-8.244314
1433977579.542,-8.215208
1433977579.558,-8.236872
1433977579.573,-8.280195
1433977579.589,-8.325661
1433977579.604,-8.360069
1433977579.62,-8.372269
1433977579.636,-8.322395
1433977579.651,-8.150028
1433977579.667,-7.8007736
1433977579.683,-7.2661552
1433977579.698,-6.5796165
1433977579.714,-5.822891
1433977579.729,-5.0662003
1433977579.745,-4.345627
1433977579.761,-3.6412315
1433977579.776,-2.8981361
1433977579.792,-2.0587196
1433977579.808,-1.0952225
1433977579.823,-0.0112838745
1433977579.839,1.1489563
1433977579.854,2.3248024
1433977579.87,3.459198
1433977579.886,4.5395584
1433977579.901,5.603752
1433977579.917,6.7447624
1433977579.933,8.053173
1433977579.948,9.592087
1433977579.964,11.349068
1433977579.979,13.216396
1433977579.995,14.991348
1433977580.011,16.401493
1433977580.026,17.153217
1433977580.042,17.007736
1433977580.058,15.865318
1433977580.073,13.816875
1433977580.089,11.126701
1433977580.104,8.154022
1433977580.12,5.2200394
1433977580.136,2.5436668
1433977580.151,0.19444275
1433977580.167,-1.8447495
1433977580.183,-3.6263542
1433977580.198,-5.173294
1433977580.214,-6.4905624
1433977580.229,-7.5826797
1433977580.245,-8.467308
1433977580.261,-9.154747
1433977580.276,-9.647236
1433977580.292,-9.925056
1433977580.308,-9.9769745
1433977580.323,-9.818455
1433977580.339,-9.523743
1433977580.354,-9.1945305
1433977580.37,-8.943829
1433977580.386,-8.851364
1433977580.401,-8.952141
1433977580.417,-9.208065
1433977580.433,-9.533676
1433977580.448,-9.8109665
1433977580.464,-9.915478
1433977580.479,-9.749218
1433977580.495,-9.27338
1433977580.511,-8.515915
1433977580.526,-7.558647
1433977580.542,-6.509453
1433977580.558,-5.4575195
1433977580.573,-4.443096
1433977580.589,-3.4686737
1433977580.604,-2.5063553
1433977580.62,-1.5397835
1433977580.636,-0.5288887
1433977580.651,0.5459633
1433977580.667,1.6971512
1433977580.683,2.9032516
1433977580.698,4.129814
1433977580.714,5.3299026
1433977580.729,6.4773254
1433977580.745,7.5778084
1433977580.761,8.678917
1433977580.776,9.836655
1433977580.792,11.120476
1433977580.808,12.558598
1433977580.823,14.132
1433977580.839,15.716225
1433977580.854,17.082867
1433977580.87,17.910244
1433977580.886,17.87051
1433977580.901,16.739758
1433977580.917,14.513187
1433977580.933,11.449947
1433977580.948,8.009407
1433977580.964,4.6975937
1433977580.979,1.8804283
1433977580.995,-0.32486725
1433977581.011,-2.039215
1433977581.026,-3.4888954
1433977581.042,-4.860874
1433977581.058,-6.2296944
1433977581.073,-7.541519
1433977581.089,-8.724503
1433977581.104,-9.732662
1433977581.12,-10.5882
1433977581.136,-11.324539
1433977581.151,-11.94841
1433977581.167,-12.407494
1433977581.183,-12.630764
1433977581.198,-12.570499
1433977581.214,-12.276661
1433977581.229,-11.883583
1433977581.245,-11.539646
1433977581.261,-11.338078
1433977581.276,-11.283272
1433977581.292,-11.281925
1433977581.308,-11.20562
1433977581.323,-10.942753
1433977581.339,-10.450283
1433977581.354,-9.761589
1433977581.37,-8.971867
1433977581.386,-8.189541
1433977581.401,-7.5139236
1433977581.417,-6.9801826
1433977581.433,-6.570751
1433977581.448,-6.2120895
1433977581.464,-5.8213234
1433977581.479,-5.330059
1433977581.495,-4.708
1433977581.511,-3.9645386
1433977581.526,-3.1321373
1433977581.542,-2.2304955
1433977581.558,-1.263073
1433977581.573,-0.18281174
1433977581.589,1.0277939
1433977581.604,2.346012
1433977581.62,3.6674118
1433977581.636,4.8570747
1433977581.651,5.811802
1433977581.667,6.547714
1433977581.683,7.19833
1433977581.698,7.9837112
1433977581.714,9.103188
1433977581.73,10.641804
1433977581.745,12.547115
1433977581.761,14.643574
1433977581.776,16.686012
1433977581.792,18.393147
1433977581.808,19.507687
1433977581.823,19.819733
1433977581.839,19.202255
1433977581.854,17.65208
1433977581.87,15.291183
1433977581.886,12.355888
1433977581.901,9.128983
1433977581.917,5.901371
1433977581.933,2.8875313
1433977581.948,0.24530411
1433977581.964,-1.972374
1433977581.98,-3.779953
1433977581.995,-5.26569
1433977582.011,-6.5217247
1433977582.026,-7.6274376
1433977582.042,-8.595066
1433977582.058,-9.399342
1433977582.073,-10.019619
1433977582.089,-10.467857
1433977582.105,-10.805096
1433977582.12,-11.105701
1433977582.136,-11.380878
1433977582.151,-11.577274
1433977582.167,-11.596783
1433977582.183,-11.388771
1433977582.198,-10.974365
1433977582.214,-10.479984
1433977582.23,-10.03484
1433977582.245,-9.730007
1433977582.261,-9.5603485
1433977582.276,-9.468861
1433977582.292,-9.384739
1433977582.308,-9.255543
1433977582.323,-9.02515
1433977582.339,-8.620548
1433977582.355,-7.958519
1433977582.37,-6.984993
1433977582.386,-5.741501
1433977582.401,-4.3715286
1433977582.417,-3.079815
1433977582.433,-2.0567932
1433977582.448,-1.4084091
1433977582.464,-1.1246071
1433977582.48,-1.0826797
1433977582.495,-1.121521
1433977582.511,-1.0296326
1433977582.526,-0.6362686
1433977582.542,0.16918945
1433977582.558,1.3816338
1433977582.573,2.8802757
1433977582.589,4.4544563
1433977582.605,5.878071
1433977582.62,7.0065994
1433977582.636,7.8161736
1433977582.651,8.398193
1433977582.667,8.922855
1433977582.683,9.557232
1433977582.698,10.451462
1433977582.714,11.680096
1433977582.73,13.218342
1433977582.745,14.900536
1433977582.761,16.45237
1433977582.776,17.516289
1433977582.792,17.793701
1433977582.808,17.132202
1433977582.823,15.563129
1433977582.839,13.283478
1433977582.855,10.566296
1433977582.87,7.6932373
1433977582.886,4.9108467
1433977582.901,2.414074
1433977582.917,0.3220253
1433977582.933,-1.3569336
1433977582.948,-2.7262611
1433977582.964,-3.974186
1433977582.98,-5.2455254
1433977582.995,-6.5929604
1433977583.011,-7.9087486
1433977583.026,-9.002369
1433977583.042,-9.707722
1433977583.058,-10.005287
1433977583.073,-9.987499
1433977583.089,-9.830719
1433977583.105,-9.690258
1433977583.12,-9.644508
1433977583.136,-9.688877
1433977583.151,-9.767868
1433977583.167,-9.814854
1433977583.183,-9.777798
1433977583.198,-9.624504
1433977583.214,-9.343704
1433977583.23,-8.938423
1433977583.245,-8.430496
1433977583.261,-7.8350677
1433977583.276,-7.187393
1433977583.292,-6.523102
1433977583.308,-5.8946342
1433977583.323,-5.3569374
1433977583.339,-4.9461823
1433977583.355,-4.6402473
1433977583.37,-4.3651123
1433977583.386,-4.021801
1433977583.401,-3.5391426
1433977583.417,-2.927864
1433977583.433,-2.2700233
1433977583.448,-1.6575127
1433977583.464,-1.1296768
1433977583.48,-0.6108742
1433977583.495,0.038646698
1433977583.511,0.9723339
1433977583.526,2.2462215
1433977583.542,3.8132305
1433977583.558,5.4980087
1433977583.573,7.091694
1433977583.589,8.418724
1433977583.605,9.429684
1433977583.62,10.204639
1433977583.636,10.958202
1433977583.651,11.913734
1433977583.667,13.194563
1433977583.683,14.739988
1433977583.698,16.309875
1433977583.714,17.572462
1433977583.73,18.230268
1433977583.745,18.117119
1433977583.761,17.203632
1433977583.776,15.591084
1433977583.792,13.438402
1433977583.808,10.926395
1433977583.823,8.245977
1433977583.839,5.5834045
1433977583.855,3.0928555
1433977583.87,0.8534565
1433977583.886,-1.1255169
1433977583.901,-2.8853512
1433977583.917,-4.446472
1433977583.933,-5.7773476
1433977583.948,-6.819929
1433977583.964,-7.551668
1433977583.98,-8.029589
1433977583.995,-8.391079
1433977584.011,-8.761173
1433977584.026,-9.177895
1433977584.042,-9.566675
1433977584.058,-9.814102
1433977584.073,-9.849306
1433977584.089,-9.717342
1433977584.105,-9.543762
1433977584.12,-9.473812
1433977584.136,-9.568562
1433977584.151,-9.775017
1433977584.167,-9.958227
1433977584.183,-9.993633
1433977584.198,-9.795271
1433977584.214,-9.368885
1433977584.23,-8.766029
1433977584.245,-8.078911
1433977584.261,-7.3861275
1433977584.276,-6.7375793
1433977584.292,-6.141819
1433977584.308,-5.560938
1433977584.323,-4.947361
1433977584.339,-4.2680244
1433977584.355,-3.5376282
1433977584.37,-2.8258
1433977584.386,-2.1972733
1433977584.401,-1.7005978
1433977584.417,-1.3072481
1433977584.433,-0.93146133
1433977584.448,-0.46229076
1433977584.464,0.17852402
1433977584.48,1.0270882
1433977584.495,2.056593
1433977584.511,3.198697
1433977584.526,4.380701
1433977584.542,5.539196
1433977584.558,6.618457
1433977584.573,7.582947
1433977584.589,8.41669
1433977584.605,9.1388035
1433977584.62,9.795854
1433977584.636,10.493733
1433977584.652,11.359888
1433977584.667,12.502794
1433977584.683,13.907575
1433977584.698,15.408854
1433977584.714,16.694847
1433977584.73,17.44138
1433977584.745,17.412733
1433977584.761,16.593199
1433977584.777,15.149818
1433977584.792,13.329735
1433977584.808,11.3232
1433977584.823,9.203627
1433977584.839,6.9513073
1433977584.855,4.5657754
1433977584.87,2.1103845
1433977584.886,-0.2661767
1433977584.902,-2.4254608
1433977584.917,-4.2804193
1433977584.933,-5.805524
1433977584.948,-6.9828753
1433977584.964,-7.779434
1433977584.98,-8.142771
1433977584.995,-8.092106
1433977585.011,-7.752499
1433977585.027,-7.361369
1433977585.042,-7.143693
1433977585.058,-7.233925
1433977585.073,-7.6085186
1433977585.089,-8.1246395
1433977585.105,-8.601103
1433977585.12,-8.917507
1433977585.136,-9.024633
1433977585.152,-8.932217
1433977585.167,-8.664412
1433977585.183,-8.261755
1433977585.198,-7.773856
1433977585.214,-7.272736
1433977585.23,-6.826621
1433977585.245,-6.4736853
1433977585.261,-6.1911044
1433977585.277,-5.9200153
1433977585.292,-5.5859327
1433977585.308,-5.1549954
1433977585.323,-4.618167
1433977585.339,-3.9926083
1433977585.355,-3.2900796
1433977585.37,-2.5435007
1433977585.386,-1.7847354
1433977585.402,-1.0846125
1433977585.417,-0.5095465
1433977585.433,-0.08751345
1433977585.448,0.23432732
1433977585.464,0.5705266
1433977585.48,1.0700414
1433977585.495,1.8171563
1433977585.511,2.8103096
1433977585.527,3.9601378
1433977585.542,5.140393
1433977585.558,6.2285995
1433977585.573,7.1863055
1433977585.589,8.036985
1433977585.605,8.863537
1433977585.62,9.773987
1433977585.636,10.852216
1433977585.652,12.13435
1433977585.667,13.593372
1433977585.683,15.117771
1433977585.698,16.532057
1433977585.714,17.609081
1433977585.73,18.114542
1433977585.745,17.855005
1433977585.761,16.754896
1433977585.777,14.856417
1433977585.792,12.341925
1433977585.808,9.475672
1433977585.823,6.541214
1433977585.839,3.7890224
1433977585.855,1.400732
1433977585.87,-0.5682268
1433977585.886,-2.1474595
1433977585.902,-3.4498892
1433977585.917,-4.596864
1433977585.933,-5.675809
1433977585.948,-6.68669
1433977585.964,-7.572615
1433977585.98,-8.24328
1433977585.995,-8.662418
1433977586.011,-8.870598
1433977586.027,-8.965034
1433977586.042,-9.036564
1433977586.058,-9.121191
1433977586.073,-9.155008
1433977586.089,-9.063592
1433977586.105,-8.821702
1433977586.12,-8.509323
1433977586.136,-8.262866
1433977586.152,-8.190832
1433977586.167,-8.281765
1433977586.183,-8.414696
1433977586.198,-8.423128
1433977586.214,-8.215736
1433977586.23,-7.8193254
1433977586.245,-7.3559504
1433977586.261,-6.9222383
1433977586.277,-6.5339584
1433977586.292,-6.086405
1433977586.308,-5.4617777
1433977586.323,-4.6113663
1433977586.339,-3.609249
1433977586.355,-2.6015577
1433977586.37,-1.7316208
1433977586.386,-1.0627575
1433977586.402,-0.57364845
1433977586.417,-0.19072914
1433977586.433,0.15587044
1433977586.448,0.5312424
1433977586.464,0.9881668
1433977586.48,1.5965624
1433977586.495,2.4145489
1433977586.511,3.457693
1433977586.527,4.6576147
1433977586.542,5.89719
1433977586.558,7.0456905
1433977586.573,8.047921
1433977586.589,8.944944
1433977586.605,9.8555565
1433977586.62,10.895647
1433977586.636,12.116046
1433977586.652,13.48209
1433977586.667,14.881048
1433977586.683,16.164356
1433977586.698,17.196823
1433977586.714,17.846169
1433977586.73,18.007576
1433977586.745,17.593475
1433977586.761,16.539341
1433977586.777,14.821271
1433977586.792,12.50898
1433977586.808,9.752227
1433977586.823,6.8016624
1433977586.839,3.9338598
1433977586.855,1.3871212
1433977586.87,-0.72024727
1433977586.886,-2.3986073
1433977586.902,-3.760664
1433977586.917,-4.941619
1433977586.933,-6.0170403
1433977586.948,-6.987751
1433977586.964,-7.80309
1433977586.98,-8.406419
1433977586.995,-8.790241
1433977587.011,-8.983704
1433977587.027,-9.062745
1433977587.042,-9.090715
1433977587.058,-9.114396
1433977587.073,-9.15558
1433977587.089,-9.238941
1433977587.105,-9.3759365
1433977587.12,-9.573948
1433977587.136,-9.816887
1433977587.152,-10.067452
1433977587.167,-10.268536
1433977587.183,-10.377467
1433977587.198,-10.348011
1433977587.214,-10.166981
1433977587.23,-9.837948
1433977587.245,-9.379452
1433977587.261,-8.820923
1433977587.277,-8.204171
1433977587.292,-7.5444336
1433977587.308,-6.86364
1433977587.324,-6.153925
1433977587.339,-5.415247
1433977587.355,-4.665145
1433977587.37,-3.9480667
1433977587.386,-3.2972984
1433977587.402,-2.7265558
1433977587.417,-2.2128725
1433977587.433,-1.6990232
1433977587.449,-1.1318197
1433977587.464,-0.49566746
1433977587.48,0.1787672
1433977587.495,0.8359852
1433977587.511,1.4315739
1433977587.527,1.957591
1433977587.542,2.4563046
1433977587.558,2.9826527
1433977587.574,3.6262531
1433977587.589,4.449831
1433977587.605,5.486107
1433977587.62,6.693281
1433977587.636,7.969101
1433977587.652,9.154139
1433977587.667,10.117514
1433977587.683,10.82395
1433977587.699,11.37652
1433977587.714,11.983898
1433977587.73,12.866047
1433977587.745,14.1310215
1433977587.761,15.701763
1433977587.777,17.312866
1433977587.792,18.611189
1433977587.808,19.257544
1433977587.824,19.03083
1433977587.839,17.850039
1433977587.855,15.799551
1433977587.87,13.075996
1433977587.886,9.95307
1433977587.902,6.7458916
1433977587.917,3.7484512
1433977587.933,1.1742496
1433977587.949,-0.86886215
1433977587.964,-2.405634
1433977587.98,-3.5746498
1433977587.995,-4.551203
1433977588.011,-5.4868298
1433977588.027,-6.447913
1433977588.042,-7.384012
1433977588.058,-8.186748
1433977588.074,-8.74775
1433977588.089,-9.022354
1433977588.105,-9.059087
1433977588.12,-8.979447
1433977588.136,-8.897094
1433977588.152,-8.899578
1433977588.167,-9.005111
1433977588.183,-9.182407
1433977588.199,-9.366122
1433977588.214,-9.502977
1433977588.23,-9.5452585
1433977588.245,-9.468723
1433977588.261,-9.273544
1433977588.277,-8.977522
1433977588.292,-8.616976
1433977588.308,-8.222572
1433977588.324,-7.7960157
1433977588.339,-7.341902
1433977588.355,-6.856104
1433977588.37,-6.3586445
1433977588.386,-5.8781595
1433977588.402,-5.423106
1433977588.417,-4.950261
1433977588.433,-4.3908205
1433977588.449,-3.6923418
1433977588.464,-2.8703442
1433977588.48,-2.015994
1433977588.495,-1.2459335
1433977588.511,-0.6055765
1433977588.527,-0.05072975
1433977588.542,0.5617943
1433977588.558,1.3587494
1433977588.574,2.3890724
1433977588.589,3.569069
1433977588.605,4.7452593
1433977588.62,5.745017
1433977588.636,6.4967537
1433977588.652,7.0402794
1433977588.667,7.4959116
1433977588.683,8.010061
1433977588.699,8.701626
1433977588.714,9.630537
1433977588.73,10.811366
1433977588.745,12.22519
1433977588.761,13.8121
1433977588.777,15.432924
1433977588.792,16.853168
1433977588.808,17.754192
1433977588.824,17.80522
1433977588.839,16.78772
1433977588.855,14.712832
1433977588.87,11.851191
1433977588.886,8.674402
1433977588.902,5.663806
1433977588.917,3.1547003
1433977588.933,1.230422
1433977588.949,-0.24288082
1433977588.964,-1.487113
1433977588.98,-2.681281
1433977588.995,-3.8964243
1433977589.011,-5.1065226
1433977589.027,-6.2460556
1433977589.042,-7.2499065
1433977589.058,-8.065783
1433977589.074,-8.622647
1433977589.089,-8.857749
1433977589.105,-8.732928
1433977589.12,-8.332278
1433977589.136,-7.8212337
1433977589.152,-7.413375
1433977589.167,-7.2449427
1433977589.183,-7.3336887
1433977589.199,-7.5570526
1433977589.214,-7.773163
1433977589.23,-7.877989
1433977589.245,-7.8443937
1433977589.261,-7.680626
1433977589.277,-7.3748264
1433977589.292,-6.860094
1433977589.308,-6.0757666
1433977589.324,-5.019418
1433977589.339,-3.8062096
1433977589.355,-2.6315126
1433977589.37,-1.69983
1433977589.386,-1.0961766
1433977589.402,-0.77994394
1433977589.417,-0.5865946
1433977589.433,-0.31989527
1433977589.449,0.17788506
1433977589.464,0.9750738
1433977589.48,2.0359912
1433977589.495,3.2642431
1433977589.511,4.5281506
1433977589.527,5.7231736
1433977589.542,6.811526
1433977589.558,7.828396
1433977589.574,8.869691
1433977589.589,10.038294
1433977589.605,11.413134
1433977589.62,12.969246
1433977589.636,14.587667
1433977589.652,16.042948
1433977589.667,17.069382
1433977589.683,17.40796
1433977589.699,16.907877
1433977589.714,15.547413
1433977589.73,13.46478
1433977589.745,10.8986225
1433977589.761,8.132916
1433977589.777,5.42596
1433977589.792,2.9701922
1433977589.808,0.8610712
1433977589.824,-0.8705492
1433977589.839,-2.2773416
1433977589.855,-3.4619691
1433977589.87,-4.57536
1433977589.886,-5.7242923
1433977589.902,-6.9379053
1433977589.917,-8.10635
1433977589.933,-9.041156
1433977589.949,-9.567137
1433977589.964,-9.64041
1433977589.98,-9.414021
1433977589.996,-9.149635
1433977590.011,-9.083023
1433977590.027,-9.296512
1433977590.042,-9.676616
1433977590.058,-10.005478
1433977590.074,-10.079107
1433977590.089,-9.839777
1433977590.105,-9.3501
1433977590.12,-8.748545
1433977590.136,-8.127056
1433977590.152,-7.49193
1433977590.167,-6.776903
1433977590.183,-5.9140906
1433977590.199,-4.886812
1433977590.214,-3.757987
1433977590.23,-2.6378984
1433977590.246,-1.6362171
1433977590.261,-0.79921436
1433977590.277,-0.10383129
1433977590.292,0.53580666
1433977590.308,1.2186031
1433977590.324,1.9999456
1433977590.339,2.8675327
1433977590.355,3.7615995
1433977590.371,4.617712
1433977590.386,5.445657
1433977590.402,6.322298
1433977590.417,7.3807716
1433977590.433,8.724489
1433977590.449,10.37471
1433977590.464,12.224893
1433977590.48,14.046243
1433977590.496,15.537178
1433977590.511,16.398544
1433977590.527,16.409416
1433977590.542,15.493887
1433977590.558,13.733557
1433977590.574,11.3834
1433977590.589,8.7684765
1433977590.605,6.2016945
1433977590.621,3.859911
1433977590.636,1.7686195
1433977590.652,-0.16096878
1433977590.667,-2.0367165
1433977590.683,-3.896181
1433977590.699,-5.6686325
1433977590.714,-7.226637
1433977590.73,-8.448429
1433977590.746,-9.283129
1433977590.761,-9.756241
1433977590.777,-9.958136
1433977590.792,-9.991604
1433977590.808,-9.942432
1433977590.824,-9.868731
1433977590.839,-9.810579
1433977590.855,-9.774006
1433977590.871,-9.767097
1433977590.886,-9.768269
1433977590.902,-9.755417
1433977590.917,-9.703865
1433977590.933,-9.609352
1433977590.949,-9.466738
1433977590.964,-9.259434
1433977590.98,-8.953165
1433977590.996,-8.512928
1433977591.011,-7.9159603
1433977591.027,-7.188963
1433977591.042,-6.3883305
1433977591.058,-5.57839
1433977591.074,-4.7927685
1433977591.089,-4.0246696
1433977591.105,-3.2199287
1433977591.121,-2.3321743
1433977591.136,-1.3351021
1433977591.152,-0.24947548
1433977591.167,0.8843384
1433977591.183,2.0172043
1433977591.199,3.121292
1433977591.214,4.191921
1433977591.23,5.229803
1433977591.246,6.2455196
1433977591.261,7.2746525
1433977591.277,8.374496
1433977591.292,9.618742
1433977591.308,11.050198
1433977591.324,12.627211
1433977591.339,14.175566
1433977591.355,15.406387
1433977591.371,15.990063
1433977591.386,15.671158
1433977591.402,14.383646
1433977591.417,12.283356
1433977591.433,9.695711
1433977591.449,6.9766426
1433977591.464,4.403944
1433977591.48,2.084406
1433977591.496,-0.017505646
1433977591.511,-1.9733219
1433977591.527,-3.8072605
1433977591.542,-5.438425
1433977591.558,-6.7366886
1433977591.574,-7.598198
1433977591.589,-8.030033
1433977591.605,-8.137981
1433977591.621,-8.094784
1433977591.636,-8.041477
1433977591.652,-8.050503
1433977591.667,-8.108547
1433977591.683,-8.16164
1433977591.699,-8.14827
1433977591.714,-8.0564995
1433977591.73,-7.917797
1433977591.746,-7.793453
1433977591.761,-7.709633
1433977591.777,-7.643631
1433977591.792,-7.5100746
1433977591.808,-7.210663
1433977591.824,-6.6905365
1433977591.839,-5.960655
1433977591.855,-5.107891
1433977591.871,-4.2330513
1433977591.886,-3.3893127
1433977591.902,-2.5627098
1433977591.917,-1.6823578
1433977591.933,-0.6802139
1433977591.949,0.4800682
1433977591.964,1.7648468
1433977591.98,3.1245918
1433977591.996,4.5061684
1433977592.011,5.8851357
1433977592.027,7.246605
1433977592.042,8.589401
1433977592.058,9.883793
1433977592.074,11.092442
1433977592.089,12.153271
1433977592.105,12.971409
1433977592.121,13.411911
1433977592.136,13.337379
1433977592.152,12.637787
1433977592.167,11.303265
1433977592.183,9.434761
1433977592.199,7.231888
1433977592.214,4.9056816
1433977592.23,2.6115265
1433977592.246,0.40512085
1433977592.261,-1.6981735
1433977592.277,-3.6996002
1433977592.292,-5.544571
1433977592.308,-7.1392097
1433977592.324,-8.415916
1433977592.339,-9.368046
1433977592.355,-10.062309
1433977592.371,-10.599228
1433977592.386,-11.031826
1433977592.402,-11.35215
1433977592.417,-11.494595
1433977592.433,-11.43029
1433977592.449,-11.186272
1433977592.464,-10.875256
1433977592.48,-10.610149
1433977592.496,-10.459232
1433977592.511,-10.3962555
1433977592.527,-10.3225975
1433977592.542,-10.1221695
1433977592.558,-9.734756
1433977592.574,-9.1713295
1433977592.589,-8.484097
1433977592.605,-7.7236443
1433977592.621,-6.919529
1433977592.636,-6.0684013
1433977592.652,-5.178982
1433977592.668,-4.281086
1433977592.683,-3.4075851
1433977592.699,-2.5882835
1433977592.714,-1.8082924
1433977592.73,-1.0019417
1433977592.746,-0.10031128
1433977592.761,0.9500122
1433977592.777,2.1465378
1433977592.792,3.4103546
1433977592.808,4.6403694
1433977592.824,5.748581
1433977592.839,6.701748
1433977592.855,7.5517654
1433977592.871,8.415333
1433977592.886,9.437916
1433977592.902,10.718067
1433977592.918,12.287968
1433977592.933,14.05529
1433977592.949,15.825905
1433977592.964,17.327839
1433977592.98,18.29256
1433977592.996,18.512085
1433977593.011,17.891869
1433977593.027,16.44579
1433977593.043,14.296776
1433977593.058,11.626507
1433977593.074,8.668137
1433977593.089,5.652233
1433977593.105,2.8014107
1433977593.121,0.27425003
1433977593.136,-1.849781
1433977593.152,-3.609459
1433977593.168,-5.123745
1433977593.183,-6.512657
1433977593.199,-7.818413
1433977593.214,-8.964748
1433977593.23,-9.784355
1433977593.246,-10.165138
1433977593.261,-10.122635
1433977593.277,-9.826969
1433977593.293,-9.530331
1433977593.308,-9.416409
1433977593.324,-9.508518
1433977593.339,-9.69595
1433977593.355,-9.817768
1433977593.371,-9.799797
1433977593.386,-9.688992
1433977593.402,-9.612427
1433977593.418,-9.6455
1433977593.433,-9.737198
1433977593.449,-9.727669
1433977593.464,-9.430599
1433977593.48,-8.762222
1433977593.496,-7.7959957
1433977593.511,-6.7015724
1433977593.527,-5.6451187
1433977593.543,-4.6992664
1433977593.558,-3.8435707
1433977593.574,-2.9792137
1433977593.589,-2.0329895
1433977593.605,-0.9806595
1433977593.621,0.108285904
1433977593.636,1.1516056
1433977593.652,2.061798
1433977593.668,2.8241463
1433977593.683,3.4831905
1433977593.699,4.1214657
1433977593.714,4.831209
1433977593.73,5.6980534
1433977593.746,6.7709618
1433977593.761,8.083841
1433977593.777,9.631371
1433977593.793,11.356167
1433977593.808,13.12401
1433977593.824,14.732769
1433977593.839,15.920391
1433977593.855,16.455671
1433977593.871,16.17695
1433977593.886,15.054613
1433977593.902,13.170437
1433977593.918,10.715775
1433977593.933,7.9444942
1433977593.949,5.128107
1433977593.964,2.513855
1433977593.98,0.27745247
1433977593.996,-1.5205631
1433977594.011,-2.9442558
1433977594.027,-4.1345463
1433977594.043,-5.236992
1433977594.058,-6.331959
1433977594.074,-7.3971233
1433977594.089,-8.338001
1433977594.105,-9.043434
1433977594.121,-9.475548
1433977594.136,-9.644119
1433977594.152,-9.62759
1433977594.168,-9.494198
1433977594.183,-9.305334
1433977594.199,-9.105101
1433977594.214,-8.945534
1433977594.23,-8.859493
1433977594.246,-8.869465
1433977594.261,-8.951937
1433977594.277,-9.029165
1433977594.293,-9.017246
1433977594.308,-8.837021
1433977594.324,-8.438614
1433977594.339,-7.8331203
1433977594.355,-7.07489
1433977594.371,-6.2359467
1433977594.386,-5.3702908
1433977594.402,-4.512327
1433977594.418,-3.6704483
1433977594.433,-2.8735638
1433977594.449,-2.1692371
1433977594.464,-1.6124706
1433977594.48,-1.2118168
1433977594.496,-0.8923292
1433977594.511,-0.48095894
1433977594.527,0.20136261
1433977594.543,1.2562132
1433977594.558,2.629695
1433977594.574,4.1124125
1433977594.589,5.4510927
1433977594.605,6.487879
1433977594.621,7.2398643
1433977594.636,7.904808
1433977594.652,8.732009
1433977594.668,9.892271
1433977594.683,11.381037
1433977594.699,13.060316
1433977594.714,14.70664
1433977594.73,16.132381
1433977594.746,17.186882
1433977594.761,17.739578
1433977594.777,17.688597
1433977594.793,16.946766
1433977594.808,15.495206
1433977594.824,13.429894
1433977594.839,10.9577
1433977594.855,8.333612
1433977594.871,5.7837925
1433977594.886,3.4496489
1433977594.902,1.3582797
1433977594.918,-0.5102453
1433977594.933,-2.19869
1433977594.949,-3.7239456
1433977594.964,-5.0777164
1433977594.98,-6.2436547
1433977594.996,-7.232295
1433977595.011,-8.055885
1433977595.027,-8.728279
1433977595.043,-9.243077
1433977595.058,-9.5870285
1433977595.074,-9.7414055
1433977595.089,-9.727404
1433977595.105,-9.599229
1433977595.121,-9.453417
1433977595.136,-9.369457
1433977595.152,-9.397741
1433977595.168,-9.509018
1433977595.183,-9.633442
1433977595.199,-9.684985
1433977595.214,-9.603674
1433977595.23,-9.368031
1433977595.246,-8.949545
1433977595.261,-8.321686
1433977595.277,-7.4535666
1433977595.293,-6.3486376
1433977595.308,-5.108237
1433977595.324,-3.9099922
1433977595.339,-2.9639907
1433977595.355,-2.3974566
1433977595.371,-2.2063675
1433977595.386,-2.2354825
1433977595.402,-2.272077
1433977595.418,-2.1278765
1433977595.433,-1.7090598
1433977595.449,-0.995741
1433977595.464,-0.015843987
1433977595.48,1.2064595
1433977595.496,2.6253035
1433977595.511,4.1389637
1433977595.527,5.5903344
1433977595.543,6.811201
1433977595.558,7.7063723
1433977595.574,8.326055
1433977595.59,8.847759
1433977595.605,9.492111
1433977595.621,10.409045
1433977595.636,11.634396
1433977595.652,13.04311
1433977595.668,14.452382
1433977595.683,15.660882
1433977595.699,16.511759
1433977595.715,16.902023
1433977595.73,16.763527
1433977595.746,16.049765
1433977595.761,14.739673
1433977595.777,12.872122
1433977595.793,10.5566025
1433977595.808,7.9595685
1433977595.824,5.296248
1433977595.84,2.7497692
1433977595.855,0.46276474
1433977595.871,-1.5212979
1433977595.886,-3.2009554
1433977595.902,-4.601301
1433977595.918,-5.733404
1433977595.933,-6.598074
1433977595.949,-7.2075243
1433977595.965,-7.618351
1433977595.98,-7.9322586
1433977595.996,-8.239089
1433977596.011,-8.566707
1433977596.027,-8.863943
1433977596.043,-9.033273
1433977596.058,-8.994066
1433977596.074,-8.749617
1433977596.09,-8.388508
1433977596.105,-8.0211735
1433977596.121,-7.7447824
1433977596.136,-7.5847893
1433977596.152,-7.5164003
1433977596.168,-7.4819794
1433977596.183,-7.413518
1433977596.199,-7.2262487
1433977596.215,-6.844075
1433977596.23,-6.227396
1433977596.246,-5.4111023
1433977596.261,-4.532089
1433977596.277,-3.76791
1433977596.293,-3.2460232
1433977596.308,-2.9574184
1433977596.324,-2.7462854
1433977596.34,-2.3905697
1433977596.355,-1.7063618
1433977596.371,-0.6622553
1433977596.386,0.6372299
1433977596.402,1.9964085
1433977596.418,3.2414036
1433977596.433,4.281432
1433977596.449,5.1236506
1433977596.465,5.853565
1433977596.48,6.598089
1433977596.496,7.470187
1433977596.511,8.550333
1433977596.527,9.855909
1433977596.543,11.311568
1433977596.558,12.769982
1433977596.574,14.036932
1433977596.59,14.898923
1433977596.605,15.187654
1433977596.621,14.798453
1433977596.636,13.731497
1433977596.652,12.083767
1433977596.668,10.0465
1433977596.683,7.838173
1433977596.699,5.658499
1433977596.715,3.6251469
1433977596.73,1.762722
1433977596.746,0.027478218
1433977596.761,-1.6276245
1433977596.777,-3.1967793
1433977596.793,-4.6307554
1433977596.808,-5.8473206
1433977596.824,-6.794836
1433977596.84,-7.4605503
1433977596.855,-7.8723354
1433977596.871,-8.082493
1433977596.886,-8.134733
1433977596.902,-8.088663
1433977596.918,-8.006531
1433977596.933,-7.975382
1433977596.949,-8.048788
1433977596.965,-8.263325
1433977596.98,-8.566494
1433977596.996,-8.858263
1433977597.011,-9.019154
1433977597.027,-8.949537
1433977597.043,-8.615631
1433977597.058,-8.053165
1433977597.074,-7.347189
1433977597.09,-6.585371
1433977597.105,-5.8417397
1433977597.121,-5.1493587
1433977597.136,-4.4974003
1433977597.152,-3.878584
1433977597.168,-3.2657547
1433977597.183,-2.6578827
1433977597.199,-2.0352154
1433977597.215,-1.3730412
1433977597.23,-0.6213875
1433977597.246,0.24949646
1433977597.261,1.2434082
1433977597.277,2.3186836
1433977597.293,3.4201126
1433977597.308,4.512785
1433977597.324,5.5950584
1433977597.34,6.6830673
1433977597.355,7.776972
1433977597.371,8.836021
1433977597.386,9.793053
1433977597.402,10.623129
1433977597.418,11.399965
1433977597.433,12.267754
1433977597.449,13.388174
1433977597.465,14.78055
1433977597.48,16.277998
1433977597.496,17.516832
1433977597.511,18.097881
1433977597.527,17.730173
1433977597.543,16.366003
1433977597.558,14.193302
1433977597.574,11.539707
1433977597.59,8.746222
1433977597.605,6.0564938
1433977597.621,3.57522
1433977597.636,1.3117542
1433977597.652,-0.7762413
1433977597.668,-2.7005177
1433977597.683,-4.4623203
1433977597.699,-6.0086
1433977597.715,-7.3067265
1433977597.73,-8.334494
1433977597.746,-9.107496
1433977597.761,-9.669102
1433977597.777,-10.085091
1433977597.793,-10.409548
1433977597.808,-10.678038
1433977597.824,-10.889233
1433977597.84,-11.021111
1433977597.855,-11.04331
1433977597.871,-10.950104
1433977597.886,-10.754515
1433977597.902,-10.499224
1433977597.918,-10.232969
1433977597.933,-9.994839
1433977597.949,-9.786457
1433977597.965,-9.585865
1433977597.98,-9.319183
1433977597.996,-8.927933
1433977598.011,-8.390831
1433977598.027,-7.7625103
1433977598.043,-7.1470222
1433977598.058,-6.6386986
1433977598.074,-6.247238
1433977598.09,-5.8914967
1433977598.105,-5.436392
1433977598.121,-4.7891254
1433977598.136,-3.9428177
1433977598.152,-3.010456
1433977598.168,-2.1094017
1433977598.183,-1.3129292
1433977598.199,-0.5872688
1433977598.215,0.14015579
1433977598.23,0.9251518
1433977598.246,1.7450447
1433977598.262,2.5403843
1433977598.277,3.260149
1433977598.293,3.9348755
1433977598.308,4.658516
1433977598.324,5.518463
1433977598.34,6.53117
1433977598.355,7.63566
1433977598.371,8.72249
1433977598.387,9.7263775
1433977598.402,10.661415
1433977598.418,11.616194
1433977598.433,12.688263
1433977598.449,13.965406
1433977598.465,15.444393
1433977598.48,17.02824
1433977598.496,18.488352
1433977598.512,19.520184
1433977598.527,19.7963
1433977598.543,19.093777
1433977598.558,17.385963
1433977598.574,14.86314
1433977598.59,11.890827
1433977598.605,8.851576
1433977598.621,6.0200043
1433977598.637,3.5268364
1433977598.652,1.3466148
1433977598.668,-0.5791187
1433977598.683,-2.306654
1433977598.699,-3.8300648
1433977598.715,-5.1400166
1433977598.73,-6.21492
1433977598.746,-7.0719757
1433977598.762,-7.7448635
1433977598.777,-8.275885
1433977598.793,-8.6945095
1433977598.808,-9.022125
1433977598.824,-9.253483
1433977598.84,-9.386417
1433977598.855,-9.435085
1433977598.871,-9.450546
1433977598.887,-9.506004
1433977598.902,-9.651815
1433977598.918,-9.876732
1433977598.933,-10.104261
1433977598.949,-10.205149
1433977598.965,-10.082855
1433977598.98,-9.703461
1433977598.996,-9.135113
1433977599.012,-8.4625435
1433977599.027,-7.7676506
1433977599.043,-7.062628
1433977599.058,-6.318865
1433977599.074,-5.5091934
1433977599.09,-4.6596127
1433977599.105,-3.8518486
1433977599.121,-3.1851845
1433977599.137,-2.7111092
1433977599.152,-2.396984
1433977599.168,-2.1242294
1433977599.183,-1.7450504
1433977599.199,-1.1321144
1433977599.215,-0.25173378
1433977599.23,0.83823013
1433977599.246,2.0108547
1433977599.262,3.1437855
1433977599.277,4.1584396
1433977599.293,5.063278
1433977599.308,5.907097
1433977599.324,6.7498894
1433977599.34,7.625559
1433977599.355,8.545158
1433977599.371,9.511658
1433977599.387,10.560461
1433977599.402,11.715599
1433977599.418,12.965073
1433977599.433,14.177223
1433977599.449,15.133717
1433977599.465,15.576914
1433977599.48,15.320892
1433977599.496,14.315165
1433977599.512,12.678209
1433977599.527,10.617155
1433977599.543,8.349468
1433977599.558,6.0270424
1433977599.574,3.7423763
1433977599.59,1.5417957
1433977599.605,-0.5463581
1433977599.621,-2.4806767
1433977599.637,-4.207638
1433977599.652,-5.6694984
1433977599.668,-6.8165874
1433977599.683,-7.610018
1433977599.699,-8.047682
1433977599.715,-8.171062
1433977599.73,-8.061241
1433977599.746,-7.8411846
1433977599.762,-7.615816
1433977599.777,-7.4683094
1433977599.793,-7.4270935
1433977599.808,-7.4736233
1433977599.824,-7.5563965
1433977599.84,-7.6326733
1433977599.855,-7.685726
1433977599.871,-7.7271843
1433977599.887,-7.7673054
1433977599.902,-7.7829247
1433977599.918,-7.6771793
1433977599.933,-7.3510933
1433977599.949,-6.7295055
1433977599.965,-5.8511314
1433977599.98,-4.8655243
1433977599.996,-3.977419
1433977600.012,-3.3242474
1433977600.027,-2.8987885
1433977600.043,-2.5461216
1433977600.058,-2.0515747
1433977600.074,-1.2659683
1433977600.09,-0.18008041
1433977600.105,1.0843315
1433977600.121,2.3563862
1433977600.137,3.5292072
1433977600.152,4.5800724
1433977600.168,5.5303955
1433977600.183,6.398596
1433977600.199,7.177883
1433977600.215,7.8794937
1433977600.23,8.604246
1433977600.246,9.513489
1433977600.262,10.77136
1433977600.277,12.428604
1433977600.293,14.345135
1433977600.308,16.224487
1433977600.324,17.719711
1433977600.34,18.534071
1433977600.355,18.501518
1433977600.371,17.59407
1433977600.387,15.891907
1433977600.402,13.539593
1433977600.418,10.760962
1433977600.433,7.811014
1433977600.449,4.975691
1433977600.465,2.4889011
1433977600.48,0.46992683
1433977600.496,-1.1071243
1433977600.512,-2.378725
1433977600.527,-3.5206757
1433977600.543,-4.6626644
1433977600.558,-5.843199
1433977600.574,-6.9959393
1433977600.59,-7.988558
1433977600.605,-8.659654
1433977600.621,-8.896014
1433977600.637,-8.691289
1433977600.652,-8.147932
1433977600.668,-7.4673758
1433977600.683,-6.873822
1433977600.699,-6.516576
1433977600.715,-6.457431
1433977600.73,-6.639387
1433977600.746,-6.942953
1433977600.762,-7.2130356
1433977600.777,-7.2893333
1433977600.793,-7.0560513
1433977600.808,-6.463771
1433977600.824,-5.5643377
1433977600.84,-4.5176916
1433977600.855,-3.53197
1433977600.871,-2.7744217
1433977600.887,-2.262765
1433977600.902,-1.885395
1433977600.918,-1.4341636
1433977600.934,-0.7576475
1433977600.949,0.17928839
1433977600.965,1.2758417
1433977600.98,2.3709698
1433977600.996,3.346445
1433977601.012,4.191065
1433977601.027,4.9996667
1433977601.043,5.904338
1433977601.059,7.008667
1433977601.074,8.361609
1433977601.09,9.919544
1433977601.105,11.578058
1433977601.121,13.166086
1433977601.137,14.467651
1433977601.152,15.268697
1433977601.168,15.386732
1433977601.184,14.721739
1433977601.199,13.29084
1433977601.215,11.200423
1433977601.23,8.637922
1433977601.246,5.84303
1433977601.262,3.0776374
1433977601.277,0.58999157
1433977601.293,-1.4312651
1433977601.309,-2.916327
1433977601.324,-3.9172258
1433977601.34,-4.6100235
1433977601.355,-5.211124
1433977601.371,-5.892542
1433977601.387,-6.7200074
1433977601.402,-7.6551967
1433977601.418,-8.589033
1433977601.434,-9.410027
1433977601.449,-10.03653
1433977601.465,-10.443096
1433977601.48,-10.631814
1433977601.496,-10.625354
1433977601.512,-10.449781
1433977601.527,-10.13749
1433977601.543,-9.73086
1433977601.559,-9.292688
1433977601.574,-8.855383
1433977601.59,-8.441619
1433977601.605,-8.016055
1433977601.621,-7.534461
1433977601.637,-6.9539967
1433977601.652,-6.266473
1433977601.668,-5.5045567
1433977601.684,-4.7205667
1433977601.699,-3.9463787
1433977601.715,-3.1914911
1433977601.73,-2.4166927
1433977601.746,-1.5455723
1433977601.762,-0.5092983
1433977601.777,0.7116623
1433977601.793,2.0619698
1433977601.809,3.4039268
1433977601.824,4.5999317
1433977601.84,5.584852
1433977601.855,6.409725
1433977601.871,7.242832
1433977601.887,8.292383
1433977601.902,9.678259
1433977601.918,11.346867
1433977601.934,13.063704
1433977601.949,14.485296
1433977601.965,15.283754
1433977601.98,15.262001
1433977601.996,14.396269
1433977602.012,12.825813
1433977602.027,10.769169
1433977602.043,8.460625
1433977602.059,6.088064
1433977602.074,3.7945938
1433977602.09,1.6662064
1433977602.105,-0.2507038
1433977602.121,-1.9537373
1433977602.137,-3.4631996
1433977602.152,-4.793762
1433977602.168,-5.945326
1433977602.184,-6.8905582
1433977602.199,-7.582119
1433977602.215,-7.9984455
1433977602.23,-8.152605
1433977602.246,-8.101904
1433977602.262,-7.9152374
1433977602.277,-7.6623325
1433977602.293,-7.3610897
1433977602.309,-7.02289
1433977602.324,-6.6697865
1433977602.34,-6.3423595
1433977602.355,-6.112816
1433977602.371,-6.02232
1433977602.387,-6.038269
1433977602.402,-6.0562706
1433977602.418,-5.9405823
1433977602.434,-5.602928
1433977602.449,-5.0386543
1433977602.465,-4.3246307
1433977602.48,-3.5357246
1433977602.496,-2.692051
1433977602.512,-1.7526398
1433977602.527,-0.6835213
1433977602.543,0.48176193
1433977602.559,1.6195908
1433977602.574,2.606926
1433977602.59,3.4063034
1433977602.605,4.128212
1433977602.621,4.94038
1433977602.637,5.9392624
1433977602.652,7.0287704
1433977602.668,7.911499
1433977602.684,8.217098
1433977602.699,7.692707
1433977602.715,6.3368645
1433977602.73,4.4065437
1433977602.746,2.275528
1433977602.762,0.28074646
1433977602.777,-1.4257088
1433977602.793,-2.8565598
1433977602.809,-4.1231613
1433977602.824,-5.301674
1433977602.84,-6.399124
1433977602.855,-7.343586
1433977602.871,-8.076202
1433977602.887,-8.591751
1433977602.902,-8.960972
1433977602.918,-9.276577
1433977602.934,-9.585445
1433977602.949,-9.840279
1433977602.965,-9.936634
1433977602.98,-9.797909
1433977602.996,-9.435158
1433977603.012,-8.964935
1433977603.027,-8.537838
1433977603.043,-8.23875
1433977603.059,-8.064362
1433977603.074,-7.9071007
1433977603.09,-7.675331
1433977603.105,-7.3212395
1433977603.121,-6.8823395
1433977603.137,-6.398628
1433977603.152,-5.883522
1433977603.168,-5.274536
1433977603.184,-4.4892807
1433977603.199,-3.4908333
1433977603.215,-2.3143425
1433977603.23,-1.0598984
1433977603.246,0.15843964
1433977603.262,1.2807045
1433977603.277,2.3121834
1433977603.293,3.30365
1433977603.309,4.294792
1433977603.324,5.322052
1433977603.34,6.3799973
1433977603.355,7.482914
1433977603.371,8.631386
1433977603.387,9.84811
1433977603.402,11.099636
1433977603.418,12.288055
1433977603.434,13.241764
1433977603.449,13.733841
1433977603.465,13.559593
1433977603.48,12.600746
1433977603.496,10.911167
1433977603.512,8.704697
1433977603.527,6.3089676
1433977603.543,4.034424
1433977603.559,2.057663
1433977603.574,0.3835411
1433977603.59,-1.1236153
1433977603.606,-2.6222801
1433977603.621,-4.18544
1433977603.637,-5.7524834
1433977603.652,-7.1821938
1433977603.668,-8.316425
1433977603.684,-9.084583
1433977603.699,-9.488178
1433977603.715,-9.589493
1433977603.73,-9.446846
1433977603.746,-9.104855
1433977603.762,-8.596897
1433977603.777,-7.981041
1433977603.793,-7.338112
1433977603.809,-6.7662773
1433977603.824,-6.340523
1433977603.84,-6.083206
1433977603.856,-5.9776
1433977603.871,-5.9830437
1433977603.887,-6.024597
1433977603.902,-6.01342
1433977603.918,-5.843506
1433977603.934,-5.401161
1433977603.949,-4.5969276
1433977603.965,-3.415205
1433977603.981,-1.9450836
1433977603.996,-0.35485458
1433977604.012,1.1472111
1433977604.027,2.4063377
1433977604.043,3.363594
1433977604.059,4.0638065
1433977604.074,4.649662
1433977604.09,5.2899876
1433977604.106,6.1266747
1433977604.121,7.2178345
1433977604.137,8.552168
1433977604.152,10.025764
1433977604.168,11.491705
1433977604.184,12.756485
1433977604.199,13.620647
1433977604.215,13.887188
1433977604.231,13.428297
1433977604.246,12.212439
1433977604.262,10.349545
1433977604.277,8.050692
1433977604.293,5.5920563
1433977604.309,3.2156868
1433977604.324,1.0673923
1433977604.34,-0.8159523
1433977604.356,-2.4877758
1433977604.371,-4.0144634
1433977604.387,-5.4336376
1433977604.402,-6.7331905
1433977604.418,-7.8695374
1433977604.434,-8.800909
1433977604.449,-9.50316
1433977604.465,-9.977999
1433977604.481,-10.240803
1433977604.496,-10.310875
1433977604.512,-10.196709
1433977604.527,-9.907312
1433977604.543,-9.463932
1433977604.559,-8.934956
1433977604.574,-8.42046
1433977604.59,-8.039505
1433977604.606,-7.8655586
1433977604.621,-7.916641
1433977604.637,-8.092779
1433977604.652,-8.218666
1433977604.668,-8.100908
1433977604.684,-7.609421
1433977604.699,-6.7340565
1433977604.715,-5.615572
1433977604.731,-4.4548664
1433977604.746,-3.4310408
1433977604.762,-2.615305
1433977604.777,-1.9580259
1433977604.793,-1.3361988
1433977604.809,-0.6367159
1433977604.824,0.21177673
1433977604.84,1.1983328
1433977604.856,2.2558527
1433977604.871,3.289935
1433977604.887,4.2313166
1433977604.902,5.0517225
1433977604.918,5.7843685
1433977604.934,6.5174236
1433977604.949,7.374749
1433977604.965,8.486535
1433977604.981,9.938325
1433977604.996,11.731822
1433977605.012,13.770301
1433977605.027,15.831396
1433977605.043,17.611858
1433977605.059,18.773438
1433977605.074,19.043037
1433977605.09,18.280415
1433977605.106,16.557314
1433977605.121,14.106239
1433977605.137,11.274604
1433977605.152,8.387626
1433977605.168,5.6649103
1433977605.184,3.2034874
1433977605.199,1.0260072
1433977605.215,-0.8779874
1433977605.231,-2.5188663
1433977605.246,-3.9184134
1433977605.262,-5.1157646
1433977605.277,-6.1711273
1433977605.293,-7.115176
1433977605.309,-7.9293175
1433977605.324,-8.536925
1433977605.34,-8.881042
1433977605.356,-8.964827
1433977605.371,-8.896202
1433977605.387,-8.808869
1433977605.402,-8.80967
1433977605.418,-8.912308
1433977605.434,-9.065256
1433977605.449,-9.186218
1433977605.465,-9.245617
1433977605.481,-9.259624
1433977605.496,-9.2623625
1433977605.512,-9.246457
1433977605.527,-9.139541
1433977605.543,-8.828498
1433977605.559,-8.233862
1433977605.574,-7.2985563
1433977605.59,-6.059823
1433977605.606,-4.622567
1433977605.621,-3.1651056
1433977605.637,-1.88343
1433977605.652,-0.947155
1433977605.668,-0.40684175
1433977605.684,-0.15716839
1433977605.699,0.0402956
1433977605.715,0.46009827
1433977605.731,1.2681899
1433977605.746,2.441906
1433977605.762,3.8020582
1433977605.777,5.082403
1433977605.793,6.0920353
1433977605.809,6.784064
1433977605.824,7.2708635
1433977605.84,7.7569036
1433977605.856,8.454277
1433977605.871,9.493609
1433977605.887,10.8945465
1433977605.902,12.547668
1433977605.918,14.241179
1433977605.934,15.692992
1433977605.949,16.661674
1433977605.965,16.967525
1433977605.981,16.56936
1433977605.996,15.513857
1433977606.012,13.904576
1433977606.027,11.864245
1433977606.043,9.52405
1433977606.059,7.027857
1433977606.074,4.5479193
1433977606.09,2.2580948
1433977606.106,0.28092957
1433977606.121,-1.3487539
1433977606.137,-2.6705084
1433977606.152,-3.8030624
1433977606.168,-4.8588285
1433977606.184,-5.916835
1433977606.199,-6.975219
1433977606.215,-7.967079
1433977606.231,-8.778601
1433977606.246,-9.311342
1433977606.262,-9.51311
1433977606.277,-9.419903
1433977606.293,-9.120207
1433977606.309,-8.748488
1433977606.324,-8.405686
1433977606.34,-8.155736
1433977606.356,-8.001792
1433977606.371,-7.915842
1433977606.387,-7.8652925
1433977606.402,-7.8216486
1433977606.418,-7.7382507
1433977606.434,-7.5715885
1433977606.449,-7.2631855
1433977606.465,-6.7882814
1433977606.481,-6.1637697
1433977606.496,-5.451618
1433977606.512,-4.7237644
1433977606.528,-4.0289574
1433977606.543,-3.3894615
1433977606.559,-2.7831802
1433977606.574,-2.1763515
1433977606.59,-1.5196342
1433977606.606,-0.74027634
1433977606.621,0.20244789
1433977606.637,1.3144302
1433977606.653,2.5216846
1433977606.668,3.681364
1433977606.684,4.649374
1433977606.699,5.360588
1433977606.715,5.8450565
1433977606.731,6.2433205
1433977606.746,6.7218857
1433977606.762,7.41045
1433977606.778,8.364157
1433977606.793,9.593739
1433977606.809,11.045477
1433977606.824,12.632511
1433977606.84,14.206989
1433977606.856,15.544052
1433977606.871,16.381725
1433977606.887,16.510418
1433977606.903,15.84067
1433977606.918,14.479723
1433977606.934,12.65353
1433977606.949,10.629126
1433977606.965,8.594221
1433977606.981,6.61788
1433977606.996,4.6740036
1433977607.012,2.7269135
1433977607.028,0.7852669
1433977607.043,-1.0929317
1433977607.059,-2.797512
1433977607.074,-4.2201653
1433977607.09,-5.3048077
1433977607.106,-6.0361805
1433977607.121,-6.4647217
1433977607.137,-6.6739025
1433977607.153,-6.7673893
1433977607.168,-6.843315
1433977607.184,-6.9754143
1433977607.199,-7.18742
1433977607.215,-7.4784203
1433977607.231,-7.8081303
1433977607.246,-8.110706
1433977607.262,-8.29583
1433977607.278,-8.296555
1433977607.293,-8.066341
1433977607.309,-7.640169
1433977607.324,-7.1037693
1433977607.34,-6.5619335
1433977607.356,-6.0739384
1433977607.371,-5.6410847
1433977607.387,-5.2067566
1433977607.403,-4.7164745
1433977607.418,-4.1638775
1433977607.434,-3.6180534
1433977607.449,-3.133564
1433977607.465,-2.7095852
1433977607.481,-2.2500439
1433977607.496,-1.6105938
1433977607.512,-0.67206764
1433977607.528,0.5624275
1433977607.543,1.9524632
1433977607.559,3.2822342
1433977607.574,4.3714714
1433977607.59,5.157776
1433977607.606,5.732113
1433977607.621,6.2728367
1433977607.637,7.0004063
1433977607.653,8.0661545
1433977607.668,9.508862
1433977607.684,11.234041
1433977607.699,13.037033
1433977607.715,14.631195
1433977607.731,15.725647
1433977607.746,16.089521
1433977607.762,15.596733
1433977607.778,14.265223
1433977607.793,12.245823
1433977607.809,9.776167
1433977607.824,7.1373215
1433977607.84,4.57304
1433977607.856,2.25
1433977607.871,0.24427605
1433977607.887,-1.4428749
1433977607.903,-2.854496
1433977607.918,-4.020178
1433977607.934,-4.9871273
1433977607.949,-5.790041
1433977607.965,-6.4904957
1433977607.981,-7.1424236
1433977607.996,-7.8023014
1433977608.012,-8.467394
1433977608.028,-9.091833
1433977608.043,-9.592543
1433977608.059,-9.884312
1433977608.074,-9.928795
1433977608.09,-9.762913
1433977608.106,-9.477581
1433977608.121,-9.202841
1433977608.137,-9.039469
1433977608.153,-9.027048
1433977608.168,-9.118378
1433977608.184,-9.214243
1433977608.199,-9.15991
1433977608.215,-8.8549595
1433977608.231,-8.26903
1433977608.246,-7.456272
1433977608.262,-6.5234985
1433977608.278,-5.572399
1433977608.293,-4.657631
1433977608.309,-3.7999287
1433977608.324,-2.9990711
1433977608.34,-2.2685795
1433977608.356,-1.6371288
1433977608.371,-1.125164
1433977608.387,-0.70542717
1433977608.403,-0.3034668
1433977608.418,0.20081139
1433977608.434,0.9045391
1433977608.449,1.8677025
1433977608.465,3.0523129
1433977608.481,4.36755
1433977608.496,5.6696663
1433977608.512,6.827614
1433977608.528,7.765066
1433977608.543,8.504187
1433977608.559,9.164574
1433977608.574,9.931208
1433977608.59,10.967318
1433977608.606,12.32501
1433977608.621,13.884344
1433977608.637,15.391102
1433977608.653,16.517038
1433977608.668,16.98795
1433977608.684,16.644215
1433977608.699,15.493269
1433977608.715,13.664339
1433977608.731,11.369181
1433977608.746,8.828615
1433977608.762,6.264744
1433977608.778,3.8667316
1433977608.793,1.7812767
1433977608.809,0.07332611
1433977608.824,-1.2956238
1433977608.84,-2.4656067
1433977608.856,-3.6091118
1433977608.871,-4.8594055
1433977608.887,-6.2395897
1433977608.903,-7.6455
1433977608.918,-8.889019
1433977608.934,-9.783621
1433977608.949,-10.207645
1433977608.965,-10.169941
1433977608.981,-9.778654
1433977608.996,-9.210545
1433977609.012,-8.638922
1433977609.028,-8.188589
1433977609.043,-7.9089355
1433977609.059,-7.788702
1433977609.074,-7.7686977
1433977609.09,-7.782078
1433977609.106,-7.7781296
1433977609.121,-7.7447586
1433977609.137,-7.665142
1433977609.153,-7.5392265
1433977609.168,-7.348961
1433977609.184,-7.0893764
1433977609.2,-6.7519646
1433977609.215,-6.344095
1433977609.231,-5.8635006
1433977609.246,-5.3083954
1433977609.262,-4.6437225
1433977609.278,-3.833416
1433977609.293,-2.8569088
1433977609.309,-1.7357311
1433977609.325,-0.5338516
1433977609.34,0.64250755
1433977609.356,1.6902065
1433977609.371,2.5357265
1433977609.387,3.1790257
1433977609.403,3.6890144
1433977609.418,4.1831226
1433977609.434,4.7721195
1433977609.45,5.5285645
1433977609.465,6.444618
1433977609.481,7.4538097
1433977609.496,8.4637375
1433977609.512,9.4326725
1433977609.528,10.397238
1433977609.543,11.442219
1433977609.559,12.629971
1433977609.575,13.942732
1433977609.59,15.20808
1433977609.606,16.157791
1433977609.621,16.49494
1433977609.637,16.006598
1433977609.653,14.636604
1433977609.668,12.519051
1433977609.684,9.9163475
1433977609.7,7.1698895
1433977609.715,4.5778522
1433977609.731,2.327282
1433977609.746,0.45303917
1433977609.762,-1.1025562
1433977609.778,-2.4634647
1433977609.793,-3.707512
1433977609.809,-4.8587494
1433977609.825,-5.8806915
1433977609.84,-6.7267113
1433977609.856,-7.3763504
1433977609.871,-7.8509207
1433977609.887,-8.188499
1433977609.903,-8.423283
1433977609.918,-8.563828
1433977609.934,-8.614105
1433977609.95,-8.589558
1433977609.965,-8.540517
1433977609.981,-8.525218
1433977609.996,-8.591017
1433977610.012,-8.721105
1433977610.028,-8.82791
1433977610.043,-8.804791
1433977610.059,-8.595439
1433977610.075,-8.200282
1433977610.09,-7.698908
1433977610.106,-7.19154
1433977610.121,-6.742016
1433977610.137,-6.3391075
1433977610.153,-5.9086056
1433977610.168,-5.3492155
1433977610.184,-4.6125994
1433977610.2,-3.7317362
1433977610.215,-2.8288794
1433977610.231,-2.0516415
1433977610.246,-1.4928493
1433977610.262,-1.0933647
1433977610.278,-0.70168114
1433977610.293,-0.10601711
1433977610.309,0.82293415
1433977610.325,2.0777369
1433977610.34,3.4992743
1433977610.356,4.8559074
1433977610.371,5.9546804
1433977610.387,6.726906
1433977610.403,7.2511616
1433977610.418,7.7101545
1433977610.434,8.310185
1433977610.45,9.195456
1433977610.465,10.397756
1433977610.481,11.831422
1433977610.496,13.295479
1433977610.512,14.527644
1433977610.528,15.263419
1433977610.543,15.311967
1433977610.559,14.593227
1433977610.575,13.162356
1433977610.59,11.178529
1433977610.606,8.834902
1433977610.621,6.328965
1433977610.637,3.8286724
1433977610.653,1.4581413
1433977610.668,-0.7090702
1433977610.684,-2.6245804
1433977610.7,-4.265623
1433977610.715,-5.613653
1433977610.731,-6.657914
1433977610.746,-7.3978004
1433977610.762,-7.8402224
1433977610.778,-8.034028
1433977610.793,-8.055565
1433977610.809,-8.00862
1433977610.825,-7.976014
1433977610.84,-8.013751
1433977610.856,-8.120429
1433977610.871,-8.254458
1433977610.887,-8.3533535
1433977610.903,-8.367621
1433977610.918,-8.287573
1433977610.934,-8.137994
1433977610.95,-7.976609
1433977610.965,-7.8597155
1433977610.981,-7.803934
1433977610.996,-7.7766094
1433977611.012,-7.681611
1433977611.028,-7.4207935
1433977611.043,-6.9232044
1433977611.059,-6.2105103
1433977611.075,-5.3557844
1433977611.09,-4.452323
1433977611.106,-3.574647
1433977611.121,-2.7462902
1433977611.137,-1.956871
1433977611.153,-1.1937962
1433977611.168,-0.46985626
1433977611.184,0.20967007
1433977611.2,0.87384796
1433977611.215,1.5820017
1433977611.231,2.3966389
1433977611.246,3.3439474
1433977611.262,4.383894
1433977611.278,5.4295635
1433977611.293,6.409005
1433977611.309,7.298131
1433977611.325,8.155102
1433977611.34,9.062457
1433977611.356,10.098662
1433977611.371,11.283635
1433977611.387,12.581801
1433977611.403,13.890703
1433977611.418,15.0631275
1433977611.434,15.922167
1433977611.45,16.292936
1433977611.465,16.031874
1433977611.481,15.077751
1433977611.496,13.468697
1433977611.512,11.343036
1433977611.528,8.918733
1433977611.543,6.423278
1433977611.559,4.047162
1433977611.575,1.925273
1433977611.59,0.079769135
1433977611.606,-1.5567083
1433977611.621,-3.115368
1433977611.637,-4.6900034
1433977611.653,-6.256809
1433977611.668,-7.6617184
1433977611.684,-8.687689
1433977611.7,-9.190708
1433977611.715,-9.2179985
1433977611.731,-9.005873
1433977611.746,-8.850466
1433977611.762,-8.943839
1433977611.778,-9.287872
1433977611.793,-9.715586
1433977611.809,-10.039804
1433977611.825,-10.147425
1433977611.84,-10.078414
1433977611.856,-9.948811
1433977611.872,-9.843701
1433977611.887,-9.749435
1433977611.903,-9.575438
1433977611.918,-9.232079
1433977611.934,-8.713339
1433977611.95,-8.096743
1433977611.965,-7.492111
1433977611.981,-6.9578304
1433977611.997,-6.4715314
1433977612.012,-5.9540615
1433977612.028,-5.3086867
1433977612.043,-4.491331
1433977612.059,-3.5514493
1433977612.075,-2.6077552
1433977612.09,-1.8144112
1433977612.106,-1.2657046
1433977612.122,-0.93477154
1433977612.137,-0.6657429
1433977612.153,-0.24714041
1433977612.168,0.48457623
1433977612.184,1.5436492
1433977612.2,2.80369
1433977612.215,4.0567107
1433977612.231,5.1319633
1433977612.247,5.9758463
1433977612.262,6.672381
1433977612.278,7.367442
1433977612.293,8.196478
1433977612.309,9.210658
1433977612.325,10.419441
1433977612.34,11.807462
1433977612.356,13.347847
1433977612.372,14.968096
1433977612.387,16.494549
1433977612.403,17.62257
1433977612.418,18.005554
1433977612.434,17.398785
1433977612.45,15.777798
1433977612.465,13.377829
1433977612.481,10.592909
1433977612.497,7.8008776
1433977612.512,5.2450433
1433977612.528,2.9770732
1433977612.543,0.93677425
1433977612.559,-0.95855
1433977612.575,-2.7041712
1433977612.59,-4.2478027
1433977612.606,-5.5229516
1433977612.622,-6.544318
1433977612.637,-7.411072
1433977612.653,-8.245304
1433977612.668,-9.114053
1433977612.684,-9.961113
1433977612.7,-10.622431
1433977612.715,-10.923307
1433977612.731,-10.776836
1433977612.747,-10.260796
1433977612.762,-9.576898
1433977612.778,-8.974173
1433977612.793,-8.626976
1433977612.809,-8.570213
1433977612.825,-8.709958
1433977612.84,-8.883617
1433977612.856,-8.951846
1433977612.872,-8.846218
1433977612.887,-8.565982
1433977612.903,-8.146423
1433977612.918,-7.622156
1433977612.934,-7.0094376
1433977612.95,-6.3153234
1433977612.965,-5.5494437
1433977612.981,-4.7166553
1433977612.997,-3.836635
1433977613.012,-2.9502497
1433977613.028,-2.1246676
1433977613.043,-1.4289985
1433977613.059,-0.9051094
1433977613.075,-0.48128414
1433977613.09,-0.012932301
1433977613.106,0.6757102
1433977613.122,1.6793947
1433977613.137,2.9431005
1433977613.153,4.2744746
1433977613.168,5.437465
1433977613.184,6.282594
1433977613.2,6.8280377
1433977613.215,7.2258883
1433977613.231,7.6896834
1433977613.247,8.377974
1433977613.262,9.364544
1433977613.278,10.628856
1433977613.293,12.101452
1433977613.309,13.667538
1433977613.325,15.146376
1433977613.34,16.294937
1433977613.356,16.83688
1433977613.372,16.537651
1433977613.387,15.300644
1433977613.403,13.217178
1433977613.418,10.53357
1433977613.434,7.571994
1433977613.45,4.6515555
1433977613.465,1.9980478
1433977613.481,-0.262825
1433977613.497,-2.1131744
1433977613.512,-3.598814
1433977613.528,-4.78984
1433977613.543,-5.746371
1433977613.559,-6.5145154
1433977613.575,-7.1134653
1433977613.59,-7.5665617
1433977613.606,-7.9111934
1433977613.622,-8.206945
1433977613.637,-8.493297
1433977613.653,-8.77989
1433977613.668,-9.020121
1433977613.684,-9.137825
1433977613.7,-9.06046
1433977613.715,-8.791199
1433977613.731,-8.4082775
1433977613.747,-8.043428
1433977613.762,-7.81379
1433977613.778,-7.765867
1433977613.793,-7.836897
1433977613.809,-7.8909993
1433977613.825,-7.7712803
1433977613.84,-7.367819
1433977613.856,-6.6646547
1433977613.872,-5.737749
1433977613.887,-4.726098
1433977613.903,-3.7791224
1433977613.918,-3.001739
1433977613.934,-2.4287076
1433977613.95,-2.0087118
1433977613.965,-1.6332016
1433977613.981,-1.1854148
1433977613.997,-0.59853745
1433977614.012,0.15148449
1433977614.028,1.0326104
1433977614.043,2.0038385
1433977614.059,3.0318317
1433977614.075,4.0906706
1433977614.09,5.142922
1433977614.106,6.13066
1433977614.122,7.0044255
1433977614.137,7.7730327
1433977614.153,8.522727
1433977614.168,9.407385
1433977614.184,10.546801
1433977614.2,11.953247
1433977614.215,13.47569
1433977614.231,14.851797
1433977614.247,15.796751
1433977614.262,16.133287
1433977614.278,15.809116
1433977614.293,14.89341
1433977614.309,13.482124
1433977614.325,11.655084
1433977614.34,9.480598
1433977614.356,7.0337095
1433977614.372,4.4483013
1433977614.387,1.9053502
1433977614.403,-0.41577435
1433977614.418,-2.4007506
1433977614.434,-4.03053
1433977614.45,-5.3598742
1433977614.465,-6.4655714
1433977614.481,-7.3824625
1433977614.497,-8.109852
1433977614.512,-8.622134
1433977614.528,-8.9249
1433977614.544,-9.059204
1433977614.559,-9.0981865
1433977614.575,-9.092527
1433977614.59,-9.06707
1433977614.606,-9.043424
1433977614.622,-9.030289
1433977614.637,-9.03719
1433977614.653,-9.062693
1433977614.668,-9.06497
1433977614.684,-8.992663
1433977614.7,-8.783176
1433977614.715,-8.408263
1433977614.731,-7.8879623
1433977614.747,-7.294273
1433977614.762,-6.69638
1433977614.778,-6.149918
1433977614.794,-5.652164
1433977614.809,-5.1803346
1433977614.825,-4.6899147
1433977614.84,-4.1210465
1433977614.856,-3.424413
1433977614.872,-2.5689492
1433977614.887,-1.5806644
1433977614.903,-0.5272138
1433977614.919,0.4693483
1433977614.934,1.3105179
1433977614.95,1.9899747
1433977614.965,2.5783281
1433977614.981,3.2036197
1433977614.997,3.9565833
1433977615.012,4.8580623
1433977615.028,5.853405
1433977615.044,6.887027
1433977615.059,7.933207
1433977615.075,9.042234
1433977615.09,10.2888775
1433977615.106,11.700661
1433977615.122,13.213151
1433977615.137,14.661785
1433977615.153,15.832894
1433977615.169,16.53315
1433977615.184,16.615618
1433977615.2,16.025898
1433977615.215,14.786965
1433977615.231,12.987269
1433977615.247,10.776941
1433977615.262,8.352349
1433977615.278,5.913261
1433977615.294,3.6287444
1433977615.309,1.5702157
1433977615.325,-0.2768893
1433977615.34,-1.9768816
1433977615.356,-3.5852356
1433977615.372,-5.0989256
1433977615.387,-6.4493566
1433977615.403,-7.5345736
1433977615.419,-8.298336
1433977615.434,-8.759237
1433977615.45,-9.007078
1433977615.465,-9.163513
1433977615.481,-9.306221
1433977615.497,-9.452969
1433977615.512,-9.5604725
1433977615.528,-9.576885
1433977615.544,-9.470489
1433977615.559,-9.260281
1433977615.575,-8.986137
1433977615.59,-8.690314
1433977615.606,-8.410742
1433977615.622,-8.154585
1433977615.637,-7.9242744
1433977615.653,-7.694584
1433977615.669,-7.4176435
1433977615.684,-7.0545955
1433977615.7,-6.558202
1433977615.715,-5.9248323
1433977615.731,-5.186839
1433977615.747,-4.4012957
1433977615.762,-3.607328
1433977615.778,-2.8025074
1433977615.794,-1.9279873
1433977615.809,-0.9296503
1433977615.825,0.20322156
1433977615.84,1.4093037
1433977615.856,2.5646849
1433977615.872,3.5437965
1433977615.887,4.3009853
1433977615.903,4.8721266
1433977615.919,5.358415
1433977615.934,5.8831115
1433977615.95,6.575027
1433977615.965,7.5309286
1433977615.981,8.824884
1433977615.997,10.4683275
1433977616.012,12.364801
1433977616.028,14.298996
1433977616.044,15.9447975
1433977616.059,16.948553
1433977616.075,17.055801
1433977616.09,16.181581
1433977616.106,14.43844
1433977616.122,12.083757
1433977616.137,9.431972
1433977616.153,6.7620907
1433977616.169,4.28502
1433977616.184,2.0858178
1433977616.2,0.18693686
1433977616.215,-1.4458685
1433977616.231,-2.867375
1433977616.247,-4.1273546
1433977616.262,-5.242563
1433977616.278,-6.205258
1433977616.294,-6.9992876
1433977616.309,-7.626295
1433977616.325,-8.112453
1433977616.34,-8.487837
1433977616.356,-8.765839
1433977616.372,-8.947616
1433977616.387,-9.010645
1433977616.403,-8.947909
1433977616.419,-8.773788
1433977616.434,-8.5458
1433977616.45,-8.323176
1433977616.465,-8.158567
1433977616.481,-8.046029
1433977616.497,-7.923834
1433977616.512,-7.683587
1433977616.528,-7.227709
1433977616.544,-6.5090523
1433977616.559,-5.591362
1433977616.575,-4.611332
1433977616.59,-3.7336712
1433977616.606,-3.0588598
1433977616.622,-2.5620499
1433977616.637,-2.104517
1433977616.653,-1.5197115
1433977616.669,-0.6855116
1433977616.684,0.38933086
1433977616.7,1.6103344
1433977616.715,2.863618
1433977616.731,4.092263
1433977616.747,5.307374
1433977616.762,6.5537214
1433977616.778,7.85373
1433977616.794,9.179629
1433977616.809,10.467174
1433977616.825,11.652112
1433977616.84,12.6665745
1433977616.856,13.438728
1433977616.872,13.843251
1433977616.887,13.732157
1433977616.903,12.9665785
1433977616.919,11.514282
1433977616.934,9.490072
1433977616.95,7.142663
1433977616.965,4.776325
1433977616.981,2.6291676
1433977616.997,0.7984724
1433977617.012,-0.7386608
1433977617.028,-2.1080675
1433977617.044,-3.4154692
1433977617.059,-4.728059
1433977617.075,-6.0255766
1433977617.09,-7.225209
1433977617.106,-8.222902
1433977617.122,-8.941923
1433977617.137,-9.343525
1433977617.153,-9.472147
1433977617.169,-9.402166
1433977617.184,-9.226143
1433977617.2,-9.006325
1433977617.216,-8.770672
1433977617.231,-8.521662
1433977617.247,-8.264727
1433977617.262,-8.024561
1433977617.278,-7.8469887
1433977617.294,-7.757435
1433977617.309,-7.7378616
1433977617.325,-7.7247887
1433977617.34,-7.6192055
1433977617.356,-7.3288345
1433977617.372,-6.8252506
1433977617.387,-6.125927
1433977617.403,-5.302496
1433977617.419,-4.4365253
1433977617.434,-3.5988293
1433977617.45,-2.834898
1433977617.466,-2.1453876
1433977617.481,-1.4913254
1433977617.497,-0.8120556
1433977617.512,-0.018444061
1433977617.528,0.9419174
1433977617.544,2.0996113
1433977617.559,3.407196
1433977617.575,4.768179
1433977617.591,6.052479
1433977617.606,7.1573925
1433977617.622,8.026264
1433977617.637,8.714581
1433977617.653,9.364483
1433977617.669,10.170706
1433977617.684,11.27684
1433977617.7,12.679005
1433977617.716,14.184753
1433977617.731,15.441542
1433977617.747,16.06044
1433977617.762,15.783564
1433977617.778,14.560787
1433977617.794,12.578907
1433977617.809,10.1518955
1433977617.825,7.5934105
1433977617.841,5.1271095
1433977617.856,2.8622303
1433977617.872,0.8349724
1433977617.887,-0.94986916
1433977617.903,-2.499506
1433977617.919,-3.8273258
1433977617.934,-4.9710617
1433977617.95,-5.973625
1433977617.966,-6.8578434
1433977617.981,-7.6087456
1433977617.997,-8.1829815
1433977618.012,-8.542622
1433977618.028,-8.691101
1433977618.044,-8.670048
1433977618.059,-8.546616
1433977618.075,-8.388746
1433977618.091,-8.256968
1433977618.106,-8.190731
1433977618.122,-8.225519
1433977618.137,-8.360796
1433977618.153,-8.562727
1433977618.169,-8.734098
1433977618.184,-8.760927
1433977618.2,-8.541336
1433977618.216,-8.049591
1433977618.231,-7.341852
1433977618.247,-6.528599
1433977618.262,-5.7065945
1433977618.278,-4.9204216
1433977618.294,-4.1396236
1433977618.309,-3.3103771
1433977618.325,-2.3883896
1433977618.341,-1.3740234
1433977618.356,-0.31978226
1433977618.372,0.7031326
1433977618.387,1.6352081
1433977618.403,2.4341068
1433977618.419,3.1064262
1433977618.434,3.699133
1433977618.45,4.2823257
1433977618.466,4.960428
1433977618.481,5.841055
1433977618.497,7.001501
1433977618.512,8.453743
1433977618.528,10.097967
1433977618.544,11.73317
1433977618.559,13.093674
1433977618.575,13.9295635
1433977618.591,14.070469
1433977618.606,13.459021
1433977618.622,12.142952
1433977618.637,10.240597
1433977618.653,7.899706
1433977618.669,5.2821007
1433977618.684,2.5455246
1433977618.7,-0.11447716
1433977618.716,-2.5050564
1433977618.731,-4.454296
1433977618.747,-5.8559513
1433977618.762,-6.700905
1433977618.778,-7.092705
1433977618.794,-7.198782
1433977618.809,-7.195034
1433977618.825,-7.208252
1433977618.841,-7.291872
1433977618.856,-7.445072
1433977618.872,-7.643219
1433977618.887,-7.840725
1433977618.903,-8.027231
1433977618.919,-8.1896305
1433977618.934,-8.328503
1433977618.95,-8.433405
1433977618.966,-8.4782295
1433977618.981,-8.412527
1433977618.997,-8.192795
1433977619.012,-7.7971725
1433977619.028,-7.2220764
1433977619.044,-6.514555
1433977619.059,-5.7249203
1433977619.075,-4.9024544
1433977619.091,-4.0837364
1433977619.106,-3.2845345
1433977619.122,-2.5120373
1433977619.137,-1.7621765
1433977619.153,-1.0065136
1433977619.169,-0.1848383
1433977619.184,0.7523937
1433977619.2,1.8497858
1433977619.216,3.0961046
1433977619.231,4.4119864
1433977619.247,5.6643343
1433977619.262,6.7381086
1433977619.278,7.567994
1433977619.294,8.210932
1433977619.309,8.81328
1433977619.325,9.556372
1433977619.341,10.591636
1433977619.356,11.951306
1433977619.372,13.51584
1433977619.387,15.038146
1433977619.403,16.20162
1433977619.419,16.72062
1433977619.434,16.407864
1433977619.45,15.244551
1433977619.466,13.328732
1433977619.481,10.874008
1433977619.497,8.129791
1433977619.512,5.3284283
1433977619.528,2.6652365
1433977619.544,0.28859615
1433977619.559,-1.7244177
1433977619.575,-3.3564644
1433977619.591,-4.6426687
1433977619.606,-5.6524363
1433977619.622,-6.4554806
1433977619.637,-7.1023083
1433977619.653,-7.6420145
1433977619.669,-8.102312
1433977619.684,-8.523136
1433977619.7,-8.938911
1433977619.716,-9.350904
1433977619.731,-9.72326
1433977619.747,-9.99727
1433977619.762,-10.104257
1433977619.778,-10.019032
1433977619.794,-9.765141
1433977619.809,-9.426415
1433977619.825,-9.092235
1433977619.841,-8.822829
1433977619.856,-8.612841
1433977619.872,-8.397159
1433977619.887,-8.077057
1433977619.903,-7.57285
1433977619.919,-6.8578825
1433977619.934,-5.979787
1433977619.95,-5.028266
1433977619.966,-4.11639
1433977619.981,-3.3327398
1433977619.997,-2.6954079
1433977620.012,-2.1505327
1433977620.028,-1.6054325
1433977620.044,-0.9438286
1433977620.059,-0.109666824
1433977620.075,0.88859844
1433977620.091,1.9761639
1433977620.106,3.0513973
1433977620.122,4.0434036
1433977620.138,4.93668
1433977620.153,5.7579737
1433977620.169,6.5576534
1433977620.184,7.378419
1433977620.2,8.2527
1433977620.216,9.214784
1433977620.231,10.330925
1433977620.247,11.655761
1433977620.263,13.177344
1433977620.278,14.764026
1433977620.294,16.152374
1433977620.309,16.9781
1433977620.325,16.931871
1433977620.341,15.875671
1433977620.356,13.917117
1433977620.372,11.357116
1433977620.388,8.596045
1433977620.403,5.9617796
1433977620.419,3.6336613
1433977620.434,1.6162052
1433977620.45,-0.1855402
1433977620.466,-1.8667088
1433977620.481,-3.4721727
1433977620.497,-4.976164
1433977620.513,-6.3214064
1433977620.528,-7.4746094
1433977620.544,-8.424415
1433977620.559,-9.1827965
1433977620.575,-9.739118
1433977620.591,-10.078494
1433977620.606,-10.182949
1433977620.622,-10.091415
1433977620.638,-9.871371
1433977620.653,-9.606742
1433977620.669,-9.359502
1433977620.684,-9.153277
1433977620.7,-8.984959
1433977620.716,-8.842022
1433977620.731,-8.726716
1433977620.747,-8.619709
1433977620.763,-8.4747305
1433977620.778,-8.215079
1433977620.794,-7.7421246
1433977620.809,-7.028784
1433977620.825,-6.1294746
1433977620.841,-5.174055
1433977620.856,-4.282816
1433977620.872,-3.5197592
1433977620.888,-2.8511038
1433977620.903,-2.189866
1433977620.919,-1.4526224
1433977620.934,-0.6049261
1433977620.95,0.34996128
1433977620.966,1.3946371
1433977620.981,2.5112495
1433977620.997,3.6839056
1433977621.013,4.8800745
1433977621.028,6.0499086
1433977621.044,7.153802
1433977621.059,8.177965
1433977621.075,9.162726
1433977621.091,10.184318
1433977621.106,11.314999
1433977621.122,12.557485
1433977621.138,13.821303
1433977621.153,14.910646
1433977621.169,15.585833
1433977621.184,15.63937
1433977621.2,14.961235
1433977621.216,13.597102
1433977621.231,11.710396
1433977621.247,9.522711
1433977621.263,7.2409945
1433977621.278,4.997937
1433977621.294,2.865961
1433977621.309,0.8797493
1433977621.325,-0.9172363
1433977621.341,-2.5030708
1433977621.356,-3.871955
1433977621.372,-5.071948
1433977621.388,-6.18316
1433977621.403,-7.237214
1433977621.419,-8.18074
1433977621.434,-8.876659
1433977621.45,-9.18369
1433977621.466,-9.054034
1433977621.481,-8.597893
1433977621.497,-8.036635
1433977621.513,-7.5882893
1433977621.528,-7.3575525
1433977621.544,-7.2885885
1433977621.559,-7.2452354
1433977621.575,-7.111274
1433977621.591,-6.8672037
1433977621.606,-6.5741673
1433977621.622,-6.3189564
1433977621.638,-6.1117935
1433977621.653,-5.878233
1433977621.669,-5.4940586
1433977621.684,-4.8621244
1433977621.7,-3.9857855
1433977621.716,-2.9484978
1433977621.731,-1.881177
1433977621.747,-0.86326027
1433977621.763,0.10155964
1433977621.778,1.0708075
1433977621.794,2.0984316
1433977621.809,3.1719131
1433977621.825,4.2235355
1433977621.841,5.170285
1433977621.856,5.992299
1433977621.872,6.779558
1433977621.888,7.6954975
1433977621.903,8.884908
1433977621.919,10.380045
1433977621.934,12.030641
1433977621.95,13.553198
1433977621.966,14.617504
1433977621.981,14.965587
1433977621.997,14.48195
1433977622.013,13.210076
1433977622.028,11.2931385
1433977622.044,8.947934
1433977622.059,6.384037
1433977622.075,3.799963
1433977622.091,1.3495026
1433977622.106,-0.8795147
1433977622.122,-2.8695068
1433977622.138,-4.6214867
1433977622.153,-6.1584034
1433977622.169,-7.4626493
1433977622.184,-8.487299
1433977622.2,-9.192152
1433977622.216,-9.5717535
1433977622.231,-9.6764555
1433977622.247,-9.602182
1433977622.263,-9.436884
1433977622.278,-9.240984
1433977622.294,-9.019891
1433977622.309,-8.770127
1433977622.325,-8.492578
1433977622.341,-8.200813
1433977622.356,-7.92124
1433977622.372,-7.6632404
1433977622.388,-7.421483
1433977622.403,-7.1632757
1433977622.419,-6.8543262
1433977622.434,-6.4619093
1433977622.45,-5.9611588
1433977622.466,-5.3410244
1433977622.481,-4.6124325
1433977622.497,-3.8179216
1433977622.513,-3.0067987
1433977622.528,-2.243268
1433977622.544,-1.5407276
1433977622.559,-0.88334465
1433977622.575,-0.2219944
1433977622.591,0.50762177
1433977622.606,1.3462906
1433977622.622,2.3002024
1433977622.638,3.357317
1433977622.653,4.473481
1433977622.669,5.603485
1433977622.684,6.704275
1433977622.7,7.7608967
1433977622.716,8.791256
1433977622.731,9.871625
1433977622.747,11.104253
1433977622.763,12.54142
1433977622.778,14.098758
1433977622.794,15.5385895
1433977622.81,16.497522
1433977622.825,16.638763
1433977622.841,15.773409
1433977622.856,13.949242
1433977622.872,11.430806
1433977622.888,8.594077
1433977622.903,5.8011246
1433977622.919,3.3067417
1433977622.935,1.2176342
1433977622.95,-0.4983635
1433977622.966,-1.9507046
1433977622.981,-3.2846127
1433977622.997,-4.618149
1433977623.013,-5.980505
1433977623.028,-7.3391848
1433977623.044,-8.592117
1433977623.06,-9.630519
1433977623.075,-10.38341
1433977623.091,-10.845723
1433977623.106,-11.04179
1433977623.122,-11.009567
1433977623.138,-10.778203
1433977623.153,-10.374683
1433977623.169,-9.840585
1433977623.185,-9.263586
1433977623.2,-8.726496
1433977623.216,-8.309071
1433977623.231,-8.04535
1433977623.247,-7.901846
1433977623.263,-7.7899313
1433977623.278,-7.5903196
1433977623.294,-7.177623
1433977623.31,-6.4819674
1433977623.325,-5.5238714
1433977623.341,-4.4310865
1433977623.356,-3.3996792
1433977623.372,-2.6225767
1433977623.388,-2.1667314
1433977623.403,-1.9592261
1433977623.419,-1.8006945
1433977623.435,-1.4537263
1433977623.45,-0.7463436
1433977623.466,0.3737259
1433977623.481,1.8324857
1433977623.497,3.4636407
1433977623.513,5.0694513
1433977623.528,6.4582777
1433977623.544,7.5072293
1433977623.56,8.200163
1433977623.575,8.657983
1433977623.591,9.100206
1433977623.606,9.769594
1433977623.622,10.813103
1433977623.638,12.191259
1433977623.653,13.673091
1433977623.669,14.9267845
1433977623.685,15.629591
1433977623.7,15.592078
1433977623.716,14.7831545
1433977623.731,13.294274
1433977623.747,11.265953
1433977623.763,8.868698
1433977623.778,6.269444
1433977623.794,3.6542401
1433977623.81,1.1983223
1433977623.825,-0.95545197
1433977623.841,-2.7480097
1433977623.856,-4.203187
1433977623.872,-5.414328
1433977623.888,-6.4754257
1433977623.903,-7.441113
1433977623.919,-8.308474
1433977623.935,-9.031517
1433977623.95,-9.53731
1433977623.966,-9.773247
1433977623.981,-9.714083
1433977623.997,-9.369032
1433977624.013,-8.793354
1433977624.028,-8.082436
1433977624.044,-7.353294
1433977624.06,-6.713293
1433977624.075,-6.232805
1433977624.091,-5.925602
1433977624.106,-5.7529535
1433977624.122,-5.6539927
1433977624.138,-5.555484
1433977624.153,-5.4014726
1433977624.169,-5.158811
1433977624.185,-4.8144403
1433977624.2,-4.3472805
1433977624.216,-3.7458901
1433977624.231,-2.9971166
1433977624.247,-2.1158934
1433977624.263,-1.1370049
1433977624.278,-0.13100457
1433977624.294,0.8328147
1433977624.31,1.6911457
1433977624.325,2.4305153
1433977624.341,3.0895815
1433977624.356,3.7364106
1433977624.372,4.4432387
1433977624.388,5.2573166
1433977624.403,6.1912184
1433977624.419,7.2524014
1433977624.435,8.425277
1433977624.45,9.678964
1433977624.466,10.921688
1433977624.481,11.9863405
1433977624.497,12.653774
1433977624.513,12.729002
1433977624.528,12.108704
1433977624.544,10.814426
1433977624.56,8.980534
1433977624.575,6.784422
1433977624.591,4.4027295
1433977624.606,1.9801505
1433977624.622,-0.36967397
1433977624.638,-2.5422354
1433977624.653,-4.4509115
1433977624.669,-6.024598
1433977624.685,-7.243794
1433977624.7,-8.112303
1433977624.716,-8.668266
1433977624.731,-8.974033
1433977624.747,-9.097819
1433977624.763,-9.097043
1433977624.778,-9.019852
1433977624.794,-8.887224
1433977624.81,-8.689937
1433977624.825,-8.420822
1433977624.841,-8.092889
1433977624.856,-7.754516
1433977624.872,-7.4788494
1433977624.888,-7.301406
1433977624.903,-7.211789
1433977624.919,-7.1462164
1433977624.935,-7.017804
1433977624.95,-6.736931
1433977624.966,-6.2518435
1433977624.981,-5.521048
1433977624.997,-4.5505643
1433977625.013,-3.4019823
1433977625.028,-2.1890585
1433977625.044,-1.0911953
1433977625.06,-0.2630005
1433977625.075,0.24110055
1433977625.091,0.50959873
1433977625.106,0.73401093
1433977625.122,1.1133211
1433977625.138,1.7723298
1433977625.153,2.7065954
1433977625.169,3.8491237
1433977625.185,5.1056447
1433977625.2,6.4118
1433977625.216,7.7394867
1433977625.231,9.057731
1433977625.247,10.325001
1433977625.263,11.511414
1433977625.278,12.623232
1433977625.294,13.691654
1433977625.31,14.729666
1433977625.325,15.670327
1433977625.341,16.348574
1433977625.356,16.523323
1433977625.372,15.963444
1433977625.388,14.567233
1433977625.403,12.426973
1433977625.419,9.815541
1433977625.435,7.065919
1433977625.45,4.4757695
1433977625.466,2.1740522
1433977625.482,0.13287401
1433977625.497,-1.7790256
1433977625.513,-3.67234
1433977625.528,-5.522286
1433977625.544,-7.1701884
1433977625.56,-8.402895
1433977625.575,-9.079378
1433977625.591,-9.222784
1433977625.606,-9.034267
1433977625.622,-8.780407
1433977625.638,-8.663727
1433977625.653,-8.749722
1433977625.669,-8.964006
1433977625.685,-9.193386
1433977625.7,-9.35114
1433977625.716,-9.42358
1433977625.732,-9.422266
1433977625.747,-9.349113
1433977625.763,-9.1659975
1433977625.778,-8.82638
1433977625.794,-8.310059
1433977625.81,-7.6648893
1433977625.825,-6.976705
1433977625.841,-6.3277783
1433977625.857,-5.7480783
1433977625.872,-5.202429
1433977625.888,-4.62631
1433977625.903,-3.9745965
1433977625.919,-3.2469697
1433977625.935,-2.4867191
1433977625.95,-1.7409954
1433977625.966,-1.0286169
1433977625.982,-0.31786728
1433977625.997,0.43765736
1433977626.013,1.2872639
1433977626.028,2.2271957
1433977626.044,3.206603
1433977626.06,4.125848
1433977626.075,4.891176
1433977626.091,5.4636803
1433977626.107,5.8934965
1433977626.122,6.321039
1433977626.138,6.919818
1433977626.153,7.8439302
1433977626.169,9.155412
1433977626.185,10.796824
1433977626.2,12.62195
1433977626.216,14.396926
1433977626.232,15.849147
1433977626.247,16.700047
1433977626.263,16.718018
1433977626.278,15.776737
1433977626.294,13.915606
1433977626.31,11.346184
1433977626.325,8.42641
1433977626.341,5.5566473
1433977626.357,3.0739155
1433977626.372,1.1406746
1433977626.388,-0.2615118
1433977626.403,-1.3048248
1433977626.419,-2.1950417
1433977626.435,-3.0884352
1433977626.45,-4.0254145
1433977626.466,-4.9442034
1433977626.482,-5.7330246
1433977626.497,-6.3144236
1433977626.513,-6.6716127
1433977626.528,-6.8545923
1433977626.544,-6.939167
1433977626.56,-6.9791965
1433977626.575,-6.972748
1433977626.591,-6.8922243
1433977626.607,-6.707464
1433977626.622,-6.4297667
1433977626.638,-6.1141977
1433977626.653,-5.8230677
1433977626.669,-5.582985
1433977626.685,-5.3802385
1433977626.7,-5.158448
1433977626.716,-4.8691063
1433977626.732,-4.5057096
1433977626.747,-4.0987616
1433977626.763,-3.683115
1433977626.778,-3.2726536
1433977626.794,-2.8396196
1433977626.81,-2.3268566
1433977626.825,-1.6591673
1433977626.841,-0.7913904
1433977626.857,0.268754
1433977626.872,1.446495
1433977626.888,2.6283913
1433977626.903,3.6964455
1433977626.919,4.5883684
1433977626.935,5.3291616
1433977626.95,6.039565
1433977626.966,6.876933
1433977626.982,7.9714813
1433977626.997,9.336858
1433977627.013,10.842542
1433977627.028,12.230444
1433977627.044,13.195925
1433977627.06,13.480896
1433977627.075,12.959016
1433977627.091,11.653063
1433977627.107,9.703673
1433977627.122,7.317136
1433977627.138,4.705909
1433977627.153,2.061564
1433977627.169,-0.43911076
1433977627.185,-2.6547346
1433977627.2,-4.4625225
1433977627.216,-5.7805347
1433977627.232,-6.5870495
1433977627.247,-6.965742
1433977627.263,-7.064996
1433977627.278,-7.066934
1433977627.294,-7.123856
1433977627.31,-7.321978
1433977627.325,-7.639126
1433977627.341,-7.994536
1433977627.357,-8.286564
1433977627.372,-8.454279
1433977627.388,-8.489147
1433977627.403,-8.418659
1433977627.419,-8.291743
1433977627.435,-8.150772
1433977627.45,-8.008691
1433977627.466,-7.8471947
1433977627.482,-7.6232414
1433977627.497,-7.270363
1433977627.513,-6.7204556
1433977627.528,-5.9412394
1433977627.544,-4.942116
1433977627.56,-3.8101873
1433977627.575,-2.6746154
1433977627.591,-1.6721759
1433977627.607,-0.8897958
1433977627.622,-0.33338165
1433977627.638,0.07793903
1433977627.653,0.48418522
1433977627.669,1.0185928
1433977627.685,1.7632103
1433977627.7,2.7310543
1433977627.716,3.8621206
1433977627.732,5.0809855
1433977627.747,6.295517
1433977627.763,7.4475546
1433977627.778,8.540444
1433977627.794,9.64112
1433977627.81,10.831735
1433977627.825,12.189842
1433977627.841,13.694914
1433977627.857,15.200695
1433977627.872,16.412819
1433977627.888,16.996923
1433977627.903,16.677593
1433977627.919,15.379036
1433977627.935,13.25234
1433977627.95,10.635307
1433977627.966,7.921465
1433977627.982,5.41691
1433977627.997,3.2493186
1433977628.013,1.3826919
1433977628.028,-0.29772425
1433977628.044,-1.8869314
1433977628.06,-3.3917465
1433977628.075,-4.743458
1433977628.091,-5.8645735
1433977628.107,-6.7234716
1433977628.122,-7.385907
1433977628.138,-7.9675493
1433977628.154,-8.554191
1433977628.169,-9.144495
1433977628.185,-9.654908
1433977628.2,-9.966762
1433977628.216,-10.034157
1433977628.232,-9.894922
1433977628.247,-9.669586
1433977628.263,-9.464373
1433977628.278,-9.3147
1433977628.294,-9.15485
1433977628.31,-8.8998575
1433977628.325,-8.507296
1433977628.341,-8.023705
1433977628.357,-7.5376415
1433977628.372,-7.119381
1433977628.388,-6.7492785
1433977628.404,-6.339562
1433977628.419,-5.776607
1433977628.435,-5.020444
1433977628.45,-4.1072173
1433977628.466,-3.1349971
1433977628.482,-2.1816387
1433977628.497,-1.2787175
1433977628.513,-0.3958044
1433977628.529,0.5191097
1433977628.544,1.4925823
1433977628.56,2.4985561
1433977628.575,3.4683735
1433977628.591,4.3342295
1433977628.607,5.079277
1433977628.622,5.7586184
1433977628.638,6.4929314
1433977628.654,7.421082
1433977628.669,8.640271
1433977628.685,10.152872
1433977628.7,11.858175
1433977628.716,13.555962
1433977628.732,15.021498
1433977628.747,16.030804
1433977628.763,16.419216
1433977628.779,16.085403
1433977628.794,15.008442
1433977628.81,13.244545
1433977628.825,10.938864
1433977628.841,8.299354
1433977628.857,5.566504
1433977628.872,2.9461882
1433977628.888,0.5611875
1433977628.904,-1.5676949
1433977628.919,-3.459358
1433977628.935,-5.1363363
1433977628.95,-6.5684752
1433977628.966,-7.6880217
1433977628.982,-8.42242
1433977628.997,-8.75589
1433977629.013,-8.73878
1433977629.029,-8.504566
1433977629.044,-8.214211
1433977629.06,-8.001426
1433977629.075,-7.9133587
1433977629.091,-7.9156566
1433977629.107,-7.911035
1433977629.122,-7.8185387
1433977629.138,-7.618412
1433977629.154,-7.3794746
1433977629.169,-7.2050176
1433977629.185,-7.165139
1433977629.2,-7.2310495
1433977629.216,-7.3021984
1433977629.232,-7.2276716
1433977629.247,-6.9270134
1433977629.263,-6.407813
1433977629.279,-5.764659
1433977629.294,-5.100522
1433977629.31,-4.4598846
1433977629.325,-3.8121467
1433977629.341,-3.0847704
1433977629.357,-2.2295833
1433977629.372,-1.2555127
1433977629.388,-0.21749938
1433977629.404,0.79266346
1433977629.419,1.7018046
1433977629.435,2.4705527
1433977629.45,3.0986586
1433977629.466,3.624977
1433977629.482,4.121905
1433977629.497,4.685795
1433977629.513,5.425186
1433977629.529,6.4179606
1433977629.544,7.6871605
1433977629.56,9.154233
1433977629.575,10.671267
1433977629.591,12.02862
1433977629.607,13.006883
1433977629.622,13.42465
1433977629.638,13.16343
1433977629.654,12.185273
1433977629.669,10.535846
1433977629.685,8.33454
1433977629.7,5.776048
1433977629.716,3.0810432
1433977629.732,0.48430014
1433977629.747,-1.8185127
1433977629.763,-3.6931152
1433977629.779,-5.1070275
1433977629.794,-6.098401
1433977629.81,-6.765313
1433977629.825,-7.197599
1433977629.841,-7.4607086
1433977629.857,-7.5819373
1433977629.872,-7.593482
1433977629.888,-7.5264964
1433977629.904,-7.448315
1433977629.919,-7.4287386
1433977629.935,-7.533537
1433977629.95,-7.7586923
1433977629.966,-8.060207
1433977629.982,-8.353852
1433977629.997,-8.5512495
1433977630.013,-8.584979
1433977630.029,-8.443658
1433977630.044,-8.146688
1433977630.06,-7.748251
1433977630.075,-7.2952175
1433977630.091,-6.807856
1433977630.107,-6.281729
1433977630.122,-5.6882014
1433977630.138,-5.0020337
1433977630.154,-4.239189
1433977630.169,-3.46726
1433977630.185,-2.7967172
1433977630.2,-2.28616
1433977630.216,-1.9234972
1433977630.232,-1.5689325
1433977630.247,-1.0165606
1433977630.263,-0.09592056
1433977630.279,1.2202854
1433977630.294,2.8002086
1433977630.31,4.3807006
1433977630.325,5.7189345
1433977630.341,6.691124
1433977630.357,7.3455825
1433977630.372,7.8539467
1433977630.388,8.413591
1433977630.404,9.172012
1433977630.419,10.182392
1433977630.435,11.406076
1433977630.45,12.754106
1433977630.466,14.086764
1433977630.482,15.229001
1433977630.497,15.964889
1433977630.513,16.099247
1433977630.529,15.491302
1433977630.544,14.144707
1433977630.56,12.168991
1433977630.575,9.767633
1433977630.591,7.178624
1433977630.607,4.620182
1433977630.622,2.2521152
1433977630.638,0.17369747
1433977630.654,-1.5813732
1433977630.669,-3.036788
1433977630.685,-4.2645874
1433977630.7,-5.337784
1433977630.716,-6.3380165
1433977630.732,-7.297717
1433977630.747,-8.206477
1433977630.763,-8.999929
1433977630.779,-9.589704
1433977630.794,-9.895551
1433977630.81,-9.9124155
1433977630.825,-9.707038
1433977630.841,-9.40622
1433977630.857,-9.14588
1433977630.872,-9.003709
1433977630.888,-8.974113
1433977630.904,-8.998999
1433977630.919,-9.005467
1433977630.935,-8.958921
1433977630.95,-8.855123
1433977630.966,-8.685537
1433977630.982,-8.389882
1433977630.997,-7.888629
1433977631.013,-7.122345
1433977631.029,-6.1317196
1433977631.044,-5.0548677
1433977631.06,-4.074939
1433977631.076,-3.298501
1433977631.091,-2.7237825
1433977631.107,-2.2393465
1433977631.122,-1.7145538
1433977631.138,-1.0771732
1433977631.154,-0.3253641
1433977631.169,0.49094486
1433977631.185,1.3129673
1433977631.201,2.127512
1433977631.216,2.9317055
1433977631.232,3.729333
1433977631.247,4.4933605
1433977631.263,5.1901875
1433977631.279,5.7847643
1433977631.294,6.2912903
1433977631.31,6.7569942
1433977631.326,7.2657776
1433977631.341,7.9145966
1433977631.357,8.79677
1433977631.372,9.978724
1433977631.388,11.458958
1433977631.404,13.112061
1433977631.419,14.701649
1433977631.435,15.9032345
1433977631.451,16.415564
1433977631.466,16.068707
1433977631.482,14.905788
1433977631.497,13.145002
1433977631.513,11.097984
1433977631.529,9.042976
1433977631.544,7.131212
1433977631.56,5.3501415
1433977631.576,3.595522
1433977631.591,1.7587013
1433977631.607,-0.1738739
1433977631.622,-2.1100502
1433977631.638,-3.8957577
1433977631.654,-5.398796
1433977631.669,-6.5505466
1433977631.685,-7.366768
1433977631.701,-7.8956146
1433977631.716,-8.198107
1433977631.732,-8.323349
1433977631.747,-8.324221
1433977631.763,-8.253483
1433977631.779,-8.158184
1433977631.794,-8.054089
1433977631.81,-7.9424973
1433977631.826,-7.799696
1433977631.841,-7.631212
1433977631.857,-7.4706116
1433977631.872,-7.385109
1433977631.888,-7.408369
1433977631.904,-7.514738
1433977631.919,-7.588087
1433977631.935,-7.486414
1433977631.951,-7.1133423
1433977631.966,-6.468197
1433977631.982,-5.6294518
1433977631.997,-4.6989155
1433977632.013,-3.7419434
1433977632.029,-2.7906322
1433977632.044,-1.8565788
1433977632.06,-0.9823952
1433977632.076,-0.21157646
1433977632.091,0.42240715
1433977632.107,0.9593601
1433977632.122,1.485445
1433977632.138,2.0956497
1433977632.154,2.8424854
1433977632.169,3.7090511
1433977632.185,4.6392937
1433977632.201,5.582573
1433977632.216,6.527048
1433977632.232,7.495758
1433977632.247,8.514017
1433977632.263,9.580666
1433977632.279,10.675642
1433977632.294,11.7788925
1433977632.31,12.833149
1433977632.326,13.749487
1433977632.341,14.343716
1433977632.357,14.391228
1433977632.372,13.700281
1433977632.388,12.224989
1433977632.404,10.104452
1433977632.419,7.6200256
1433977632.435,5.0835953
1433977632.451,2.7308445
1433977632.466,0.6778412
1433977632.482,-1.0581398
1433977632.497,-2.509161
1433977632.513,-3.7036476
1433977632.529,-4.667351
1433977632.544,-5.422886
1433977632.56,-6.007906
1433977632.576,-6.451391
1433977632.591,-6.786463
1433977632.607,-7.024191
1433977632.622,-7.204405
1433977632.638,-7.3713856
1433977632.654,-7.571518
1433977632.669,-7.818939
1433977632.685,-8.062927
1433977632.701,-8.214102
1433977632.716,-8.188976
1433977632.732,-7.9815636
1433977632.747,-7.6624603
1433977632.763,-7.3555717
1433977632.779,-7.1522827
1433977632.794,-7.062208
1433977632.81,-7.013153
1433977632.826,-6.8772087
1433977632.841,-6.5441246
1433977632.857,-5.957485
1433977632.872,-5.1612453
1433977632.888,-4.2570267
1433977632.904,-3.366848
1433977632.919,-2.5710297
1433977632.935,-1.8893738
1433977632.951,-1.2901287
1433977632.966,-0.7198143
1433977632.982,-0.1342411
1433977632.997,0.45869827
1433977633.013,1.0468445
1433977633.029,1.619667
1433977633.044,2.2228756
1433977633.06,2.927599
1433977633.076,3.7904987
1433977633.091,4.80702
1433977633.107,5.885
1433977633.122,6.887253
1433977633.138,7.7276974
1433977633.154,8.409847
1433977633.169,9.056133
1433977633.185,9.821663
1433977633.201,10.830603
1433977633.216,12.116734
1433977633.232,13.585142
1433977633.247,15.046003
1433977633.263,16.251059
1433977633.279,16.938808
1433977633.294,16.895998
1433977633.31,15.989145
1433977633.326,14.236258
1433977633.341,11.793852
1433977633.357,8.950342
1433977633.372,6.0245686
1433977633.388,3.3121033
1433977633.404,0.99294853
1433977633.419,-0.86919594
1433977633.435,-2.3182468
1433977633.451,-3.4718094
1433977633.466,-4.468796
1433977633.482,-5.425111
1433977633.497,-6.4099083
1433977633.513,-7.404566
1433977633.529,-8.33121
1433977633.544,-9.076312
1433977633.56,-9.567975
1433977633.576,-9.797535
1433977633.591,-9.807336
1433977633.607,-9.675645
1433977633.622,-9.482983
1433977633.638,-9.30573
1433977633.654,-9.208714
1433977633.669,-9.221522
1433977633.685,-9.319199
1433977633.701,-9.414843
1433977633.716,-9.371429
1433977633.732,-9.082217
1433977633.748,-8.543698
1433977633.763,-7.8464165
1433977633.779,-7.126828
1433977633.794,-6.475033
1433977633.81,-5.8943043
1433977633.826,-5.305153
1433977633.841,-4.630805
1433977633.857,-3.858406
1433977633.873,-3.0768566
1433977633.888,-2.3925247
1433977633.904,-1.8764935
1433977633.919,-1.487215
1433977633.935,-1.1065168
1433977633.951,-0.6092377
1433977633.966,0.08259201
1433977633.982,0.9631424
1433977633.998,1.9644203
1433977634.013,2.9935942
1433977634.029,3.9832277
1433977634.044,4.8957605
1433977634.06,5.727688
1433977634.076,6.5126724
1433977634.091,7.2957897
1433977634.107,8.136702
1433977634.123,9.080978
1433977634.138,10.160143
1433977634.154,11.380491
1433977634.169,12.7048645
1433977634.185,14.053075
1433977634.201,15.278917
1433977634.216,16.191387
1433977634.232,16.599014
1433977634.248,16.347195
1433977634.263,15.380542
1433977634.279,13.75367
1433977634.294,11.6072235
1433977634.31,9.1326
1433977634.326,6.5314274
1433977634.341,3.9894114
1433977634.357,1.6690884
1433977634.373,-0.33501053
1433977634.388,-1.9911089
1433977634.404,-3.3580952
1433977634.419,-4.530114
1433977634.435,-5.5884724
1433977634.451,-6.5361958
1433977634.466,-7.300643
1433977634.482,-7.785372
1433977634.498,-7.949951
1433977634.513,-7.8629174
1433977634.529,-7.669611
1433977634.544,-7.518016
1433977634.56,-7.4834766
1433977634.576,-7.538872
1433977634.591,-7.6094756
1433977634.607,-7.6436005
1433977634.623,-7.656532
1433977634.638,-7.693551
1433977634.654,-7.7878666
1433977634.669,-7.9042425
1433977634.685,-7.9460382
1433977634.701,-7.8069215
1433977634.716,-7.4234953
1433977634.732,-6.7997646
1433977634.748,-6.0044045
1433977634.763,-5.1163235
1433977634.779,-4.191209
1433977634.794,-3.2444239
1433977634.81,-2.259452
1433977634.826,-1.2274697
1433977634.841,-0.17095721
1433977634.857,0.86274654
1433977634.873,1.8317997
1433977634.888,2.710946
1433977634.904,3.5278676
1433977634.919,4.3569946
1433977634.935,5.269342
1433977634.951,6.3300714
1433977634.966,7.5535574
1433977634.982,8.917782
1433977634.998,10.378229
1433977635.013,11.889481
1433977635.029,13.365803
1433977635.044,14.678212
1433977635.06,15.617499
1433977635.076,15.9465685
1433977635.091,15.497673
1433977635.107,14.258953
1433977635.123,12.399818
1433977635.138,10.204869
1433977635.154,7.9430885
1433977635.169,5.7659607
1433977635.185,3.6899114
1433977635.201,1.6534896
1433977635.216,-0.39067078
1433977635.232,-2.3992982
1433977635.248,-4.2675114
1433977635.263,-5.880853
1433977635.279,-7.174861
1433977635.294,-8.156624
1433977635.31,-8.880612
1433977635.326,-9.401975
1433977635.341,-9.73928
1433977635.357,-9.896276
1433977635.373,-9.879614
1433977635.388,-9.734759
1433977635.404,-9.563541
1433977635.419,-9.486214
1433977635.435,-9.619224
1433977635.451,-9.9909725
1433977635.466,-10.516914
1433977635.482,-10.990496
1433977635.498,-11.181142
1433977635.513,-10.9149065
1433977635.529,-10.156664
1433977635.544,-9.02394
1433977635.56,-7.718377
1433977635.576,-6.42978
1433977635.591,-5.2596903
1433977635.607,-4.2363796
1433977635.623,-3.346734
1433977635.638,-2.5731888
1433977635.654,-1.8871822
1433977635.669,-1.2296829
1433977635.685,-0.49592113
1433977635.701,0.43963623
1433977635.716,1.6541252
1433977635.732,3.117653
1433977635.748,4.689831
1433977635.763,6.173025
1433977635.779,7.414938
1433977635.794,8.381575
1433977635.81,9.176998
1433977635.826,9.991346
1433977635.841,11.0182495
1433977635.857,12.351625
1433977635.873,13.921581
1433977635.888,15.490181
1433977635.904,16.723623
1433977635.919,17.312492
1433977635.935,17.056467
1433977635.951,15.934048
1433977635.966,14.083014
1433977635.982,11.740854
1433977635.998,9.160282
1433977636.013,6.539976
1433977636.029,4.024624
1433977636.044,1.6974373
1433977636.06,-0.42136574
1433977636.076,-2.3519
1433977636.091,-4.1400185
1433977636.107,-5.8218937
1433977636.123,-7.397192
1433977636.138,-8.800344
1433977636.154,-9.91724
1433977636.169,-10.636677
1433977636.185,-10.916714
1433977636.201,-10.820311
1433977636.216,-10.4995365
1433977636.232,-10.131773
1433977636.248,-9.870693
1433977636.263,-9.792696
1433977636.279,-9.893375
1433977636.294,-10.108927
1433977636.31,-10.346664
1433977636.326,-10.5154705
1433977636.341,-10.560949
1433977636.357,-10.459772
1433977636.373,-10.217693
1433977636.388,-9.8400135
1433977636.404,-9.3259735
1433977636.42,-8.659605
1433977636.435,-7.8242073
1433977636.451,-6.8383217
1433977636.466,-5.760315
1433977636.482,-4.688099
1433977636.498,-3.703127
1433977636.513,-2.8383255
1433977636.529,-2.0577946
1433977636.544,-1.2727776
1433977636.56,-0.41586494
1433977636.576,0.5307808
1433977636.591,1.5183678
1433977636.607,2.5126724
1433977636.623,3.5068321
1433977636.638,4.5538826
1433977636.654,5.714136
1433977636.67,7.0098
1433977636.685,8.396353
1433977636.701,9.807375
1433977636.716,11.180666
1433977636.732,12.496803
1433977636.748,13.743711
1433977636.763,14.867035
1433977636.779,15.75882
1433977636.795,16.252314
1433977636.81,16.179337
1433977636.826,15.425093
1433977636.841,13.971302
1433977636.857,11.888649
1433977636.873,9.323364
1433977636.888,6.482929
1433977636.904,3.6004238
1433977636.92,0.91161346
1433977636.935,-1.400383
1433977636.951,-3.2384186
1433977636.966,-4.60627
1433977636.982,-5.58107
1433977636.998,-6.278366
1433977637.013,-6.818863
1433977637.029,-7.286873
1433977637.045,-7.7471275
1433977637.06,-8.210529
1433977637.076,-8.651054
1433977637.091,-9.032436
1433977637.107,-9.325645
1433977637.123,-9.543118
1433977637.138,-9.712124
1433977637.154,-9.824982
1433977637.17,-9.816986
1433977637.185,-9.596382
1433977637.201,-9.095219
1433977637.216,-8.351368
1433977637.232,-7.5033455
1433977637.248,-6.734726
1433977637.263,-6.17342
1433977637.279,-5.80645
1433977637.295,-5.4888725
1433977637.31,-5.0235977
1433977637.326,-4.264736
1433977637.341,-3.182644
1433977637.357,-1.879734
1433977637.373,-0.5201645
1433977637.388,0.736187
1433977637.404,1.7871666
1433977637.42,2.6166687
1433977637.435,3.2655182
1433977637.451,3.8260345
1433977637.466,4.4082603
1433977637.482,5.1398964
1433977637.498,6.140835
1433977637.513,7.5075073
1433977637.529,9.288315
1433977637.545,11.418564
1433977637.56,13.666035
1433977637.576,15.643848
1433977637.591,16.908443
1433977637.607,17.1077
1433977637.623,16.117485
1433977637.638,14.101669
1433977637.654,11.424404
1433977637.67,8.501789
1433977637.685,5.6633186
1433977637.701,3.086666
1433977637.716,0.8248215
1433977637.732,-1.109951
1433977637.748,-2.7340393
1433977637.763,-4.081196
1433977637.779,-5.216408
1433977637.795,-6.2408295
1433977637.81,-7.2541924
1433977637.826,-8.303047
1433977637.841,-9.361305
1433977637.857,-10.362972
1433977637.873,-11.2240715
1433977637.888,-11.883587
1433977637.904,-12.293335
1433977637.92,-12.40382
1433977637.935,-12.190422
1433977637.951,-11.679935
1433977637.966,-10.983349
1433977637.982,-10.275608
1433977637.998,-9.736774
1433977638.013,-9.462025
1433977638.029,-9.432011
1433977638.045,-9.513809
1433977638.06,-9.548386
1433977638.076,-9.420818
1433977638.091,-9.094158
1433977638.107,-8.58749
1433977638.123,-7.9414406
1433977638.138,-7.1687393
1433977638.154,-6.2622337
1433977638.17,-5.2151527
1433977638.185,-4.0438385
1433977638.201,-2.8000107
1433977638.216,-1.5575142
1433977638.232,-0.36450958
1433977638.248,0.7439003
1433977638.263,1.7721024
1433977638.279,2.7609673
1433977638.295,3.775074
1433977638.31,4.857914
1433977638.326,6.0326424
1433977638.341,7.2835083
1433977638.357,8.566261
1433977638.373,9.842255
1433977638.388,11.126442
1433977638.404,12.472034
1433977638.42,13.937935
1433977638.435,15.500374
1433977638.451,17.020023
1433977638.466,18.239944
1433977638.482,18.857365
1433977638.498,18.629715
1433977638.513,17.478352
1433977638.529,15.510059
1433977638.545,12.989628
1433977638.56,10.222206
1433977638.576,7.462101
1433977638.591,4.8366547
1433977638.607,2.3553162
1433977638.623,-0.042556763
1433977638.638,-2.3947754
1433977638.654,-4.667618
1433977638.67,-6.7234
1433977638.685,-8.390289
1433977638.701,-9.545464
1433977638.716,-10.185368
1433977638.732,-10.435352
1433977638.748,-10.5170555
1433977638.763,-10.633469
1433977638.779,-10.904667
1433977638.795,-11.314194
1433977638.81,-11.770046
1433977638.826,-12.149223
1433977638.841,-12.361904
1433977638.857,-12.37294
1433977638.873,-12.215473
1433977638.888,-11.938248
1433977638.904,-11.581711
1433977638.92,-11.176033
1433977638.935,-10.729492
1433977638.951,-10.218704
1433977638.966,-9.617416
1433977638.982,-8.886238
