1427153785.376,0.0
1427153785.391,0.0
1427153785.407,0.0
1427153785.423,0.0
1427153785.438,0.0
1427153785.454,0.0
1427153785.469,0.0
1427153785.485,0.0
1427153785.501,0.0
1427153785.516,0.0022315353
1427153785.532,-0.0045169927
1427153785.548,-0.011265522
1427153785.563,-0.011383951
1427153785.579,0.0011864507
1427153785.594,0.025910312
1427153785.61,0.050634187
1427153785.626,0.051362894
1427153785.641,-0.0014929791
1427153785.657,-0.1302426
1427153785.673,-0.35562757
1427153785.688,-0.6591247
1427153785.704,-1.0095103
1427153785.719,-1.3709826
1427153785.735,-1.7197359
1427153785.751,-2.0551105
1427153785.766,-2.39945
1427153785.782,-2.7866635
1427153785.798,-3.2399073
1427153785.813,-3.796012
1427153785.829,-4.418684
1427153785.844,-5.0592937
1427153785.86,-5.6644096
1427153785.876,-6.2021537
1427153785.891,-6.6808796
1427153785.907,-7.149598
1427153785.923,-7.6782327
1427153785.938,-8.310737
1427153785.954,-9.143648
1427153785.969,-10.08971
1427153785.985,-11.041439
1427153786.001,-11.884748
1427153786.016,-12.565519
1427153786.032,-13.137459
1427153786.048,-13.761808
1427153786.063,-14.652733
1427153786.079,-15.960062
1427153786.094,-17.910576
1427153786.11,-20.314837
1427153786.126,-22.908329
1427153786.141,-25.395676
1427153786.157,-27.605268
1427153786.173,-29.600466
1427153786.188,-31.683052
1427153786.204,-34.277966
1427153786.219,-37.699863
1427153786.235,-42.33762
1427153786.251,-47.8528
1427153786.266,-53.73646
1427153786.282,-59.41254
1427153786.298,-64.51836
1427153786.313,-69.1011
1427153786.329,-73.62305
1427153786.344,-78.763245
1427153786.36,-85.04116
1427153786.376,-93.00043
1427153786.391,-102.14987
1427153786.407,-111.71121
1427153786.423,-120.79992
1427153786.438,-128.83353
1427153786.454,-135.80977
1427153786.469,-142.31195
1427153786.485,-149.639
1427153786.501,-156.48619
1427153786.516,-165.142
1427153786.532,-176.24933
1427153786.548,-189.95836
1427153786.563,-205.0798
1427153786.579,-218.66707
1427153786.594,-226.30731
1427153786.61,-223.26346
1427153786.626,-206.09627
1427153786.641,-173.92297
1427153786.657,-129.20827
1427153786.673,-75.92084
1427153786.688,-18.514954
1427153786.704,39.72818
1427153786.719,97.32272
1427153786.735,154.17236
1427153786.751,210.59027
1427153786.766,266.42496
1427153786.782,320.831
1427153786.798,372.18872
1427153786.813,419.32092
1427153786.829,461.28876
1427153786.844,497.4053
1427153786.86,526.89386
1427153786.876,548.6284
1427153786.891,561.1745
1427153786.907,562.9916
1427153786.923,552.9973
1427153786.938,530.733
1427153786.954,497.05682
1427153786.969,453.7518
1427153786.985,403.29465
1427153787.001,348.39154
1427153787.016,291.5345
1427153787.032,234.7641
1427153787.048,179.6796
1427153787.063,127.6189
1427153787.079,79.654724
1427153787.094,36.68628
1427153787.11,-0.9977417
1427153787.126,-33.9283
1427153787.141,-63.358536
1427153787.157,-90.821106
1427153787.173,-117.42461
1427153787.188,-143.32524
1427153787.204,-167.63383
1427153787.219,-188.89687
1427153787.235,-205.72153
1427153787.251,-217.40717
1427153787.266,-224.08641
1427153787.282,-226.46654
1427153787.298,-225.38168
1427153787.313,-221.50105
1427153787.329,-215.29495
1427153787.344,-207.165
1427153787.36,-197.58876
1427153787.376,-187.1298
1427153787.391,-176.32513
1427153787.407,-165.53226
1427153787.423,-154.8411
1427153787.438,-144.16333
1427153787.454,-133.33917
1427153787.469,-122.32596
1427153787.485,-111.29707
1427153787.501,-100.60126
1427153787.516,-90.66395
1427153787.532,-81.834366
1427153787.548,-74.226524
1427153787.563,-67.71568
1427153787.579,-61.980988
1427153787.594,-56.681347
1427153787.61,-51.5824
1427153787.626,-46.601665
1427153787.641,-41.851112
1427153787.657,-37.346226
1427153787.673,-33.08027
1427153787.688,-29.053974
1427153787.704,-25.289185
1427153787.72,-21.826603
1427153787.735,-18.6349
1427153787.751,-15.614735
1427153787.766,-12.604275
1427153787.782,-9.511967
1427153787.798,-6.359421
1427153787.813,-3.3693771
1427153787.829,-0.8444977
1427153787.845,0.9866066
1427153787.86,2.11409
1427153787.876,2.740738
1427153787.891,3.159809
1427153787.907,3.5713882
1427153787.923,3.9971542
1427153787.938,4.300934
1427153787.954,4.2935257
1427153787.97,3.8952904
1427153787.985,3.2187119
1427153788.001,2.5342064
1427153788.016,2.1711998
1427153788.032,2.338665
1427153788.048,3.086441
1427153788.063,4.2514496
1427153788.079,5.5855217
1427153788.095,6.8101463
1427153788.11,7.7370224
1427153788.126,8.293297
1427153788.141,8.492611
1427153788.157,8.367077
1427153788.173,7.92947
1427153788.188,7.1705666
1427153788.204,6.1186714
1427153788.22,4.8742523
1427153788.235,3.6348
1427153788.251,2.6157532
1427153788.266,1.9638824
1427153788.282,1.6417885
1427153788.298,1.4764633
1427153788.313,1.1934738
1427153788.329,0.6209202
1427153788.345,-0.23052025
1427153788.36,-1.092493
1427153788.376,-1.5464268
1427153788.391,-1.1968174
1427153788.407,0.09929657
1427153788.423,2.1422577
1427153788.438,4.4042835
1427153788.454,6.239361
1427153788.47,7.1621323
1427153788.485,7.050537
1427153788.501,6.1707706
1427153788.516,5.048174
1427153788.532,4.1752815
1427153788.548,3.7868977
1427153788.563,3.7694721
1427153788.579,3.7864342
1427153788.595,3.4386597
1427153788.61,2.5189056
1427153788.626,1.0593433
1427153788.641,-0.6950264
1427153788.657,-2.4414158
1427153788.673,-3.9269295
1427153788.688,-5.005703
1427153788.704,-5.5908737
1427153788.72,-5.603773
1427153788.735,-4.966631
1427153788.751,-3.641573
1427153788.766,-1.7425289
1427153788.782,0.40641022
1427153788.798,2.3556404
1427153788.813,3.6964092
1427153788.829,4.3012486
1427153788.845,4.4042397
1427153788.86,4.4945126
1427153788.876,5.0055656
1427153788.891,6.0858593
1427153788.907,7.4224663
1427153788.923,8.451523
1427153788.938,8.619545
1427153788.954,7.656082
1427153788.97,5.6521435
1427153788.985,2.908928
1427153789.001,-0.23374939
1427153789.016,-3.5332813
1427153789.032,-6.777069
1427153789.048,-9.688686
1427153789.063,-11.892111
1427153789.079,-12.962824
1427153789.095,-12.681192
1427153789.11,-11.1249485
1427153789.126,-8.6944065
1427153789.141,-5.92638
1427153789.157,-3.278864
1427153789.173,-1.0061264
1427153789.188,0.85715866
1427153789.204,2.3813572
1427153789.22,3.6209545
1427153789.235,4.586075
1427153789.251,5.220558
1427153789.266,5.5215664
1427153789.282,5.5056744
1427153789.298,5.217821
1427153789.313,4.667433
1427153789.329,3.8397007
1427153789.345,2.7325954
1427153789.36,1.4000397
1427153789.376,-0.036449432
1427153789.391,-1.3792648
1427153789.407,-2.423315
1427153789.423,-3.0060806
1427153789.438,-3.0258102
1427153789.454,-2.428772
1427153789.47,-1.2566528
1427153789.485,0.3978367
1427153789.501,2.343195
1427153789.516,4.336605
1427153789.532,6.1293335
1427153789.548,7.5356617
1427153789.563,8.450373
1427153789.579,8.86759
1427153789.595,8.788271
1427153789.61,8.254568
1427153789.626,7.336302
1427153789.641,6.1715755
1427153789.657,4.97785
1427153789.673,4.040447
1427153789.688,3.5264568
1427153789.704,3.4204273
1427153789.72,3.4527702
1427153789.735,3.2184029
1427153789.751,2.3372574
1427153789.766,0.69138527
1427153789.782,-1.523901
1427153789.798,-3.8618813
1427153789.813,-5.8430786
1427153789.829,-7.1646633
1427153789.845,-7.8111744
1427153789.86,-8.000978
1427153789.876,-8.02763
1427153789.891,-8.11364
1427153789.907,-8.320946
1427153789.923,-8.599031
1427153789.938,-8.911617
1427153789.954,-9.2276745
1427153789.97,-9.584753
1427153789.985,-9.9727
1427153790.001,-10.36698
1427153790.016,-10.677864
1427153790.032,-10.862869
1427153790.048,-10.9005375
1427153790.063,-10.826036
1427153790.079,-10.66552
1427153790.095,-10.403206
1427153790.11,-9.991514
1427153790.126,-9.384092
1427153790.141,-8.561466
1427153790.157,-7.5844374
1427153790.173,-6.4855356
1427153790.188,-5.319811
1427153790.204,-3.997919
1427153790.22,-2.452672
1427153790.235,-0.6760349
1427153790.251,1.2438698
1427153790.266,3.153142
1427153790.282,4.877694
1427153790.298,6.3093624
1427153790.313,7.4254208
1427153790.329,8.279479
1427153790.345,8.917979
1427153790.36,9.338177
1427153790.376,9.49655
1427153790.392,9.330678
1427153790.407,8.842304
1427153790.423,8.149067
1427153790.438,7.427396
1427153790.454,6.858488
1427153790.47,6.521642
1427153790.485,6.3884435
1427153790.501,6.299229
1427153790.517,6.11717
1427153790.532,5.7712994
1427153790.548,5.3064013
1427153790.563,4.864446
1427153790.579,4.5580297
1427153790.595,4.452301
1427153790.61,4.5028424
1427153790.626,4.6116304
1427153790.642,4.683159
1427153790.657,4.662257
1427153790.673,4.5732927
1427153790.688,4.4602137
1427153790.704,4.3492565
1427153790.72,4.20269
1427153790.735,3.9906366
1427153790.751,3.6915126
1427153790.767,3.3717344
1427153790.782,3.1569676
1427153790.798,3.206327
1427153790.813,3.5771804
1427153790.829,4.146325
1427153790.845,4.5903215
1427153790.86,4.517715
1427153790.876,3.6322215
1427153790.892,1.9219694
1427153790.907,-0.32642984
1427153790.923,-2.6111562
1427153790.938,-4.418853
1427153790.954,-5.401099
1427153790.97,-5.5023217
1427153790.985,-4.910987
1427153791.001,-3.9470162
1427153791.017,-2.894986
1427153791.032,-1.9450517
1427153791.048,-1.1851232
1427153791.063,-0.68132997
1427153791.079,-0.4412024
1427153791.095,-0.46092176
1427153791.11,-0.6854
1427153791.126,-1.0352149
1427153791.142,-1.4143603
1427153791.157,-1.7887621
1427153791.173,-2.2079868
1427153791.188,-2.6146917
1427153791.204,-3.0732954
1427153791.22,-3.6696014
1427153791.235,-4.3951025
1427153791.251,-5.185998
1427153791.267,-5.925903
1427153791.282,-6.499986
1427153791.298,-6.813668
1427153791.313,-6.809881
1427153791.329,-6.4471197
1427153791.345,-5.766099
1427153791.36,-4.846985
1427153791.376,-3.8472176
1427153791.392,-2.9292352
1427153791.407,-2.2438414
1427153791.423,-1.821751
1427153791.438,-1.5998039
1427153791.454,-1.4294922
1427153791.47,-1.2025762
1427153791.485,-0.92026246
1427153791.501,-0.6772673
1427153791.517,-0.5981443
1427153791.532,-0.7375946
1427153791.548,-1.028796
1427153791.563,-1.3243475
1427153791.579,-1.4575977
1427153791.595,-1.34903
1427153791.61,-1.0125194
1427153791.626,-0.536732
1427153791.642,0.0075734854
1427153791.657,0.60445464
1427153791.673,1.278497
1427153791.688,2.045447
1427153791.704,2.8996599
1427153791.72,3.7911167
1427153791.735,4.698125
1427153791.751,5.621317
1427153791.767,6.5783296
1427153791.782,7.5701165
1427153791.798,8.565756
1427153791.813,9.489118
1427153791.829,10.2937355
1427153791.845,11.00462
1427153791.86,11.7392235
1427153791.876,12.637182
1427153791.892,13.776101
1427153791.907,15.06624
1427153791.923,16.24694
1427153791.938,16.949638
1427153791.954,16.820522
1427153791.97,15.641924
1427153791.985,13.414996
1427153792.001,10.340134
1427153792.017,6.7599545
1427153792.032,3.0512466
1427153792.048,-0.44365537
1427153792.063,-3.462516
1427153792.079,-5.807391
1427153792.095,-7.38241
1427153792.11,-8.166172
1427153792.126,-8.255943
1427153792.142,-7.8509207
1427153792.157,-7.232877
1427153792.173,-6.6809263
1427153792.188,-6.420054
1427153792.204,-6.550783
1427153792.22,-7.057228
1427153792.235,-7.8349786
1427153792.251,-8.760897
1427153792.267,-9.703977
1427153792.282,-10.577196
1427153792.298,-11.284971
1427153792.313,-11.751305
1427153792.329,-11.930701
1427153792.345,-11.831815
1427153792.36,-11.511276
1427153792.376,-11.075412
1427153792.392,-10.601017
1427153792.407,-10.092673
1427153792.423,-9.477759
1427153792.438,-8.640093
1427153792.454,-7.512575
1427153792.47,-6.156235
1427153792.485,-4.7739353
1427153792.501,-3.6406732
1427153792.517,-2.976425
1427153792.532,-2.8209553
1427153792.548,-2.9993558
1427153792.563,-3.2193742
1427153792.579,-3.2118793
1427153792.595,-2.876648
1427153792.61,-2.2859414
1427153792.626,-1.6048875
1427153792.642,-0.9753939
1427153792.657,-0.429025
1427153792.673,0.11655021
1427153792.688,0.75312245
1427153792.704,1.5079088
1427153792.72,2.2875464
1427153792.735,2.964789
1427153792.751,3.4601152
1427153792.767,3.84656
1427153792.782,4.2913504
1427153792.798,4.999228
1427153792.813,6.04917
1427153792.829,7.367255
1427153792.845,8.776051
1427153792.86,10.135857
1427153792.876,11.411333
1427153792.892,12.674042
1427153792.907,13.977423
1427153792.923,15.212135
1427153792.938,16.081768
1427153792.954,16.186464
1427153792.97,15.205456
1427153792.985,13.084433
1427153793.001,10.095714
1427153793.017,6.7511497
1427153793.032,3.5873246
1427153793.048,0.9664731
1427153793.064,-1.0055933
1427153793.079,-2.4388304
1427153793.095,-3.533101
1427153793.11,-4.423314
1427153793.126,-5.1376452
1427153793.142,-5.625289
1427153793.157,-5.8544865
1427153793.173,-5.8772936
1427153793.188,-5.834669
1427153793.204,-5.8981333
1427153793.22,-6.187421
1427153793.235,-6.6818285
1427153793.251,-7.253783
1427153793.267,-7.709113
1427153793.282,-7.903805
1427153793.298,-7.81483
1427153793.314,-7.5524354
1427153793.329,-7.2935157
1427153793.345,-7.1861954
1427153793.36,-7.2756634
1427153793.376,-7.4867954
1427153793.392,-7.655608
1427153793.407,-7.6287203
1427153793.423,-7.320468
1427153793.439,-6.7500095
1427153793.454,-6.004545
1427153793.47,-5.199703
1427153793.485,-4.4230366
1427153793.501,-3.731349
1427153793.517,-3.1362095
1427153793.532,-2.6305065
1427153793.548,-2.196268
1427153793.564,-1.7898216
1427153793.579,-1.3339443
1427153793.595,-0.7374182
1427153793.61,0.07104683
1427153793.626,1.0877266
1427153793.642,2.2201338
1427153793.657,3.2975082
1427153793.673,4.1492405
1427153793.689,4.653322
1427153793.704,4.8052263
1427153793.72,4.688714
1427153793.735,4.475933
1427153793.751,4.34235
1427153793.767,4.4243307
1427153793.782,4.7653046
1427153793.798,5.3338804
1427153793.814,6.0347414
1427153793.829,6.798311
1427153793.845,7.598284
1427153793.86,8.478497
1427153793.876,9.509769
1427153793.892,10.755608
1427153793.907,12.204477
1427153793.923,13.748499
1427153793.939,15.159313
1427153793.954,16.140001
1427153793.97,16.39129
1427153793.985,15.711372
1427153794.001,14.047571
1427153794.017,11.550545
1427153794.032,8.521204
1427153794.048,5.3571777
1427153794.064,2.4322033
1427153794.079,0.023970604
1427153794.095,-1.7498398
1427153794.11,-2.8987322
1427153794.126,-3.5460424
1427153794.142,-3.8593159
1427153794.157,-4.0059557
1427153794.173,-4.1292925
1427153794.189,-4.3317165
1427153794.204,-4.649474
1427153794.22,-5.084012
1427153794.235,-5.605941
1427153794.251,-6.1936893
1427153794.267,-6.792942
1427153794.282,-7.323969
1427153794.298,-7.6496553
1427153794.314,-7.661316
1427153794.329,-7.3378286
1427153794.345,-6.8044567
1427153794.36,-6.2858334
1427153794.376,-6.0136013
1427153794.392,-6.0710974
1427153794.407,-6.361001
1427153794.423,-6.623605
1427153794.439,-6.624855
1427153794.454,-6.265276
1427153794.47,-5.6537943
1427153794.485,-5.019704
1427153794.501,-4.572734
1427153794.517,-4.368209
1427153794.532,-4.321787
1427153794.548,-4.2896423
1427153794.564,-4.201228
1427153794.579,-4.104273
1427153794.595,-4.120697
1427153794.61,-4.294338
1427153794.626,-4.5555525
1427153794.642,-4.72106
1427153794.657,-4.615654
1427153794.673,-4.174485
1427153794.689,-3.5034637
1427153794.704,-2.8048172
1427153794.72,-2.273653
1427153794.735,-1.9863758
1427153794.751,-1.8916283
1427153794.767,-1.876728
1427153794.782,-1.8428211
1427153794.798,-1.7247372
1427153794.814,-1.513794
1427153794.829,-1.1925354
1427153794.845,-0.7458458
1427153794.86,-0.17735863
1427153794.876,0.4476452
1427153794.892,1.0365028
1427153794.907,1.4924202
1427153794.923,1.7979546
1427153794.939,2.040657
1427153794.954,2.3462868
1427153794.97,2.8160534
1427153794.985,3.4477158
1427153795.001,4.1319866
1427153795.017,4.7346
1427153795.032,5.177145
1427153795.048,5.5027256
1427153795.064,5.8534393
1427153795.079,6.3935375
1427153795.095,7.2163467
1427153795.11,8.325615
1427153795.126,9.633823
1427153795.142,11.033209
1427153795.157,12.40312
1427153795.173,13.602711
1427153795.189,14.433945
1427153795.204,14.6382675
1427153795.22,13.94339
1427153795.235,12.186277
1427153795.251,9.428944
1427153795.267,5.9981422
1427153795.282,2.4142723
1427153795.298,-0.7613983
1427153795.314,-3.132389
1427153795.329,-4.548929
1427153795.345,-5.146715
1427153795.36,-5.205023
1427153795.376,-5.0465565
1427153795.392,-4.899172
1427153795.407,-4.8822803
1427153795.423,-5.011154
1427153795.439,-5.2293453
1427153795.454,-5.473219
1427153795.47,-5.6655293
1427153795.485,-5.742058
1427153795.501,-5.666725
1427153795.517,-5.446785
1427153795.532,-5.118683
1427153795.548,-4.75041
1427153795.564,-4.398531
1427153795.579,-4.078533
1427153795.595,-3.7970943
1427153795.61,-3.547659
1427153795.626,-3.382677
1427153795.642,-3.364685
1427153795.657,-3.5552902
1427153795.673,-3.952591
1427153795.689,-4.4907665
1427153795.704,-5.01639
1427153795.72,-5.3683243
1427153795.735,-5.431385
1427153795.751,-5.184038
1427153795.767,-4.677294
1427153795.782,-4.022463
1427153795.798,-3.3328342
1427153795.814,-2.7048702
1427153795.829,-2.1790848
1427153795.845,-1.7781639
1427153795.86,-1.4682846
1427153795.876,-1.2085915
1427153795.892,-0.9459553
1427153795.907,-0.66464424
1427153795.923,-0.38960075
1427153795.939,-0.19595528
1427153795.954,-0.14854431
1427153795.97,-0.25979614
1427153795.986,-0.44091797
1427153796.001,-0.53334045
1427153796.017,-0.37043
1427153796.032,0.127182
1427153796.048,0.9239197
1427153796.064,1.855175
1427153796.079,2.7381935
1427153796.095,3.4373665
1427153796.111,3.9380035
1427153796.126,4.3034363
1427153796.142,4.6358147
1427153796.157,4.9943733
1427153796.173,5.3521156
1427153796.189,5.636448
1427153796.204,5.799095
1427153796.22,5.8687973
1427153796.236,5.948559
1427153796.251,6.180588
1427153796.267,6.665001
1427153796.282,7.4184036
1427153796.298,8.379707
1427153796.314,9.4488945
1427153796.329,10.536137
1427153796.345,11.563801
1427153796.361,12.478188
1427153796.376,13.187244
1427153796.392,13.558895
1427153796.407,13.423359
1427153796.423,12.630829
1427153796.439,11.1158905
1427153796.454,8.9707985
1427153796.47,6.446293
1427153796.486,3.8889465
1427153796.501,1.6587868
1427153796.517,0.038635254
1427153796.532,-0.8691673
1427153796.548,-1.1253395
1427153796.564,-0.9472923
1427153796.579,-0.6109047
1427153796.595,-0.36335373
1427153796.611,-0.35461807
1427153796.626,-0.6405678
1427153796.642,-1.1709671
1427153796.657,-1.8535347
1427153796.673,-2.5845795
1427153796.689,-3.281786
1427153796.704,-3.8989697
1427153796.72,-4.4173393
1427153796.736,-4.8331585
1427153796.751,-5.1412067
1427153796.767,-5.336817
1427153796.782,-5.429264
1427153796.798,-5.4543495
1427153796.814,-5.467142
1427153796.829,-5.5096664
1427153796.845,-5.5829525
1427153796.861,-5.6233788
1427153796.876,-5.549017
1427153796.892,-5.308758
1427153796.907,-4.9512405
1427153796.923,-4.6081524
1427153796.939,-4.4312515
1427153796.954,-4.492872
1427153796.97,-4.7433186
1427153796.986,-5.022051
1427153797.001,-5.1583023
1427153797.017,-5.04653
1427153797.032,-4.6960297
1427153797.048,-4.178179
1427153797.064,-3.5886555
1427153797.079,-2.9845715
1427153797.095,-2.3998623
1427153797.111,-1.8449211
1427153797.126,-1.3370018
1427153797.142,-0.88630676
1427153797.157,-0.5074825
1427153797.173,-0.18464088
1427153797.189,0.09369469
1427153797.204,0.35015678
1427153797.22,0.6077709
1427153797.236,0.91187096
1427153797.251,1.3037281
1427153797.267,1.8084183
1427153797.282,2.4172688
1427153797.298,3.0678196
1427153797.314,3.6535225
1427153797.329,4.1018867
1427153797.345,4.4024525
1427153797.361,4.618248
1427153797.376,4.8481884
1427153797.392,5.184017
1427153797.407,5.6563225
1427153797.423,6.2624283
1427153797.439,6.9836617
1427153797.454,7.8124638
1427153797.47,8.698185
1427153797.486,9.535664
1427153797.501,10.138254
1427153797.517,10.283152
1427153797.532,9.815636
1427153797.548,8.719423
1427153797.564,7.1343327
1427153797.579,5.3215637
1427153797.595,3.5336437
1427153797.611,1.9514332
1427153797.626,0.6349201
1427153797.642,-0.4432621
1427153797.657,-1.3409615
1427153797.673,-2.0778503
1427153797.689,-2.6692429
1427153797.704,-3.105091
1427153797.72,-3.419632
1427153797.736,-3.644249
1427153797.751,-3.8382587
1427153797.767,-4.0279026
1427153797.782,-4.223217
1427153797.798,-4.413208
1427153797.814,-4.5941677
1427153797.829,-4.7643833
1427153797.845,-4.9233837
1427153797.861,-5.074338
1427153797.876,-5.2324305
1427153797.892,-5.4106474
1427153797.907,-5.6172886
1427153797.923,-5.843631
1427153797.939,-6.055518
1427153797.954,-6.201536
1427153797.97,-6.2533073
1427153797.986,-6.203964
1427153798.001,-6.0775385
1427153798.017,-5.8885336
1427153798.032,-5.6467657
1427153798.048,-5.3476906
1427153798.064,-4.993891
1427153798.079,-4.599964
1427153798.095,-4.210887
1427153798.111,-3.8402843
1427153798.126,-3.484048
1427153798.142,-3.1057673
1427153798.157,-2.6717854
1427153798.173,-2.1743917
1427153798.189,-1.6347294
1427153798.204,-1.06668
1427153798.22,-0.46759605
1427153798.236,0.19737339
1427153798.251,0.92898655
1427153798.267,1.704215
1427153798.282,2.4436893
1427153798.298,3.0906105
1427153798.314,3.6278906
1427153798.329,4.1051493
1427153798.345,4.5846386
1427153798.361,5.0883846
1427153798.376,5.5649204
1427153798.392,5.931692
1427153798.407,6.1607246
1427153798.423,6.3434553
1427153798.439,6.6796217
1427153798.454,7.3868628
1427153798.47,8.5491085
1427153798.486,10.037001
1427153798.501,11.515301
1427153798.517,12.587892
1427153798.532,12.935458
1427153798.548,12.442032
1427153798.564,11.194922
1427153798.579,9.425948
1427153798.595,7.3796906
1427153798.611,5.2658973
1427153798.626,3.2145886
1427153798.642,1.3415828
1427153798.658,-0.23333597
1427153798.673,-1.3822117
1427153798.689,-2.0080113
1427153798.704,-2.120274
1427153798.72,-1.8534908
1427153798.736,-1.4556947
1427153798.751,-1.2044449
1427153798.767,-1.3052878
1427153798.783,-1.8283687
1427153798.798,-2.678119
1427153798.814,-3.6530733
1427153798.829,-4.5408154
1427153798.845,-5.2098093
1427153798.861,-5.65506
1427153798.876,-5.962853
1427153798.892,-6.2282944
1427153798.908,-6.5121775
1427153798.923,-6.770829
1427153798.939,-6.942381
1427153798.954,-6.9757395
1427153798.97,-6.9082913
1427153798.986,-6.820542
1427153799.001,-6.8040075
1427153799.017,-6.87829
1427153799.033,-6.9791155
1427153799.048,-7.026141
1427153799.064,-6.9602146
1427153799.079,-6.8056245
1427153799.095,-6.628087
1427153799.111,-6.466387
1427153799.126,-6.309266
1427153799.142,-6.066308
1427153799.158,-5.653078
1427153799.173,-5.0085874
1427153799.189,-4.180863
1427153799.204,-3.2576914
1427153799.22,-2.363769
1427153799.236,-1.5887542
1427153799.251,-0.98889875
1427153799.267,-0.5731516
1427153799.283,-0.33246183
1427153799.298,-0.21283913
1427153799.314,-0.13320827
1427153799.329,0.037384033
1427153799.345,0.43065023
1427153799.361,1.1203485
1427153799.376,2.1023173
1427153799.392,3.2705383
1427153799.408,4.4539304
1427153799.423,5.520005
1427153799.439,6.3977504
1427153799.454,7.128791
1427153799.47,7.813648
1427153799.486,8.604513
1427153799.501,9.605828
1427153799.517,10.888929
1427153799.533,12.426355
1427153799.548,14.099642
1427153799.564,15.674734
1427153799.579,16.813227
1427153799.595,17.157543
1427153799.611,16.463612
1427153799.626,14.716372
1427153799.642,12.166808
1427153799.658,9.266043
1427153799.673,6.5065107
1427153799.689,4.231845
1427153799.704,2.5559874
1427153799.72,1.3632994
1427153799.736,0.44765472
1427153799.751,-0.38215256
1427153799.767,-1.1984987
1427153799.783,-1.9906359
1427153799.798,-2.6922207
1427153799.814,-3.2714605
1427153799.829,-3.7393818
1427153799.845,-4.1498165
1427153799.861,-4.574198
1427153799.876,-5.067295
1427153799.892,-5.647949
1427153799.908,-6.2963123
1427153799.923,-6.9382706
1427153799.939,-7.487755
1427153799.954,-7.866688
1427153799.97,-8.070843
1427153799.986,-8.1502075
1427153800.001,-8.200775
1427153800.017,-8.273106
1427153800.033,-8.359476
1427153800.048,-8.370974
1427153800.064,-8.227995
1427153800.079,-7.8974934
1427153800.095,-7.464445
1427153800.111,-7.069313
1427153800.126,-6.835083
1427153800.142,-6.791706
1427153800.158,-6.8677197
1427153800.173,-6.9289074
1427153800.189,-6.8666325
1427153800.204,-6.635975
1427153800.22,-6.2621994
1427153800.236,-5.819359
1427153800.251,-5.375002
1427153800.267,-4.9575806
1427153800.283,-4.5766487
1427153800.298,-4.212368
1427153800.314,-3.8423176
1427153800.329,-3.4315758
1427153800.345,-2.9565144
1427153800.361,-2.4021854
1427153800.376,-1.7917519
1427153800.392,-1.174469
1427153800.408,-0.6219063
1427153800.423,-0.17697906
1427153800.439,0.16030312
1427153800.454,0.46401215
1427153800.47,0.82244873
1427153800.486,1.3261986
1427153800.501,1.9978275
1427153800.517,2.80686
1427153800.533,3.663845
1427153800.548,4.471039
1427153800.564,5.1486187
1427153800.579,5.7143917
1427153800.595,6.2787533
1427153800.611,7.018692
1427153800.626,8.106583
1427153800.642,9.6061535
1427153800.658,11.39415
1427153800.673,13.1830635
1427153800.689,14.569067
1427153800.704,15.190435
1427153800.72,14.834257
1427153800.736,13.514593
1427153800.751,11.437338
1427153800.767,8.941475
1427153800.783,6.3728104
1427153800.798,4.015417
1427153800.814,2.0348816
1427153800.829,0.5028057
1427153800.845,-0.6179733
1427153800.861,-1.4134655
1427153800.876,-2.0338345
1427153800.892,-2.6359463
1427153800.908,-3.3433895
1427153800.923,-4.2121124
1427153800.939,-5.21422
1427153800.954,-6.230318
1427153800.97,-7.1239967
1427153800.986,-7.7594357
1427153801.001,-8.09565
1427153801.017,-8.174543
1427153801.033,-8.103899
1427153801.048,-8.009142
1427153801.064,-7.996334
1427153801.079,-8.104507
1427153801.095,-8.342678
1427153801.111,-8.690571
1427153801.126,-9.09761
1427153801.142,-9.47348
1427153801.158,-9.705021
1427153801.173,-9.679535
1427153801.189,-9.340191
1427153801.204,-8.733364
1427153801.22,-8.011074
1427153801.236,-7.352501
1427153801.251,-6.9010735
1427153801.267,-6.6820755
1427153801.283,-6.610361
1427153801.298,-6.551525
1427153801.314,-6.417757
1427153801.33,-6.1905117
1427153801.345,-5.9441395
1427153801.361,-5.7320366
1427153801.376,-5.5704823
1427153801.392,-5.3997307
1427153801.408,-5.136091
1427153801.423,-4.7308598
1427153801.439,-4.2223167
1427153801.455,-3.6928005
1427153801.47,-3.2346687
1427153801.486,-2.8793335
1427153801.501,-2.5954418
1427153801.517,-2.3162823
1427153801.533,-1.9892368
1427153801.548,-1.6024876
1427153801.564,-1.1914883
1427153801.58,-0.77514076
1427153801.595,-0.33815575
1427153801.611,0.19666672
1427153801.626,0.9065132
1427153801.642,1.8203735
1427153801.658,2.876089
1427153801.673,3.9432392
1427153801.689,4.891823
1427153801.705,5.6554203
1427153801.72,6.2516613
1427153801.736,6.7996407
1427153801.751,7.4615555
1427153801.767,8.402224
1427153801.783,9.72669
1427153801.798,11.4468155
1427153801.814,13.44463
1427153801.83,15.477089
1427153801.845,17.180618
1427153801.861,18.174248
1427153801.876,18.138996
1427153801.892,16.943363
1427153801.908,14.672827
1427153801.923,11.654499
1427153801.939,8.328653
1427153801.955,5.1498756
1427153801.97,2.474699
1427153801.986,0.503006
1427153802.001,-0.72771835
1427153802.017,-1.2980881
1427153802.033,-1.3870449
1427153802.048,-1.2076187
1427153802.064,-0.9799328
1427153802.08,-0.898798
1427153802.095,-1.0991001
1427153802.111,-1.6394329
1427153802.126,-2.4875984
1427153802.142,-3.5373306
1427153802.158,-4.647894
1427153802.173,-5.669916
1427153802.189,-6.4889717
1427153802.205,-7.0143204
1427153802.22,-7.217043
1427153802.236,-7.1186066
1427153802.251,-6.823826
1427153802.267,-6.481367
1427153802.283,-6.270603
1427153802.298,-6.307974
1427153802.314,-6.6045284
1427153802.33,-7.0444164
1427153802.345,-7.442342
1427153802.361,-7.6284704
1427153802.376,-7.5213413
1427153802.392,-7.149358
1427153802.408,-6.629344
1427153802.423,-6.085902
1427153802.439,-5.6025305
1427153802.455,-5.177353
1427153802.47,-4.77017
1427153802.486,-4.3240194
1427153802.501,-3.8384562
1427153802.517,-3.3300104
1427153802.533,-2.8600035
1427153802.548,-2.4580002
1427153802.564,-2.1236324
1427153802.58,-1.8257122
1427153802.595,-1.542759
1427153802.611,-1.2761583
1427153802.626,-1.0748758
1427153802.642,-0.9749403
1427153802.658,-0.954587
1427153802.673,-0.9307699
1427153802.689,-0.7537489
1427153802.705,-0.3065281
1427153802.72,0.41758156
1427153802.736,1.3213196
1427153802.751,2.2244816
1427153802.767,2.988927
1427153802.783,3.5745664
1427153802.798,4.0579996
1427153802.814,4.541667
1427153802.83,5.0715117
1427153802.845,5.578967
1427153802.861,5.939902
1427153802.876,6.0537753
1427153802.892,5.957437
1427153802.908,5.829572
1427153802.923,5.939739
1427153802.939,6.509466
1427153802.955,7.608012
1427153802.97,9.0939
1427153802.986,10.672573
1427153803.001,11.969411
1427153803.017,12.653878
1427153803.033,12.517676
1427153803.048,11.513197
1427153803.064,9.747249
1427153803.08,7.445534
1427153803.095,4.898534
1427153803.111,2.4167473
1427153803.126,0.28149164
1427153803.142,-1.2973163
1427153803.158,-2.2245502
1427153803.173,-2.542366
1427153803.189,-2.431385
1427153803.205,-2.1599455
1427153803.22,-2.0066683
1427153803.236,-2.1621706
1427153803.251,-2.693022
1427153803.267,-3.498536
1427153803.283,-4.393853
1427153803.298,-5.159996
1427153803.314,-5.645695
1427153803.33,-5.80714
1427153803.345,-5.722266
1427153803.361,-5.5305095
1427153803.376,-5.381292
1427153803.392,-5.370459
1427153803.408,-5.5169306
1427153803.423,-5.7596984
1427153803.439,-6.0191975
1427153803.455,-6.228775
1427153803.47,-6.3658237
1427153803.486,-6.436522
1427153803.501,-6.4497557
1427153803.517,-6.378691
1427153803.533,-6.156097
1427153803.548,-5.709073
1427153803.564,-5.024951
1427153803.58,-4.1686487
1427153803.595,-3.28127
1427153803.611,-2.503015
1427153803.626,-1.9106057
1427153803.642,-1.4934092
1427153803.658,-1.1778638
1427153803.673,-0.86444426
1427153803.689,-0.51426506
1427153803.705,-0.14340162
1427153803.72,0.21512699
1427153803.736,0.5722852
1427153803.751,0.99248695
1427153803.767,1.599843
1427153803.783,2.4708748
1427153803.798,3.5832968
1427153803.814,4.793202
1427153803.83,5.8693223
1427153803.845,6.5879693
1427153803.861,6.821598
1427153803.876,6.5656543
1427153803.892,5.9307203
1427153803.908,5.071661
1427153803.923,4.171815
1427153803.939,3.3741255
1427153803.955,2.7989798
1427153803.97,2.513029
1427153803.986,2.5289507
1427153804.002,2.8027096
1427153804.017,3.2515736
1427153804.033,3.7727957
1427153804.048,4.307928
1427153804.064,4.8424664
1427153804.08,5.3956385
1427153804.095,5.98868
1427153804.111,6.6043434
1427153804.126,7.1712246
1427153804.142,7.5806246
1427153804.158,7.712761
1427153804.173,7.48713
1427153804.189,6.8770647
1427153804.205,5.9174213
1427153804.22,4.6799603
1427153804.236,3.2722235
1427153804.252,1.8209448
1427153804.267,0.4713335
1427153804.283,-0.6325903
1427153804.298,-1.3717632
1427153804.314,-1.7177992
1427153804.33,-1.7135544
1427153804.345,-1.4979534
1427153804.361,-1.2203732
1427153804.377,-1.0276594
1427153804.392,-0.98902607
1427153804.408,-1.1383772
1427153804.423,-1.4751139
1427153804.439,-2.0057068
1427153804.455,-2.721161
1427153804.47,-3.5689993
1427153804.486,-4.4219522
1427153804.502,-5.1101856
1427153804.517,-5.477537
1427153804.533,-5.487625
1427153804.548,-5.245735
1427153804.564,-4.957037
1427153804.58,-4.826082
1427153804.595,-4.9634924
1427153804.611,-5.3349
1427153804.627,-5.8317394
1427153804.642,-6.3157187
1427153804.658,-6.719204
1427153804.673,-7.021636
1427153804.689,-7.2421265
1427153804.705,-7.361497
1427153804.72,-7.333622
1427153804.736,-7.096572
1427153804.752,-6.63431
1427153804.767,-5.9915752
1427153804.783,-5.2700615
1427153804.798,-4.5688972
1427153804.814,-3.9425669
1427153804.83,-3.382286
1427153804.845,-2.8462963
1427153804.861,-2.2773008
1427153804.877,-1.6499815
1427153804.892,-0.9604635
1427153804.908,-0.23154354
1427153804.923,0.532362
1427153804.939,1.3285751
1427153804.955,2.1792145
1427153804.97,3.1089878
1427153804.986,4.1511087
1427153805.002,5.3122663
1427153805.017,6.5942955
1427153805.033,7.9698973
1427153805.048,9.406736
1427153805.064,10.852943
1427153805.08,12.268444
1427153805.095,13.620022
1427153805.111,14.872709
1427153805.127,15.9430485
1427153805.142,16.71366
1427153805.158,17.014627
1427153805.173,16.67604
1427153805.189,15.616953
1427153805.205,13.881868
1427153805.22,11.658087
1427153805.236,9.243187
1427153805.252,6.9260387
1427153805.267,4.928543
1427153805.283,3.3199654
1427153805.298,2.070119
1427153805.314,1.075634
1427153805.33,0.25272465
1427153805.345,-0.45587826
1427153805.361,-1.0573807
1427153805.377,-1.5574331
1427153805.392,-1.9732695
1427153805.408,-2.3662539
1427153805.423,-2.796361
1427153805.439,-3.3155403
1427153805.455,-3.9218454
1427153805.47,-4.557395
1427153805.486,-5.1252203
1427153805.502,-5.5407095
1427153805.517,-5.7726345
1427153805.533,-5.8684864
1427153805.548,-5.909116
1427153805.564,-5.9739027
1427153805.58,-6.0685034
1427153805.595,-6.1148796
1427153805.611,-5.9984064
1427153805.627,-5.6383247
1427153805.642,-5.0264425
1427153805.658,-4.2539577
1427153805.673,-3.456396
1427153805.689,-2.7718334
1427153805.705,-2.2756357
1427153805.72,-1.9856825
1427153805.736,-1.8780022
1427153805.752,-1.9319859
1427153805.767,-2.1151333
1427153805.783,-2.401227
1427153805.798,-2.729146
1427153805.814,-3.0173569
1427153805.83,-3.1686954
1427153805.845,-3.1172123
1427153805.861,-2.8269277
1427153805.877,-2.3119555
1427153805.892,-1.628108
1427153805.908,-0.8507304
1427153805.923,-0.045843124
1427153805.939,0.722178
1427153805.955,1.434917
1427153805.97,2.0880165
1427153805.986,2.7156067
1427153806.002,3.3267336
1427153806.017,3.9261274
1427153806.033,4.4996824
1427153806.048,5.0519924
1427153806.064,5.6151223
1427153806.08,6.268128
1427153806.095,7.1137776
1427153806.111,8.233887
1427153806.127,9.623443
1427153806.142,11.17283
1427153806.158,12.645821
1427153806.173,13.770067
1427153806.189,14.2845
1427153806.205,14.031279
1427153806.22,12.9874735
1427153806.236,11.277979
1427153806.252,9.120807
1427153806.267,6.793191
1427153806.283,4.539858
1427153806.298,2.582972
1427153806.314,1.0786916
1427153806.33,0.105965614
1427153806.345,-0.36922884
1427153806.361,-0.49081302
1427153806.377,-0.4892726
1427153806.392,-0.6180973
1427153806.408,-1.0380502
1427153806.423,-1.7605681
1427153806.439,-2.6599975
1427153806.455,-3.5223532
1427153806.47,-4.187895
1427153806.486,-4.6132693
1427153806.502,-4.892453
1427153806.517,-5.1405983
1427153806.533,-5.4238873
1427153806.548,-5.6891575
1427153806.564,-5.840214
1427153806.58,-5.824814
1427153806.595,-5.7105207
1427153806.611,-5.6647253
1427153806.627,-5.861952
1427153806.642,-6.3525896
1427153806.658,-7.028182
1427153806.673,-7.6770077
1427153806.689,-8.083093
1427153806.705,-8.147325
1427153806.72,-7.9340706
1427153806.736,-7.592763
1427153806.752,-7.2890654
1427153806.767,-7.079343
1427153806.783,-6.9185457
1427153806.798,-6.681467
1427153806.814,-6.2555466
1427153806.83,-5.588228
1427153806.845,-4.725523
1427153806.861,-3.7460365
1427153806.877,-2.7453022
1427153806.892,-1.7948284
1427153806.908,-0.9417877
1427153806.924,-0.20242882
1427153806.939,0.41135406
1427153806.955,0.9173393
1427153806.97,1.3484497
1427153806.986,1.772007
1427153807.002,2.2397842
1427153807.017,2.793888
1427153807.033,3.438223
1427153807.049,4.173008
1427153807.064,5.002611
1427153807.08,5.966755
1427153807.095,7.118208
1427153807.111,8.512472
1427153807.127,10.124292
1427153807.142,11.844297
1427153807.158,13.445705
1427153807.174,14.635281
1427153807.189,15.111774
1427153807.205,14.670195
1427153807.22,13.273184
1427153807.236,11.094397
1427153807.252,8.476879
1427153807.267,5.857458
1427153807.283,3.6126328
1427153807.299,1.9427567
1427153807.314,0.8563938
1427153807.33,0.178442
1427153807.345,-0.32626152
1427153807.361,-0.8547516
1427153807.377,-1.5176907
1427153807.392,-2.3102741
1427153807.408,-3.1662712
1427153807.424,-3.9874096
1427153807.439,-4.7275696
1427153807.455,-5.354954
1427153807.47,-5.903
1427153807.486,-6.3999023
1427153807.502,-6.8937416
1427153807.517,-7.4153023
1427153807.533,-7.9835587
1427153807.549,-8.584263
1427153807.564,-9.178127
1427153807.58,-9.704853
1427153807.595,-10.105099
1427153807.611,-10.32856
1427153807.627,-10.338726
1427153807.642,-10.123013
1427153807.658,-9.694649
1427153807.674,-9.0966835
1427153807.689,-8.421982
1427153807.705,-7.77684
1427153807.72,-7.277321
1427153807.736,-6.968773
1427153807.752,-6.8341484
1427153807.767,-6.762596
1427153807.783,-6.6114845
1427153807.799,-6.2549133
1427153807.814,-5.639366
1427153807.83,-4.8136444
1427153807.845,-3.8845978
1427153807.861,-2.9685287
1427153807.877,-2.1553307
1427153807.892,-1.4985275
1427153807.908,-1.0300102
1427153807.924,-0.7590027
1427153807.939,-0.6811485
1427153807.955,-0.72302246
1427153807.97,-0.768837
1427153807.986,-0.66426086
1427153808.002,-0.30844116
1427153808.017,0.3427887
1427153808.033,1.2278748
1427153808.049,2.232769
1427153808.064,3.2383385
1427153808.08,4.1695175
1427153808.095,5.026371
1427153808.111,5.8721275
1427153808.127,6.798462
1427153808.142,7.886791
1427153808.158,9.164509
1427153808.174,10.580933
1427153808.189,12.002499
1427153808.205,13.257618
1427153808.22,14.141491
1427153808.236,14.491482
1427153808.252,14.199795
1427153808.267,13.257614
1427153808.283,11.722458
1427153808.299,9.72324
1427153808.314,7.4412537
1427153808.33,5.089802
1427153808.345,2.8987846
1427153808.361,1.0403404
1427153808.377,-0.41484833
1427153808.392,-1.5003128
1427153808.408,-2.346222
1427153808.424,-3.0755653
1427153808.439,-3.7570305
1427153808.455,-4.3715324
1427153808.47,-4.8686066
1427153808.486,-5.224579
1427153808.502,-5.507038
1427153808.517,-5.8424416
1427153808.533,-6.360092
1427153808.549,-7.128792
1427153808.564,-8.111553
1427153808.58,-9.186916
1427153808.595,-10.221485
1427153808.611,-11.095062
1427153808.627,-11.757664
1427153808.642,-12.176765
1427153808.658,-12.3417015
1427153808.674,-12.221142
1427153808.689,-11.814281
1427153808.705,-11.134808
1427153808.72,-10.235981
1427153808.736,-9.1966095
1427153808.752,-8.099846
1427153808.767,-7.023842
1427153808.783,-6.0616226
1427153808.799,-5.282341
1427153808.814,-4.729248
1427153808.83,-4.374897
1427153808.845,-4.111561
1427153808.861,-3.803543
1427153808.877,-3.3720474
1427153808.892,-2.8207016
1427153808.908,-2.278511
1427153808.924,-1.8984299
1427153808.939,-1.771843
1427153808.955,-1.8145523
1427153808.97,-1.8102455
1427153808.986,-1.4889793
1427153809.002,-0.6871872
1427153809.017,0.5413742
1427153809.033,1.9556885
1427153809.049,3.2585144
1427153809.064,4.2246704
1427153809.08,4.83514
1427153809.095,5.2298393
1427153809.111,5.6379776
1427153809.127,6.2318993
1427153809.142,7.0819206
1427153809.158,8.140488
1427153809.174,9.319599
1427153809.189,10.51503
1427153809.205,11.638493
1427153809.22,12.572746
1427153809.236,13.131081
1427153809.252,13.0904045
1427153809.267,12.258644
1427153809.283,10.570927
1427153809.299,8.156166
1427153809.314,5.313648
1427153809.33,2.4251595
1427153809.345,-0.17304993
1427153809.361,-2.2685204
1427153809.377,-3.8218956
1427153809.392,-4.8866005
1427153809.408,-5.5606117
1427153809.424,-5.9119453
1427153809.439,-5.983574
1427153809.455,-5.822712
1427153809.47,-5.527191
1427153809.486,-5.2742195
1427153809.502,-5.263115
1427153809.517,-5.6232224
1427153809.533,-6.363922
1427153809.549,-7.3180237
1427153809.564,-8.234619
1427153809.58,-8.8302765
1427153809.596,-8.9387665
1427153809.611,-8.551014
1427153809.627,-7.819439
1427153809.642,-6.9670544
1427153809.658,-6.1947575
1427153809.674,-5.60071
1427153809.689,-5.1801147
1427153809.705,-4.877342
1427153809.721,-4.6467533
1427153809.736,-4.47863
1427153809.752,-4.404276
1427153809.767,-4.4360867
1427153809.783,-4.5600433
1427153809.799,-4.7174625
1427153809.814,-4.8385143
1427153809.83,-4.8643227
1427153809.846,-4.7943325
1427153809.861,-4.6364555
1427153809.877,-4.4173107
1427153809.892,-4.1255264
1427153809.908,-3.7197247
1427153809.924,-3.141409
1427153809.939,-2.3551483
1427153809.955,-1.3686733
1427153809.971,-0.22198486
1427153809.986,0.99484444
1427153810.002,2.1766548
1427153810.017,3.2190533
1427153810.033,4.0091076
1427153810.049,4.471678
1427153810.064,4.57205
1427153810.08,4.38373
1427153810.096,4.0436516
1427153810.111,3.7560034
1427153810.127,3.7101917
1427153810.142,4.011492
1427153810.158,4.650897
1427153810.174,5.50488
1427153810.189,6.421818
1427153810.205,7.302327
1427153810.221,8.149707
1427153810.236,9.068852
1427153810.252,10.197118
1427153810.267,11.615667
1427153810.283,13.263281
1427153810.299,14.928257
1427153810.314,16.274849
1427153810.33,16.952932
1427153810.346,16.699284
1427153810.361,15.415092
1427153810.377,13.214526
1427153810.392,10.397131
1427153810.408,7.3647423
1427153810.424,4.536149
1427153810.439,2.2471867
1427153810.455,0.6927395
1427153810.471,-0.107151985
1427153810.486,-0.27805138
1427153810.502,-0.06376076
1427153810.517,0.26324272
1427153810.533,0.43932438
1427153810.549,0.2822857
1427153810.564,-0.30352974
1427153810.58,-1.2943287
1427153810.596,-2.5901747
1427153810.611,-4.0296288
1427153810.627,-5.4422197
1427153810.642,-6.6885896
1427153810.658,-7.696363
1427153810.674,-8.435158
1427153810.689,-8.933074
1427153810.705,-9.231517
1427153810.721,-9.379502
1427153810.736,-9.392095
1427153810.752,-9.291059
1427153810.767,-9.074903
1427153810.783,-8.769641
1427153810.799,-8.37892
1427153810.814,-7.9142585
1427153810.83,-7.3766494
1427153810.846,-6.776709
1427153810.861,-6.1534815
1427153810.877,-5.577016
1427153810.892,-5.135029
1427153810.908,-4.8856096
1427153810.924,-4.828659
1427153810.939,-4.891928
1427153810.955,-4.938179
1427153810.971,-4.81322
1427153810.986,-4.391343
1427153811.002,-3.6365342
1427153811.017,-2.605913
1427153811.033,-1.469023
1427153811.049,-0.4168172
1427153811.064,0.3911878
1427153811.08,0.9085914
1427153811.096,1.2069249
1427153811.111,1.4335122
1427153811.127,1.7112275
1427153811.142,2.0802877
1427153811.158,2.4776444
1427153811.174,2.8301845
1427153811.189,3.1181583
1427153811.205,3.415382
1427153811.221,3.8281317
1427153811.236,4.4280205
1427153811.252,5.166501
1427153811.267,5.914011
1427153811.283,6.5206575
1427153811.299,6.9314785
1427153811.314,7.1989765
1427153811.33,7.44948
1427153811.346,7.786682
1427153811.361,8.255024
1427153811.377,8.845337
1427153811.392,9.556105
1427153811.408,10.416087
1427153811.424,11.475508
1427153811.439,12.712491
1427153811.455,13.974176
1427153811.471,14.969806
1427153811.486,15.3695
1427153811.502,14.909139
1427153811.517,13.50592
1427153811.533,11.26927
1427153811.549,8.504269
1427153811.564,5.5956473
1427153811.58,2.9545722
1427153811.596,0.90283155
1427153811.611,-0.37679386
1427153811.627,-0.89140606
1427153811.642,-0.8222604
1427153811.658,-0.48218775
1427153811.674,-0.21158934
1427153811.689,-0.2647295
1427153811.705,-0.7486117
1427153811.721,-1.6130435
1427153811.736,-2.6932108
1427153811.752,-3.8152406
1427153811.767,-4.848211
1427153811.783,-5.75049
1427153811.799,-6.5066156
1427153811.814,-7.121763
1427153811.83,-7.5400457
1427153811.846,-7.7149105
1427153811.861,-7.6254897
1427153811.877,-7.346996
1427153811.892,-7.01683
1427153811.908,-6.793105
1427153811.924,-6.748282
1427153811.939,-6.8577623
1427153811.955,-6.985278
1427153811.971,-6.987157
1427153811.986,-6.7896256
1427153812.002,-6.4311743
1427153812.017,-6.0348735
1427153812.033,-5.7537966
1427153812.049,-5.676967
1427153812.064,-5.7988815
1427153812.08,-6.024872
1427153812.096,-6.2176623
1427153812.111,-6.252282
1427153812.127,-6.0914335
1427153812.142,-5.742819
1427153812.158,-5.245125
1427153812.174,-4.6329203
1427153812.189,-3.9279819
1427153812.205,-3.1373372
1427153812.221,-2.3035035
1427153812.236,-1.4913418
1427153812.252,-0.7567749
1427153812.268,-0.12753963
1427153812.283,0.41437292
1427153812.299,0.9214556
1427153812.314,1.4156818
1427153812.33,1.8688753
1427153812.346,2.197926
1427153812.361,2.329853
1427153812.377,2.2377076
1427153812.393,2.0002265
1427153812.408,1.7528458
1427153812.424,1.6435604
1427153812.439,1.7541738
1427153812.455,2.0961523
1427153812.471,2.6531706
1427153812.486,3.4283633
1427153812.502,4.4808555
1427153812.518,5.894369
1427153812.533,7.692376
1427153812.549,9.763779
1427153812.564,11.834318
1427153812.58,13.5125675
1427153812.596,14.400635
1427153812.611,14.245857
1427153812.627,13.008543
1427153812.643,10.879253
1427153812.658,8.192438
1427153812.674,5.335327
1427153812.689,2.636745
1427153812.705,0.3488078
1427153812.721,-1.400538
1427153812.736,-2.5860777
1427153812.752,-3.2772756
1427153812.768,-3.6242914
1427153812.783,-3.8056393
1427153812.799,-3.975995
1427153812.814,-4.2348604
1427153812.83,-4.589779
1427153812.846,-4.9843245
1427153812.861,-5.315935
1427153812.877,-5.487952
1427153812.893,-5.4317017
1427153812.908,-5.162428
1427153812.924,-4.768854
1427153812.939,-4.420226
1427153812.955,-4.304144
1427153812.971,-4.5314674
1427153812.986,-5.091007
1427153813.002,-5.8449984
1427153813.018,-6.549758
1427153813.033,-6.978774
1427153813.049,-6.9889755
1427153813.064,-6.5763044
1427153813.08,-5.8403826
1427153813.096,-4.966135
1427153813.111,-4.134034
1427153813.127,-3.502224
1427153813.143,-3.1553974
1427153813.158,-3.0890884
1427153813.174,-3.2369385
1427153813.189,-3.4964876
1427153813.205,-3.7581015
1427153813.221,-3.9509287
1427153813.236,-4.0215645
1427153813.252,-3.9038572
1427153813.268,-3.517539
1427153813.283,-2.786376
1427153813.299,-1.6932974
1427153813.314,-0.35333347
1427153813.33,1.0179491
1427153813.346,2.1548357
1427153813.361,2.8820581
1427153813.377,3.1772823
1427153813.393,3.1807957
1427153813.408,3.0882092
1427153813.424,3.0697632
1427153813.439,3.1572018
1427153813.455,3.2774506
1427153813.471,3.3370495
1427153813.486,3.3311863
1427153813.502,3.3697548
1427153813.518,3.6483402
1427153813.533,4.360901
1427153813.549,5.586035
1427153813.564,7.241358
1427153813.58,9.089392
1427153813.596,10.792734
1427153813.611,12.003386
1427153813.627,12.443014
1427153813.643,11.971458
1427153813.658,10.63146
1427153813.674,8.634626
1427153813.689,6.2926655
1427153813.705,3.952692
1427153813.721,1.8818817
1427153813.736,0.24188042
1427153813.752,-0.9327049
1427153813.768,-1.6971493
1427153813.783,-2.162695
1427153813.799,-2.4460812
1427153813.814,-2.6487598
1427153813.83,-2.8557415
1427153813.846,-3.1337376
1427153813.861,-3.5222797
1427153813.877,-4.026396
1427153813.893,-4.598896
1427153813.908,-5.190485
1427153813.924,-5.7339897
1427153813.939,-6.1778164
1427153813.955,-6.4796677
1427153813.971,-6.617935
1427153813.986,-6.5802765
1427153814.002,-6.393362
1427153814.018,-6.1009865
1427153814.033,-5.7564907
1427153814.049,-5.412899
1427153814.064,-5.09807
1427153814.08,-4.8325996
1427153814.096,-4.6209965
1427153814.111,-4.455368
1427153814.127,-4.2927666
1427153814.143,-4.0741253
1427153814.158,-3.7340279
1427153814.174,-3.2231026
1427153814.189,-2.5558395
1427153814.205,-1.769659
1427153814.221,-0.9421654
1427153814.236,-0.120435715
1427153814.252,0.66805077
1427153814.268,1.4385662
1427153814.283,2.1974716
1427153814.299,2.9270859
1427153814.314,3.5806751
1427153814.33,4.107744
1427153814.346,4.4962444
1427153814.361,4.779339
1427153814.377,5.011591
1427153814.393,5.2510033
1427153814.408,5.524706
1427153814.424,5.868107
1427153814.439,6.332823
1427153814.455,7.0003853
1427153814.471,7.965309
1427153814.486,9.309149
1427153814.502,10.998608
1427153814.518,12.880022
1427153814.533,14.669107
1427153814.549,16.032316
1427153814.564,16.6534
1427153814.58,16.326242
1427153814.596,15.022024
1427153814.611,12.900951
1427153814.627,10.273247
1427153814.643,7.5224113
1427153814.658,5.0001736
1427153814.674,2.9277802
1427153814.689,1.3682747
1427153814.705,0.22450256
1427153814.721,-0.689785
1427153814.736,-1.5383759
1427153814.752,-2.394228
1427153814.768,-3.1902485
1427153814.783,-3.7948723
1427153814.799,-4.0795517
1427153814.814,-4.0130615
1427153814.83,-3.7035408
1427153814.846,-3.3582153
1427153814.861,-3.198101
1427153814.877,-3.3729591
1427153814.893,-3.873045
1427153814.908,-4.572777
1427153814.924,-5.254938
1427153814.94,-5.726671
1427153814.955,-5.8926945
1427153814.971,-5.7882347
1427153814.986,-5.5199203
1427153815.002,-5.2186146
1427153815.018,-4.9566174
1427153815.033,-4.7355843
1427153815.049,-4.516165
1427153815.064,-4.2794724
1427153815.08,-4.0694084
1427153815.096,-3.9563446
1427153815.111,-3.9877758
1427153815.127,-4.1395473
1427153815.143,-4.279583
1427153815.158,-4.242897
1427153815.174,-3.8815079
1427153815.19,-3.188425
1427153815.205,-2.2696896
1427153815.221,-1.323122
1427153815.236,-0.5457363
1427153815.252,-0.049236298
1427153815.268,0.20513344
1427153815.283,0.35023308
1427153815.299,0.5799141
1427153815.315,1.0472279
1427153815.33,1.8003769
1427153815.346,2.7764854
1427153815.361,3.8598518
1427153815.377,4.9339104
1427153815.393,5.9371204
1427153815.408,6.859024
1427153815.424,7.7200317
1427153815.44,8.528379
1427153815.455,9.323891
1427153815.471,10.182309
1427153815.486,11.248495
1427153815.502,12.661323
1427153815.518,14.450038
1427153815.533,16.437271
1427153815.549,18.214245
1427153815.565,19.26307
1427153815.58,19.144783
1427153815.596,17.675098
1427153815.611,15.00092
1427153815.627,11.538389
1427153815.643,7.830716
1427153815.658,4.363139
1427153815.674,1.4858093
1427153815.69,-0.66168165
1427153815.705,-2.1134272
1427153815.721,-3.0337572
1427153815.736,-3.6303005
1427153815.752,-4.0956883
1427153815.768,-4.543635
1427153815.783,-5.0220113
1427153815.799,-5.521655
1427153815.815,-6.042404
1427153815.83,-6.607834
1427153815.846,-7.263427
1427153815.861,-8.02512
1427153815.877,-8.87223
1427153815.893,-9.7123785
1427153815.908,-10.43241
1427153815.924,-10.935134
1427153815.94,-11.171344
1427153815.955,-11.147971
1427153815.971,-10.932095
1427153815.986,-10.59255
1427153816.002,-10.221027
1427153816.018,-9.88003
1427153816.033,-9.6158695
1427153816.049,-9.414362
1427153816.065,-9.242765
1427153816.08,-9.029591
1427153816.096,-8.729906
1427153816.111,-8.33428
1427153816.127,-7.8828554
1427153816.143,-7.4220424
1427153816.158,-6.9739914
1427153816.174,-6.510277
1427153816.19,-5.962247
1427153816.205,-5.304913
1427153816.221,-4.5469
1427153816.236,-3.736577
1427153816.252,-2.93645
1427153816.268,-2.177287
1427153816.283,-1.4821558
1427153816.299,-0.84669685
1427153816.315,-0.29587173
1427153816.33,0.16801262
1427153816.346,0.5757017
1427153816.361,1.0265675
1427153816.377,1.6528101
1427153816.393,2.565835
1427153816.408,3.7720566
1427153816.424,5.1374636
1427153816.44,6.450862
1427153816.455,7.534848
1427153816.471,8.359615
1427153816.486,9.069669
1427153816.502,9.903668
1427153816.518,11.0835
1427153816.533,12.667814
1427153816.549,14.538502
1427153816.565,16.425453
1427153816.58,18.012863
1427153816.596,18.985891
1427153816.611,19.144869
1427153816.627,18.391539
1427153816.643,16.756685
1427153816.658,14.398343
1427153816.674,11.585428
1427153816.69,8.661602
1427153816.705,5.946184
1427153816.721,3.6793842
1427153816.736,1.9288063
1427153816.752,0.6248474
1427153816.768,-0.40618324
1427153816.783,-1.3510456
1427153816.799,-2.2980156
1427153816.815,-3.2434196
1427153816.83,-4.1075153
1427153816.846,-4.81744
1427153816.861,-5.3623505
1427153816.877,-5.820629
1427153816.893,-6.3097153
1427153816.908,-6.938488
1427153816.924,-7.740759
1427153816.94,-8.673418
1427153816.955,-9.63423
1427153816.971,-10.500202
1427153816.986,-11.158867
1427153817.002,-11.564657
1427153817.018,-11.7276745
1427153817.033,-11.7006
1427153817.049,-11.551273
1427153817.065,-11.320858
1427153817.08,-11.015976
1427153817.096,-10.643019
1427153817.111,-10.21739
1427153817.127,-9.789183
1427153817.143,-9.420414
1427153817.158,-9.169647
1427153817.174,-9.005089
1427153817.19,-8.842133
1427153817.205,-8.546921
1427153817.221,-8.030552
1427153817.236,-7.2737656
1427153817.252,-6.36417
1427153817.268,-5.432316
1427153817.283,-4.622719
1427153817.299,-4.0190086
1427153817.315,-3.6462898
1427153817.33,-3.4634476
1427153817.346,-3.3851051
1427153817.361,-3.2819672
1427153817.377,-3.0302582
1427153817.393,-2.5224419
1427153817.408,-1.7238274
1427153817.424,-0.6671753
1427153817.44,0.5531006
1427153817.455,1.8310623
1427153817.471,3.0877
1427153817.486,4.3069115
1427153817.502,5.500675
1427153817.518,6.6895676
1427153817.533,7.858452
1427153817.549,8.957306
1427153817.565,9.911324
1427153817.58,10.698887
1427153817.596,11.351589
1427153817.612,11.967247
1427153817.627,12.651176
1427153817.643,13.452755
1427153817.658,14.278004
1427153817.674,14.923946
1427153817.69,15.103683
1427153817.705,14.570034
1427153817.721,13.209976
1427153817.736,11.097435
1427153817.752,8.456936
1427153817.768,5.593857
1427153817.783,2.788803
1427153817.799,0.24949265
1427153817.815,-1.9190178
1427153817.83,-3.6961746
1427153817.846,-5.115288
1427153817.862,-6.220848
1427153817.877,-7.0707283
1427153817.893,-7.725601
1427153817.908,-8.254051
1427153817.924,-8.705467
1427153817.94,-9.119701
1427153817.955,-9.501415
1427153817.971,-9.830189
1427153817.987,-10.055172
1427153818.002,-10.148354
1427153818.018,-10.103729
1427153818.033,-9.97818
1427153818.049,-9.850262
1427153818.065,-9.799019
1427153818.08,-9.864391
1427153818.096,-10.039658
1427153818.112,-10.262783
1427153818.127,-10.463413
1427153818.143,-10.557976
1427153818.158,-10.498989
1427153818.174,-10.260212
1427153818.19,-9.854115
1427153818.205,-9.317757
1427153818.221,-8.715694
1427153818.237,-8.104374
1427153818.252,-7.5062714
1427153818.268,-6.891468
1427153818.283,-6.19738
1427153818.299,-5.353943
1427153818.315,-4.3398933
1427153818.33,-3.1955147
1427153818.346,-2.0017853
1427153818.362,-0.85211563
1427153818.377,0.19042587
1427153818.393,1.0952797
1427153818.408,1.8533478
1427153818.424,2.4499626
1427153818.44,2.8819618
1427153818.455,3.1584892
1427153818.471,3.3236923
1427153818.487,3.467186
1427153818.502,3.6967049
1427153818.518,4.1318855
1427153818.533,4.8523903
1427153818.549,5.9226074
1427153818.565,7.3592415
1427153818.58,9.120905
1427153818.596,11.065382
1427153818.612,12.961308
1427153818.627,14.491007
1427153818.643,15.353266
1427153818.658,15.344278
1427153818.674,14.454294
1427153818.69,12.833437
1427153818.705,10.757788
1427153818.721,8.515827
1427153818.737,6.3459167
1427153818.752,4.3998528
1427153818.768,2.7596054
1427153818.783,1.4432678
1427153818.799,0.41644096
1427153818.815,-0.41939354
1427153818.83,-1.2048626
1427153818.846,-2.0716152
1427153818.862,-3.0564575
1427153818.877,-4.099758
1427153818.893,-5.038925
1427153818.908,-5.7098103
1427153818.924,-6.025997
1427153818.94,-6.01877
1427153818.955,-5.8512344
1427153818.971,-5.726616
1427153818.987,-5.8197002
1427153819.002,-6.2156067
1427153819.018,-6.899679
1427153819.033,-7.7918396
1427153819.049,-8.745235
1427153819.065,-9.610844
1427153819.08,-10.244137
1427153819.096,-10.537514
1427153819.112,-10.446798
1427153819.127,-10.000345
1427153819.143,-9.293377
1427153819.158,-8.482843
1427153819.174,-7.729824
1427153819.19,-7.1848965
1427153819.205,-6.934561
1427153819.221,-6.9665947
1427153819.237,-7.1474705
1427153819.252,-7.2709084
1427153819.268,-7.110924
1427153819.283,-6.5337105
1427153819.299,-5.528364
1427153819.315,-4.220026
1427153819.33,-2.807644
1427153819.346,-1.5132198
1427153819.362,-0.50120354
1427153819.377,0.123705864
1427153819.393,0.3550005
1427153819.408,0.26313782
1427153819.424,0.014520645
1427153819.44,-0.1805811
1427153819.455,-0.120007515
1427153819.471,0.29959297
1427153819.487,1.0650215
1427153819.502,2.0387278
1427153819.518,3.036686
1427153819.533,3.9085875
1427153819.549,4.6062937
1427153819.565,5.1670237
1427153819.58,5.709115
1427153819.596,6.406533
1427153819.612,7.4779773
1427153819.627,9.175718
1427153819.643,11.701923
1427153819.658,15.0753975
1427153819.674,19.027042
1427153819.69,22.956337
1427153819.705,26.073374
1427153819.721,27.632757
1427153819.737,27.201334
1427153819.752,24.78866
1427153819.768,20.853716
1427153819.783,16.128843
1427153819.799,11.396959
1427153819.815,7.2809215
1427153819.83,4.1257944
1427153819.846,1.9690175
1427153819.862,0.6044564
1427153819.877,-0.30992675
1427153819.893,-1.1007829
1427153819.908,-1.992104
1427153819.924,-3.030905
1427153819.94,-4.137413
1427153819.955,-5.166251
1427153819.971,-6.023082
1427153819.987,-6.6573505
1427153820.002,-7.0940228
1427153820.018,-7.342312
1427153820.033,-7.3996935
1427153820.049,-7.2389407
1427153820.065,-6.88235
1427153820.08,-6.435443
1427153820.096,-6.077776
1427153820.112,-5.9885235
1427153820.127,-6.2431655
1427153820.143,-6.7630415
1427153820.158,-7.356162
1427153820.174,-7.780057
1427153820.19,-7.880743
1427153820.205,-7.6230693
1427153820.221,-7.1005692
1427153820.237,-6.4536715
1427153820.252,-5.820489
1427153820.268,-5.262541
1427153820.283,-4.78697
1427153820.299,-4.360323
1427153820.315,-3.951255
1427153820.33,-3.5421968
1427153820.346,-3.1303017
1427153820.362,-2.7045493
1427153820.377,-2.264847
1427153820.393,-1.8059814
1427153820.408,-1.355315
1427153820.424,-0.9543843
1427153820.44,-0.6386237
1427153820.455,-0.41350043
1427153820.471,-0.24359715
1427153820.487,-0.04614353
1427153820.502,0.26447558
1427153820.518,0.7830689
1427153820.534,1.5374808
1427153820.549,2.51054
1427153820.565,3.601407
1427153820.58,4.677945
1427153820.596,5.590264
1427153820.612,6.243496
1427153820.627,6.5970106
1427153820.643,6.6949096
1427153820.659,6.6390953
1427153820.674,6.581829
1427153820.69,6.7102523
1427153820.705,7.213357
1427153820.721,8.245414
1427153820.737,9.854385
1427153820.752,11.890897
1427153820.768,14.018216
1427153820.784,15.75841
1427153820.799,16.656708
1427153820.815,16.418877
1427153820.83,15.027148
1427153820.846,12.697391
1427153820.862,9.810913
1427153820.877,6.768459
1427153820.893,3.9050608
1427153820.909,1.4355817
1427153820.924,-0.5257566
1427153820.94,-1.9721111
1427153820.955,-2.9824734
1427153820.971,-3.6839833
1427153820.987,-4.1954575
1427153821.002,-4.5863476
1427153821.018,-4.8455315
1427153821.034,-4.948635
1427153821.049,-4.9018183
1427153821.065,-4.8163996
1427153821.08,-4.8769503
1427153821.096,-5.2639284
1427153821.112,-6.0143194
1427153821.127,-6.9963493
1427153821.143,-7.9534774
1427153821.159,-8.634476
1427153821.174,-8.909649
1427153821.19,-8.812916
1427153821.205,-8.499397
1427153821.221,-8.140153
1427153821.237,-7.8072677
1427153821.252,-7.469709
1427153821.268,-7.0182557
1427153821.284,-6.370854
1427153821.299,-5.5364165
1427153821.315,-4.652421
1427153821.33,-3.8913717
1427153821.346,-3.406598
1427153821.362,-3.2190928
1427153821.377,-3.2321982
1427153821.393,-3.2592921
1427153821.409,-3.1563764
1427153821.424,-2.849846
1427153821.44,-2.378306
1427153821.455,-1.8323665
1427153821.471,-1.3073244
1427153821.487,-0.8326578
1427153821.502,-0.39766407
1427153821.518,0.04646921
1427153821.534,0.51922894
1427153821.549,1.0078473
1427153821.565,1.4799671
1427153821.58,1.9150519
1427153821.596,2.3126984
1427153821.612,2.7047992
1427153821.627,3.1147523
1427153821.643,3.5582113
1427153821.659,4.0291424
1427153821.674,4.5228233
1427153821.69,5.0035377
1427153821.705,5.458389
1427153821.721,5.855222
1427153821.737,6.213725
1427153821.752,6.6175475
1427153821.768,7.2050905
1427153821.784,8.095678
1427153821.799,9.289635
1427153821.815,10.591013
1427153821.83,11.645655
1427153821.846,12.056761
1427153821.862,11.56544
1427153821.877,10.148365
1427153821.893,8.04797
1427153821.909,5.6243176
1427153821.924,3.2344484
1427153821.94,1.1174893
1427153821.955,-0.6121683
1427153821.971,-1.9335451
1427153821.987,-2.8369064
1427153822.002,-3.3492532
1427153822.018,-3.5438838
1427153822.034,-3.5619345
1427153822.049,-3.5772114
1427153822.065,-3.7380905
1427153822.08,-4.090886
1427153822.096,-4.590564
1427153822.112,-5.131076
1427153822.127,-5.622695
1427153822.143,-6.0237694
1427153822.159,-6.338455
1427153822.174,-6.568866
1427153822.19,-6.7307596
1427153822.205,-6.799472
1427153822.221,-6.7773657
1427153822.237,-6.6895237
1427153822.252,-6.5917425
1427153822.268,-6.5362673
1427153822.284,-6.5337324
1427153822.299,-6.520446
1427153822.315,-6.414195
1427153822.33,-6.1417017
1427153822.346,-5.7038803
1427153822.362,-5.191101
1427153822.377,-4.747759
1427153822.393,-4.5054607
1427153822.409,-4.521657
1427153822.424,-4.7319546
1427153822.44,-4.9810524
1427153822.455,-5.076232
1427153822.471,-4.8659153
1427153822.487,-4.2670383
1427153822.502,-3.2999382
1427153822.518,-2.0448895
1427153822.534,-0.62642
1427153822.549,0.8252821
1427153822.565,2.1668692
1427153822.58,3.2691278
1427153822.596,4.019926
1427153822.612,4.3793964
1427153822.627,4.3698883
1427153822.643,4.110721
1427153822.659,3.774448
1427153822.674,3.589828
1427153822.69,3.7559738
1427153822.705,4.4136443
1427153822.721,5.5714865
1427153822.737,7.092122
1427153822.752,8.679522
1427153822.768,9.953245
1427153822.784,10.547926
1427153822.799,10.2507105
1427153822.815,9.045904
1427153822.83,7.148255
1427153822.846,4.902611
1427153822.862,2.6950836
1427153822.877,0.82163763
1427153822.893,-0.5851822
1427153822.909,-1.5717583
1427153822.924,-2.2758522
1427153822.94,-2.8669977
1427153822.955,-3.451777
1427153822.971,-4.061536
1427153822.987,-4.6447268
1427153823.002,-5.1167874
1427153823.018,-5.4033394
1427153823.034,-5.462973
1427153823.049,-5.2843785
1427153823.065,-4.8894243
1427153823.08,-4.321103
1427153823.096,-3.6684837
1427153823.112,-3.0723848
1427153823.127,-2.72855
1427153823.143,-2.7895122
1427153823.159,-3.302829
1427153823.174,-4.1200285
1427153823.19,-4.964619
1427153823.206,-5.5174046
1427153823.221,-5.5998874
1427153823.237,-5.214695
1427153823.252,-4.561838
1427153823.268,-3.9107502
1427153823.284,-3.4862747
1427153823.299,-3.368536
1427153823.315,-3.493977
1427153823.331,-3.6886072
1427153823.346,-3.7732973
1427153823.362,-3.6087184
1427153823.377,-3.1511703
1427153823.393,-2.4513834
1427153823.409,-1.6244587
1427153823.424,-0.8062346
1427153823.44,-0.094407916
1427153823.456,0.48024535
1427153823.471,0.9458169
1427153823.487,1.3652145
1427153823.502,1.7990417
1427153823.518,2.2725797
1427153823.534,2.787415
1427153823.549,3.349731
1427153823.565,3.949807
1427153823.581,4.5832787
1427153823.596,5.2274776
1427153823.612,5.8748236
1427153823.627,6.553482
1427153823.643,7.358346
1427153823.659,8.398861
1427153823.674,9.7542
1427153823.69,11.351767
1427153823.706,12.965826
1427153823.721,14.253619
1427153823.737,14.9107895
1427153823.752,14.755678
1427153823.768,13.79126
1427153823.784,12.150145
1427153823.799,10.040602
1427153823.815,7.6629477
1427153823.831,5.232021
1427153823.846,2.9594455
1427153823.862,1.0491538
1427153823.877,-0.3675518
1427153823.893,-1.2924104
1427153823.909,-1.8648751
1427153823.924,-2.3073428
1427153823.94,-2.818801
1427153823.956,-3.4797604
1427153823.971,-4.2548914
1427153823.987,-5.0175095
1427153824.002,-5.666772
1427153824.018,-6.1625347
1427153824.034,-6.551279
1427153824.049,-6.8922243
1427153824.065,-7.228467
1427153824.081,-7.539799
1427153824.096,-7.7930775
1427153824.112,-7.9513206
1427153824.127,-8.025904
1427153824.143,-8.04857
1427153824.159,-8.078239
1427153824.174,-8.134477
1427153824.19,-8.205799
1427153824.206,-8.245195
1427153824.221,-8.203881
1427153824.237,-8.050005
1427153824.252,-7.7980366
1427153824.268,-7.5016155
1427153824.284,-7.2330785
1427153824.299,-7.0140066
1427153824.315,-6.809263
1427153824.331,-6.522092
1427153824.346,-6.051604
1427153824.362,-5.3462863
1427153824.377,-4.466683
1427153824.393,-3.5417829
1427153824.409,-2.7047195
1427153824.424,-2.0162692
1427153824.44,-1.4497142
1427153824.456,-0.9072881
1427153824.471,-0.32722855
1427153824.487,0.28442287
1427153824.502,0.8326807
1427153824.518,1.2155046
1427153824.534,1.3902159
1427153824.549,1.4394722
1427153824.565,1.5377064
1427153824.581,1.8761339
1427153824.596,2.556057
1427153824.612,3.5423574
1427153824.627,4.6765203
1427153824.643,5.765546
1427153824.659,6.666851
1427153824.674,7.3555145
1427153824.69,7.9018955
1427153824.706,8.432357
1427153824.721,9.05699
1427153824.737,9.87054
1427153824.752,10.900593
1427153824.768,12.155154
1427153824.784,13.585315
1427153824.799,15.084001
1427153824.815,16.45779
1427153824.831,17.44865
1427153824.846,17.777786
1427153824.862,17.24644
1427153824.877,15.789346
1427153824.893,13.522897
1427153824.909,10.710027
1427153824.924,7.7269735
1427153824.94,4.928315
1427153824.956,2.5947247
1427153824.971,0.8346176
1427153824.987,-0.40166378
1427153825.002,-1.2978363
1427153825.018,-2.051962
1427153825.034,-2.8062763
1427153825.049,-3.5663357
1427153825.065,-4.23971
1427153825.081,-4.724161
1427153825.096,-4.995694
1427153825.112,-5.136422
1427153825.127,-5.293618
1427153825.143,-5.5997095
1427153825.159,-6.0955887
1427153825.174,-6.732397
1427153825.19,-7.4114523
1427153825.206,-8.043443
1427153825.221,-8.591252
1427153825.237,-9.026056
1427153825.252,-9.320322
1427153825.268,-9.43848
1427153825.284,-9.356243
1427153825.299,-9.084458
1427153825.315,-8.687596
1427153825.331,-8.23548
1427153825.346,-7.7808046
1427153825.362,-7.332944
1427153825.377,-6.8809175
1427153825.393,-6.429347
1427153825.409,-6.050295
1427153825.424,-5.8285227
1427153825.44,-5.82088
1427153825.456,-5.974492
1427153825.471,-6.143034
1427153825.487,-6.1197805
1427153825.502,-5.784457
1427153825.518,-5.139312
1427153825.534,-4.346918
1427153825.549,-3.6077805
1427153825.565,-3.055461
1427153825.581,-2.690669
1427153825.596,-2.3881016
1427153825.612,-1.9749327
1427153825.627,-1.3418751
1427153825.643,-0.50786686
1427153825.659,0.40546036
1427153825.674,1.2577991
1427153825.69,1.9598827
1427153825.706,2.5161362
1427153825.721,2.985035
1427153825.737,3.4302454
1427153825.752,3.886242
1427153825.768,4.376663
1427153825.784,4.945795
1427153825.799,5.6682663
1427153825.815,6.6081123
1427153825.831,7.7448664
1427153825.846,8.962708
1427153825.862,10.079457
1427153825.878,10.952193
1427153825.893,11.584124
1427153825.909,12.132093
1427153825.924,12.837044
1427153825.94,13.878796
1427153825.956,15.257412
1427153825.971,16.74765
1427153825.987,18.014874
1427153826.002,18.689453
1427153826.018,18.512604
1427153826.034,17.362411
1427153826.049,15.282569
1427153826.065,12.446461
1427153826.081,9.127821
1427153826.096,5.6612825
1427153826.112,2.370615
1427153826.128,-0.48567867
1427153826.143,-2.7746525
1427153826.159,-4.5253983
1427153826.174,-5.839675
1427153826.19,-6.841194
1427153826.206,-7.606456
1427153826.221,-8.161201
1427153826.237,-8.522728
1427153826.253,-8.742122
1427153826.268,-8.903824
1427153826.284,-9.110859
1427153826.299,-9.398935
1427153826.315,-9.740747
1427153826.331,-10.04816
1427153826.346,-10.254805
1427153826.362,-10.364211
1427153826.378,-10.455433
1427153826.393,-10.617013
1427153826.409,-10.875165
1427153826.424,-11.149244
1427153826.44,-11.266789
1427153826.456,-11.0579605
1427153826.471,-10.457367
1427153826.487,-9.546224
1427153826.503,-8.530366
1427153826.518,-7.631751
1427153826.534,-7.046482
1427153826.549,-6.8320837
1427153826.565,-6.93919
1427153826.581,-7.2279778
1427153826.596,-7.5354214
1427153826.612,-7.705799
1427153826.628,-7.639675
1427153826.643,-7.285984
1427153826.659,-6.666607
1427153826.674,-5.858554
1427153826.69,-4.9779577
1427153826.706,-4.1547623
1427153826.721,-3.5078
1427153826.737,-3.0891113
1427153826.753,-2.9013176
1427153826.768,-2.8655243
1427153826.784,-2.881979
1427153826.799,-2.8348427
1427153826.815,-2.6686707
1427153826.831,-2.366434
1427153826.846,-1.9465828
1427153826.862,-1.4256859
1427153826.878,-0.761776
1427153826.893,0.15200043
1427153826.909,1.4683514
1427153826.924,3.3249645
1427153826.94,5.7706738
1427153826.956,8.725243
1427153826.971,11.968082
1427153826.987,15.220312
1427153827.003,18.189566
1427153827.018,20.675598
1427153827.034,22.535866
1427153827.049,23.711666
1427153827.065,24.14759
1427153827.081,23.811222
1427153827.096,22.6848
1427153827.112,20.853468
1427153827.128,18.473043
1427153827.143,15.788368
1427153827.159,13.028093
1427153827.174,10.356848
1427153827.19,7.8572845
1427153827.206,5.569515
1427153827.221,3.5482597
1427153827.237,1.8909073
1427153827.253,0.7056885
1427153827.268,0.044981003
1427153827.284,-0.18427658
1427153827.299,-0.20069313
1427153827.315,-0.2989502
1427153827.331,-0.71341705
1427153827.346,-1.5476418
1427153827.362,-2.7281284
1427153827.378,-4.0642796
1427153827.393,-5.325672
1427153827.409,-6.357815
1427153827.424,-7.1009045
1427153827.44,-7.594963
1427153827.456,-7.920784
1427153827.471,-8.144907
1427153827.487,-8.276281
1427153827.503,-8.315472
1427153827.518,-8.294388
1427153827.534,-8.315752
1427153827.549,-8.4963455
1427153827.565,-8.925388
1427153827.581,-9.542374
1427153827.596,-10.178774
1427153827.612,-10.604931
1427153827.628,-10.657627
1427153827.643,-10.319914
1427153827.659,-9.6944065
1427153827.674,-8.944164
1427153827.69,-8.198809
1427153827.706,-7.508116
1427153827.721,-6.8632355
1427153827.737,-6.247143
1427153827.753,-5.657425
1427153827.768,-5.0822525
1427153827.784,-4.4904633
1427153827.799,-3.8305264
1427153827.815,-3.0638504
1427153827.831,-2.1861591
1427153827.846,-1.2709541
1427153827.862,-0.39208794
1427153827.878,0.40764046
1427153827.893,1.1507053
1427153827.909,1.8851814
1427153827.924,2.6469631
1427153827.94,3.4117527
1427153827.956,4.1162987
1427153827.971,4.696167
1427153827.987,5.1458855
1427153828.003,5.5342426
1427153828.018,5.9780064
1427153828.034,6.593565
1427153828.049,7.4880676
1427153828.065,8.6813755
1427153828.081,10.130869
1427153828.096,11.672911
1427153828.112,13.046394
1427153828.128,13.930836
1427153828.143,14.040949
1427153828.159,13.225651
1427153828.174,11.5301285
1427153828.19,9.185129
1427153828.206,6.5341225
1427153828.221,3.9452724
1427153828.237,1.7276573
1427153828.253,0.06382942
1427153828.268,-0.9833946
1427153828.284,-1.4635715
1427153828.299,-1.5141926
1427153828.315,-1.329813
1427153828.331,-1.1039791
1427153828.346,-1.0048656
1427153828.362,-1.1165485
1427153828.378,-1.4567871
1427153828.393,-1.9943409
1427153828.409,-2.676569
1427153828.424,-3.4510708
1427153828.44,-4.2658844
1427153828.456,-5.043171
1427153828.471,-5.7069435
1427153828.487,-6.211281
1427153828.503,-6.558052
1427153828.518,-6.795677
1427153828.534,-7.0066586
1427153828.55,-7.2256165
1427153828.565,-7.420727
1427153828.581,-7.501116
1427153828.596,-7.348011
1427153828.612,-6.8819237
1427153828.628,-6.105047
1427153828.643,-5.1021366
1427153828.659,-4.0292053
1427153828.674,-3.0563831
1427153828.69,-2.331173
1427153828.706,-1.9298515
1427153828.721,-1.8683186
1427153828.737,-2.0504704
1427153828.753,-2.3309155
1427153828.768,-2.5255737
1427153828.784,-2.4884949
1427153828.8,-2.1198502
1427153828.815,-1.4160767
1427153828.831,-0.4308262
1427153828.846,0.7234955
1427153828.862,1.9088669
1427153828.878,3.0036983
1427153828.893,3.9002266
1427153828.909,4.5345135
1427153828.925,4.908392
1427153828.94,5.0908012
1427153828.956,5.212431
1427153828.971,5.4099865
1427153828.987,5.796461
1427153829.003,6.39797
1427153829.018,7.189684
1427153829.034,8.097103
1427153829.05,9.076017
1427153829.065,10.136257
1427153829.081,11.332476
1427153829.096,12.704098
1427153829.112,14.20442
1427153829.128,15.659245
1427153829.143,16.788538
1427153829.159,17.299852
1427153829.175,16.991104
1427153829.19,15.810019
1427153829.206,13.86801
1427153829.221,11.396904
1427153829.237,8.679258
1427153829.253,5.979368
1427153829.268,3.5211763
1427153829.284,1.4442778
1427153829.3,-0.1820488
1427153829.315,-1.3865747
1427153829.331,-2.2522907
1427153829.346,-2.90864
1427153829.362,-3.4658823
1427153829.378,-4.0058117
1427153829.393,-4.557432
1427153829.409,-5.1181097
1427153829.425,-5.666541
1427153829.44,-6.184067
1427153829.456,-6.639024
1427153829.471,-6.9964275
1427153829.487,-7.221492
1427153829.503,-7.3012424
1427153829.518,-7.2366724
1427153829.534,-7.056541
1427153829.55,-6.7599125
1427153829.565,-6.358564
1427153829.581,-5.850262
1427153829.596,-5.286399
1427153829.612,-4.751647
1427153829.628,-4.371054
1427153829.643,-4.2312403
1427153829.659,-4.3452053
1427153829.675,-4.6134434
1427153829.69,-4.869149
1427153829.706,-4.9556665
1427153829.721,-4.7711954
1427153829.737,-4.319513
1427153829.753,-3.7013817
1427153829.768,-3.0942135
1427153829.784,-2.6776576
1427153829.8,-2.5739133
1427153829.815,-2.8095076
1427153829.831,-3.278842
1427153829.846,-3.8045616
1427153829.862,-4.1855016
1427153829.878,-4.2838097
1427153829.893,-4.056645
1427153829.909,-3.582524
1427153829.925,-2.9779193
1427153829.94,-2.37217
1427153829.956,-1.83037
1427153829.971,-1.3626413
1427153829.987,-0.92456174
1427153830.003,-0.450459
1427153830.018,0.13676453
1427153830.034,0.9015837
1427153830.05,1.8905602
1427153830.065,3.0893612
1427153830.081,4.4102163
1427153830.096,5.7027698
1427153830.112,6.807131
1427153830.128,7.6132293
1427153830.143,8.127043
1427153830.159,8.476773
1427153830.175,8.891668
1427153830.19,9.6017685
1427153830.206,10.739525
1427153830.221,12.247903
1427153830.237,13.879271
1427153830.253,15.243027
1427153830.268,15.941008
1427153830.284,15.659048
1427153830.3,14.295035
1427153830.315,11.957969
1427153830.331,8.962863
1427153830.346,5.7192364
1427153830.362,2.6437645
1427153830.378,0.04624939
1427153830.393,-1.917285
1427153830.409,-3.253745
1427153830.425,-4.088217
1427153830.44,-4.5862484
1427153830.456,-4.888995
1427153830.471,-5.104395
1427153830.487,-5.289686
1427153830.503,-5.500084
1427153830.518,-5.7877674
1427153830.534,-6.1988945
1427153830.55,-6.7240067
1427153830.565,-7.30974
1427153830.581,-7.8635883
1427153830.596,-8.296387
1427153830.612,-8.562515
1427153830.628,-8.671314
1427153830.643,-8.661423
1427153830.659,-8.595417
1427153830.675,-8.525919
1427153830.69,-8.502844
1427153830.706,-8.57049
1427153830.721,-8.753607
1427153830.737,-9.013624
1427153830.753,-9.272259
1427153830.768,-9.396526
1427153830.784,-9.309364
1427153830.8,-8.996153
1427153830.815,-8.53653
1427153830.831,-8.04845
1427153830.846,-7.642523
1427153830.862,-7.321554
1427153830.878,-7.0230465
1427153830.893,-6.6424923
1427153830.909,-6.1206017
1427153830.925,-5.476389
1427153830.94,-4.8006325
1427153830.956,-4.195595
1427153830.971,-3.723919
1427153830.987,-3.356041
1427153831.003,-3.0103188
1427153831.018,-2.5897846
1427153831.034,-2.0776196
1427153831.05,-1.4965134
1427153831.065,-0.9412365
1427153831.081,-0.46948624
1427153831.096,-0.07118416
1427153831.112,0.3526268
1427153831.128,0.9637699
1427153831.143,1.8885231
1427153831.159,3.1311913
1427153831.175,4.5610046
1427153831.19,5.9461727
1427153831.206,7.051338
1427153831.221,7.749527
1427153831.237,8.06455
1427153831.253,8.139484
1427153831.268,8.191957
1427153831.284,8.397354
1427153831.3,8.879498
1427153831.315,9.706903
1427153831.331,10.909742
1427153831.346,12.473049
1427153831.362,14.313211
1427153831.378,16.198744
1427153831.393,17.773066
1427153831.409,18.58733
1427153831.425,18.259247
1427153831.44,16.626127
1427153831.456,13.836945
1427153831.472,10.301708
1427153831.487,6.580961
1427153831.503,3.1842976
1427153831.518,0.45280838
1427153831.534,-1.5200787
1427153831.55,-2.806631
1427153831.565,-3.5958958
1427153831.581,-4.0849514
1427153831.597,-4.4379444
1427153831.612,-4.7528553
1427153831.628,-5.0903664
1427153831.643,-5.4516964
1427153831.659,-5.841362
1427153831.675,-6.2505302
1427153831.69,-6.67836
1427153831.706,-7.128353
1427153831.722,-7.5911446
1427153831.737,-8.048897
1427153831.753,-8.475117
1427153831.768,-8.825623
1427153831.784,-9.079399
1427153831.8,-9.247414
1427153831.815,-9.372505
1427153831.831,-9.498253
1427153831.847,-9.648193
1427153831.862,-9.753021
1427153831.878,-9.708809
1427153831.893,-9.395481
1427153831.909,-8.778782
1427153831.925,-7.9428864
1427153831.94,-7.0927086
1427153831.956,-6.434761
1427153831.972,-6.1120224
1427153831.987,-6.074131
1427153832.003,-6.121372
1427153832.018,-5.9735146
1427153832.034,-5.4126472
1427153832.05,-4.390663
1427153832.065,-3.043003
1427153832.081,-1.6161308
1427153832.097,-0.3549881
1427153832.112,0.59347534
1427153832.128,1.2151489
1427153832.143,1.6144562
1427153832.159,1.9365921
1427153832.175,2.3311005
1427153832.19,2.8865433
1427153832.206,3.6241302
1427153832.222,4.485634
1427153832.237,5.4040413
1427153832.253,6.324974
1427153832.268,7.252163
1427153832.284,8.25111
1427153832.3,9.398621
1427153832.315,10.764122
1427153832.331,12.345512
1427153832.347,14.039215
1427153832.362,15.643005
1427153832.378,16.864864
1427153832.393,17.390888
1427153832.409,16.976212
1427153832.425,15.549767
1427153832.44,13.22768
1427153832.456,10.343388
1427153832.472,7.3154182
1427153832.487,4.5520325
1427153832.503,2.307087
1427153832.518,0.6447563
1427153832.534,-0.5478897
1427153832.55,-1.470684
1427153832.565,-2.317894
1427153832.581,-3.1884575
1427153832.597,-4.0810394
1427153832.612,-4.9388695
1427153832.628,-5.6958923
1427153832.643,-6.3259125
1427153832.659,-6.859745
1427153832.675,-7.347866
1427153832.69,-7.8320084
1427153832.706,-8.305008
1427153832.722,-8.718788
1427153832.737,-9.03199
1427153832.753,-9.266384
1427153832.768,-9.489136
1427153832.784,-9.803116
1427153832.8,-10.252869
1427153832.815,-10.774952
1427153832.831,-11.2048645
1427153832.847,-11.346062
1427153832.862,-11.075447
1427153832.878,-10.419224
1427153832.893,-9.544884
1427153832.909,-8.675404
1427153832.925,-7.985882
1427153832.94,-7.5536385
1427153832.956,-7.330559
1427153832.972,-7.2039948
1427153832.987,-7.056347
1427153833.003,-6.7872276
1427153833.018,-6.319603
1427153833.034,-5.5950623
1427153833.05,-4.5854187
1427153833.065,-3.3325806
1427153833.081,-1.9717331
1427153833.097,-0.6947403
1427153833.112,0.33013535
1427153833.128,1.0173836
1427153833.143,1.4399261
1427153833.159,1.7605019
1427153833.175,2.1634254
1427153833.19,2.757988
1427153833.206,3.5505867
1427153833.222,4.452221
1427153833.237,5.350319
1427153833.253,6.172432
1427153833.268,6.93095
1427153833.284,7.743271
1427153833.3,8.808247
1427153833.315,10.317287
1427153833.331,12.374428
1427153833.347,14.886864
1427153833.362,17.541588
1427153833.378,19.832478
1427153833.393,21.203518
1427153833.409,21.207256
1427153833.425,19.685177
1427153833.44,16.789822
1427153833.456,12.962822
1427153833.472,8.768215
1427153833.487,4.748863
1427153833.503,1.2951889
1427153833.518,-1.3798065
1427153833.534,-3.2254143
1427153833.55,-4.3092575
1427153833.565,-4.7654343
1427153833.581,-4.7831078
1427153833.597,-4.586754
1427153833.612,-4.411602
1427153833.628,-4.4627914
1427153833.643,-4.8557243
1427153833.659,-5.599327
1427153833.675,-6.5776367
1427153833.69,-7.630848
1427153833.706,-8.578793
1427153833.722,-9.317715
1427153833.737,-9.802597
1427153833.753,-10.050358
1427153833.768,-10.115059
1427153833.784,-10.051655
1427153833.8,-9.908871
1427153833.815,-9.740276
1427153833.831,-9.575623
1427153833.847,-9.441078
1427153833.862,-9.321075
1427153833.878,-9.174557
1427153833.893,-8.929852
1427153833.909,-8.528603
1427153833.925,-7.939785
1427153833.94,-7.194271
1427153833.956,-6.362591
1427153833.972,-5.5546
1427153833.987,-4.8479652
1427153834.003,-4.2826347
1427153834.018,-3.8390312
1427153834.034,-3.4821434
1427153834.05,-3.1540985
1427153834.065,-2.8132668
1427153834.081,-2.422512
1427153834.097,-1.9635086
1427153834.112,-1.4366341
1427153834.128,-0.8801346
1427153834.144,-0.33803558
1427153834.159,0.13962173
1427153834.175,0.55716705
1427153834.19,0.97200394
1427153834.206,1.4867249
1427153834.222,2.189434
1427153834.237,3.1271667
1427153834.253,4.248951
1427153834.269,5.4580307
1427153834.284,6.6477394
1427153834.3,7.773201
1427153834.315,8.854374
1427153834.331,9.96648
1427153834.347,11.166668
1427153834.362,12.477272
1427153834.378,13.887474
1427153834.394,15.388523
1427153834.409,16.985607
1427153834.425,18.666588
1427153834.44,20.313663
1427153834.456,21.669022
1427153834.472,22.316036
1427153834.487,21.845543
1427153834.503,20.03415
1427153834.519,17.005737
1427153834.534,13.205036
1427153834.55,9.256969
1427153834.565,5.7156677
1427153834.581,2.886486
1427153834.597,0.7800369
1427153834.612,-0.7817459
1427153834.628,-2.0556564
1427153834.644,-3.2189217
1427153834.659,-4.35915
1427153834.675,-5.4816628
1427153834.69,-6.5406456
1427153834.706,-7.4795265
1427153834.722,-8.251823
1427153834.737,-8.810562
1427153834.753,-9.15517
1427153834.769,-9.317291
1427153834.784,-9.382534
1427153834.8,-9.44923
1427153834.815,-9.61388
1427153834.831,-9.91338
1427153834.847,-10.348244
1427153834.862,-10.848873
1427153834.878,-11.320492
1427153834.894,-11.647888
1427153834.909,-11.749195
1427153834.925,-11.5880165
1427153834.94,-11.200153
1427153834.956,-10.673981
1427153834.972,-10.114429
1427153834.987,-9.587513
1427153835.003,-9.125954
1427153835.019,-8.730026
1427153835.034,-8.398144
1427153835.05,-8.116238
1427153835.065,-7.8576317
1427153835.081,-7.5566483
1427153835.097,-7.152027
1427153835.112,-6.5945435
1427153835.128,-5.899681
1427153835.144,-5.1351204
1427153835.159,-4.3808975
1427153835.175,-3.6939392
1427153835.19,-3.077877
1427153835.206,-2.5109596
1427153835.222,-1.9919739
1427153835.237,-1.5410156
1427153835.253,-1.1796303
1427153835.269,-0.90122604
1427153835.284,-0.6361046
1427153835.3,-0.26990128
1427153835.315,0.2805214
1427153835.331,1.0379868
1427153835.347,1.9266968
1427153835.362,2.8446693
1427153835.378,3.6941261
1427153835.394,4.4508667
1427153835.409,5.1414413
1427153835.425,5.824909
1427153835.44,6.553459
1427153835.456,7.360035
1427153835.472,8.281841
1427153835.487,9.377251
1427153835.503,10.723976
1427153835.519,12.377651
1427153835.534,14.291893
1427153835.55,16.275803
1427153835.565,17.98323
1427153835.581,19.008175
1427153835.597,18.996727
1427153835.612,17.788536
1427153835.628,15.463886
1427153835.644,12.330715
1427153835.659,8.805683
1427153835.675,5.3066864
1427153835.69,2.150158
1427153835.706,-0.45233154
1427153835.722,-2.400196
1427153835.737,-3.6572723
1427153835.753,-4.2536316
1427153835.769,-4.310749
1427153835.784,-4.0404778
1427153835.8,-3.6886215
1427153835.815,-3.473133
1427153835.831,-3.5094795
1427153835.847,-3.7990189
1427153835.862,-4.2469215
1427153835.878,-4.7482452
1427153835.894,-5.2230453
1427153835.909,-5.659561
1427153835.925,-6.0762863
1427153835.94,-6.5178986
1427153835.956,-7.000355
1427153835.972,-7.5123444
1427153835.987,-7.996662
1427153836.003,-8.3881
1427153836.019,-8.608433
1427153836.034,-8.613403
1427153836.05,-8.38377
1427153836.065,-7.9464073
1427153836.081,-7.3582153
1427153836.097,-6.709919
1427153836.112,-6.1056213
1427153836.128,-5.650936
1427153836.144,-5.4032593
1427153836.159,-5.3636856
1427153836.175,-5.4668694
1427153836.19,-5.585369
1427153836.206,-5.5779076
1427153836.222,-5.3499184
1427153836.237,-4.8792686
1427153836.253,-4.246418
1427153836.269,-3.5760117
1427153836.284,-3.0046005
1427153836.3,-2.616665
1427153836.315,-2.4080963
1427153836.331,-2.3127632
1427153836.347,-2.2312012
1427153836.362,-2.0618248
1427153836.378,-1.7443123
1427153836.394,-1.2593689
1427153836.409,-0.6556778
1427153836.425,0.004096985
1427153836.44,0.64937973
1427153836.456,1.2569618
1427153836.472,1.8707924
1427153836.487,2.6176414
1427153836.503,3.631668
1427153836.519,5.0202637
1427153836.534,6.780243
1427153836.55,8.769779
1427153836.565,10.701424
1427153836.581,12.227493
1427153836.597,13.011684
1427153836.612,12.828789
1427153836.628,11.6143875
1427153836.644,9.492104
1427153836.659,6.7477913
1427153836.675,3.7542725
1427153836.69,0.887146
1427153836.706,-1.5356522
1427153836.722,-3.3156662
1427153836.737,-4.372345
1427153836.753,-4.7433167
1427153836.769,-4.551491
1427153836.784,-4.012352
1427153836.8,-3.3815765
1427153836.816,-2.912096
1427153836.831,-2.796276
1427153836.847,-3.1115704
1427153836.862,-3.7767372
1427153836.878,-4.6139355
1427153836.894,-5.391657
1427153836.909,-5.930916
1427153836.925,-6.140312
1427153836.941,-6.062441
1427153836.956,-5.8131638
1427153836.972,-5.5709934
1427153836.987,-5.4783745
1427153837.003,-5.6140614
1427153837.019,-5.9641495
1427153837.034,-6.4107704
1427153837.05,-6.775715
1427153837.066,-6.898691
1427153837.081,-6.694729
1427153837.097,-6.211796
1427153837.112,-5.5763397
1427153837.128,-4.940672
1427153837.144,-4.383381
1427153837.159,-3.9086437
1427153837.175,-3.451271
1427153837.191,-2.9616852
1427153837.206,-2.4336681
1427153837.222,-1.8879738
1427153837.237,-1.3364029
1427153837.253,-0.7445011
1427153837.269,-0.035212517
1427153837.284,0.84167576
1427153837.3,1.860076
1427153837.316,2.8854008
1427153837.331,3.7298536
1427153837.347,4.240527
1427153837.362,4.409749
1427153837.378,4.3722334
1427153837.394,4.3614225
1427153837.409,4.572777
1427153837.425,5.071993
1427153837.441,5.777524
1427153837.456,6.538807
1427153837.472,7.232925
1427153837.487,7.867893
1427153837.503,8.589518
1427153837.519,9.581699
1427153837.534,10.956151
1427153837.55,12.6634445
1427153837.566,14.42963
1427153837.581,15.869107
1427153837.597,16.563547
1427153837.612,16.222824
1427153837.628,14.743271
1427153837.644,12.264302
1427153837.659,9.092411
1427153837.675,5.666832
1427153837.691,2.4288077
1427153837.706,-0.24886107
1427153837.722,-2.1518652
1427153837.737,-3.2298212
1427153837.753,-3.5879307
1427153837.769,-3.4299736
1427153837.784,-3.011322
1427153837.8,-2.5706728
1427153837.816,-2.3088145
1427153837.831,-2.353404
1427153837.847,-2.7411284
1427153837.862,-3.3961241
1427153837.878,-4.1738153
1427153837.894,-4.892814
1427153837.909,-5.423467
1427153837.925,-5.722326
1427153837.941,-5.850054
1427153837.956,-5.918505
1427153837.972,-6.029792
1427153837.987,-6.207792
1427153838.003,-6.414686
1427153838.019,-6.5573025
1427153838.034,-6.557347
1427153838.05,-6.365492
1427153838.066,-5.9987745
1427153838.081,-5.503911
1427153838.097,-4.950691
1427153838.112,-4.4021845
1427153838.128,-3.9186645
1427153838.144,-3.5336266
1427153838.159,-3.2704163
1427153838.175,-3.1101513
1427153838.191,-3.008411
1427153838.206,-2.8978138
1427153838.222,-2.71945
1427153838.237,-2.4325633
1427153838.253,-2.030469
1427153838.269,-1.5324378
1427153838.284,-0.98927784
1427153838.3,-0.45096588
1427153838.316,0.029800415
1427153838.331,0.43969345
1427153838.347,0.79541206
1427153838.362,1.1529579
1427153838.378,1.568469
1427153838.394,2.0777025
1427153838.409,2.6585035
1427153838.425,3.256857
1427153838.441,3.8035688
1427153838.456,4.2611685
1427153838.472,4.6297207
1427153838.487,4.95965
1427153838.503,5.315279
1427153838.519,5.781704
1427153838.534,6.4198256
1427153838.55,7.2727175
1427153838.566,8.345777
1427153838.581,9.612382
1427153838.597,10.986167
1427153838.612,12.327527
1427153838.628,13.42574
1427153838.644,14.0609045
1427153838.659,14.0188
1427153838.675,13.179773
1427153838.691,11.543038
1427153838.706,9.2707405
1427153838.722,6.6306343
1427153838.737,3.960456
1427153838.753,1.5640411
1427153838.769,-0.33740234
1427153838.784,-1.6380405
1427153838.8,-2.334896
1427153838.816,-2.5102482
1427153838.831,-2.3147068
1427153838.847,-1.9581089
1427153838.862,-1.6872768
1427153838.878,-1.7434158
1427153838.894,-2.265562
1427153838.909,-3.2423744
1427153838.925,-4.490198
1427153838.941,-5.737013
1427153838.956,-6.7164955
1427153838.972,-7.2954254
1427153838.987,-7.4853134
1427153839.003,-7.434864
1427153839.019,-7.3093853
1427153839.034,-7.222521
1427153839.05,-7.1900883
1427153839.066,-7.168911
1427153839.081,-7.107498
1427153839.097,-6.9873543
1427153839.112,-6.8326683
1427153839.128,-6.673435
1427153839.144,-6.490795
1427153839.159,-6.2214775
1427153839.175,-5.781746
1427153839.191,-5.120636
1427153839.206,-4.2743435
1427153839.222,-3.3703136
1427153839.237,-2.572115
1427153839.253,-2.0191307
1427153839.269,-1.7530441
1427153839.284,-1.7157478
1427153839.3,-1.7679062
1427153839.316,-1.7716675
1427153839.331,-1.6413441
1427153839.347,-1.40028
1427153839.362,-1.1360455
1427153839.378,-0.93754387
1427153839.394,-0.8353863
1427153839.409,-0.78349113
1427153839.425,-0.689579
1427153839.441,-0.4826336
1427153839.456,-0.15463448
1427153839.472,0.22335625
1427153839.488,0.57094
1427153839.503,0.8250828
1427153839.519,1.017292
1427153839.534,1.2141075
1427153839.55,1.5079536
1427153839.566,1.947609
1427153839.581,2.5296707
1427153839.597,3.2237225
1427153839.612,3.9942226
1427153839.628,4.8056087
1427153839.644,5.6251087
1427153839.659,6.3967934
1427153839.675,7.0539303
1427153839.691,7.5632763
1427153839.706,7.9754868
1427153839.722,8.436514
1427153839.738,9.161045
1427153839.753,10.326117
1427153839.769,11.98074
1427153839.784,13.968357
1427153839.8,15.970894
1427153839.816,17.573418
1427153839.831,18.40935
1427153839.847,18.237486
1427153839.863,16.999765
1427153839.878,14.814539
1427153839.894,11.953255
1427153839.909,8.778021
1427153839.925,5.685339
1427153839.941,3.014719
1427153839.956,0.9798622
1427153839.972,-0.38367653
1427153839.988,-1.1992016
1427153840.003,-1.6917858
1427153840.019,-2.081068
1427153840.034,-2.5197868
1427153840.05,-3.0522022
1427153840.066,-3.6595993
1427153840.081,-4.2788563
1427153840.097,-4.856373
1427153840.113,-5.335331
1427153840.128,-5.6905975
1427153840.144,-5.9039955
1427153840.159,-6.014372
1427153840.175,-6.0933475
1427153840.191,-6.2437153
1427153840.206,-6.527382
1427153840.222,-6.9413033
1427153840.238,-7.412819
1427153840.253,-7.8574295
1427153840.269,-8.200153
1427153840.284,-8.431747
1427153840.3,-8.567671
1427153840.316,-8.620251
1427153840.331,-8.588453
1427153840.347,-8.453962
1427153840.363,-8.215204
1427153840.378,-7.914501
1427153840.394,-7.622345
1427153840.409,-7.408743
1427153840.425,-7.288885
1427153840.441,-7.227661
1427153840.456,-7.144987
1427153840.472,-6.9765244
1427153840.488,-6.6945496
1427153840.503,-6.3085575
1427153840.519,-5.8383923
1427153840.534,-5.2954597
1427153840.55,-4.654007
1427153840.566,-3.8964138
1427153840.581,-3.0187798
1427153840.597,-2.0661335
1427153840.613,-1.0917931
1427153840.628,-0.14909554
1427153840.644,0.74778557
1427153840.659,1.6171589
1427153840.675,2.493143
1427153840.691,3.3823795
1427153840.706,4.2613564
1427153840.722,5.080202
1427153840.738,5.811266
1427153840.753,6.457514
1427153840.769,7.088951
1427153840.784,7.8081837
1427153840.8,8.718376
1427153840.816,9.882898
1427153840.831,11.310905
1427153840.847,12.8904705
1427153840.863,14.425121
1427153840.878,15.622814
1427153840.894,16.192165
1427153840.909,15.912918
1427153840.925,14.727634
1427153840.941,12.769249
1427153840.956,10.314095
1427153840.972,7.694128
1427153840.988,5.192478
1427153841.003,3.014656
1427153841.019,1.2576027
1427153841.034,-0.059417725
1427153841.05,-0.96743584
1427153841.066,-1.5441933
1427153841.081,-1.9156284
1427153841.097,-2.2476406
1427153841.113,-2.685154
1427153841.128,-3.3174706
1427153841.144,-4.1254387
1427153841.159,-5.010845
1427153841.175,-5.826748
1427153841.191,-6.495743
1427153841.206,-7.023081
1427153841.222,-7.4804325
1427153841.238,-7.930834
1427153841.253,-8.3711605
1427153841.269,-8.714745
1427153841.284,-8.851997
1427153841.3,-8.726475
1427153841.316,-8.400555
1427153841.331,-8.025452
1427153841.347,-7.7630215
1427153841.363,-7.667101
1427153841.378,-7.677513
1427153841.394,-7.6323223
1427153841.409,-7.3927956
1427153841.425,-6.9218807
1427153841.441,-6.3054886
1427153841.456,-5.6776104
1427153841.472,-5.1408157
1427153841.488,-4.6920815
1427153841.503,-4.231859
1427153841.519,-3.6542854
1427153841.534,-2.9106655
1427153841.55,-2.0328064
1427153841.566,-1.122879
1427153841.581,-0.2812252
1427153841.597,0.42002296
1427153841.613,0.9685135
1427153841.628,1.3821449
1427153841.644,1.6952248
1427153841.659,1.9298477
1427153841.675,2.1128445
1427153841.691,2.2834778
1427153841.706,2.5084248
1427153841.722,2.8734818
1427153841.738,3.464119
1427153841.753,4.3092155
1427153841.769,5.349291
1427153841.784,6.4348164
1427153841.8,7.3837566
1427153841.816,8.061174
1427153841.831,8.4586735
1427153841.847,8.721262
1427153841.863,9.098053
1427153841.878,9.829279
1427153841.894,11.05983
1427153841.909,12.75691
1427153841.925,14.723816
1427153841.941,16.631763
1427153841.956,18.140614
1427153841.972,18.954355
1427153841.988,18.893023
1427153842.003,17.899372
1427153842.019,16.046965
1427153842.034,13.490028
1427153842.05,10.470779
1427153842.066,7.2825336
1427153842.081,4.250391
1427153842.097,1.674715
1427153842.113,-0.2547016
1427153842.128,-1.5170822
1427153842.144,-2.2817001
1427153842.159,-2.8402176
1427153842.175,-3.463852
1427153842.191,-4.2664013
1427153842.206,-5.161707
1427153842.222,-5.9503517
1427153842.238,-6.448393
1427153842.253,-6.6286335
1427153842.269,-6.615097
1427153842.284,-6.599848
1427153842.3,-6.7133064
1427153842.316,-6.9741573
1427153842.331,-7.3212967
1427153842.347,-7.7073936
1427153842.363,-8.130072
1427153842.378,-8.628086
1427153842.394,-9.204746
1427153842.41,-9.767078
1427153842.425,-10.141588
1427153842.441,-10.159042
1427153842.456,-9.758276
1427153842.472,-9.043677
1427153842.488,-8.221025
1427153842.503,-7.519458
1427153842.519,-7.053232
1427153842.535,-6.819229
1427153842.55,-6.691984
1427153842.566,-6.522318
1427153842.581,-6.20179
1427153842.597,-5.7167177
1427153842.613,-5.1268005
1427153842.628,-4.517269
1427153842.644,-3.9596968
1427153842.66,-3.5066233
1427153842.675,-3.1878834
1427153842.691,-3.0416832
1427153842.706,-3.099739
1427153842.722,-3.354887
1427153842.738,-3.7167082
1427153842.753,-4.021723
1427153842.769,-4.0732613
1427153842.785,-3.726818
1427153842.8,-2.9570408
1427153842.816,-1.884326
1427153842.831,-0.6860275
1427153842.847,0.43771648
1427153842.863,1.3820629
1427153842.878,2.134223
1427153842.894,2.7597618
1427153842.91,3.3458185
1427153842.925,3.964817
1427153842.941,4.6549454
1427153842.956,5.426856
1427153842.972,6.24354
1427153842.988,7.0390625
1427153843.003,7.734291
1427153843.019,8.298004
1427153843.035,8.764177
1427153843.05,9.267016
1427153843.066,9.993028
1427153843.081,11.090029
1427153843.097,12.583303
1427153843.113,14.347886
1427153843.128,16.11242
1427153843.144,17.532024
1427153843.16,18.244251
1427153843.175,17.967873
1427153843.191,16.556908
1427153843.206,14.052986
1427153843.222,10.700588
1427153843.238,6.933646
1427153843.253,3.2710562
1427153843.269,0.20029926
1427153843.285,-1.974782
1427153843.3,-3.1892242
1427153843.316,-3.6279964
1427153843.331,-3.6003485
1427153843.347,-3.4357224
1427153843.363,-3.3631754
1427153843.378,-3.4779625
1427153843.394,-3.7889404
1427153843.41,-4.2420225
1427153843.425,-4.790621
1427153843.441,-5.4007063
1427153843.456,-6.026162
1427153843.472,-6.6177897
1427153843.488,-7.1072183
1427153843.503,-7.4345026
1427153843.519,-7.568137
1427153843.535,-7.561488
1427153843.55,-7.5132794
1427153843.566,-7.5564547
1427153843.581,-7.770061
1427153843.597,-8.170202
1427153843.613,-8.663533
1427153843.628,-9.133013
1427153843.644,-9.461892
1427153843.66,-9.585001
1427153843.675,-9.500463
1427153843.691,-9.249392
1427153843.706,-8.893738
1427153843.722,-8.503771
1427153843.738,-8.128998
1427153843.753,-7.8214893
1427153843.769,-7.6171665
1427153843.785,-7.527918
1427153843.8,-7.5023637
1427153843.816,-7.456275
1427153843.831,-7.256812
1427153843.847,-6.7932734
1427153843.863,-6.0013356
1427153843.878,-4.9203863
1427153843.894,-3.6723123
1427153843.91,-2.4548779
1427153843.925,-1.4646139
1427153843.941,-0.8329749
1427153843.956,-0.57478905
1427153843.972,-0.5909524
1427153843.988,-0.7100439
1427153844.003,-0.782876
1427153844.019,-0.7029166
1427153844.035,-0.45397377
1427153844.05,-0.0568285
1427153844.066,0.4666829
1427153844.081,1.1090927
1427153844.097,1.8657122
1427153844.113,2.7243843
1427153844.128,3.6259594
1427153844.144,4.4992876
1427153844.16,5.285491
1427153844.175,5.988907
1427153844.191,6.654048
1427153844.206,7.3411865
1427153844.222,8.058781
1427153844.238,8.763184
1427153844.253,9.371076
1427153844.269,9.830367
1427153844.285,10.180002
1427153844.3,10.570538
1427153844.316,11.207806
1427153844.331,12.288567
1427153844.347,13.879312
1427153844.363,15.868848
1427153844.378,17.947086
1427153844.394,19.69833
1427153844.41,20.703602
1427153844.425,20.676289
1427153844.441,19.519932
1427153844.456,17.343016
1427153844.472,14.384957
1427153844.488,10.962887
1427153844.503,7.385822
1427153844.519,3.9670658
1427153844.535,0.95213413
1427153844.55,-1.4575219
1427153844.566,-3.1761374
1427153844.581,-4.2480526
1427153844.597,-4.8645544
1427153844.613,-5.267339
1427153844.628,-5.680783
1427153844.644,-6.223955
1427153844.66,-6.889724
1427153844.675,-7.576647
1427153844.691,-8.169007
1427153844.706,-8.580456
1427153844.722,-8.797104
1427153844.738,-8.843693
1427153844.753,-8.780694
1427153844.769,-8.64435
1427153844.785,-8.449712
1427153844.8,-8.197191
1427153844.816,-7.9018574
1427153844.831,-7.59969
1427153844.847,-7.377474
1427153844.863,-7.3263855
1427153844.878,-7.5056567
1427153844.894,-7.8864594
1427153844.91,-8.345122
1427153844.925,-8.679148
1427153844.941,-8.727859
1427153844.956,-8.423675
1427153844.972,-7.8871264
1427153844.988,-7.327926
1427153845.003,-6.9601007
1427153845.019,-6.8497705
1427153845.035,-6.899561
1427153845.05,-6.8895884
1427153845.066,-6.6308494
1427153845.082,-6.0685515
1427153845.097,-5.3318114
1427153845.113,-4.654464
1427153845.128,-4.236819
1427153845.144,-4.157577
1427153845.16,-4.3211646
1427153845.175,-4.52475
1427153845.191,-4.568311
1427153845.207,-4.3344417
1427153845.222,-3.8514738
1427153845.238,-3.2183952
1427153845.253,-2.5749898
1427153845.269,-1.9812477
1427153845.285,-1.4269211
1427153845.3,-0.83081937
1427153845.316,-0.111649275
1427153845.332,0.76392937
1427153845.347,1.7464769
1427153845.363,2.7363212
1427153845.378,3.6509912
1427153845.394,4.4674854
1427153845.41,5.2525454
1427153845.425,6.1322236
1427153845.441,7.220286
1427153845.457,8.567343
1427153845.472,10.120921
1427153845.488,11.748871
1427153845.503,13.245924
1427153845.519,14.390873
1427153845.535,14.982023
1427153845.55,14.879299
1427153845.566,14.000242
1427153845.582,12.36373
1427153845.597,10.08596
1427153845.613,7.3827467
1427153845.628,4.561221
1427153845.644,1.9623524
1427153845.66,-0.12131721
1427153845.675,-1.5258099
1427153845.691,-2.2706046
1427153845.707,-2.535472
1427153845.722,-2.5906954
1427153845.738,-2.6786358
1427153845.753,-2.944238
1427153845.769,-3.3900375
1427153845.785,-3.957353
1427153845.8,-4.5523767
1427153845.816,-5.115329
1427153845.832,-5.6088552
1427153845.847,-6.0333924
1427153845.863,-6.391723
1427153845.878,-6.7189646
1427153845.894,-7.0693007
1427153845.91,-7.494432
1427153845.925,-7.98604
1427153845.941,-8.475347
1427153845.957,-8.847418
1427153845.972,-9.024205
1427153845.988,-8.9855795
1427153846.003,-8.78246
1427153846.019,-8.470625
1427153846.035,-8.082293
1427153846.05,-7.601832
1427153846.066,-7.055409
1427153846.082,-6.507224
1427153846.097,-6.088355
1427153846.113,-5.8867
1427153846.128,-5.8837595
1427153846.144,-5.921183
1427153846.16,-5.772203
1427153846.175,-5.267496
1427153846.191,-4.380787
1427153846.207,-3.2430553
1427153846.222,-2.0739994
1427153846.238,-1.0822349
1427153846.253,-0.400733
1427153846.269,-0.044917583
1427153846.285,0.043896675
1427153846.3,0.006064415
1427153846.316,0.0069909096
1427153846.332,0.21316624
1427153846.347,0.7041173
1427153846.363,1.443182
1427153846.378,2.2832012
1427153846.394,3.027485
1427153846.41,3.5469503
1427153846.425,3.8677073
1427153846.441,4.1443205
1427153846.457,4.5923023
1427153846.472,5.33473
1427153846.488,6.350709
1427153846.503,7.461177
1427153846.519,8.468105
1427153846.535,9.258484
1427153846.55,9.878266
1427153846.566,10.508895
1427153846.582,11.370443
1427153846.597,12.601566
1427153846.613,14.191335
1427153846.628,15.961888
1427153846.644,17.637922
1427153846.66,18.930351
1427153846.675,19.595802
1427153846.691,19.447979
1427153846.707,18.411554
1427153846.722,16.482075
1427153846.738,13.792038
1427153846.753,10.604363
1427153846.769,7.2815094
1427153846.785,4.214711
1427153846.8,1.7178497
1427153846.816,-0.0653944
1427153846.832,-1.1693373
1427153846.847,-1.7711859
1427153846.863,-2.1206627
1427153846.878,-2.4469223
1427153846.894,-2.8939104
1427153846.91,-3.514454
1427153846.925,-4.2710505
1427153846.941,-5.0728416
1427153846.957,-5.8052826
1427153846.972,-6.393503
1427153846.988,-6.7868023
1427153847.003,-7.015542
1427153847.019,-7.152713
1427153847.035,-7.279439
1427153847.05,-7.4536324
1427153847.066,-7.683867
1427153847.082,-7.929492
1427153847.097,-8.142349
1427153847.113,-8.284615
1427153847.128,-8.362093
1427153847.144,-8.390571
1427153847.16,-8.38059
1427153847.175,-8.300545
1427153847.191,-8.1212635
1427153847.207,-7.822142
1427153847.222,-7.4447727
1427153847.238,-7.0719147
1427153847.253,-6.7835593
1427153847.269,-6.6045337
1427153847.285,-6.473605
1427153847.3,-6.263023
1427153847.316,-5.8540325
1427153847.332,-5.203135
1427153847.347,-4.367775
1427153847.363,-3.4615045
1427153847.378,-2.608694
1427153847.394,-1.8709168
1427153847.41,-1.2733502
1427153847.425,-0.8205943
1427153847.441,-0.5269098
1427153847.457,-0.41882133
1427153847.472,-0.5298786
1427153847.488,-0.83765507
1427153847.503,-1.2554564
1427153847.519,-1.63168
1427153847.535,-1.8043032
1427153847.55,-1.6482215
1427153847.566,-1.1417227
1427153847.582,-0.36646318
1427153847.597,0.53057575
1427153847.613,1.4216251
1427153847.628,2.2536602
1427153847.644,3.0736656
1427153847.66,3.9716444
1427153847.675,5.0052223
1427153847.691,6.1256847
1427153847.707,7.1981735
1427153847.722,8.051118
1427153847.738,8.580687
1427153847.754,8.828215
1427153847.769,8.971399
1427153847.785,9.238914
1427153847.8,9.836301
1427153847.816,10.85758
1427153847.832,12.297398
1427153847.847,14.06013
1427153847.863,15.98905
1427153847.879,17.877846
1427153847.894,19.481302
1427153847.91,20.508987
1427153847.925,20.692928
1427153847.941,19.811527
1427153847.957,17.805191
1427153847.972,14.802712
1427153847.988,11.130442
1427153848.004,7.2442155
1427153848.019,3.6142344
1427153848.035,0.6032779
1427153848.05,-1.6154752
1427153848.066,-3.0703416
1427153848.082,-3.928503
1427153848.097,-4.4063387
1427153848.113,-4.6783257
1427153848.129,-4.8496675
1427153848.144,-4.958149
1427153848.16,-5.013223
1427153848.175,-5.0234733
1427153848.191,-5.028421
1427153848.207,-5.0688114
1427153848.222,-5.1945963
1427153848.238,-5.430436
1427153848.254,-5.7864017
1427153848.269,-6.25225
1427153848.285,-6.817259
1427153848.3,-7.458281
1427153848.316,-8.151109
1427153848.332,-8.82135
1427153848.347,-9.379966
1427153848.363,-9.715921
1427153848.379,-9.742947
1427153848.394,-9.429841
1427153848.41,-8.858679
1427153848.425,-8.173939
1427153848.441,-7.5721235
1427153848.457,-7.208275
1427153848.472,-7.15129
1427153848.488,-7.342553
1427153848.504,-7.632677
1427153848.519,-7.847124
1427153848.535,-7.8620987
1427153848.55,-7.6355495
1427153848.566,-7.201497
1427153848.582,-6.6371574
1427153848.597,-6.027931
1427153848.613,-5.444044
1427153848.629,-4.9465275
1427153848.644,-4.565776
1427153848.66,-4.3248167
1427153848.675,-4.205041
1427153848.691,-4.1537914
1427153848.707,-4.089342
1427153848.722,-3.9426556
1427153848.738,-3.6755362
1427153848.754,-3.2801046
1427153848.769,-2.7783318
1427153848.785,-2.1836834
1427153848.8,-1.4986811
1427153848.816,-0.75311565
1427153848.832,-1.1062622E-4
1427153848.847,0.6663122
1427153848.863,1.1646805
1427153848.879,1.4650145
1427153848.894,1.6382294
1427153848.91,1.8046637
1427153848.925,2.1303654
1427153848.941,2.7419863
1427153848.957,3.68266
1427153848.972,4.9152193
1427153848.988,6.3312187
1427153849.004,7.8068438
1427153849.019,9.258172
1427153849.035,10.69076
1427153849.05,12.181529
1427153849.066,13.825285
1427153849.082,15.655386
1427153849.097,17.555706
1427153849.113,19.278889
1427153849.129,20.468315
1427153849.144,20.786163
1427153849.16,19.993313
1427153849.175,18.036213
1427153849.191,15.076257
1427153849.207,11.452045
1427153849.222,7.6139755
1427153849.238,4.021102
1427153849.254,1.064291
1427153849.269,-1.0240993
1427153849.285,-2.2267246
1427153849.3,-2.706542
1427153849.316,-2.7488127
1427153849.332,-2.642456
1427153849.347,-2.6300583
1427153849.363,-2.8513966
1427153849.379,-3.3376045
1427153849.394,-4.0496197
1427153849.41,-4.884535
1427153849.425,-5.6929913
1427153849.441,-6.321638
1427153849.457,-6.658825
1427153849.472,-6.6990223
1427153849.488,-6.5322056
1427153849.504,-6.3431187
1427153849.519,-6.31781
1427153849.535,-6.561222
1427153849.55,-7.0614777
1427153849.566,-7.728636
1427153849.582,-8.420826
1427153849.597,-9.050665
1427153849.613,-9.57659
1427153849.629,-9.981098
1427153849.644,-10.227497
1427153849.66,-10.240204
1427153849.675,-9.935183
1427153849.691,-9.282536
1427153849.707,-8.35033
1427153849.722,-7.2828197
1427153849.738,-6.257324
1427153849.754,-5.404436
1427153849.769,-4.755987
1427153849.785,-4.2902374
1427153849.8,-3.9414444
1427153849.816,-3.6642857
1427153849.832,-3.4188156
1427153849.847,-3.190712
1427153849.863,-2.9512749
1427153849.879,-2.6717377
1427153849.894,-2.3252811
1427153849.91,-1.9065552
1427153849.925,-1.4210205
1427153849.941,-0.88630867
1427153849.957,-0.29808235
1427153849.972,0.3332348
1427153849.988,1.0027027
1427153850.004,1.6845436
1427153850.019,2.3376045
1427153850.035,2.9308681
1427153850.05,3.4657574
1427153850.066,3.9565907
1427153850.082,4.446306
1427153850.097,4.97847
1427153850.113,5.6139927
1427153850.129,6.4128685
1427153850.144,7.4173717
1427153850.16,8.591869
1427153850.175,9.797785
1427153850.191,10.781063
1427153850.207,11.238325
1427153850.222,10.89311
1427153850.238,9.61833
1427153850.254,7.4587517
1427153850.269,4.666258
1427153850.285,1.6042519
1427153850.3,-1.3313236
1427153850.316,-3.8117256
1427153850.332,-5.6288834
1427153850.347,-6.7487373
1427153850.363,-7.254507
1427153850.379,-7.3405914
1427153850.394,-7.222952
1427153850.41,-7.081526
1427153850.426,-7.014883
1427153850.441,-7.0359306
1427153850.457,-7.0658436
1427153850.472,-6.9802856
1427153850.488,-6.6529236
1427153850.504,-5.991644
1427153850.519,-4.989929
1427153850.535,-3.7567692
1427153850.55,-2.485424
1427153850.566,-1.4230194
1427153850.582,-0.7916584
1427153850.597,-0.72636414
1427153850.613,-1.2233334
1427153850.629,-2.147791
1427153850.644,-3.2682133
1427153850.66,-4.326784
1427153850.676,-5.0822964
1427153850.691,-5.3834343
1427153850.707,-5.1745415
1427153850.722,-4.5289936
1427153850.738,-3.607195
1427153850.754,-2.623457
1427153850.769,-1.7727547
1427153850.785,-1.1715202
1427153850.801,-0.8342304
1427153850.816,-0.6862583
1427153850.832,-0.5868702
1427153850.847,-0.40552902
1427153850.863,-0.047174454
1427153850.879,0.4977703
1427153850.894,1.1678486
1427153850.91,1.8444023
1427153850.926,2.4340668
1427153850.941,2.8926468
1427153850.957,3.2748852
1427153850.972,3.693451
1427153850.988,4.2720203
1427153851.004,5.0812435
1427153851.019,6.08584
1427153851.035,7.1642647
1427153851.051,8.180824
1427153851.066,9.0593815
1427153851.082,9.857195
1427153851.097,10.742882
1427153851.113,11.923845
1427153851.129,13.515018
1427153851.144,15.459906
1427153851.16,17.47723
1427153851.176,19.1694
1427153851.191,20.104525
1427153851.207,19.978067
1427153851.222,18.681263
1427153851.238,16.344507
1427153851.254,13.251101
1427153851.269,9.791477
1427153851.285,6.363373
1427153851.301,3.3245335
1427153851.316,0.9111252
1427153851.332,-0.77129555
1427153851.347,-1.7980442
1427153851.363,-2.3935661
1427153851.379,-2.8557644
1427153851.394,-3.4371376
1427153851.41,-4.2633266
1427153851.426,-5.286701
1427153851.441,-6.340637
1427153851.457,-7.2378025
1427153851.472,-7.8758163
1427153851.488,-8.281855
1427153851.504,-8.600346
1427153851.519,-8.978136
1427153851.535,-9.507952
1427153851.551,-10.145271
1427153851.566,-10.771038
1427153851.582,-11.260826
1427153851.597,-11.550495
1427153851.613,-11.657539
1427153851.629,-11.650948
1427153851.644,-11.579952
1427153851.66,-11.4697075
1427153851.676,-11.316734
1427153851.691,-11.115856
1427153851.707,-10.888283
1427153851.722,-10.68074
1427153851.738,-10.525841
1427153851.754,-10.424763
1427153851.769,-10.3166275
1427153851.785,-10.103531
1427153851.801,-9.666149
1427153851.816,-8.937149
1427153851.832,-7.871498
1427153851.847,-6.500618
1427153851.863,-4.8999214
1427153851.879,-3.1967964
1427153851.894,-1.5536957
1427153851.91,-0.12812424
1427153851.926,0.96012115
1427153851.941,1.6738739
1427153851.957,2.0521507
1427153851.972,2.2077408
1427153851.988,2.2778778
1427153852.004,2.377739
1427153852.019,2.60561
1427153852.035,2.999218
1427153852.051,3.5754128
1427153852.066,4.313961
1427153852.082,5.1967926
1427153852.097,6.1939507
1427153852.113,7.2728233
1427153852.129,8.397373
1427153852.144,9.519363
1427153852.16,10.603634
1427153852.176,11.634449
1427153852.191,12.662781
1427153852.207,13.820099
1427153852.222,15.265919
1427153852.238,17.112415
1427153852.254,19.301914
1427153852.269,21.561905
1427153852.285,23.418152
1427153852.301,24.351746
1427153852.316,23.952114
1427153852.332,22.089947
1427153852.347,18.936035
1427153852.363,14.920708
1427153852.379,10.585403
1427153852.394,6.447731
1427153852.41,2.889412
1427153852.426,0.10939026
1427153852.441,-1.8840561
1427153852.457,-3.2355232
1427153852.472,-4.1904793
1427153852.488,-5.0117836
1427153852.504,-5.896633
1427153852.519,-6.910431
1427153852.535,-8.019634
1427153852.551,-9.116177
1427153852.566,-10.096672
1427153852.582,-10.901108
1427153852.597,-11.515617
1427153852.613,-11.935532
1427153852.629,-12.158138
1427153852.644,-12.191738
1427153852.66,-12.108238
1427153852.676,-12.038513
1427153852.691,-12.130611
1427153852.707,-12.448372
1427153852.722,-12.927998
1427153852.738,-13.36982
1427153852.754,-13.539955
1427153852.769,-13.270809
1427153852.785,-12.550724
1427153852.801,-11.536659
1427153852.816,-10.487064
1427153852.832,-9.641762
1427153852.847,-9.140057
1427153852.863,-8.971409
1427153852.879,-8.996643
1427153852.894,-9.021435
1427153852.91,-8.8916855
1427153852.926,-8.525402
1427153852.941,-7.9467125
1427153852.957,-7.242153
1427153852.972,-6.4978027
1427153852.988,-5.771427
1427153853.004,-5.0772247
1427153853.019,-4.4030914
1427153853.035,-3.7661552
1427153853.051,-3.203598
1427153853.066,-2.750965
1427153853.082,-2.4014091
1427153853.097,-2.1047096
1427153853.113,-1.7761116
1427153853.129,-1.3658371
1427153853.144,-0.8661728
1427153853.16,-0.3167572
1427153853.176,0.24031448
1427153853.191,0.77928543
1427153853.207,1.3035698
1427153853.222,1.8257256
1427153853.238,2.340538
1427153853.254,2.8394775
1427153853.269,3.3265915
1427153853.285,3.8348465
1427153853.301,4.4290695
1427153853.316,5.17091
1427153853.332,6.113682
1427153853.348,7.2520065
1427153853.363,8.535847
1427153853.379,9.866833
1427153853.394,11.1545105
1427153853.41,12.332153
1427153853.426,13.436981
1427153853.441,14.5999565
1427153853.457,16.013466
1427153853.473,17.794292
1427153853.488,19.869202
1427153853.504,21.902878
1427153853.519,23.346546
1427153853.535,23.629128
1427153853.551,22.392422
1427153853.566,19.63287
1427153853.582,15.7519455
1427153853.598,11.386856
1427153853.613,7.2279663
1427153853.629,3.7872734
1427153853.644,1.2870789
1427153853.66,-0.3520317
1427153853.676,-1.3996048
1427153853.691,-2.2022285
1427153853.707,-3.0385056
1427153853.723,-4.0413666
1427153853.738,-5.198719
1427153853.754,-6.4222336
1427153853.769,-7.588295
1427153853.785,-8.619736
1427153853.801,-9.480976
1427153853.816,-10.15464
1427153853.832,-10.620819
1427153853.848,-10.8760605
1427153853.863,-10.95853
1427153853.879,-10.983639
1427153853.894,-11.118778
1427153853.91,-11.502102
1427153853.926,-12.153229
1427153853.941,-12.931316
1427153853.957,-13.555172
1427153853.973,-13.76173
1427153853.988,-13.395222
1427153854.004,-12.509441
1427153854.019,-11.33519
1427153854.035,-10.192051
1427153854.051,-9.326187
1427153854.066,-8.854031
1427153854.082,-8.728127
1427153854.098,-8.778667
1427153854.113,-8.798168
1427153854.129,-8.622128
1427153854.144,-8.165333
1427153854.16,-7.450386
1427153854.176,-6.543499
1427153854.191,-5.5202866
1427153854.207,-4.4359627
1427153854.223,-3.3282928
1427153854.238,-2.241928
1427153854.254,-1.2761154
1427153854.269,-0.55856705
1427153854.285,-0.19195557
1427153854.301,-0.1723175
1427153854.316,-0.37129974
1427153854.332,-0.5497589
1427153854.348,-0.48394775
1427153854.363,-0.053028107
1427153854.379,0.70412064
1427153854.394,1.6201286
1427153854.41,2.5212708
1427153854.426,3.3057823
1427153854.441,3.9767036
1427153854.457,4.6025085
1427153854.473,5.2274323
1427153854.488,5.849041
1427153854.504,6.427191
1427153854.519,6.969267
1427153854.535,7.5150776
1427153854.551,8.192455
1427153854.566,9.1247635
1427153854.582,10.377552
1427153854.598,11.924465
1427153854.613,13.668787
1427153854.629,15.467766
1427153854.644,17.171545
1427153854.66,18.610962
1427153854.676,19.59564
1427153854.691,19.888853
1427153854.707,19.25688
1427153854.723,17.540129
1427153854.738,14.756441
1427153854.754,11.138149
1427153854.769,7.1132565
1427153854.785,3.1689835
1427153854.801,-0.26047897
1427153854.816,-2.947466
1427153854.832,-4.861704
1427153854.848,-6.1600266
1427153854.863,-7.065428
1427153854.879,-7.802767
1427153854.894,-8.51926
1427153854.91,-9.294695
1427153854.926,-10.11401
1427153854.941,-10.894566
1427153854.957,-11.493973
1427153854.973,-11.763796
1427153854.988,-11.614828
1427153855.004,-11.074577
1427153855.019,-10.268963
1427153855.035,-9.404968
1427153855.051,-8.662428
1427153855.066,-8.165371
1427153855.082,-7.945921
1427153855.098,-7.985985
1427153855.113,-8.219564
1427153855.129,-8.547291
1427153855.144,-8.817858
1427153855.16,-8.858543
1427153855.176,-8.517416
1427153855.191,-7.745741
1427153855.207,-6.6490498
1427153855.223,-5.464123
1427153855.238,-4.458626
1427153855.254,-3.8233376
1427153855.269,-3.59379
1427153855.285,-3.660122
1427153855.301,-3.8120575
1427153855.316,-3.8421593
1427153855.332,-3.6033993
1427153855.348,-3.0275345
1427153855.363,-2.1314754
1427153855.379,-0.9987278
1427153855.394,0.24118233
1427153855.41,1.4131813
1427153855.426,2.3843575
1427153855.441,3.0714874
1427153855.457,3.4913063
1427153855.473,3.7188168
1427153855.488,3.8871803
1427153855.504,4.1053944
1427153855.519,4.4529095
1427153855.535,4.9500446
1427153855.551,5.5779667
1427153855.566,6.283592
1427153855.582,7.0175457
1427153855.598,7.749756
1427153855.613,8.516188
1427153855.629,9.39515
1427153855.644,10.510692
1427153855.66,11.935288
1427153855.676,13.621688
1427153855.691,15.349806
1427153855.707,16.733015
1427153855.723,17.324162
1427153855.738,16.763058
1427153855.754,14.917761
1427153855.769,11.947044
1427153855.785,8.258246
1427153855.801,4.3958654
1427153855.816,0.88006973
1427153855.832,-1.8986883
1427153855.848,-3.756526
1427153855.863,-4.723504
1427153855.879,-4.9976015
1427153855.894,-4.87059
1427153855.91,-4.673973
1427153855.926,-4.6759157
1427153855.941,-5.024
1427153855.957,-5.7113705
1427153855.973,-6.5992966
1427153855.988,-7.4712114
1427153856.004,-8.117165
1427153856.02,-8.396871
1427153856.035,-8.2748995
1427153856.051,-7.819291
1427153856.066,-7.184329
1427153856.082,-6.5611887
1427153856.098,-6.1581144
1427153856.113,-6.1142197
1427153856.129,-6.4758463
1427153856.145,-7.1442137
1427153856.16,-7.928981
1427153856.176,-8.603446
1427153856.191,-8.984226
1427153856.207,-8.99128
1427153856.223,-8.652124
1427153856.238,-8.06699
1427153856.254,-7.3583937
1427153856.27,-6.6549907
1427153856.285,-6.0724316
1427153856.301,-5.7020893
1427153856.316,-5.559459
1427153856.332,-5.5609837
1427153856.348,-5.5186796
1427153856.363,-5.200947
1427153856.379,-4.472432
1427153856.395,-3.3338728
1427153856.41,-1.9617826
1427153856.426,-0.6130078
1427153856.441,0.4896285
1427153856.457,1.2510649
1427153856.473,1.676512
1427153856.488,1.8474569
1427153856.504,1.8379264
1427153856.52,1.7260625
1427153856.535,1.6067562
1427153856.551,1.6231575
1427153856.566,1.9237666
1427153856.582,2.599904
1427153856.598,3.603682
1427153856.613,4.7476406
1427153856.629,5.7999105
1427153856.645,6.6080346
1427153856.66,7.142938
1427153856.676,7.5180273
1427153856.691,7.8768454
1427153856.707,8.316544
1427153856.723,8.8349495
1427153856.738,9.378053
1427153856.754,9.920549
1427153856.77,10.526529
1427153856.785,11.320564
1427153856.801,12.437794
1427153856.816,13.949373
1427153856.832,15.79549
1427153856.848,17.769531
1427153856.863,19.54308
1427153856.879,20.726837
1427153856.895,20.954502
1427153856.91,19.989319
1427153856.926,17.8067
1427153856.941,14.631459
1427153856.957,10.931841
1427153856.973,7.242854
1427153856.988,4.05894
1427153857.004,1.6816463
1427153857.02,0.16170311
1427153857.035,-0.669857
1427153857.051,-1.1092396
1427153857.066,-1.4693747
1427153857.082,-1.9626694
1427153857.098,-2.6693163
1427153857.113,-3.555378
1427153857.129,-4.51363
1427153857.145,-5.44598
1427153857.16,-6.3095407
1427153857.176,-7.084858
1427153857.191,-7.7697325
1427153857.207,-8.32513
1427153857.223,-8.706918
1427153857.238,-8.907007
1427153857.254,-9.006366
1427153857.27,-9.157117
1427153857.285,-9.543478
1427153857.301,-10.245021
1427153857.316,-11.165201
1427153857.332,-12.039042
1427153857.348,-12.551373
1427153857.363,-12.475971
1427153857.379,-11.802435
1427153857.395,-10.73687
1427153857.41,-9.592552
1427153857.426,-8.651281
1427153857.441,-8.056984
1427153857.457,-7.7641544
1427153857.473,-7.643926
1427153857.488,-7.5299425
1427153857.504,-7.305339
1427153857.52,-6.903858
1427153857.535,-6.3204384
1427153857.551,-5.5508513
1427153857.566,-4.6183567
1427153857.582,-3.5581007
1427153857.598,-2.4442148
1427153857.613,-1.390441
1427153857.629,-0.516696
1427153857.645,0.08544445
1427153857.66,0.37368965
1427153857.676,0.40040207
1427153857.691,0.28271484
1427153857.707,0.1837368
1427153857.723,0.26550102
1427153857.738,0.6740265
1427153857.754,1.4855671
1427153857.77,2.6995592
1427153857.785,4.2097797
1427153857.801,5.8376446
1427153857.816,7.366289
1427153857.832,8.629642
1427153857.848,9.555392
1427153857.863,10.189178
1427153857.879,10.6725025
1427153857.895,11.185582
1427153857.91,11.878178
1427153857.926,12.830129
1427153857.941,14.033145
1427153857.957,15.4286785
1427153857.973,16.897144
1427153857.988,18.278622
1427153858.004,19.339657
1427153858.02,19.788013
1427153858.035,19.307426
1427153858.051,17.679167
1427153858.066,14.865114
1427153858.082,11.089709
1427153858.098,6.7967453
1427153858.113,2.5273247
1427153858.129,-1.2179527
1427153858.145,-4.110574
1427153858.16,-6.055932
1427153858.176,-7.1670666
1427153858.191,-7.6692724
1427153858.207,-7.801159
1427153858.223,-7.760929
1427153858.238,-7.673048
1427153858.254,-7.619444
1427153858.27,-7.6356735
1427153858.285,-7.7429314
1427153858.301,-7.917308
1427153858.316,-8.1117115
1427153858.332,-8.258776
1427153858.348,-8.319323
1427153858.363,-8.310031
1427153858.379,-8.30171
1427153858.395,-8.386733
1427153858.41,-8.64485
1427153858.426,-9.088278
1427153858.441,-9.672111
1427153858.457,-10.311487
1427153858.473,-10.91002
1427153858.488,-11.364979
1427153858.504,-11.569475
1427153858.52,-11.404961
1427153858.535,-10.774263
1427153858.551,-9.655634
1427153858.566,-8.157681
1427153858.582,-6.5098143
1427153858.598,-5.001355
1427153858.613,-3.8653603
1427153858.629,-3.1981535
1427153858.645,-2.9088888
1427153858.66,-2.7814894
1427153858.676,-2.5718422
1427153858.692,-2.129981
1427153858.707,-1.4381723
1427153858.723,-0.626791
1427153858.738,0.11838913
1427153858.754,0.64443207
1427153858.77,0.90771294
1427153858.785,0.97481155
1427153858.801,1.0046806
1427153858.817,1.1321678
1427153858.832,1.4298897
1427153858.848,1.8668251
1427153858.863,2.3708172
1427153858.879,2.8977985
1427153858.895,3.4884605
1427153858.91,4.2336254
1427153858.926,5.191698
1427153858.942,6.3251457
1427153858.957,7.490692
1427153858.973,8.518885
1427153858.988,9.358376
1427153859.004,10.100895
1427153859.02,10.950935
1427153859.035,12.0700035
1427153859.051,13.431166
1427153859.067,14.757166
1427153859.082,15.640875
1427153859.098,15.696596
1427153859.113,14.761091
1427153859.129,12.936384
1427153859.145,10.536781
1427153859.16,7.9158115
1427153859.176,5.3589535
1427153859.192,3.0193043
1427153859.207,0.9778385
1427153859.223,-0.71450615
1427153859.238,-1.9925404
1427153859.254,-2.7973232
1427153859.27,-3.1310253
1427153859.285,-3.1054783
1427153859.301,-2.9188824
1427153859.317,-2.8243084
1427153859.332,-3.017891
1427153859.348,-3.5833282
1427153859.363,-4.4547977
1427153859.379,-5.4652348
1427153859.395,-6.4093113
1427153859.41,-7.134714
1427153859.426,-7.6020775
1427153859.442,-7.875345
1427153859.457,-8.082199
1427153859.473,-8.3399105
1427153859.488,-8.665237
1427153859.504,-8.992569
1427153859.52,-9.169342
1427153859.535,-9.05982
1427153859.551,-8.602106
1427153859.567,-7.8696556
1427153859.582,-7.0277004
1427153859.598,-6.2849426
1427153859.613,-5.81003
1427153859.629,-5.664339
1427153859.645,-5.790577
1427153859.66,-6.031847
1427153859.676,-6.1973476
1427153859.692,-6.1130733
1427153859.707,-5.675318
1427153859.723,-4.8901386
1427153859.738,-3.8661556
1427153859.754,-2.7860603
1427153859.77,-1.837162
1427153859.785,-1.1587238
1427153859.801,-0.7639446
1427153859.817,-0.5636959
1427153859.832,-0.4095955
1427153859.848,-0.19470787
1427153859.863,0.11484718
1427153859.879,0.4865017
1427153859.895,0.85946083
1427153859.91,1.220892
1427153859.926,1.626339
1427153859.942,2.1570911
1427153859.957,2.8628387
