1433894628.257,0.0
1433894628.272,0.0
1433894628.288,0.0
1433894628.303,0.0
1433894628.319,0.0
1433894628.335,0.0
1433894628.35,0.0
1433894628.366,0.0
1433894628.382,0.0
1433894628.397,0.0022315353
1433894628.413,-0.0045169927
1433894628.428,-0.011265522
1433894628.444,-0.011383951
1433894628.46,0.0011864507
1433894628.475,0.025910312
1433894628.491,0.050634187
1433894628.507,0.051362894
1433894628.522,-0.0014929791
1433894628.538,-0.1302426
1433894628.553,-0.35562757
1433894628.569,-0.6591247
1433894628.585,-1.0095103
1433894628.6,-1.3709826
1433894628.616,-1.7197359
1433894628.632,-2.0551105
1433894628.647,-2.39945
1433894628.663,-2.7866635
1433894628.678,-3.2399073
1433894628.694,-3.796012
1433894628.71,-4.418684
1433894628.725,-5.0592937
1433894628.741,-5.6644096
1433894628.757,-6.2021537
1433894628.772,-6.6808796
1433894628.788,-7.149598
1433894628.804,-7.6782336
1433894628.819,-8.310739
1433894628.835,-9.143657
1433894628.85,-10.089731
1433894628.866,-11.041313
1433894628.882,-11.8842125
1433894628.897,-12.564316
1433894628.913,-13.13563
1433894628.929,-13.760044
1433894628.944,-14.65232
1433894628.96,-15.962056
1433894628.975,-17.914442
1433894628.991,-20.317299
1433894629.007,-22.903854
1433894629.022,-25.37947
1433894629.038,-27.578028
1433894629.054,-29.57246
1433894629.069,-31.675173
1433894629.085,-34.3178
1433894629.1,-37.813618
1433894629.116,-42.541233
1433894629.132,-48.1463
1433894629.147,-54.104755
1433894629.163,-59.83309
1433894629.179,-64.972374
1433894629.194,-69.58293
1433894629.21,-74.14353
1433894629.225,-79.344986
1433894629.241,-85.70726
1433894629.257,-93.76193
1433894629.272,-102.99779
1433894629.288,-112.61757
1433894629.304,-121.73034
1433894629.319,-129.76602
1433894629.335,-136.75102
1433894629.35,-143.30344
1433894629.366,-150.74623
1433894629.382,-157.77356
1433894629.397,-166.64323
1433894629.413,-177.94798
1433894629.429,-191.79102
1433894629.444,-206.96808
1433894629.46,-220.56592
1433894629.475,-228.24644
1433894629.491,-225.36154
1433894629.507,-208.53198
1433894629.522,-176.87024
1433894629.538,-132.76222
1433894629.554,-80.04997
1433894629.569,-23.069275
1433894629.585,34.94339
1433894629.6,92.43695
1433894629.616,149.15695
1433894629.632,205.22772
1433894629.647,260.36963
1433894629.663,313.74133
1433894629.679,363.87396
1433894629.694,409.83353
1433894629.71,450.90775
1433894629.725,486.50244
1433894629.741,515.73865
1433894629.757,537.2274
1433894629.772,549.22
1433894629.788,549.9613
1433894629.804,538.367
1433894629.819,514.2055
1433894629.835,478.674
1433894629.85,433.87952
1433894629.866,382.45126
1433894629.882,327.02106
1433894629.897,269.84186
1433894629.913,212.63379
1433894629.929,156.6594
1433894629.944,102.95233
1433894629.96,52.373596
1433894629.975,5.9046936
1433894629.991,-35.580414
1433894630.007,-71.42584
1433894630.022,-101.35184
1433894630.038,-125.50113
1433894630.054,-144.3797
1433894630.069,-158.69403
1433894630.085,-169.15071
1433894630.1,-176.3711
1433894630.116,-180.75139
1433894630.132,-182.57419
1433894630.147,-182.06863
1433894630.163,-179.5066
1433894630.179,-175.23325
1433894630.194,-169.65286
1433894630.21,-163.17691
1433894630.225,-156.14568
1433894630.241,-148.80681
1433894630.257,-141.29686
1433894630.272,-133.68983
1433894630.288,-126.01962
1433894630.304,-118.33268
1433894630.319,-110.68864
1433894630.335,-103.15572
1433894630.35,-95.80455
1433894630.366,-88.684166
1433894630.382,-81.82744
1433894630.397,-75.24594
1433894630.413,-68.9526
1433894630.429,-62.949085
1433894630.444,-57.247494
1433894630.46,-51.857185
1433894630.475,-46.78282
1433894630.491,-42.02776
1433894630.507,-37.58521
1433894630.522,-33.451748
1433894630.538,-29.613855
1433894630.554,-26.070963
1433894630.569,-22.808779
1433894630.585,-19.824995
1433894630.6,-17.113392
1433894630.616,-14.666497
1433894630.632,-12.47932
1433894630.647,-10.538469
1433894630.663,-8.833674
1433894630.679,-7.3478527
1433894630.694,-6.067689
1433894630.71,-4.9734235
1433894630.725,-4.046258
1433894630.741,-3.2673752
1433894630.757,-2.6211367
1433894630.772,-2.088365
1433894630.788,-1.6507506
1433894630.804,-1.2976913
1433894630.819,-1.0147024
1433894630.835,-0.79105926
1433894630.85,-0.6133206
1433894630.866,-0.47516227
1433894630.882,-0.3684653
1433894630.897,-0.28461677
1433894630.913,-0.22397345
1433894630.929,-0.17647654
1433894630.944,-0.14055526
1433894630.96,-0.11251485
1433894630.975,-0.0926249
1433894630.991,-0.07977182
1433894631.007,-0.06783539
1433894631.022,-0.05929327
1433894631.038,-0.052183747
1433894631.054,-0.046860814
1433894631.069,-0.044131815
1433894631.085,-0.040358156
1433894631.1,-0.039164305
1433894631.116,-0.034330726
1433894631.132,-0.03515649
1433894631.147,-0.03181714
1433894631.163,-0.030750751
1433894631.179,-0.02810505
1433894631.194,-0.029290557
1433894631.21,-0.027453512
1433894631.225,-0.026081413
1433894631.241,-0.023851603
1433894631.257,-0.022989094
1433894631.272,-0.022172749
1433894631.288,-0.022157341
1433894631.304,-0.020828396
1433894631.319,-0.020277172
1433894631.335,-0.01940465
1433894631.35,-0.018795371
1433894631.366,-0.019169807
1433894631.382,-0.017195046
1433894631.397,-0.016264498
1433894631.413,-0.01676847
1433894631.429,-0.016039208
1433894631.444,-0.016356274
1433894631.46,-0.012255222
1433894631.476,-0.014531761
1433894631.491,-0.013970271
1433894631.507,-0.0151048
1433894631.522,-0.011057541
1433894631.538,-0.0131264925
1433894631.554,-0.011830375
1433894631.569,-0.011561602
1433894631.585,-0.011305705
1433894631.6,-0.011727303
1433894631.616,-0.011188552
1433894631.632,-0.00897336
1433894631.647,-0.0100701
1433894631.663,-0.010106817
1433894631.679,-0.00829272
1433894631.694,-0.012381226
1433894631.71,-0.009308472
1433894631.726,-0.009468168
1433894631.741,-0.0076998025
1433894631.757,-0.008273825
1433894631.772,-0.006166175
1433894631.788,-0.011123031
1433894631.804,-0.0061910003
1433894631.819,-0.0064854324
1433894631.835,-0.0073835254
1433894631.851,-0.0068089813
1433894631.866,-0.006369114
1433894631.882,-0.0060507804
1433894631.897,-0.009949878
1433894631.913,-0.0035602301
1433894631.929,-0.007247582
1433894631.944,-0.0028417557
1433894631.96,-0.0060594976
1433894631.976,-0.007236615
1433894631.991,-0.0034751296
1433894632.007,-0.0028189123
1433894632.022,-0.007109925
1433894632.038,-0.006647676
1433894632.054,-0.012990564
1433894632.069,-0.021011233
1433894632.085,-0.03126
1433894632.101,-0.04123503
1433894632.116,-0.061336383
1433894632.132,-0.08343585
1433894632.147,-0.10629374
1433894632.163,-0.13698456
1433894632.179,-0.17217055
1433894632.194,-0.20663312
1433894632.21,-0.24487823
1433894632.226,-0.28391483
1433894632.241,-0.325462
1433894632.257,-0.37237918
1433894632.272,-0.41395837
1433894632.288,-0.4553473
1433894632.304,-0.501816
1433894632.319,-0.5404304
1433894632.335,-0.591979
1433894632.351,-0.65397286
1433894632.366,-0.72287714
1433894632.382,-0.7992952
1433894632.397,-0.87553835
1433894632.413,-0.9372561
1433894632.429,-0.9674187
1433894632.444,-0.9894402
1433894632.46,-1.002116
1433894632.476,-1.034344
1433894632.491,-1.1115153
1433894632.507,-1.2326322
1433894632.522,-1.4008164
1433894632.538,-1.5941446
1433894632.554,-1.7795864
1433894632.569,-1.9523456
1433894632.585,-2.105285
1433894632.601,-2.2601368
1433894632.616,-2.4549248
1433894632.632,-2.7187953
1433894632.647,-3.060403
1433894632.663,-3.4719622
1433894632.679,-3.9048738
1433894632.694,-4.3281593
1433894632.71,-4.688208
1433894632.726,-5.0061626
1433894632.741,-5.309593
1433894632.757,-5.679373
1433894632.772,-6.185964
1433894632.788,-6.843691
1433894632.804,-7.627287
1433894632.819,-8.431274
1433894632.835,-9.131478
1433894632.851,-9.630614
1433894632.866,-9.9613
1433894632.882,-10.224104
1433894632.897,-10.604262
1433894632.913,-11.266762
1433894632.929,-12.276722
1433894632.944,-13.528361
1433894632.96,-14.7603035
1433894632.976,-15.649071
1433894632.991,-15.930504
1433894633.007,-15.515797
1433894633.022,-14.512985
1433894633.038,-13.168615
1433894633.054,-11.721106
1433894633.069,-10.217329
1433894633.085,-8.46773
1433894633.101,-6.0899067
1433894633.116,-2.6575508
1433894633.132,2.0669727
1433894633.147,7.9144535
1433894633.163,14.38229
1433894633.179,20.697119
1433894633.194,26.22604
1433894633.21,30.55285
1433894633.226,33.700954
1433894633.241,36.005974
1433894633.257,37.90425
1433894633.272,39.81849
1433894633.288,42.058308
1433894633.304,44.860573
1433894633.319,48.243202
1433894633.335,51.740715
1433894633.351,54.21035
1433894633.366,54.01158
1433894633.382,49.631393
1433894633.397,40.493496
1433894633.413,27.553474
1433894633.429,13.14785
1433894633.444,0.16216087
1433894633.46,-9.1973
1433894633.476,-14.261158
1433894633.491,-15.983803
1433894633.507,-16.195946
1433894633.522,-16.586592
1433894633.538,-17.960701
1433894633.554,-20.127577
1433894633.569,-22.374811
1433894633.585,-24.029203
1433894633.601,-24.881721
1433894633.616,-25.228432
1433894633.632,-25.472359
1433894633.647,-25.856167
1433894633.663,-26.321154
1433894633.679,-26.649622
1433894633.694,-26.548595
1433894633.71,-26.056362
1433894633.726,-25.330626
1433894633.741,-24.73414
1433894633.757,-24.525072
1433894633.772,-24.702772
1433894633.788,-24.978165
1433894633.804,-25.041115
1433894633.819,-24.754734
1433894633.835,-24.26076
1433894633.851,-23.892925
1433894633.866,-23.649008
1433894633.882,-23.20793
1433894633.897,-21.993845
1433894633.913,-19.465612
1433894633.929,-15.5504265
1433894633.944,-10.855131
1433894633.96,-6.457546
1433894633.976,-3.4771137
1433894633.991,-2.6471806
1433894634.007,-3.7025337
1433894634.022,-5.7964973
1433894634.038,-7.7519073
1433894634.054,-8.533718
1433894634.069,-7.5811386
1433894634.085,-4.9310265
1433894634.101,-0.9911499
1433894634.116,3.8591003
1433894634.132,7.766632
1433894634.148,9.8968315
1433894634.163,9.948502
1433894634.179,8.222015
1433894634.194,5.5630302
1433894634.21,3.0210037
1433894634.226,1.4663239
1433894634.241,1.154789
1433894634.257,1.5884895
1433894634.272,1.7168808
1433894634.288,0.67290497
1433894634.304,-1.8451347
1433894634.319,-5.094017
1433894634.335,-7.2852783
1433894634.351,-6.0968323
1433894634.366,0.4093628
1433894634.382,12.832329
1433894634.398,29.807377
1433894634.413,48.029022
1433894634.429,63.284393
1433894634.444,71.52861
1433894634.46,70.21967
1433894634.476,59.104767
1433894634.491,40.093613
1433894634.507,16.508812
1433894634.523,-8.015472
1433894634.538,-30.436592
1433894634.554,-48.70215
1433894634.569,-61.61757
1433894634.585,-68.72526
1433894634.601,-70.09318
1433894634.616,-66.302734
1433894634.632,-58.398224
1433894634.648,-47.857246
1433894634.663,-36.27536
1433894634.679,-25.091003
1433894634.694,-15.218628
1433894634.71,-6.8502426
1433894634.726,0.3728943
1433894634.741,7.09079
1433894634.757,13.913017
1433894634.773,21.199837
1433894634.788,28.895958
1433894634.804,36.58248
1433894634.819,43.595306
1433894634.835,49.227043
1433894634.851,52.928726
1433894634.866,54.40902
1433894634.882,53.667526
1433894634.898,50.923294
1433894634.913,46.473053
1433894634.929,40.583763
1433894634.944,33.443115
1433894634.96,25.247711
1433894634.976,16.285408
1433894634.991,7.022934
1433894635.007,-1.9677811
1433894635.023,-10.127296
1433894635.038,-17.027534
1433894635.054,-22.482124
1433894635.069,-26.467926
1433894635.085,-29.10862
1433894635.101,-30.496109
1433894635.116,-30.738274
1433894635.132,-29.95108
1433894635.148,-28.32116
1433894635.163,-26.078522
1433894635.179,-23.49569
1433894635.194,-20.82579
1433894635.21,-18.240463
1433894635.226,-15.828323
1433894635.241,-13.568359
1433894635.257,-11.367401
1433894635.273,-9.061859
1433894635.288,-6.5258484
1433894635.304,-3.7033997
1433894635.319,-0.68122864
1433894635.335,2.378357
1433894635.351,5.3078613
1433894635.366,8.034027
1433894635.382,10.66362
1433894635.398,13.456619
1433894635.413,16.734589
1433894635.429,20.700577
1433894635.444,25.356888
1433894635.46,30.408585
1433894635.476,35.315475
1433894635.491,39.34482
1433894635.507,41.768494
1433894635.523,42.00569
1433894635.538,39.794907
1433894635.554,35.27147
1433894635.569,28.96289
1433894635.585,21.65918
1433894635.601,14.204758
1433894635.616,7.323883
1433894635.632,1.5211487
1433894635.648,-2.9575806
1433894635.663,-6.0689545
1433894635.679,-7.9697113
1433894635.694,-8.887543
1433894635.71,-9.113953
1433894635.726,-8.935516
1433894635.741,-8.575607
1433894635.757,-8.181595
1433894635.773,-7.8537445
1433894635.788,-7.6442566
1433894635.804,-7.589035
1433894635.819,-7.6925354
1433894635.835,-7.8991547
1433894635.851,-8.082947
1433894635.866,-8.0672455
1433894635.882,-7.7529297
1433894635.898,-7.144287
1433894635.913,-6.3530273
1433894635.929,-5.5577545
1433894635.944,-4.831024
1433894635.96,-4.163437
1433894635.976,-3.4114227
1433894635.991,-2.5408478
1433894636.007,-1.6671448
1433894636.023,-1.1304321
1433894636.038,-1.2998505
1433894636.054,-2.4000854
1433894636.069,-4.321045
1433894636.085,-6.6556244
1433894636.101,-8.883759
1433894636.116,-10.711777
1433894636.132,-12.213959
1433894636.148,-13.840729
1433894636.163,-16.134842
1433894636.179,-19.45137
1433894636.194,-23.726852
1433894636.21,-28.504456
1433894636.226,-33.159485
1433894636.241,-37.157883
1433894636.257,-40.244003
1433894636.273,-42.471222
1433894636.288,-44.049973
1433894636.304,-45.207657
1433894636.319,-46.083145
1433894636.335,-46.67961
1433894636.351,-46.93991
1433894636.366,-46.727432
1433894636.382,-45.93483
1433894636.398,-44.51346
1433894636.413,-42.525818
1433894636.429,-40.14006
1433894636.444,-37.566788
1433894636.46,-34.929962
1433894636.476,-32.10855
1433894636.491,-28.707672
1433894636.507,-24.16362
1433894636.523,-18.03009
1433894636.538,-10.140686
1433894636.554,-0.8311615
1433894636.569,9.137848
1433894636.585,18.743103
1433894636.601,26.997711
1433894636.616,33.1015
1433894636.632,36.60588
1433894636.648,37.442474
1433894636.663,35.945633
1433894636.679,32.729416
1433894636.694,28.574295
1433894636.71,24.23999
1433894636.726,20.329163
1433894636.741,17.153503
1433894636.757,14.77536
1433894636.773,13.100616
1433894636.788,11.962677
1433894636.804,11.20108
1433894636.819,10.705811
1433894636.835,10.3715515
1433894636.851,10.097412
1433894636.866,9.799072
1433894636.882,9.318787
1433894636.898,8.434326
1433894636.913,7.023163
1433894636.929,5.0705566
1433894636.944,2.96109
1433894636.96,1.4421082
1433894636.976,1.4542542
1433894636.991,3.7227783
1433894637.007,8.437714
1433894637.023,15.028473
1433894637.038,22.42041
1433894637.054,29.388214
1433894637.07,34.988068
1433894637.085,38.770386
1433894637.101,40.755707
1433894637.116,41.394745
1433894637.132,41.475372
1433894637.148,42.109497
1433894637.163,44.537018
1433894637.179,49.698517
1433894637.195,57.639008
1433894637.21,67.147736
1433894637.226,75.94382
1433894637.241,81.51828
1433894637.257,82.246
1433894637.273,78.17499
1433894637.288,70.963104
1433894637.304,62.936676
1433894637.32,55.89209
1433894637.335,50.269897
1433894637.351,45.109436
1433894637.366,38.845764
1433894637.382,30.284637
1433894637.398,19.265106
1433894637.413,6.731415
1433894637.429,-5.8597107
1433894637.445,-17.190582
1433894637.46,-26.52948
1433894637.476,-33.8071
1433894637.491,-39.308838
1433894637.507,-43.30948
1433894637.523,-45.832336
1433894637.538,-46.709076
1433894637.554,-45.779816
1433894637.57,-43.23651
1433894637.585,-39.671356
1433894637.601,-35.961243
1433894637.616,-32.88797
1433894637.632,-30.754852
1433894637.648,-29.15622
1433894637.663,-27.14441
1433894637.679,-23.56897
1433894637.695,-17.659851
1433894637.71,-9.294464
1433894637.726,0.927124
1433894637.741,12.030426
1433894637.757,23.02414
1433894637.773,33.202637
1433894637.788,42.175354
1433894637.804,49.73938
1433894637.82,55.729004
1433894637.835,59.85736
1433894637.851,61.818176
1433894637.866,61.375
1433894637.882,58.461517
1433894637.898,53.271362
1433894637.913,46.11978
1433894637.929,37.353333
1433894637.945,27.199768
1433894637.96,15.679352
1433894637.976,2.6945496
1433894637.991,-11.815277
1433894638.007,-27.599579
1433894638.023,-44.062958
1433894638.038,-60.33966
1433894638.054,-75.65512
1433894638.07,-89.61438
1433894638.085,-102.24835
1433894638.101,-113.8103
1433894638.116,-124.36008
1433894638.132,-133.51633
1433894638.148,-140.36737
1433894638.163,-143.79523
1433894638.179,-142.94464
1433894638.195,-137.51578
1433894638.21,-127.85367
1433894638.226,-114.691864
1433894638.241,-98.89609
1433894638.257,-81.16312
1433894638.273,-62.068604
1433894638.288,-42.072662
1433894638.304,-21.695679
1433894638.32,-1.4356995
1433894638.335,18.252594
1433894638.351,37.06198
1433894638.366,54.822815
1433894638.382,71.47861
1433894638.398,86.97525
1433894638.413,101.19803
1433894638.429,113.78113
1433894638.445,124.201385
1433894638.46,131.78955
1433894638.476,135.91254
1433894638.491,136.1326
1433894638.507,132.40689
1433894638.523,125.1181
1433894638.538,115.10211
1433894638.554,103.45593
1433894638.57,91.46234
1433894638.585,80.22479
1433894638.601,70.50238
1433894638.616,62.50284
1433894638.632,55.84845
1433894638.648,49.708527
1433894638.663,43.12961
1433894638.679,35.47162
1433894638.695,26.690857
1433894638.71,17.45224
1433894638.726,8.833527
1433894638.741,2.0086365
1433894638.757,-2.2844543
1433894638.773,-4.0011597
1433894638.788,-3.7743225
1433894638.804,-2.7656555
1433894638.82,-2.215149
1433894638.835,-3.05307
1433894638.851,-5.587738
1433894638.866,-9.519836
1433894638.882,-14.075806
1433894638.898,-18.398102
1433894638.913,-21.90039
1433894638.929,-24.609406
1433894638.945,-27.199158
1433894638.96,-30.686035
1433894638.976,-35.866333
1433894638.991,-42.726013
1433894639.007,-50.266144
1433894639.023,-56.768402
1433894639.038,-60.578583
1433894639.054,-60.976166
1433894639.07,-58.682144
1433894639.085,-55.641754
1433894639.101,-54.21309
1433894639.116,-56.139435
1433894639.132,-61.7368
1433894639.148,-69.82292
1433894639.163,-78.186295
1433894639.179,-84.43596
1433894639.195,-86.764145
1433894639.21,-84.28847
1433894639.226,-77.08554
1433894639.241,-65.92224
1433894639.257,-52.03311
1433894639.273,-36.82869
1433894639.288,-21.676086
1433894639.304,-7.7409363
1433894639.32,4.207779
1433894639.335,13.7191925
1433894639.351,20.719666
1433894639.366,25.341782
1433894639.382,27.907974
1433894639.398,28.876968
1433894639.413,28.772781
1433894639.429,28.07016
1433894639.445,27.082275
1433894639.46,25.855957
1433894639.476,24.287476
1433894639.491,22.244293
1433894639.507,19.790619
1433894639.523,17.26944
1433894639.538,15.1604
1433894639.554,13.874359
1433894639.57,13.594666
1433894639.585,14.144012
1433894639.601,15.100952
1433894639.616,15.982666
1433894639.632,16.468262
1433894639.648,16.538757
1433894639.663,16.501373
1433894639.679,16.832214
1433894639.695,17.978668
1433894639.71,20.085907
1433894639.726,22.826416
1433894639.742,25.40094
1433894639.757,26.77533
1433894639.773,26.013733
1433894639.788,22.636719
1433894639.804,16.743286
1433894639.82,9.0216675
1433894639.835,0.44854736
1433894639.851,-7.910919
1433894639.867,-15.140289
1433894639.882,-20.563324
1433894639.898,-23.71286
1433894639.913,-24.34851
1433894639.929,-22.453796
1433894639.945,-18.220856
1433894639.96,-12.169342
1433894639.976,-5.1063232
1433894639.992,1.9032593
1433894640.007,7.7015076
1433894640.023,11.365204
1433894640.038,12.501129
1433894640.054,11.319275
1433894640.07,8.618042
1433894640.085,5.416382
1433894640.101,2.6177063
1433894640.117,0.8317261
1433894640.132,0.48406982
1433894640.148,1.9390564
1433894640.163,5.579834
1433894640.179,11.638092
1433894640.195,19.857635
1433894640.21,29.301239
1433894640.226,38.535828
1433894640.242,46.112946
1433894640.257,51.171326
1433894640.273,53.749146
1433894640.288,54.736725
1433894640.304,55.33896
1433894640.32,56.679016
1433894640.335,59.39955
1433894640.351,63.704483
1433894640.367,69.41855
1433894640.382,76.158585
1433894640.398,83.2699
1433894640.413,89.861664
1433894640.429,94.83742
1433894640.445,97.11206
1433894640.46,95.84709
1433894640.476,90.79605
1433894640.492,82.32576
1433894640.507,71.43857
1433894640.523,59.439575
1433894640.538,47.690094
1433894640.554,37.265823
1433894640.57,28.761078
1433894640.585,22.26532
1433894640.601,17.42189
1433894640.617,13.63298
1433894640.632,10.277283
1433894640.648,6.8490906
1433894640.663,3.066925
1433894640.679,-1.1516571
1433894640.695,-5.6874695
1433894640.71,-10.230957
1433894640.726,-14.304642
1433894640.742,-17.38134
1433894640.757,-18.988037
1433894640.773,-18.862556
1433894640.788,-17.04174
1433894640.804,-13.872505
1433894640.82,-9.946548
1433894640.835,-6.000519
1433894640.851,-2.7027435
1433894640.867,-0.4530983
1433894640.882,0.8148155
1433894640.898,1.7736778
1433894640.913,3.545185
1433894640.929,7.4074802
1433894640.945,14.323077
1433894640.96,24.571823
1433894640.976,37.56037
1433894640.992,51.964447
1433894641.007,66.05939
1433894641.023,78.0787
1433894641.038,86.56215
1433894641.054,90.49552
1433894641.07,89.450714
1433894641.085,83.68738
1433894641.101,74.085396
1433894641.117,61.927834
1433894641.132,48.522476
1433894641.148,34.750984
1433894641.163,20.737785
1433894641.179,5.9038315
1433894641.195,-10.674179
1433894641.21,-29.723045
1433894641.226,-51.274887
1433894641.242,-74.57419
1433894641.257,-98.171906
1433894641.273,-120.369675
1433894641.288,-139.67145
1433894641.304,-155.1378
1433894641.32,-166.5453
1433894641.335,-174.33424
1433894641.351,-179.40022
1433894641.367,-182.81815
1433894641.382,-185.49057
1433894641.398,-188.05034
1433894641.413,-190.83885
1433894641.429,-193.95587
1433894641.445,-197.35791
1433894641.46,-200.80257
1433894641.476,-203.8001
1433894641.492,-205.55171
1433894641.507,-205.0221
1433894641.523,-201.21362
1433894641.538,-193.40588
1433894641.554,-181.48201
1433894641.57,-165.96791
1433894641.585,-147.92857
1433894641.601,-128.62767
1433894641.617,-109.16283
1433894641.632,-90.151306
1433894641.648,-71.70305
1433894641.663,-53.555695
1433894641.679,-35.54811
1433894641.695,-17.904602
1433894641.71,-1.3133545
1433894641.726,13.185944
1433894641.742,24.627426
1433894641.757,32.50441
1433894641.773,36.82402
1433894641.788,37.993973
1433894641.804,36.42698
1433894641.82,32.317413
1433894641.835,25.707443
1433894641.851,16.730225
1433894641.867,5.839432
1433894641.882,-6.038582
1433894641.898,-17.762787
1433894641.913,-28.32743
1433894641.929,-37.093647
1433894641.945,-43.89198
1433894641.96,-48.90471
1433894641.976,-52.37895
1433894641.992,-54.493713
1433894642.007,-55.240242
1433894642.023,-54.505745
1433894642.038,-52.17651
1433894642.054,-48.29702
1433894642.07,-43.17334
1433894642.085,-37.40388
1433894642.101,-31.732769
1433894642.117,-26.80542
1433894642.132,-22.748215
1433894642.148,-19.103104
1433894642.163,-14.866783
1433894642.179,-9.024239
1433894642.195,-1.0096741
1433894642.21,8.974243
1433894642.226,20.102478
1433894642.242,31.347733
1433894642.257,42.108154
1433894642.273,52.464752
1433894642.288,63.07271
1433894642.304,74.60652
1433894642.32,87.25586
1433894642.335,100.44586
1433894642.351,113.034485
1433894642.367,123.74609
1433894642.382,131.75803
1433894642.398,136.9561
1433894642.414,139.83923
1433894642.429,141.1713
1433894642.445,141.62486
1433894642.46,141.45097
1433894642.476,140.53452
1433894642.492,138.5436
1433894642.507,135.28696
1433894642.523,130.86957
1433894642.538,125.80713
1433894642.554,120.86917
1433894642.57,116.84772
1433894642.585,114.338745
1433894642.601,113.582855
1433894642.617,114.535736
1433894642.632,116.930756
1433894642.648,120.317505
1433894642.664,124.00229
1433894642.679,126.87695
1433894642.695,127.50644
1433894642.71,124.5119
1433894642.726,117.15375
1433894642.742,105.95041
1433894642.757,92.70361
1433894642.773,79.91696
1433894642.789,69.87915
1433894642.804,63.741608
1433894642.82,61.267075
1433894642.835,61.25757
1433894642.851,62.493134
1433894642.867,64.40254
1433894642.882,67.28218
1433894642.898,71.75037
1433894642.914,78.02872
1433894642.929,85.505554
1433894642.945,92.93996
1433894642.96,99.0204
1433894642.976,102.9337
1433894642.992,104.52965
1433894643.007,104.07832
1433894643.023,101.82106
1433894643.039,97.70529
1433894643.054,91.44412
1433894643.07,82.80587
1433894643.085,71.87685
1433894643.101,59.091248
1433894643.117,45.02909
1433894643.132,30.23217
1433894643.148,15.06152
1433894643.164,-0.2620163
1433894643.179,-15.494591
1433894643.195,-30.342978
1433894643.21,-44.42486
1433894643.226,-57.36171
1433894643.242,-68.7681
1433894643.257,-78.25137
1433894643.273,-85.48145
1433894643.289,-90.3251
1433894643.304,-93.0806
1433894643.32,-94.49202
1433894643.335,-95.5379
1433894643.351,-96.951996
1433894643.367,-98.8206
1433894643.382,-100.392525
1433894643.398,-100.39766
1433894643.414,-97.698074
1433894643.429,-91.90463
1433894643.445,-83.68918
1433894643.46,-74.62555
1433894643.476,-66.52278
1433894643.492,-60.668396
1433894643.507,-57.300156
1433894643.523,-55.585358
1433894643.539,-54.01657
1433894643.554,-51.150757
1433894643.57,-46.212067
1433894643.585,-39.44606
1433894643.601,-32.02408
1433894643.617,-25.63057
1433894643.632,-21.920654
1433894643.648,-22.024933
1433894643.664,-26.300385
1433894643.679,-34.295593
1433894643.695,-44.99164
1433894643.71,-57.122467
1433894643.726,-69.49768
1433894643.742,-81.2793
1433894643.757,-92.03439
1433894643.773,-101.536804
1433894643.789,-109.56683
1433894643.804,-115.6969
1433894643.82,-119.31619
1433894643.835,-119.981964
1433894643.851,-117.67502
1433894643.867,-113.12662
1433894643.882,-107.7258
1433894643.898,-103.161865
1433894643.914,-100.898346
1433894643.929,-101.50531
1433894643.945,-104.19278
1433894643.96,-106.85022
1433894643.976,-106.66281
1433894643.992,-101.10892
1433894644.007,-88.94
1433894644.023,-70.78079
1433894644.039,-48.853607
1433894644.054,-26.14981
1433894644.07,-5.2781677
1433894644.085,12.392151
1433894644.101,26.995758
1433894644.117,39.720398
1433894644.132,52.0683
1433894644.148,65.01102
1433894644.164,78.4881
1433894644.179,91.36383
1433894644.195,101.87369
1433894644.21,108.21332
1433894644.226,109.253265
1433894644.242,105.01346
1433894644.257,96.60669
1433894644.273,85.780365
1433894644.289,74.192474
1433894644.304,62.807617
1433894644.32,51.879944
1433894644.335,41.238068
1433894644.351,30.897583
1433894644.367,21.351318
1433894644.382,13.4721985
1433894644.398,8.016876
1433894644.414,5.173279
1433894644.429,4.3213806
1433894644.445,4.301483
1433894644.46,3.939392
1433894644.476,2.5272522
1433894644.492,0.052734375
1433894644.507,-2.8960571
1433894644.523,-5.493469
1433894644.539,-7.0772095
1433894644.554,-7.4388733
1433894644.57,-6.8290405
1433894644.585,-5.8342285
1433894644.601,-5.0317993
1433894644.617,-4.743622
1433894644.632,-4.8897095
1433894644.648,-5.044739
1433894644.664,-4.721588
1433894644.679,-3.6417236
1433894644.695,-1.8547058
1433894644.71,0.30856323
1433894644.726,2.4460754
1433894644.742,4.245331
1433894644.757,5.528778
1433894644.773,6.1655273
1433894644.789,5.839081
1433894644.804,4.2058716
1433894644.82,1.0435486
1433894644.835,-3.622284
1433894644.851,-9.529053
1433894644.867,-16.245667
1433894644.882,-23.222015
1433894644.898,-29.986298
1433894644.914,-36.15555
1433894644.929,-41.553528
1433894644.945,-45.98883
1433894644.96,-49.181763
1433894644.976,-50.875458
1433894644.992,-51.009705
1433894645.007,-49.727417
1433894645.023,-47.28058
1433894645.039,-43.934082
1433894645.054,-39.952026
1433894645.07,-35.806885
1433894645.086,-31.795685
1433894645.101,-27.866028
1433894645.117,-23.829224
1433894645.132,-19.587189
1433894645.148,-15.2829895
1433894645.164,-11.217987
1433894645.179,-7.744385
1433894645.195,-5.1888733
1433894645.21,-4.3872986
1433894645.226,-5.5776978
1433894645.242,-8.008972
1433894645.257,-10.510803
1433894645.273,-12.274292
1433894645.289,-13.0104065
1433894645.304,-12.751984
1433894645.32,-11.579834
1433894645.336,-9.721985
1433894645.351,-8.949066
1433894645.367,-10.415985
1433894645.382,-13.761841
1433894645.398,-17.79425
1433894645.414,-21.685516
1433894645.429,-25.125519
1433894645.445,-27.910889
1433894645.461,-29.674408
1433894645.476,-30.152313
1433894645.492,-31.554474
1433894645.507,-35.02809
1433894645.523,-39.42163
1433894645.539,-42.628174
1433894645.554,-43.76779
1433894645.57,-43.43573
1433894645.586,-42.78949
1433894645.601,-42.551514
1433894645.617,-43.12886
1433894645.632,-47.511
1433894645.648,-56.925278
1433894645.664,-69.611725
1433894645.679,-82.63132
1433894645.695,-94.46893
1433894645.711,-104.96829
1433894645.726,-113.9899
1433894645.742,-120.3793
1433894645.757,-103.63037
1433894645.773,-57.334335
1433894645.789,4.8533173
1433894645.804,62.342163
1433894645.82,104.515594
1433894645.836,131.24976
1433894645.851,146.90874
1433894645.867,156.33261
1433894645.882,164.31337
1433894645.898,172.98872
1433894645.914,179.38008
1433894645.929,181.05865
1433894645.945,178.60416
1433894645.961,174.33902
1433894645.976,169.76266
1433894645.992,165.16237
1433894646.007,157.38254
1433894646.023,145.13144
1433894646.039,127.9128
1433894646.054,103.932686
1433894646.07,73.45593
1433894646.086,39.61319
1433894646.101,6.6242447
1433894646.117,-22.840889
1433894646.132,-48.04019
1433894646.148,-69.32591
1433894646.164,-86.97989
1433894646.179,-101.59674
1433894646.195,-115.21753
1433894646.211,-129.00003
1433894646.226,-142.4424
1433894646.242,-154.08633
1433894646.257,-162.99802
1433894646.273,-169.00473
1433894646.289,-172.33835
1433894646.304,-172.79773
1433894646.32,-169.96916
1433894646.336,-163.86703
1433894646.351,-154.29774
1433894646.367,-141.23137
1433894646.382,-125.52799
1433894646.398,-109.24951
1433894646.414,-94.564964
1433894646.429,-82.218765
1433894646.445,-70.61117
1433894646.461,-56.69948
1433894646.476,-37.780006
1433894646.492,-12.764841
1433894646.507,17.102919
1433894646.523,48.54764
1433894646.539,77.19095
1433894646.554,99.03169
1433894646.57,111.50035
1433894646.586,114.0721
1433894646.601,108.13891
1433894646.617,96.58514
1433894646.632,83.07802
1433894646.648,71.05168
1433894646.664,62.687202
1433894646.679,58.291016
1433894646.695,56.57219
1433894646.711,55.6745
1433894646.726,54.282623
1433894646.742,52.225822
1433894646.757,50.207024
1433894646.773,49.028328
1433894646.789,48.872574
1433894646.804,49.14615
1433894646.82,48.968323
1433894646.836,47.783432
1433894646.851,45.648407
1433894646.867,43.05406
1433894646.882,40.503418
1433894646.898,38.29071
1433894646.914,36.415344
1433894646.929,34.81633
1433894646.945,33.505966
1433894646.961,32.39612
1433894646.976,31.176926
1433894646.992,29.26857
1433894647.007,26.08992
1433894647.023,21.54477
1433894647.039,16.325409
1433894647.054,11.787262
1433894647.07,9.487167
1433894647.086,10.517197
1433894647.101,15.026718
1433894647.117,22.215637
1433894647.132,30.630615
1433894647.148,38.678314
1433894647.164,45.062943
1433894647.179,48.94371
1433894647.195,49.949112
1433894647.211,48.09297
1433894647.226,43.685104
1433894647.242,37.26068
1433894647.257,29.566452
1433894647.273,21.427261
1433894647.289,13.645355
1433894647.304,6.8164215
1433894647.32,1.1903992
1433894647.336,-3.354721
1433894647.351,-7.2510223
1433894647.367,-10.954636
1433894647.382,-14.754761
1433894647.398,-18.465408
1433894647.414,-21.429749
1433894647.429,-22.753632
1433894647.445,-21.69162
1433894647.461,-18.042267
1433894647.476,-12.395676
1433894647.492,-6.0485992
1433894647.507,-0.567688
1433894647.523,2.7823792
1433894647.539,3.5229797
1433894647.554,2.1460114
1433894647.57,-0.143219
1433894647.586,-1.923584
1433894647.601,-2.0968018
1433894647.617,-0.23866272
1433894647.632,3.4064941
1433894647.648,8.147827
1433894647.664,13.177322
1433894647.679,17.742004
1433894647.695,21.17244
1433894647.711,22.895752
1433894647.726,22.463867
1433894647.742,19.63359
1433894647.757,14.563675
1433894647.773,7.8126526
1433894647.789,0.2001648
1433894647.804,-7.4453278
1433894647.82,-14.4926605
1433894647.836,-20.641342
1433894647.851,-25.845001
1433894647.867,-30.187485
1433894647.882,-33.69937
1433894647.898,-36.364853
1433894647.914,-38.109344
1433894647.929,-38.905518
1433894647.945,-38.813843
1433894647.961,-37.96237
1433894647.976,-36.511444
1433894647.992,-34.604477
1433894648.008,-32.27632
1433894648.023,-29.488388
1433894648.039,-26.18628
1433894648.054,-22.365738
1433894648.07,-18.136673
1433894648.086,-13.791077
1433894648.101,-9.639435
1433894648.117,-5.961441
1433894648.133,-2.8704224
1433894648.148,-0.3019867
1433894648.164,1.9265594
1433894648.179,4.0455627
1433894648.195,6.161209
1433894648.211,8.259003
1433894648.226,10.225769
1433894648.242,11.885925
1433894648.258,13.035187
1433894648.273,13.432709
1433894648.289,12.826965
1433894648.304,10.969666
1433894648.32,7.794647
1433894648.336,3.46521
1433894648.351,-1.5395203
1433894648.367,-6.6297607
1433894648.383,-11.183228
1433894648.398,-14.830811
1433894648.414,-17.459625
1433894648.429,-19.202759
1433894648.445,-20.267975
1433894648.461,-20.786987
1433894648.476,-20.782593
1433894648.492,-20.228546
1433894648.508,-19.122498
1433894648.523,-17.542877
1433894648.539,-15.612549
1433894648.554,-13.38501
1433894648.57,-10.800537
1433894648.586,-7.722992
1433894648.601,-4.0579224
1433894648.617,0.037078857
1433894648.633,4.228607
1433894648.648,8.053711
1433894648.664,11.187103
1433894648.679,13.594116
1433894648.695,15.556763
1433894648.711,17.47821
1433894648.726,19.704285
1433894648.742,22.368622
1433894648.758,25.39746
1433894648.773,28.579865
1433894648.789,31.681946
1433894648.804,34.43216
1433894648.82,36.42749
1433894648.836,37.18576
1433894648.851,36.21118
1433894648.867,33.19345
1433894648.883,28.248993
1433894648.898,21.91101
1433894648.914,15.0243225
1433894648.929,8.465363
1433894648.945,2.852539
1433894648.961,-1.5388489
1433894648.976,-4.7236633
1433894648.992,-6.904419
1433894649.008,-8.29895
1433894649.023,-9.055634
1433894649.039,-9.257202
1433894649.054,-8.968323
1433894649.07,-8.258209
1433894649.086,-7.222473
1433894649.101,-5.9742737
1433894649.117,-4.665222
1433894649.133,-3.3683167
1433894649.148,-2.1258545
1433894649.164,-0.9185486
1433894649.179,0.28305054
1433894649.195,1.4875183
1433894649.211,2.658844
1433894649.226,3.7324219
1433894649.242,4.6672974
1433894649.258,5.467346
1433894649.273,6.1865845
1433894649.289,6.924408
1433894649.304,7.7862854
1433894649.32,8.876801
1433894649.336,10.248199
1433894649.351,11.978424
1433894649.367,14.039978
1433894649.383,16.287537
1433894649.398,18.397705
1433894649.414,19.858887
1433894649.429,20.142822
1433894649.445,18.817688
1433894649.461,15.75708
1433894649.476,11.181671
1433894649.492,5.588623
1433894649.508,-0.37503052
1433894649.523,-6.121521
1433894649.539,-11.216431
1433894649.554,-15.400604
1433894649.57,-18.585602
1433894649.586,-20.749481
1433894649.601,-21.899994
1433894649.617,-22.112488
1433894649.633,-21.490387
1433894649.648,-20.272156
1433894649.664,-18.707703
1433894649.679,-17.034363
1433894649.695,-15.430725
1433894649.711,-13.958923
1433894649.726,-12.644562
1433894649.742,-11.49469
1433894649.758,-10.529755
1433894649.773,-9.821899
1433894649.789,-9.417755
1433894649.804,-9.288269
1433894649.82,-9.2595825
1433894649.836,-9.132141
1433894649.851,-8.635468
1433894649.867,-7.598175
1433894649.883,-5.9570313
1433894649.898,-3.7637024
1433894649.914,-1.1502075
1433894649.929,1.7437439
1433894649.945,4.816925
1433894649.961,7.9827576
1433894649.976,11.200134
1433894649.992,14.431671
1433894650.008,17.669525
1433894650.023,20.885803
1433894650.039,24.036041
1433894650.054,26.950195
1433894650.07,29.364716
1433894650.086,30.854431
1433894650.101,30.986847
1433894650.117,29.451965
1433894650.133,26.196014
1433894650.148,21.445862
1433894650.164,15.695343
1433894650.179,9.501831
1433894650.195,3.4038086
1433894650.211,-2.2164917
1433894650.226,-7.1114807
1433894650.242,-11.14328
1433894650.258,-14.241272
1433894650.273,-16.390564
1433894650.289,-17.633972
1433894650.304,-18.067627
1433894650.32,-17.813873
1433894650.336,-16.991882
1433894650.351,-15.648682
1433894650.367,-13.817047
1433894650.383,-11.470123
1433894650.398,-8.633667
1433894650.414,-5.421753
1433894650.429,-1.9812927
1433894650.445,1.5050964
1433894650.461,4.875458
1433894650.476,8.009766
1433894650.492,10.856415
1433894650.508,13.431854
1433894650.523,15.834564
1433894650.539,18.185211
1433894650.554,20.529602
1433894650.57,22.932495
1433894650.586,25.364655
1433894650.601,27.791168
1433894650.617,30.152863
1433894650.633,32.395172
1433894650.648,34.505188
1433894650.664,36.493103
1433894650.68,38.384766
1433894650.695,40.247284
1433894650.711,42.162415
1433894650.726,44.141174
1433894650.742,46.072296
1433894650.758,47.66626
1433894650.773,48.42389
1433894650.789,47.797546
1433894650.805,45.35138
1433894650.82,40.941315
1433894650.836,34.799347
1433894650.851,27.52066
1433894650.867,19.862732
1433894650.883,12.605774
1433894650.898,6.3156433
1433894650.914,1.2617188
1433894650.93,-2.567871
1433894650.945,-5.4309998
1433894650.961,-7.626892
1433894650.976,-9.384247
1433894650.992,-10.752991
1433894651.008,-11.655975
1433894651.023,-11.993317
1433894651.039,-11.768402
1433894651.055,-11.133911
1433894651.07,-10.3871765
1433894651.086,-9.792267
1433894651.101,-9.445068
1433894651.117,-9.302368
1433894651.133,-9.172028
1433894651.148,-8.91275
1433894651.164,-8.4530945
1433894651.18,-7.8545227
1433894651.195,-7.1769104
1433894651.211,-6.413666
1433894651.226,-5.460022
1433894651.242,-4.199646
1433894651.258,-2.570282
1433894651.273,-0.6397705
1433894651.289,1.4856567
1433894651.305,3.7044373
1433894651.32,6.0606995
1433894651.336,8.622101
1433894651.351,11.446442
1433894651.367,14.398865
1433894651.383,17.116486
1433894651.398,19.073547
1433894651.414,19.778534
1433894651.43,18.912933
1433894651.445,16.472595
1433894651.461,12.733276
1433894651.476,8.122284
1433894651.492,3.1035767
1433894651.508,-1.8780518
1433894651.523,-6.4894104
1433894651.539,-10.409668
1433894651.555,-13.460754
1433894651.57,-15.524597
1433894651.586,-16.613617
1433894651.601,-16.84259
1433894651.617,-16.383057
1433894651.633,-15.368286
1433894651.648,-13.927216
1433894651.664,-12.160614
1433894651.68,-10.199799
1433894651.695,-8.261139
1433894651.711,-6.597595
1433894651.726,-5.440979
1433894651.742,-4.8412476
1433894651.758,-4.684967
1433894651.773,-4.690338
1433894651.789,-4.534088
1433894651.805,-3.9866638
1433894651.82,-2.8850403
1433894651.836,-1.2454224
1433894651.851,0.9021301
1433894651.867,3.4595642
1433894651.883,6.322754
1433894651.898,9.331726
1433894651.914,12.314148
1433894651.93,15.11203
1433894651.945,17.681305
1433894651.961,20.133453
1433894651.976,22.684082
1433894651.992,25.520538
1433894652.008,28.680359
1433894652.023,31.882202
1433894652.039,34.59027
1433894652.055,36.128998
1433894652.07,35.88742
1433894652.086,33.531906
1433894652.101,29.10254
1433894652.117,22.97676
1433894652.133,15.736053
1433894652.148,8.054001
1433894652.164,0.50775146
1433894652.18,-6.4714813
1433894652.195,-12.558426
1433894652.211,-17.57277
1433894652.226,-21.388474
1433894652.242,-23.969772
1433894652.258,-25.37883
1433894652.273,-25.778
1433894652.289,-25.4021
1433894652.305,-24.48993
1433894652.32,-23.240784
1433894652.336,-21.774765
1433894652.351,-20.155457
1433894652.367,-18.434494
1433894652.383,-16.666931
1433894652.398,-14.959473
1433894652.414,-13.404556
1433894652.43,-12.084976
1433894652.445,-10.954056
1433894652.461,-9.916336
1433894652.476,-8.745453
1433894652.492,-7.26445
1433894652.508,-5.329727
1433894652.523,-2.9740753
1433894652.539,-0.3367157
1433894652.555,2.3601074
1433894652.57,4.900711
1433894652.586,7.2304077
1433894652.601,9.426071
1433894652.617,11.743164
1433894652.633,14.4344635
1433894652.648,17.621933
1433894652.664,21.168106
1433894652.68,24.58435
1433894652.695,27.20877
1433894652.711,28.337036
1433894652.726,27.471565
1433894652.742,24.487663
1433894652.758,19.64399
1433894652.773,13.510246
1433894652.789,6.7759247
1433894652.805,0.07697296
1433894652.82,-6.102997
1433894652.836,-11.487701
1433894652.851,-15.945015
1433894652.867,-19.464638
1433894652.883,-22.025742
1433894652.898,-23.622673
1433894652.914,-24.315338
1433894652.93,-24.200851
1433894652.945,-23.479698
1433894652.961,-22.413055
1433894652.976,-21.231667
1433894652.992,-20.072357
1433894653.008,-18.951126
1433894653.023,-17.841003
1433894653.039,-16.692696
1433894653.055,-15.570023
1433894653.07,-14.599598
1433894653.086,-13.898369
1433894653.101,-13.487865
1433894653.117,-13.216793
1433894653.133,-12.788685
1433894653.148,-11.877602
1433894653.164,-10.234913
1433894653.18,-7.841118
1433894653.195,-4.8360214
1433894653.211,-1.5327225
1433894653.226,1.7716331
1433894653.242,4.872135
1433894653.258,7.7380333
1433894653.273,10.487068
1433894653.289,13.305647
1433894653.305,16.397118
1433894653.32,19.86386
1433894653.336,23.649963
1433894653.352,27.478096
1433894653.367,30.84731
1433894653.383,33.145226
1433894653.398,33.73456
1433894653.414,32.178715
1433894653.43,28.342043
1433894653.445,22.513508
1433894653.461,15.2264385
1433894653.477,7.203643
1433894653.492,-0.87316895
1433894653.508,-8.427498
1433894653.523,-15.078218
1433894653.539,-20.57414
1433894653.555,-24.81845
1433894653.57,-27.810858
1433894653.586,-29.644148
1433894653.602,-30.496412
1433894653.617,-30.586702
1433894653.633,-30.12059
1433894653.648,-29.33218
1433894653.664,-28.396198
1433894653.68,-27.442707
1433894653.695,-26.535294
1433894653.711,-25.695236
1433894653.727,-24.84676
1433894653.742,-23.938793
1433894653.758,-22.95837
1433894653.773,-21.952202
1433894653.789,-20.938824
1433894653.805,-19.906876
1433894653.82,-18.73944
1433894653.836,-17.272144
1433894653.852,-15.326298
1433894653.867,-12.812134
1433894653.883,-9.720116
1433894653.898,-6.1626663
1433894653.914,-2.316101
1433894653.93,1.6083984
1433894653.945,5.432068
1433894653.961,9.033714
1433894653.977,12.44001
1433894653.992,15.80426
1433894654.008,19.383049
1433894654.023,23.376877
1433894654.039,27.875023
1433894654.055,32.633392
1433894654.07,37.109375
1433894654.086,40.52311
1433894654.102,42.112892
1433894654.117,41.28089
1433894654.133,37.83349
1433894654.148,31.991814
1433894654.164,24.353584
1433894654.18,15.74218
1433894654.195,7.0045166
1433894654.211,-1.1554108
1433894654.227,-8.294998
1433894654.242,-14.225937
1433894654.258,-18.968277
1433894654.273,-22.62767
1433894654.289,-25.286385
1433894654.305,-26.996964
1433894654.32,-27.808067
1433894654.336,-27.788094
1433894654.352,-27.071457
1433894654.367,-25.916183
1433894654.383,-24.562744
1433894654.398,-23.234024
1433894654.414,-22.028122
1433894654.43,-20.909943
1433894654.445,-19.786758
1433894654.461,-18.605255
1433894654.477,-17.415741
1433894654.492,-16.367172
1433894654.508,-15.613754
1433894654.523,-15.209702
1433894654.539,-15.014816
1433894654.555,-14.726456
1433894654.57,-13.982666
1433894654.586,-12.529282
1433894654.602,-10.294113
1433894654.617,-7.3990326
1433894654.633,-4.090851
1433894654.648,-0.6026459
1433894654.664,2.9359436
1433894654.68,6.496353
1433894654.695,10.158813
1433894654.711,14.038727
1433894654.727,18.26091
1433894654.742,22.860199
1433894654.758,27.775192
1433894654.773,32.74034
1433894654.789,37.30487
1433894654.805,40.83333
1433894654.82,42.597977
1433894654.836,41.977737
1433894654.852,38.636475
1433894654.867,32.611176
1433894654.883,24.408005
1433894654.898,14.886566
1433894654.914,5.0528107
1433894654.93,-4.188553
1433894654.945,-12.182114
1433894654.961,-18.656494
1433894654.977,-23.659348
1433894654.992,-27.403137
1433894655.008,-30.131363
1433894655.023,-31.989853
1433894655.039,-33.06717
1433894655.055,-33.401276
1433894655.07,-33.10286
1433894655.086,-32.402023
1433894655.102,-31.594986
1433894655.117,-30.986908
1433894655.133,-30.751358
1433894655.148,-30.924255
1433894655.164,-31.398544
1433894655.18,-31.975266
1433894655.195,-32.441757
1433894655.211,-32.660797
1433894655.227,-32.530533
1433894655.242,-32.011765
1433894655.258,-31.097977
1433894655.273,-29.81755
1433894655.289,-28.21341
1433894655.305,-26.294998
1433894655.32,-24.071793
1433894655.336,-21.540833
1433894655.352,-18.697525
1433894655.367,-15.631989
1433894655.383,-12.507645
1433894655.398,-9.591888
1433894655.414,-7.070862
1433894655.43,-5.0564117
1433894655.445,-3.4928284
1433894655.461,-2.2091217
1433894655.477,-0.96707153
1433894655.492,0.4249115
1433894655.508,2.1301727
1433894655.523,4.2608795
1433894655.539,6.9282227
1433894655.555,10.154022
1433894655.57,13.899918
1433894655.586,18.003311
1433894655.602,22.22879
1433894655.617,26.349594
1433894655.633,30.27237
1433894655.648,34.065765
1433894655.664,37.91577
1433894655.68,41.943314
1433894655.695,46.07303
1433894655.711,49.911438
1433894655.727,52.770813
1433894655.742,53.8739
1433894655.758,52.57863
1433894655.773,48.582886
1433894655.789,42.07692
1433894655.805,33.670685
1433894655.82,24.215622
1433894655.836,14.593582
1433894655.852,5.5407104
1433894655.867,-2.4422913
1433894655.883,-9.087662
1433894655.898,-14.305496
1433894655.914,-18.117233
1433894655.93,-20.668152
1433894655.945,-22.18512
1433894655.961,-23.056122
1433894655.977,-23.680374
1433894655.992,-24.439987
1433894656.008,-25.537643
1433894656.024,-26.975555
1433894656.039,-28.563675
1433894656.055,-30.057312
1433894656.07,-31.252487
1433894656.086,-32.105103
1433894656.102,-32.668106
1433894656.117,-33.055923
1433894656.133,-33.28389
1433894656.148,-33.289047
1433894656.164,-32.945602
1433894656.18,-32.173416
1433894656.195,-30.960709
1433894656.211,-29.399063
1433894656.227,-27.591873
1433894656.242,-25.609253
1433894656.258,-23.42958
1433894656.274,-21.035126
1433894656.289,-18.424088
1433894656.305,-15.683594
1433894656.32,-12.944275
1433894656.336,-10.326431
1433894656.352,-7.8372803
1433894656.367,-5.3877563
1433894656.383,-2.8065338
1433894656.399,0.012145996
1433894656.414,3.1117554
1433894656.43,6.4160004
1433894656.445,9.818329
1433894656.461,13.208557
1433894656.477,16.56453
1433894656.492,19.883331
1433894656.508,23.216324
1433894656.524,26.653214
1433894656.539,30.346817
1433894656.555,34.462433
1433894656.57,39.106445
1433894656.586,44.166504
1433894656.602,49.21811
1433894656.617,53.49942
1433894656.633,56.106598
1433894656.649,56.256424
1433894656.664,53.542603
1433894656.68,48.08441
1433894656.695,40.44525
1433894656.711,31.462616
1433894656.727,21.973007
1433894656.742,12.67691
1433894656.758,4.037506
1433894656.774,-3.678833
1433894656.789,-10.334274
1433894656.805,-15.84935
1433894656.82,-20.187958
1433894656.836,-23.364502
1433894656.852,-25.47467
1433894656.867,-26.7137
1433894656.883,-27.3246
1433894656.899,-27.567612
1433894656.914,-27.638458
1433894656.93,-27.68663
1433894656.945,-27.787323
1433894656.961,-27.99437
1433894656.977,-28.29332
1433894656.992,-28.670471
1433894657.008,-29.074142
1433894657.024,-29.456894
1433894657.039,-29.730621
1433894657.055,-29.817566
1433894657.07,-29.593933
1433894657.086,-28.936874
1433894657.102,-27.727875
1433894657.117,-25.924622
1433894657.133,-23.581985
1433894657.149,-20.887985
1433894657.164,-18.07579
1433894657.18,-15.327591
1433894657.195,-12.694794
1433894657.211,-10.065613
1433894657.227,-7.2324677
1433894657.242,-4.00412
1433894657.258,-0.272995
1433894657.274,3.926422
1433894657.289,8.467911
1433894657.305,13.13533
1433894657.32,17.766037
1433894657.336,22.186462
1433894657.352,26.338074
1433894657.367,30.201706
1433894657.383,33.871887
1433894657.399,37.45685
1433894657.414,41.12088
1433894657.43,44.91736
1433894657.445,48.72751
1433894657.461,52.131683
1433894657.477,54.413162
1433894657.492,54.72159
1433894657.508,52.34497
1433894657.524,46.99907
1433894657.539,39.025284
1433894657.555,29.286835
1433894657.57,18.940262
1433894657.586,9.066635
1433894657.602,0.42956543
1433894657.617,-6.675949
1433894657.633,-12.225296
1433894657.649,-16.333633
1433894657.664,-19.101242
1433894657.68,-20.603348
1433894657.695,-20.97763
1433894657.711,-20.509094
1433894657.727,-19.578766
1433894657.742,-18.626556
1433894657.758,-17.934052
1433894657.774,-17.557083
1433894657.789,-17.365753
1433894657.805,-17.1559
1433894657.82,-16.744308
1433894657.836,-16.110214
1433894657.852,-15.350815
1433894657.867,-14.620804
1433894657.883,-13.984055
1433894657.899,-13.421051
1433894657.914,-12.736649
1433894657.93,-11.695877
1433894657.945,-10.0720215
1433894657.961,-7.73674
1433894657.977,-4.715103
1433894657.992,-1.1340485
1433894658.008,2.8071594
1433894658.024,6.8924255
1433894658.039,10.987915
1433894658.055,15.052628
1433894658.07,19.210632
1433894658.086,23.624908
1433894658.102,28.464203
1433894658.117,33.679672
1433894658.133,38.96347
1433894658.149,43.64044
1433894658.164,46.860535
1433894658.18,47.75197
1433894658.195,45.75128
1433894658.211,40.735977
1433894658.227,33.17572
1433894658.242,23.934784
1433894658.258,14.100998
1433894658.274,4.6690674
1433894658.289,-3.6272278
1433894658.305,-10.401093
1433894658.32,-15.548828
1433894658.336,-19.1904
1433894658.352,-21.497833
1433894658.367,-22.67865
1433894658.383,-22.920288
1433894658.399,-22.3974
1433894658.414,-21.279175
1433894658.43,-19.765991
1433894658.445,-18.069855
1433894658.461,-16.381592
1433894658.477,-14.887054
1433894658.492,-13.72403
1433894658.508,-12.968628
1433894658.524,-12.599213
1433894658.539,-12.496704
1433894658.555,-12.4670105
1433894658.57,-12.248444
1433894658.586,-11.600159
1433894658.602,-10.328857
1433894658.617,-8.353821
1433894658.633,-5.68927
1433894658.649,-2.4744568
1433894658.664,1.1197815
1433894658.68,4.9141235
1433894658.695,8.834351
1433894658.711,12.919159
1433894658.727,17.341187
1433894658.742,22.288147
1433894658.758,27.898071
1433894658.774,34.031708
1433894658.789,40.242615
1433894658.805,45.759247
1433894658.82,49.652557
1433894658.836,51.0477
1433894658.852,49.379425
1433894658.867,44.529114
1433894658.883,36.81424
1433894658.899,26.92041
1433894658.914,15.702057
1433894658.93,4.089752
1433894658.946,-7.049225
1433894658.961,-16.984192
1433894658.977,-25.199982
1433894658.992,-31.434204
1433894659.008,-35.718018
1433894659.024,-38.30722
1433894659.039,-39.57492
1433894659.055,-39.88327
1433894659.071,-39.513153
1433894659.086,-38.621277
1433894659.102,-37.322052
1433894659.117,-35.728973
1433894659.133,-34.003662
1433894659.149,-32.30185
1433894659.164,-30.733002
1433894659.18,-29.326904
1433894659.196,-28.0802
1433894659.211,-26.960846
1433894659.227,-25.970276
1433894659.242,-25.100159
1433894659.258,-24.253448
1433894659.274,-23.243225
1433894659.289,-21.78601
1433894659.305,-19.577515
1433894659.321,-16.403656
1433894659.336,-12.220306
1433894659.352,-7.161621
1433894659.367,-1.5247192
1433894659.383,4.3405457
1433894659.399,10.14032
1433894659.414,15.749756
1433894659.43,21.248352
1433894659.446,26.865295
1433894659.461,32.8544
1433894659.477,39.27719
1433894659.492,45.882263
1433894659.508,52.050568
1433894659.524,56.867706
1433894659.539,59.385284
1433894659.555,58.85083
1433894659.571,54.92871
1433894659.586,47.79016
1433894659.602,38.021484
1433894659.617,26.476593
1433894659.633,14.153259
1433894659.649,1.9618835
1433894659.664,-9.3237
1433894659.68,-19.165924
1433894659.696,-27.286194
1433894659.711,-33.635895
1433894659.727,-38.36676
1433894659.742,-41.761444
1433894659.758,-44.112274
1433894659.774,-45.66284
1433894659.789,-46.558197
1433894659.805,-46.84436
1433894659.821,-46.512787
1433894659.836,-45.594025
1433894659.852,-44.180817
1433894659.867,-42.44232
1433894659.883,-40.56894
1433894659.899,-38.772766
1433894659.914,-37.194214
1433894659.93,-35.904358
1433894659.946,-34.89383
1433894659.961,-34.057922
1433894659.977,-33.209717
1433894659.992,-32.12448
1433894660.008,-30.586212
1433894660.024,-28.46637
1433894660.039,-25.754364
1433894660.055,-22.55597
1433894660.071,-19.02591
1433894660.086,-15.324432
1433894660.102,-11.487213
1433894660.117,-7.4799805
1433894660.133,-3.1987
1433894660.149,1.3990784
1433894660.164,6.2652283
1433894660.18,11.229523
1433894660.196,16.070465
1433894660.211,20.566833
1433894660.227,24.672546
1433894660.242,28.505219
1433894660.258,32.39749
1433894660.274,36.742493
1433894660.289,41.80591
1433894660.305,47.482178
1433894660.321,53.184204
1433894660.336,57.887115
1433894660.352,60.39331
1433894660.367,59.709656
1433894660.383,55.414154
1433894660.399,47.776764
1433894660.414,37.70352
1433894660.43,26.374329
1433894660.446,14.913391
1433894660.461,4.132782
1433894660.477,-5.528412
1433894660.492,-13.935974
1433894660.508,-21.074738
1433894660.524,-26.97821
1433894660.539,-31.658478
1433894660.555,-35.11795
1433894660.571,-37.422394
1433894660.586,-38.720184
1433894660.602,-39.207428
1433894660.617,-39.134644
1433894660.633,-38.76181
1433894660.649,-38.315033
1433894660.664,-37.92688
1433894660.68,-37.748596
1433894660.696,-37.786224
1433894660.711,-38.056488
1433894660.727,-38.50598
1433894660.742,-39.037415
1433894660.758,-39.442596
1433894660.774,-39.53122
1433894660.789,-39.230713
1433894660.805,-38.712646
1433894660.821,-38.309723
1433894660.836,-38.26822
1433894660.852,-38.44806
1433894660.867,-38.312622
1433894660.883,-37.073822
1433894660.899,-34.176636
1433894660.914,-29.619232
1433894660.93,-24.02243
1433894660.946,-18.334137
1433894660.961,-13.366486
1433894660.977,-9.428009
1433894660.992,-6.285187
1433894661.008,-3.4255676
1433894661.024,-0.40777588
1433894661.039,2.9582825
1433894661.055,6.5913696
1433894661.071,10.396973
1433894661.086,14.344299
1433894661.102,18.538239
1433894661.117,23.068176
1433894661.133,27.884155
1433894661.149,32.764343
1433894661.164,37.55185
1433894661.18,42.1019
1433894661.196,46.5101
1433894661.211,51.004242
1433894661.227,55.863007
1433894661.242,61.162506
1433894661.258,66.621216
1433894661.274,71.52002
1433894661.289,74.8233
1433894661.305,75.424225
1433894661.321,72.547485
1433894661.336,65.986755
1433894661.352,56.22809
1433894661.367,44.30664
1433894661.383,31.500397
1433894661.399,18.963165
1433894661.414,7.51532
1433894661.43,-2.416977
1433894661.446,-10.737595
1433894661.461,-17.516052
1433894661.477,-22.873444
1433894661.492,-26.922714
1433894661.508,-29.773514
1433894661.524,-31.581955
1433894661.539,-32.538727
1433894661.555,-32.88614
1433894661.571,-32.81749
1433894661.586,-32.536972
1433894661.602,-32.1725
1433894661.618,-31.799988
1433894661.633,-31.422379
1433894661.649,-31.008331
1433894661.664,-30.489243
1433894661.68,-29.829132
1433894661.696,-29.036194
1433894661.711,-28.176895
1433894661.727,-27.325119
1433894661.743,-26.511658
1433894661.758,-25.649078
1433894661.774,-24.534348
1433894661.789,-22.950943
1433894661.805,-20.760223
1433894661.821,-18.002777
1433894661.836,-14.879654
1433894661.852,-11.638199
1433894661.868,-8.477463
1433894661.883,-5.4101563
1433894661.899,-2.3514862
1433894661.914,0.80888367
1433894661.93,4.0783234
1433894661.946,7.3625336
1433894661.961,10.497879
1433894661.977,13.353149
1433894661.993,15.920624
1433894662.008,18.352798
1433894662.024,20.828857
1433894662.039,23.53865
1433894662.055,26.56697
1433894662.071,29.919006
1433894662.086,33.492157
1433894662.102,37.11693
1433894662.118,40.50522
1433894662.133,43.236343
1433894662.149,44.766266
1433894662.164,44.49341
1433894662.18,41.89447
1433894662.196,36.712128
1433894662.211,29.035675
1433894662.227,19.35736
1433894662.243,8.457626
1433894662.258,-2.7476196
1433894662.274,-13.412048
1433894662.289,-22.875885
1433894662.305,-30.756119
1433894662.321,-36.87668
1433894662.336,-41.228195
1433894662.352,-43.859238
1433894662.368,-44.865173
1433894662.383,-44.3947
1433894662.399,-42.68152
1433894662.414,-40.032166
1433894662.43,-36.773087
1433894662.446,-33.108414
1433894662.461,-29.137161
1433894662.477,-24.823029
1433894662.493,-20.13916
1433894662.508,-15.16069
1433894662.524,-10.177551
1433894662.539,-5.6229706
1433894662.555,-1.9606781
1433894662.571,0.574173
1433894662.586,2.0119095
1433894662.602,2.7646255
1433894662.618,3.431488
1433894662.633,4.664749
1433894662.649,6.868019
1433894662.664,10.114632
1433894662.68,14.0633545
1433894662.696,18.137726
1433894662.711,21.737831
1433894662.727,24.54541
1433894662.743,26.63073
1433894662.758,28.429832
1433894662.774,30.52739
1433894662.789,33.33307
1433894662.805,36.89908
1433894662.821,40.884865
1433894662.836,44.652344
1433894662.852,47.581406
1433894662.868,49.190536
1433894662.883,49.399063
1433894662.899,48.489037
1433894662.914,47.048103
1433894662.93,45.71762
1433894662.946,45.088127
1433894662.961,45.497993
1433894662.977,47.02729
1433894662.993,49.301292
1433894663.008,51.583595
1433894663.024,52.942566
1433894663.039,52.564415
1433894663.055,49.94433
1433894663.071,45.085655
1433894663.086,38.426247
1433894663.102,30.62191
1433894663.118,22.169365
1433894663.133,13.188934
1433894663.149,3.3429642
1433894663.164,-7.553833
1433894663.18,-19.10437
1433894663.196,-30.132843
1433894663.211,-39.122147
1433894663.227,-44.71469
1433894663.243,-46.243507
1433894663.258,-43.924942
1433894663.274,-38.65397
1433894663.289,-31.985931
1433894663.305,-25.067535
1433894663.321,-18.369377
1433894663.336,-12.00943
1433894663.352,-6.375
1433894663.368,-2.1857834
1433894663.383,-0.028411865
1433894663.399,0.0692749
1433894663.414,-1.1389008
1433894663.43,-3.1969757
1433894663.446,-5.216156
1433894663.461,-6.1254883
1433894663.477,-5.1966934
1433894663.493,-2.885353
1433894663.508,-0.58582306
1433894663.524,-0.11643219
1433894663.539,-3.1585617
1433894663.555,-10.8170395
1433894663.571,-24.415695
1433894663.586,-43.126297
1433894663.602,-63.470253
1433894663.618,-80.66201
1433894663.633,-90.92362
1433894663.649,-92.90272
1433894663.664,-87.72347
1433894663.68,-78.22416
1433894663.696,-67.64871
1433894663.711,-60.23121
1433894663.727,-57.893524
1433894663.743,-59.818245
1433894663.758,-63.715813
1433894663.774,-67.99206
1433894663.789,-72.323975
1433894663.805,-77.03226
1433894663.821,-82.56854
1433894663.836,-78.164986
1433894663.852,-60.217545
1433894663.868,-35.15998
1433894663.883,-12.7415085
1433894663.899,2.9188232
1433894663.914,12.918144
1433894663.93,19.636555
1433894663.946,24.6833
1433894663.961,28.504143
1433894663.977,30.981434
1433894663.993,29.654533
1433894664.008,24.394104
1433894664.024,16.469852
1433894664.039,8.034466
1433894664.055,0.62887955
1433894664.071,-5.0051785
1433894664.086,-8.28821
1433894664.102,-8.769696
1433894664.118,-6.374694
1433894664.133,-2.945444
1433894664.149,0.44164228
1433894664.164,2.6678104
1433894664.18,3.7406654
1433894664.196,3.9455318
1433894664.211,3.6673584
1433894664.227,3.6301708
1433894664.243,4.6534233
1433894664.258,7.127495
1433894664.274,10.115822
1433894664.29,12.65918
1433894664.305,14.27953
1433894664.321,15.531261
1433894664.336,16.670143
1433894664.352,17.223412
1433894664.368,16.41262
1433894664.383,13.867744
1433894664.399,9.812927
1433894664.415,4.820503
1433894664.43,-0.17830658
1433894664.446,-4.348549
1433894664.461,-6.406822
1433894664.477,-6.228264
1433894664.493,-5.2821426
1433894664.508,-5.543373
1433894664.524,-8.406708
1433894664.54,-14.55368
1433894664.555,-23.68219
1433894664.571,-34.968185
1433894664.586,-47.187805
1433894664.602,-56.50708
1433894664.618,-60.37271
1433894664.633,-59.360077
1433894664.649,-56.07617
1433894664.665,-53.151047
1433894664.68,-53.14987
1433894664.696,-56.951645
1433894664.711,-64.80255
1433894664.727,-76.13997
1433894664.743,-84.855515
1433894664.758,-86.61394
1433894664.774,-82.41118
1433894664.79,-75.94481
1433894664.805,-69.30739
1433894664.821,-63.41858
1433894664.836,-56.07614
1433894664.852,-45.657227
1433894664.868,-31.7099
1433894664.883,-7.287781
1433894664.899,30.589478
1433894664.915,76.613495
1433894664.93,122.339355
1433894664.946,162.99216
1433894664.961,196.06332
1433894664.977,223.746
1433894664.993,246.99411
1433894665.008,265.73163
1433894665.024,289.83032
1433894665.04,326.31873
1433894665.055,372.83453
1433894665.071,422.86456
1433894665.086,473.1691
1433894665.102,521.48376
1433894665.118,570.08685
1433894665.133,619.17285
1433894665.149,605.1225
1433894665.165,504.6704
1433894665.18,355.84445
1433894665.196,214.30893
1433894665.211,105.70683
1433894665.227,43.63704
1433894665.243,3.6793518
1433894665.258,-26.58403
1433894665.274,-53.11917
1433894665.29,-78.58037
1433894665.305,-100.10164
1433894665.321,-113.872894
1433894665.336,-124.984634
1433894665.352,-141.96979
1433894665.368,-168.7015
1433894665.383,-206.12778
1433894665.399,-248.7626
1433894665.415,-291.74265
1433894665.43,-331.12775
1433894665.446,-355.99246
1433894665.461,-358.96384
1433894665.477,-342.7296
1433894665.493,-315.87015
1433894665.508,-285.91852
1433894665.524,-259.4535
1433894665.54,-237.54498
1433894665.555,-220.58792
1433894665.571,-208.48232
1433894665.586,-195.88132
1433894665.602,-178.63379
1433894665.618,-158.09628
1433894665.633,-138.20776
1433894665.649,-121.22814
1433894665.665,-108.30352
1433894665.68,-97.40565
1433894665.696,-87.193
1433894665.711,-77.460144
1433894665.727,-66.25995
1433894665.743,-52.477516
1433894665.758,-37.53234
1433894665.774,-23.911304
1433894665.79,-13.2025585
1433894665.805,-6.4003544
1433894665.821,-2.4442368
1433894665.836,-0.48970795
1433894665.852,-0.21018219
1433894665.868,-0.55368805
1433894665.883,-0.379467
1433894665.899,0.48198318
1433894665.915,1.5120163
1433894665.93,2.1032448
1433894665.946,1.6597748
1433894665.961,1.7109375
1433894665.977,3.194893
1433894665.993,5.4556656
1433894666.008,6.9817276
1433894666.024,6.836273
1433894666.04,4.747078
1433894666.055,0.83841705
1433894666.071,-4.485817
1433894666.086,-10.687546
1433894666.102,-14.023926
1433894666.118,-12.482269
1433894666.133,-7.667801
1433894666.149,-3.0980682
1433894666.165,-1.0806732
1433894666.18,-2.0898895
1433894666.196,-5.546295
1433894666.211,-10.563187
1433894666.227,-16.366089
1433894666.243,-17.442535
1433894666.258,-10.799591
1433894666.274,1.2572784
1433894666.29,14.202805
1433894666.305,25.8311
1433894666.321,36.663544
1433894666.336,48.208862
1433894666.352,61.844116
1433894666.368,78.47012
1433894666.383,105.30176
1433894666.399,146.27715
1433894666.415,198.049
1433894666.43,253.19962
1433894666.446,305.83228
1433894666.461,352.7439
1433894666.477,392.37134
1433894666.493,424.3671
1433894666.508,408.4272
1433894666.524,331.9625
1433894666.54,222.87068
1433894666.555,121.33812
1433894666.571,46.278458
1433894666.586,-3.761551
1433894666.602,-37.11693
1433894666.618,-61.346207
1433894666.633,-81.03183
1433894666.649,-98.24956
1433894666.665,-106.93262
1433894666.68,-103.66905
1433894666.696,-92.084885
1433894666.711,-79.41264
1433894666.727,-70.54228
1433894666.743,-66.831726
1433894666.758,-67.56564
1433894666.774,-71.39624
1433894666.79,-77.020096
1433894666.805,-78.56622
1433894666.821,-73.17148
1433894666.836,-63.83525
1433894666.852,-56.08571
1433894666.868,-53.195198
1433894666.883,-55.093056
1433894666.899,-60.025932
1433894666.915,-65.93757
1433894666.93,-71.360504
1433894666.946,-72.5096
1433894666.962,-67.89851
1433894666.977,-59.770767
1433894666.993,-51.934982
1433894667.008,-46.648705
1433894667.024,-44.06479
1433894667.04,-43.266464
1433894667.055,-43.16758
1433894667.071,-43.006447
1433894667.086,-41.045967
1433894667.102,-36.84954
1433894667.118,-31.916801
1433894667.133,-28.523338
1433894667.149,-27.93573
1433894667.165,-29.9506
1433894667.18,-33.444
1433894667.196,-36.890717
1433894667.212,-39.08103
1433894667.227,-38.850403
1433894667.243,-36.127785
1433894667.258,-32.003174
1433894667.274,-28.058762
1433894667.29,-25.509651
1433894667.305,-24.9123
1433894667.321,-26.373146
1433894667.337,-29.608704
1433894667.352,-33.884216
1433894667.368,-38.01705
1433894667.383,-40.48017
1433894667.399,-39.837044
1433894667.415,-35.446503
1433894667.43,-27.945587
1433894667.446,-19.105507
1433894667.462,-11.245621
1433894667.477,-6.147148
1433894667.493,-4.3821335
1433894667.508,-4.948715
1433894667.524,-6.4851913
1433894667.54,-7.52269
1433894667.555,-7.3918076
1433894667.571,-6.3973465
1433894667.587,-5.4823074
1433894667.602,-5.5273666
1433894667.618,-6.636856
1433894667.633,-7.8512955
1433894667.649,-7.55101
1433894667.665,-4.3883667
1433894667.68,1.91362
1433894667.696,10.168335
1433894667.712,18.16661
1433894667.727,24.00029
1433894667.743,27.003616
1433894667.758,28.22757
1433894667.774,29.615082
1433894667.79,32.770767
1433894667.805,37.851746
1433894667.821,43.582565
1433894667.837,47.989746
1433894667.852,49.903656
1433894667.868,49.61911
1433894667.883,48.67981
1433894667.899,48.768784
1433894667.915,50.430252
1433894667.93,52.682495
1433894667.946,53.612045
1433894667.962,51.519653
1433894667.977,46.004913
1433894667.993,38.239243
1433894668.008,30.426453
1433894668.024,24.685608
1433894668.04,22.176956
1433894668.055,22.722946
1433894668.071,25.333359
1433894668.087,28.829895
1433894668.102,32.45082
1433894668.118,35.926376
1433894668.133,39.286453
1433894668.149,42.45659
1433894668.165,45.22357
1433894668.18,47.353867
1433894668.196,48.793198
1433894668.212,49.856293
1433894668.227,50.976776
1433894668.243,52.34828
1433894668.258,53.853745
1433894668.274,55.210022
1433894668.29,56.297913
1433894668.305,57.364014
1433894668.321,59.022705
1433894668.337,61.74991
1433894668.352,65.808556
1433894668.368,70.74122
1433894668.383,75.74724
1433894668.399,79.85805
1433894668.415,82.344864
1433894668.43,82.69727
1433894668.446,80.70825
1433894668.462,76.48315
1433894668.477,69.31042
1433894668.493,58.492004
1433894668.508,43.588776
1433894668.524,24.466003
1433894668.54,1.7697678
1433894668.555,-23.219864
1433894668.571,-48.67431
1433894668.587,-72.808624
1433894668.602,-94.2565
1433894668.618,-112.42418
1433894668.633,-127.02307
1433894668.649,-137.78145
1433894668.665,-144.12921
1433894668.68,-145.24324
1433894668.696,-140.45482
1433894668.712,-129.84996
1433894668.727,-114.44913
1433894668.743,-96.23456
1433894668.758,-77.610596
1433894668.774,-60.78282
1433894668.79,-47.270214
1433894668.805,-37.845627
1433894668.821,-32.54282
1433894668.837,-30.779257
1433894668.852,-31.375591
1433894668.868,-32.588825
1433894668.883,-32.24902
1433894668.899,-28.474926
1433894668.915,-20.460445
1433894668.93,-9.166618
1433894668.946,2.7344131
1433894668.962,11.85747
1433894668.977,15.572229
1433894668.993,13.076029
1433894669.008,5.902529
1433894669.024,-3.1553478
1433894669.04,-11.099201
1433894669.055,-16.155018
1433894669.071,-18.065247
1433894669.087,-17.686043
1433894669.102,-15.895981
1433894669.118,-12.998497
1433894669.133,-8.60453
1433894669.149,-2.2097683
1433894669.165,6.1952667
1433894669.18,15.915062
1433894669.196,25.870335
1433894669.212,35.16312
1433894669.227,43.41463
1433894669.243,50.624958
1433894669.258,56.81788
1433894669.274,61.624275
1433894669.29,64.37459
1433894669.305,64.35364
1433894669.321,61.540726
1433894669.337,56.790802
1433894669.352,51.67277
1433894669.368,47.733894
1433894669.383,45.697437
1433894669.399,45.028107
1433894669.415,44.152363
1433894669.43,41.171593
1433894669.446,34.702053
1433894669.462,24.540062
1433894669.477,11.4759445
1433894669.493,-3.1770325
1433894669.508,-18.18058
1433894669.524,-32.674355
1433894669.54,-45.948593
1433894669.555,-57.01014
1433894669.571,-64.386
1433894669.587,-66.50364
1433894669.602,-62.42427
1433894669.618,-52.684692
1433894669.633,-39.339935
1433894669.649,-25.40429
1433894669.665,-13.593376
1433894669.68,-5.199936
1433894669.696,0.31578064
1433894669.712,4.8810577
1433894669.727,10.722755
1433894669.743,19.262909
1433894669.758,30.397354
1433894669.774,42.491524
1433894669.79,52.984993
1433894669.805,59.2321
1433894669.821,59.421265
1433894669.837,53.168335
1433894669.852,41.700317
1433894669.868,27.59311
1433894669.884,14.047058
1433894669.899,4.035202
1433894669.915,-0.48443604
1433894669.93,1.1013336
1433894669.946,8.161774
1433894669.962,19.239578
1433894669.977,32.43701
1433894669.993,45.75261
1433894670.009,57.164993
1433894670.024,64.82396
1433894670.04,67.353195
1433894670.055,64.26207
1433894670.071,56.247086
1433894670.087,45.07614
1433894670.102,33.058777
1433894670.118,22.209671
1433894670.134,13.65448
1433894670.149,7.4018555
1433894670.165,2.665512
1433894670.18,-1.5375977
1433894670.196,-5.8927917
1433894670.212,-10.543991
1433894670.227,-15.160065
1433894670.243,-19.260162
1433894670.259,-22.403503
1433894670.274,-24.360474
1433894670.29,-25.048828
1433894670.305,-24.528809
1433894670.321,-22.908813
1433894670.337,-20.392181
1433894670.352,-17.267303
1433894670.368,-13.879944
1433894670.384,-10.500183
1433894670.399,-7.242279
1433894670.415,-3.9542542
1433894670.43,-0.28878784
1433894670.446,4.2039185
1433894670.462,9.88327
1433894670.477,16.93158
1433894670.493,25.264923
1433894670.509,34.513153
1433894670.524,43.950287
1433894670.54,52.55713
1433894670.555,59.10785
1433894670.571,62.388153
1433894670.587,61.51297
1433894670.602,56.180664
1433894670.618,46.75891
1433894670.634,34.177948
1433894670.649,19.690704
1433894670.665,4.551605
1433894670.68,-10.148529
1433894670.696,-23.550842
1433894670.712,-35.015686
1433894670.727,-44.09433
1433894670.743,-50.645203
1433894670.759,-54.80075
1433894670.774,-57.059143
1433894670.79,-58.08432
1433894670.805,-58.599182
1433894670.821,-59.12027
1433894670.837,-59.87607
1433894670.852,-60.815063
1433894670.868,-61.72107
1433894670.884,-62.284668
1433894670.899,-62.26068
1433894670.915,-61.531372
1433894670.93,-60.115173
1433894670.946,-58.068542
1433894670.962,-55.494324
1433894670.977,-52.3797
1433894670.993,-48.722534
1433894671.009,-44.518494
1433894671.024,-40.010193
1433894671.04,-35.61792
1433894671.055,-31.857971
1433894671.071,-29.029785
1433894671.087,-27.004456
1433894671.102,-25.127502
1433894671.118,-22.438965
1433894671.134,-18.070374
1433894671.149,-11.707397
1433894671.165,-3.8181763
1433894671.18,4.3241577
1433894671.196,10.870117
1433894671.212,13.877563
1433894671.227,11.83551
1433894671.243,4.2026978
1433894671.259,-8.213623
1433894671.274,-23.31549
1433894671.29,-38.17108
1433894671.305,-49.86682
1433894671.321,-56.41046
1433894671.337,-57.337524
1433894671.352,-53.65625
1433894671.368,-47.33203
1433894671.384,-40.454163
1433894671.399,-34.546936
1433894671.415,-30.288757
1433894671.43,-27.663391
1433894671.446,-26.231873
1433894671.462,-25.501953
1433894671.477,-25.000427
1433894671.493,-24.345276
1433894671.509,-23.2005
1433894671.524,-21.343994
1433894671.54,-18.656311
1433894671.555,-15.161194
1433894671.571,-10.862488
1433894671.587,-5.69812
1433894671.602,0.5406494
1433894671.618,8.045227
1433894671.634,16.802185
1433894671.649,26.416504
1433894671.665,36.131226
1433894671.68,45.015564
1433894671.696,52.201843
1433894671.712,57.066833
1433894671.727,59.236816
1433894671.743,58.5282
1433894671.759,54.914
1433894671.774,48.538513
1433894671.79,39.802246
1433894671.805,29.447021
1433894671.821,18.4505
1433894671.837,7.8165283
1433894671.852,-1.75177
1433894671.868,-10.007202
1433894671.884,-17.140503
1433894671.899,-23.543335
1433894671.915,-29.50476
1433894671.93,-35.01776
1433894671.946,-39.762268
1433894671.962,-43.26947
1433894671.977,-45.105103
1433894671.993,-45.06482
1433894672.009,-43.150696
1433894672.024,-39.5058
1433894672.04,-34.25226
1433894672.055,-27.491577
1433894672.071,-19.400146
1433894672.087,-10.469238
1433894672.102,-1.6713867
1433894672.118,5.6486206
1433894672.134,10.15918
1433894672.149,11.033081
1433894672.165,8.391663
1433894672.18,3.3565674
1433894672.196,-2.2579956
1433894672.212,-6.6210327
1433894672.227,-8.522888
1433894672.243,-7.762329
1433894672.259,-5.114807
1433894672.274,-1.9205933
1433894672.29,0.46832275
1433894672.305,1.071106
1433894672.321,-0.555542
1433894672.337,-4.3881226
1433894672.352,-10.096191
1433894672.368,-17.175354
1433894672.384,-24.966553
1433894672.399,-32.70703
1433894672.415,-39.582275
1433894672.43,-44.86859
1433894672.446,-48.106384
1433894672.462,-49.204956
1433894672.477,-48.446594
1433894672.493,-46.391052
1433894672.509,-43.647644
1433894672.524,-40.68524
1433894672.54,-37.61963
1433894672.556,-34.250305
1433894672.571,-30.128296
1433894672.587,-24.805786
1433894672.602,-18.149475
1433894672.618,-10.510315
1433894672.634,-2.7115479
1433894672.649,4.154663
1433894672.665,9.1188965
1433894672.681,11.620239
1433894672.696,11.695129
1433894672.712,9.903748
1433894672.727,7.0612793
1433894672.743,3.999817
1433894672.759,1.3775024
1433894672.774,-0.39746094
1433894672.79,-1.0553589
1433894672.806,-0.5076904
1433894672.821,1.2365723
1433894672.837,3.9157104
1433894672.852,7.0179443
1433894672.868,9.795471
1433894672.884,11.405212
1433894672.899,11.181213
1433894672.915,8.814331
1433894672.931,4.486206
1433894672.946,-1.2011108
1433894672.962,-7.425415
1433894672.977,-13.395081
1433894672.993,-18.527191
1433894673.009,-22.545013
1433894673.024,-25.41095
1433894673.04,-27.198608
1433894673.056,-28.035583
1433894673.071,-28.001923
1433894673.087,-27.160614
1433894673.102,-25.593048
1433894673.118,-23.444458
1433894673.134,-20.86615
1433894673.149,-18.043
1433894673.165,-15.11203
1433894673.181,-12.154846
1433894673.196,-9.228851
1433894673.212,-6.3569336
1433894673.227,-3.590149
1433894673.243,-0.95996094
1433894673.259,1.4913635
1433894673.274,3.7113037
1433894673.29,5.7108765
1433894673.306,7.5464783
1433894673.321,9.377563
1433894673.337,11.403076
1433894673.352,13.838776
1433894673.368,16.816437
1433894673.384,20.250519
1433894673.399,23.799072
1433894673.415,26.931305
1433894673.431,28.948364
1433894673.446,29.269714
1433894673.462,27.555481
1433894673.477,23.861816
1433894673.493,18.629272
1433894673.509,12.51593
1433894673.524,6.2210693
1433894673.54,0.29156494
1433894673.556,-4.9368286
1433894673.571,-9.288361
1433894673.587,-12.619263
1433894673.602,-14.825897
1433894673.618,-15.829376
1433894673.634,-15.638489
1433894673.649,-14.430847
1433894673.665,-12.502563
1433894673.681,-10.221863
1433894673.696,-7.890167
1433894673.712,-5.6946716
1433894673.727,-3.7053223
1433894673.743,-1.9119873
1433894673.759,-0.2763672
1433894673.774,1.2580261
1433894673.79,2.7350464
1433894673.806,4.177185
1433894673.821,5.615082
1433894673.837,7.0317383
1433894673.852,8.389801
1433894673.868,9.648987
1433894673.884,10.825928
1433894673.899,12.0121155
1433894673.915,13.398132
1433894673.931,15.2341
1433894673.946,17.686676
1433894673.962,20.704224
1433894673.977,24.000061
1433894673.993,26.995102
1433894674.009,29.024048
1433894674.024,29.443756
1433894674.04,27.910324
1433894674.056,24.436996
1433894674.071,19.416733
1433894674.087,13.48111
1433894674.102,7.353592
1433894674.118,1.6452637
1433894674.134,-3.204834
1433894674.149,-7.002945
1433894674.165,-9.750809
1433894674.181,-11.562729
1433894674.196,-12.577347
1433894674.212,-12.928833
1433894674.227,-12.703842
1433894674.243,-11.968933
1433894674.259,-10.829407
1433894674.274,-9.430557
1433894674.29,-7.9479065
1433894674.306,-6.5701294
1433894674.321,-5.431427
1433894674.337,-4.6269836
1433894674.352,-4.1403503
1433894674.368,-3.8723297
1433894674.384,-3.649292
1433894674.399,-3.2649384
1433894674.415,-2.5587006
1433894674.431,-1.434494
1433894674.446,0.07707214
1433894674.462,1.8594666
1433894674.477,3.770996
1433894674.493,5.688759
1433894674.509,7.618286
1433894674.524,9.700478
1433894674.54,12.169586
1433894674.556,15.218369
1433894674.571,18.910866
1433894674.587,23.031036
1433894674.602,27.061142
1433894674.618,30.255096
1433894674.634,31.877792
1433894674.649,31.379288
1433894674.665,28.631836
1433894674.681,23.92891
1433894674.696,17.930298
1433894674.712,11.385513
1433894674.727,4.928299
1433894674.743,-1.0314407
1433894674.759,-6.320221
1433894674.774,-10.859642
1433894674.79,-14.609268
1433894674.806,-17.459953
1433894674.821,-19.305145
1433894674.837,-20.132671
1433894674.852,-20.0415
1433894674.868,-19.24495
1433894674.884,-17.98896
1433894674.899,-16.482338
1433894674.915,-14.819256
1433894674.931,-13.062214
1433894674.946,-11.26453
1433894674.962,-9.527779
1433894674.977,-7.989071
1433894674.993,-6.7866974
1433894675.009,-5.9588337
1433894675.024,-5.4376774
1433894675.04,-5.006525
1433894675.056,-4.3952427
1433894675.071,-3.3591166
1433894675.087,-1.7510014
1433894675.102,0.42525816
1433894675.118,3.0545206
1433894675.134,5.9421835
1433894675.149,8.909368
1433894675.165,11.888236
1433894675.181,14.872237
1433894675.196,17.95463
1433894675.212,21.21731
1433894675.228,24.634867
1433894675.243,28.01882
1433894675.259,31.035831
1433894675.274,33.224987
1433894675.29,34.10613
1433894675.306,33.31854
1433894675.321,30.756866
1433894675.337,26.629795
1433894675.353,21.41425
1433894675.368,15.744774
1433894675.384,10.199085
1433894675.399,5.1772385
1433894675.415,0.83782196
1433894675.431,-2.8248901
1433894675.446,-5.8909836
1433894675.462,-8.430908
1433894675.478,-10.430946
1433894675.493,-11.904083
1433894675.509,-12.830437
1433894675.524,-13.247887
1433894675.54,-13.206482
1433894675.556,-12.73761
1433894675.571,-11.860832
1433894675.587,-10.629028
1433894675.603,-9.139908
1433894675.618,-7.5421677
1433894675.634,-6.015564
1433894675.649,-4.765709
1433894675.665,-3.8884277
1433894675.681,-3.4274368
1433894675.696,-3.3170395
1433894675.712,-3.3804855
1433894675.728,-3.395752
1433894675.743,-3.161583
1433894675.759,-2.5383606
1433894675.774,-1.502121
1433894675.79,-0.08345032
1433894675.806,1.5919571
1433894675.821,3.410469
1433894675.837,5.2566986
1433894675.853,7.046631
1433894675.868,8.770447
1433894675.884,10.53952
1433894675.899,12.558517
1433894675.915,15.090744
1433894675.931,18.298065
1433894675.946,22.126022
1433894675.962,26.155823
1433894675.978,29.745804
1433894675.993,32.138947
1433894676.009,32.77614
1433894676.024,31.4552
1433894676.04,28.396515
1433894676.056,24.092346
1433894676.071,19.120758
1433894676.087,13.944992
1433894676.103,8.867676
1433894676.118,4.0312653
1433894676.134,-0.43344116
1433894676.149,-4.3307343
1433894676.165,-7.4297485
1433894676.181,-9.488693
1433894676.196,-10.425735
1433894676.212,-10.341629
1433894676.228,-9.519897
1433894676.243,-8.350815
1433894676.259,-7.1600647
1433894676.274,-6.1706085
1433894676.29,-5.3965607
1433894676.306,-4.7845154
1433894676.321,-4.2325287
1433894676.337,-3.716278
1433894676.353,-3.28656
1433894676.368,-3.063324
1433894676.384,-3.1048584
1433894676.399,-3.371338
1433894676.415,-3.6714478
1433894676.431,-3.7237396
1433894676.446,-3.255478
1433894676.462,-2.0993958
1433894676.478,-0.28231812
1433894676.493,2.004654
1433894676.509,4.452133
1433894676.524,6.758194
1433894676.54,8.733414
1433894676.556,10.351898
1433894676.571,11.792023
1433894676.587,13.326492
1433894676.603,15.227066
1433894676.618,17.657349
1433894676.634,20.55429
1433894676.649,23.620712
1433894676.665,26.398453
1433894676.681,28.346008
1433894676.696,28.988235
1433894676.712,28.017502
1433894676.728,25.42421
1433894676.743,21.442703
1433894676.759,16.571182
1433894676.774,11.367249
1433894676.79,6.4143677
1433894676.806,2.1427307
1433894676.821,-1.2297821
1433894676.837,-3.6837006
1433894676.853,-5.3669434
1433894676.868,-6.501175
1433894676.884,-7.3224335
1433894676.899,-8.019714
1433894676.915,-8.6927185
1433894676.931,-9.374512
1433894676.946,-9.998962
1433894676.962,-10.446777
1433894676.978,-10.573441
1433894676.993,-10.285477
1433894677.009,-9.599335
1433894677.024,-8.679138
1433894677.04,-7.780655
1433894677.056,-7.2097015
1433894677.071,-7.1291656
1433894677.087,-7.4985046
1433894677.103,-8.040573
1433894677.118,-8.334
1433894677.134,-7.959854
1433894677.149,-6.6795044
1433894677.165,-4.5237885
1433894677.181,-1.7599792
1433894677.196,1.2149353
1433894677.212,3.9920807
1433894677.228,6.296509
1433894677.243,7.982544
1433894677.259,9.130753
1433894677.274,9.9653015
1433894677.29,10.91684
1433894677.306,12.566513
1433894677.321,15.487488
1433894677.337,20.05043
1433894677.353,26.165588
1433894677.368,33.187866
1433894677.384,39.987396
1433894677.399,45.251434
1433894677.415,47.85904
1433894677.431,47.178177
1433894677.446,43.19423
1433894677.462,36.4252
1433894677.478,27.740448
1433894677.493,18.137558
1433894677.509,8.579269
1433894677.524,-0.11872864
1433894677.54,-7.320938
1433894677.556,-12.657272
1433894677.571,-16.02185
1433894677.587,-17.652939
1433894677.603,-17.986816
1433894677.618,-17.583893
1433894677.634,-16.940063
1433894677.649,-16.384384
1433894677.665,-16.057953
1433894677.681,-15.948349
1433894677.696,-15.96579
1433894677.712,-16.071854
1433894677.728,-16.196167
1433894677.743,-16.345047
1433894677.759,-16.447159
1433894677.774,-16.49327
1433894677.79,-16.448868
1433894677.806,-16.36615
1433894677.821,-16.372147
1433894677.837,-16.541046
1433894677.853,-16.85495
1433894677.868,-17.120758
1433894677.884,-17.00232
1433894677.9,-16.171265
1433894677.915,-14.448395
1433894677.931,-11.900177
1433894677.946,-8.809113
1433894677.962,-5.544861
1433894677.978,-2.4081726
1433894677.993,0.4552307
1433894678.009,3.0932007
1433894678.024,5.6261597
1433894678.04,8.220551
1433894678.056,10.955658
1433894678.071,13.843964
1433894678.087,16.766327
1433894678.103,19.438385
1433894678.118,21.417603
1433894678.134,22.216583
1433894678.15,21.418976
1433894678.165,18.882263
1433894678.181,14.809906
1433894678.196,9.707611
1433894678.212,4.2381897
1433894678.228,-0.9850769
1433894678.243,-5.545044
1433894678.259,-9.202576
1433894678.275,-11.933411
1433894678.29,-13.774841
1433894678.306,-14.800354
1433894678.321,-15.139801
1433894678.337,-14.958374
1433894678.353,-14.446655
1433894678.368,-13.804138
1433894678.384,-13.192993
1433894678.4,-12.726746
1433894678.415,-12.46051
1433894678.431,-12.399658
1433894678.446,-12.499207
1433894678.462,-12.661987
1433894678.478,-12.742493
1433894678.493,-12.643188
1433894678.509,-12.299103
1433894678.525,-11.777618
1433894678.54,-11.160767
1433894678.556,-10.518707
1433894678.571,-9.829956
1433894678.587,-8.950439
1433894678.603,-7.707672
1433894678.618,-5.981964
1433894678.634,-3.735443
1433894678.65,-1.0848083
1433894678.665,1.782959
1433894678.681,4.67334
1433894678.696,7.3964233
1433894678.712,9.84903
1433894678.728,12.035004
1433894678.743,14.075714
1433894678.759,16.238678
1433894678.775,18.833069
1433894678.79,22.098022
1433894678.806,25.994598
1433894678.821,30.189026
1433894678.837,34.02008
1433894678.853,36.708862
1433894678.868,37.5914
1433894678.884,36.361267
1433894678.9,33.092896
1433894678.915,28.247803
1433894678.931,22.469574
1433894678.946,16.428894
1433894678.962,10.62027
1433894678.978,5.380707
1433894678.993,0.86917114
1433894679.009,-2.8504028
1433894679.025,-5.766632
1433894679.04,-7.8881836
1433894679.056,-9.26297
1433894679.071,-10.007477
1433894679.087,-10.296509
1433894679.103,-10.32663
1433894679.118,-10.28302
1433894679.134,-10.28656
1433894679.15,-10.361816
1433894679.165,-10.454102
1433894679.181,-10.444153
1433894679.196,-10.236206
1433894679.212,-9.80014
1433894679.228,-9.186035
1433894679.243,-8.471832
1433894679.259,-7.703125
1433894679.275,-6.844452
1433894679.29,-5.795044
1433894679.306,-4.4187927
1433894679.321,-2.6426392
1433894679.337,-0.48468018
1433894679.353,1.9220581
1433894679.368,4.390259
1433894679.384,6.7592163
1433894679.4,8.8966675
1433894679.415,10.767426
1433894679.431,12.410919
1433894679.446,13.948303
1433894679.462,15.545929
1433894679.478,17.404572
1433894679.493,19.691864
1433894679.509,22.477936
1433894679.525,25.62558
1433894679.54,28.786835
1433894679.556,31.453094
1433894679.571,33.07187
1433894679.587,33.17337
1433894679.603,31.530945
1433894679.618,28.171082
1433894679.634,23.395813
1433894679.65,17.662872
1433894679.665,11.4965515
1433894679.681,5.3922424
1433894679.696,-0.28527832
1433894679.712,-5.320099
1433894679.728,-9.600342
1433894679.743,-13.105988
1433894679.759,-15.857208
1433894679.775,-17.872864
1433894679.79,-19.227997
1433894679.806,-20.03479
1433894679.821,-20.45227
1433894679.837,-20.662506
1433894679.853,-20.799866
1433894679.868,-20.885895
1433894679.884,-20.8544
1433894679.9,-20.614899
1433894679.915,-20.122925
1433894679.931,-19.480652
1433894679.946,-18.88263
1433894679.962,-18.557526
1433894679.978,-18.620514
1433894679.993,-19.025696
1433894680.009,-19.548553
1433894680.025,-19.905548
1433894680.04,-19.868164
1433894680.056,-19.35318
1433894680.071,-18.399353
1433894680.087,-17.164337
1433894680.103,-15.753754
1433894680.118,-14.23764
1433894680.134,-12.626984
1433894680.15,-10.9133
1433894680.165,-9.153229
1433894680.181,-7.4280396
1433894680.196,-5.8353577
1433894680.212,-4.432495
1433894680.228,-3.2239685
1433894680.243,-2.1687622
1433894680.259,-1.2172241
1433894680.275,-0.361969
1433894680.29,0.3824463
1433894680.306,1.0432129
1433894680.321,1.6824951
1433894680.337,2.447174
1433894680.353,3.5049744
1433894680.368,4.969635
1433894680.384,6.8652344
1433894680.4,9.044189
1433894680.415,11.300354
1433894680.431,13.442078
1433894680.446,15.4131775
1433894680.462,17.327057
1433894680.478,19.431702
1433894680.493,22.005188
1433894680.509,25.250854
1433894680.525,29.206848
1433894680.54,33.70694
1433894680.556,38.37317
1433894680.572,42.634033
1433894680.587,45.78183
1433894680.603,47.166077
1433894680.618,46.30069
1433894680.634,43.058594
1433894680.65,37.698517
1433894680.665,30.814148
1433894680.681,23.155762
1433894680.696,15.492554
1433894680.712,8.418732
1433894680.728,2.3684082
1433894680.743,-2.424408
1433894680.759,-5.900696
1433894680.775,-8.189545
1433894680.79,-9.575104
1433894680.806,-10.419189
1433894680.822,-11.051422
1433894680.837,-11.70343
1433894680.853,-12.417603
1433894680.868,-13.136566
1433894680.884,-13.7435
1433894680.9,-14.190155
1433894680.915,-14.485168
1433894680.931,-14.713379
1433894680.947,-14.934662
1433894680.962,-15.219147
1433894680.978,-15.568085
1433894680.993,-15.946625
1433894681.009,-16.29953
1433894681.025,-16.497772
1433894681.04,-16.422516
1433894681.056,-15.938324
1433894681.072,-14.940002
1433894681.087,-13.426025
1433894681.103,-11.473236
1433894681.118,-9.243378
1433894681.134,-6.9045715
1433894681.15,-4.594208
1433894681.165,-2.3468323
1433894681.181,-0.12994385
1433894681.197,2.1786804
1433894681.212,4.635681
1433894681.228,7.280945
1433894681.243,10.018997
1433894681.259,12.726257
1433894681.275,15.251297
1433894681.29,17.563736
1433894681.306,19.750153
1433894681.322,22.03975
1433894681.337,24.71106
1433894681.353,28.00679
1433894681.368,31.961197
1433894681.384,36.386047
1433894681.4,40.811996
1433894681.415,44.555008
1433894681.431,46.881744
1433894681.447,47.195923
1433894681.462,45.201416
1433894681.478,40.975006
1433894681.493,34.973053
1433894681.509,27.888
1433894681.525,20.47342
1433894681.54,13.350876
1433894681.556,6.913849
1433894681.572,1.3322754
1433894681.587,-3.3875427
1433894681.603,-7.2508698
1433894681.618,-10.238159
1433894681.634,-12.291824
1433894681.65,-13.362061
1433894681.665,-13.505234
1433894681.681,-12.910461
1433894681.697,-11.894775
1433894681.712,-10.7907715
1433894681.728,-9.849884
1433894681.743,-9.159821
1433894681.759,-8.608307
1433894681.775,-8.076904
1433894681.79,-7.470825
1433894681.806,-6.858032
1433894681.822,-6.396805
1433894681.837,-6.221588
1433894681.853,-6.29599
1433894681.868,-6.41922
1433894681.884,-6.2150726
1433894681.9,-5.3724976
1433894681.915,-3.721405
1433894681.931,-1.2947388
1433894681.947,1.6871948
1433894681.962,4.9625397
1433894681.978,8.320465
1433894681.993,11.665695
1433894682.009,15.044937
1433894682.025,18.610092
1433894682.04,22.607002
1433894682.056,27.254707
1433894682.072,32.598305
1433894682.087,38.348175
1433894682.103,43.87416
1433894682.118,48.24347
1433894682.134,50.500893
1433894682.15,49.957832
1433894682.165,46.46148
1433894682.181,40.4048
1433894682.197,32.643547
1433894682.212,24.236084
1433894682.228,16.116478
1433894682.243,8.902519
1433894682.259,2.8877716
1433894682.275,-1.9233322
1433894682.29,-5.678978
1433894682.306,-8.555103
1433894682.322,-10.715885
1433894682.337,-12.241028
1433894682.353,-13.152294
1433894682.368,-13.466846
1433894682.384,-13.189621
1433894682.4,-12.425671
1433894682.415,-11.373478
1433894682.431,-10.283096
1433894682.447,-9.364864
1433894682.462,-8.708589
1433894682.478,-8.241255
1433894682.493,-7.757818
1433894682.509,-7.0297894
1433894682.525,-5.9392967
1433894682.54,-4.5201836
1433894682.556,-2.8866806
1433894682.572,-1.1369896
1433894682.587,0.7670727
1433894682.603,3.019802
1433894682.618,5.9415245
1433894682.634,9.802376
1433894682.65,14.715107
1433894682.665,20.58202
1433894682.681,27.072151
1433894682.697,33.6205
1433894682.712,39.48767
1433894682.728,43.87735
1433894682.743,46.01519
1433894682.759,45.341454
1433894682.775,41.7172
1433894682.79,35.460564
1433894682.806,27.321266
1433894682.822,18.262459
1433894682.837,9.21479
1433894682.853,0.8718872
1433894682.868,-6.4181366
1433894682.884,-12.549896
1433894682.9,-17.53926
1433894682.915,-21.377075
1433894682.931,-24.002426
1433894682.947,-25.348663
1433894682.962,-25.405853
1433894682.978,-24.310959
1433894682.993,-22.383163
1433894683.009,-20.033722
1433894683.025,-17.674133
1433894683.04,-15.583862
1433894683.056,-13.858414
1433894683.072,-12.40773
1433894683.087,-11.067764
1433894683.103,-9.682983
1433894683.118,-8.208267
1433894683.134,-6.6627502
1433894683.15,-5.108856
1433894683.165,-3.5564728
1433894683.181,-1.9368744
1433894683.197,-0.07110596
1433894683.212,2.2670593
1433894683.228,5.324768
1433894683.243,9.309601
1433894683.259,14.288635
1433894683.275,20.149963
1433894683.29,26.452423
1433894683.306,32.447693
1433894683.322,37.131805
1433894683.337,39.481445
1433894683.353,38.756653
1433894683.368,34.730774
1433894683.384,27.76239
1433894683.4,18.699188
1433894683.415,8.594971
1433894683.431,-1.5430908
1433894683.447,-10.950653
1433894683.462,-19.204376
1433894683.478,-26.117126
1433894683.494,-31.687805
1433894683.509,-36.02353
1433894683.525,-39.268677
1433894683.54,-41.610046
1433894683.556,-43.24878
1433894683.572,-44.37027
1433894683.587,-45.113983
1433894683.603,-45.53186
1433894683.619,-45.68106
1433894683.634,-45.585938
1433894683.65,-45.319153
1433894683.665,-45.01349
1433894683.681,-44.83612
1433894683.697,-44.911896
1433894683.712,-45.332947
1433894683.728,-46.049286
1433894683.744,-46.897644
1433894683.759,-47.623688
1433894683.775,-47.99539
1433894683.79,-47.845276
1433894683.806,-47.11676
1433894683.822,-45.84314
1433894683.837,-44.1102
1433894683.853,-42.0123
1433894683.869,-39.6687
1433894683.884,-37.220123
1433894683.9,-34.817535
1433894683.915,-32.585266
1433894683.931,-30.59143
1433894683.947,-28.79544
1433894683.962,-27.09726
1433894683.978,-25.31488
1433894683.994,-23.330109
1433894684.009,-21.058167
1433894684.025,-18.493286
1433894684.04,-15.693237
1433894684.056,-12.745728
1433894684.072,-9.744263
1433894684.087,-6.7681274
1433894684.103,-3.8113403
1433894684.119,-0.829834
1433894684.134,2.3204346
1433894684.15,5.786255
1433894684.165,9.632446
1433894684.181,13.811951
1433894684.197,18.221863
1433894684.212,22.690308
1433894684.228,27.047546
1433894684.244,31.18518
1433894684.259,35.05768
1433894684.275,38.68573
1433894684.29,42.281982
1433894684.306,46.20703
1433894684.322,50.902588
1433894684.337,56.62799
1433894684.353,63.162476
1433894684.369,69.62842
1433894684.384,74.60388
1433894684.4,76.501465
1433894684.415,74.17969
1433894684.431,67.33826
1433894684.447,56.694946
1433894684.462,43.719177
1433894684.478,30.16748
1433894684.494,17.507446
1433894684.509,6.6658936
1433894684.525,-2.1195679
1433894684.54,-9.136108
1433894684.556,-14.921448
1433894684.572,-19.917114
1433894684.587,-24.412537
1433894684.603,-28.315674
1433894684.619,-31.371826
1433894684.634,-33.28235
1433894684.65,-33.954956
1433894684.665,-33.50824
1433894684.681,-32.27411
1433894684.697,-30.762817
1433894684.712,-29.583435
1433894684.728,-29.491028
1433894684.744,-31.244568
1433894684.759,-35.427002
1433894684.775,-42.061035
1433894684.79,-50.20587
1433894684.806,-58.08606
1433894684.822,-63.533875
1433894684.837,-64.83966
1433894684.853,-61.451294
1433894684.869,-54.32196
1433894684.884,-45.334656
1433894684.9,-36.575623
1433894684.915,-29.47882
1433894684.931,-24.45929
1433894684.947,-21.033875
1433894684.962,-18.400452
1433894684.978,-15.985535
1433894684.994,-13.739075
1433894685.009,-11.913269
1433894685.025,-10.656433
1433894685.04,-9.747131
1433894685.056,-8.485474
1433894685.072,-5.8880615
1433894685.087,-1.2463989
1433894685.103,5.489624
1433894685.119,13.452698
1433894685.134,21.12622
1433894685.15,26.746338
1433894685.165,29.193787
1433894685.181,28.438171
1433894685.197,25.642456
1433894685.212,22.680359
1433894685.228,21.355957
1433894685.244,22.624939
1433894685.259,26.259521
1433894685.275,31.138123
1433894685.29,35.994995
1433894685.306,40.053833
1433894685.322,43.127686
1433894685.337,45.265686
1433894685.353,46.10785
1433894685.369,44.54248
1433894685.384,39.17157
1433894685.4,29.167297
1433894685.415,15.103027
1433894685.431,-0.97320557
1433894685.447,-16.246216
1433894685.462,-28.359436
1433894685.478,-36.296387
1433894685.494,-40.652832
1433894685.509,-42.97998
1433894685.525,-44.768982
1433894685.54,-46.737183
1433894685.556,-48.701416
1433894685.572,-50.026672
1433894685.587,-50.22943
1433894685.603,-49.35663
1433894685.619,-47.92688
1433894685.634,-46.604614
1433894685.65,-45.900818
1433894685.665,-45.944946
1433894685.681,-46.544434
1433894685.697,-47.287903
1433894685.712,-47.838196
1433894685.728,-48.042175
1433894685.744,-47.975403
1433894685.759,-47.820557
1433894685.775,-47.749084
1433894685.79,-47.79828
1433894685.806,-47.770508
1433894685.822,-47.37268
1433894685.837,-46.342834
1433894685.853,-44.6109
1433894685.869,-42.323303
1433894685.884,-39.79065
1433894685.9,-37.388855
1433894685.915,-35.31012
1433894685.931,-33.516235
1433894685.947,-31.761902
1433894685.962,-29.723328
1433894685.978,-27.179688
1433894685.994,-24.253479
1433894686.009,-21.383728
1433894686.025,-19.074158
1433894686.04,-17.447998
1433894686.056,-16.029541
1433894686.072,-13.7630005
1433894686.087,-9.475159
1433894686.103,-2.5031738
1433894686.119,6.8181763
1433894686.134,17.362
1433894686.15,27.648499
1433894686.166,36.453003
1433894686.181,43.087097
1433894686.197,47.272156
1433894686.212,48.884827
1433894686.228,47.880005
1433894686.244,44.465942
1433894686.259,39.707092
1433894686.275,35.451782
1433894686.291,33.900146
1433894686.306,36.54596
1433894686.322,43.29535
1433894686.337,52.205627
1433894686.353,60.1781
1433894686.369,64.2381
1433894686.384,62.705505
1433894686.4,55.60077
1433894686.416,44.35956
1433894686.431,30.960327
1433894686.447,17.111084
1433894686.462,3.8725586
1433894686.478,-8.222839
1433894686.494,-18.898682
1433894686.509,-27.857239
1433894686.525,-34.77301
1433894686.541,-39.371216
1433894686.556,-41.720886
1433894686.572,-42.21814
1433894686.587,-41.510742
1433894686.603,-40.275024
1433894686.619,-39.112366
1433894686.634,-38.36786
1433894686.65,-38.188416
1433894686.666,-38.5058
1433894686.681,-39.116333
1433894686.697,-39.774292
1433894686.712,-40.2287
1433894686.728,-40.264038
1433894686.744,-39.96753
1433894686.759,-39.429016
1433894686.775,-38.838806
1433894686.791,-38.222595
1433894686.806,-37.5083
1433894686.822,-36.49475
1433894686.837,-35.124878
1433894686.853,-33.579895
1433894686.869,-32.121582
1433894686.884,-30.779785
1433894686.9,-29.197144
1433894686.916,-26.749084
1433894686.931,-22.93457
1433894686.947,-17.811768
1433894686.962,-12.0686035
1433894686.978,-6.627075
1433894686.994,-2.1066895
1433894687.009,1.4830017
1433894687.025,4.4718933
1433894687.041,7.0846863
1433894687.056,8.899567
1433894687.072,9.031128
1433894687.087,6.7247314
1433894687.103,2.077179
1433894687.119,-3.7885437
1433894687.134,-9.113586
1433894687.15,-12.336395
1433894687.166,-12.689972
1433894687.181,-10.234283
1433894687.197,-5.5299377
1433894687.212,0.86172485
1433894687.228,8.541077
1433894687.244,17.019531
1433894687.259,25.587769
1433894687.275,33.343872
1433894687.291,39.61389
1433894687.306,44.13513
1433894687.322,47.307648
1433894687.337,49.806763
1433894687.353,52.11017
1433894687.369,54.12265
1433894687.384,55.255585
1433894687.4,54.72043
1433894687.416,51.979767
1433894687.431,47.033203
1433894687.447,40.3519
1433894687.462,32.69568
1433894687.478,24.822296
1433894687.494,17.32608
1433894687.509,10.601044
1433894687.525,4.813385
1433894687.541,0.098724365
1433894687.556,-3.5324707
1433894687.572,-6.0854187
1433894687.587,-7.700653
1433894687.603,-8.593414
1433894687.619,-9.051727
1433894687.634,-9.331482
1433894687.65,-9.621643
1433894687.666,-9.998291
1433894687.681,-10.441345
1433894687.697,-10.891022
1433894687.712,-11.314514
1433894687.728,-11.703217
1433894687.744,-12.117859
1433894687.759,-12.631287
1433894687.775,-13.331787
1433894687.791,-14.225311
1433894687.806,-15.242767
1433894687.822,-16.201508
1433894687.837,-16.849457
1433894687.853,-16.953094
1433894687.869,-16.381012
1433894687.884,-15.148987
1433894687.9,-13.443237
1433894687.916,-11.547348
1433894687.931,-9.7339325
1433894687.947,-8.1202545
1433894687.962,-6.6749115
1433894687.978,-5.244858
1433894687.994,-3.6830292
1433894688.009,-1.9539948
1433894688.025,-0.16178894
1433894688.041,1.531311
1433894688.056,2.9781342
1433894688.072,4.1108246
1433894688.087,4.9585266
1433894688.103,5.6198425
1433894688.119,6.2226715
1433894688.134,6.8886414
1433894688.15,7.7382507
1433894688.166,8.895706
1433894688.181,10.424057
1433894688.197,12.300674
1433894688.212,14.373108
1433894688.228,16.455963
1433894688.244,18.358032
1433894688.259,20.051605
1433894688.275,21.64801
1433894688.291,23.39421
1433894688.306,25.552536
1433894688.322,28.288727
1433894688.337,31.619568
1433894688.353,35.302475
1433894688.369,38.825058
1433894688.384,41.48726
1433894688.4,42.58737
1433894688.416,41.638794
1433894688.431,38.540077
1433894688.447,33.634636
1433894688.462,27.580635
1433894688.478,21.14878
1433894688.494,14.986893
1433894688.509,9.524628
1433894688.525,4.9443054
1433894688.541,1.2361908
1433894688.556,-1.7300415
1433894688.572,-4.1282196
1433894688.587,-6.156296
1433894688.603,-7.9696198
1433894688.619,-9.62159
1433894688.634,-11.081711
1433894688.65,-12.256836
1433894688.666,-13.045639
1433894688.681,-13.428146
1433894688.697,-13.4602585
1433894688.712,-13.245285
1433894688.728,-12.87011
1433894688.744,-12.40287
1433894688.759,-11.896179
1433894688.775,-11.474686
1433894688.791,-11.267929
1433894688.806,-11.398544
1433894688.822,-11.895008
1433894688.838,-12.647022
1433894688.853,-13.436581
1433894688.869,-14.031971
1433894688.884,-14.287113
1433894688.9,-14.201435
1433894688.916,-13.862549
1433894688.931,-13.45256
1433894688.947,-13.088535
1433894688.962,-12.844784
1433894688.978,-12.7008095
1433894688.994,-12.562262
1433894689.009,-12.316816
1433894689.025,-11.874147
1433894689.041,-11.153816
1433894689.056,-10.128824
1433894689.072,-8.8526325
1433894689.088,-7.4195633
1433894689.103,-5.947609
1433894689.119,-4.527878
1433894689.134,-3.155647
1433894689.15,-1.7544992
1433894689.166,-0.23639345
1433894689.181,1.4380326
1433894689.197,3.2195187
1433894689.213,5.0326614
1433894689.228,6.8258743
1433894689.244,8.618986
1433894689.259,10.533768
1433894689.275,12.659372
1433894689.291,15.024139
1433894689.306,17.539928
1433894689.322,20.044952
1433894689.338,22.369923
1433894689.353,24.465157
1433894689.369,26.354523
1433894689.384,28.175339
1433894689.4,30.099709
1433894689.416,32.31011
1433894689.431,34.967323
1433894689.447,38.106125
1433894689.463,41.578106
1433894689.478,44.949036
1433894689.494,47.53805
1433894689.509,48.58514
1433894689.525,47.463608
1433894689.541,43.958847
1433894689.556,38.33223
1433894689.572,31.245293
1433894689.588,23.546616
1433894689.603,16.04602
1433894689.619,9.337654
1433894689.634,3.746231
1433894689.65,-0.6723709
1433894689.666,-4.030304
1433894689.681,-6.549408
1433894689.697,-8.496582
1433894689.713,-10.11322
1433894689.728,-11.541275
1433894689.744,-12.79998
1433894689.759,-13.816727
1433894689.775,-14.514404
1433894689.791,-14.877579
1433894689.806,-15.012238
1433894689.822,-15.0952
1433894689.838,-15.30835
1433894689.853,-15.71405
1433894689.869,-16.29258
1433894689.884,-16.948303
1433894689.9,-17.573868
1433894689.916,-18.095062
1433894689.931,-18.460976
1433894689.947,-18.628433
1433894689.963,-18.535591
1433894689.978,-18.122627
1433894689.994,-17.330551
1433894690.009,-16.12561
1433894690.025,-14.562538
1433894690.041,-12.761131
1433894690.056,-10.907234
1433894690.072,-9.203209
1433894690.088,-7.820984
1433894690.103,-6.831581
1433894690.119,-6.2296143
1433894690.134,-5.879135
1433894690.15,-5.601715
1433894690.166,-5.24527
1433894690.181,-4.73114
1433894690.197,-4.09375
1433894690.213,-3.427765
1433894690.228,-2.7894592
1433894690.244,-2.1734161
1433894690.259,-1.4871368
1433894690.275,-0.5977173
1433894690.291,0.59788513
1433894690.306,2.1366882
1433894690.322,4.0151215
1433894690.338,6.19899
1433894690.353,8.643463
1433894690.369,11.293716
1433894690.384,14.092072
1433894690.4,16.949966
1433894690.416,19.817719
1433894690.431,22.694626
1433894690.447,25.666641
1433894690.463,28.909027
1433894690.478,32.591858
1433894690.494,36.767273
1433894690.509,41.298508
1433894690.525,45.746124
1433894690.541,49.457764
1433894690.556,51.706085
1433894690.572,51.899582
1433894690.588,49.746216
1433894690.603,45.382782
1433894690.619,39.300003
1433894690.634,32.21086
1433894690.65,24.820862
1433894690.666,17.73291
1433894690.681,11.3284
1433894690.697,5.804657
1433894690.713,1.1631775
1433894690.728,-2.638214
1433894690.744,-5.691681
1433894690.759,-8.074432
1433894690.775,-9.82399
1433894690.791,-10.944992
1433894690.806,-11.457123
1433894690.822,-11.429291
1433894690.838,-10.990219
1433894690.853,-10.335175
1433894690.869,-9.639084
1433894690.884,-9.058273
1433894690.9,-8.713669
1433894690.916,-8.683609
1433894690.931,-9.033096
1433894690.947,-9.79567
1433894690.963,-10.926468
1433894690.978,-12.281723
1433894690.994,-13.680801
1433894691.009,-14.919952
1433894691.025,-15.861389
1433894691.041,-16.443542
1433894691.056,-16.635132
1433894691.072,-16.381302
1433894691.088,-15.624313
1433894691.103,-14.301971
1433894691.119,-12.403061
1433894691.134,-9.990448
1433894691.15,-7.188751
1433894691.166,-4.150009
1433894691.181,-1.0240479
1433894691.197,2.087387
1433894691.213,5.093109
1433894691.228,7.94693
1433894691.244,10.615524
1433894691.259,13.121124
1433894691.275,15.491592
1433894691.291,17.781189
1433894691.306,20.010208
1433894691.322,22.13147
1433894691.338,24.081955
1433894691.353,25.800064
1433894691.369,27.304367
1433894691.384,28.74794
1433894691.4,30.35263
1433894691.416,32.41057
1433894691.431,35.12314
1433894691.447,38.497406
1433894691.463,42.247543
1433894691.478,45.804504
1433894691.494,48.39218
1433894691.51,49.262756
1433894691.525,47.84735
1433894691.541,43.992065
1433894691.556,38.016922
1433894691.572,30.61345
1433894691.588,22.695862
1433894691.603,15.134659
1433894691.619,8.514633
1433894691.634,3.0797882
1433894691.65,-1.256897
1433894691.666,-4.7186584
1433894691.681,-7.590683
1433894691.697,-10.03923
1433894691.713,-12.118042
1433894691.728,-13.832382
1433894691.744,-15.173157
1433894691.76,-16.163086
1433894691.775,-16.895401
1433894691.791,-17.458984
1433894691.806,-17.91925
1433894691.822,-18.319992
1433894691.838,-18.667084
1433894691.853,-18.949677
1433894691.869,-19.15216
1433894691.885,-19.28862
1433894691.9,-19.397598
1433894691.916,-19.514236
1433894691.931,-19.681137
1433894691.947,-19.908752
1433894691.963,-20.157867
1433894691.978,-20.356262
1433894691.994,-20.43991
1433894692.01,-20.35823
1433894692.025,-20.12439
1433894692.041,-19.772507
1433894692.056,-19.326897
1433894692.072,-18.761848
1433894692.088,-18.02446
1433894692.103,-17.01384
1433894692.119,-15.664238
1433894692.135,-13.983406
1433894692.15,-12.0675125
1433894692.166,-10.087425
1433894692.181,-8.23436
1433894692.197,-6.681793
1433894692.213,-5.4951477
1433894692.228,-4.6213837
1433894692.244,-3.8831406
1433894692.26,-3.0107117
1433894692.275,-1.7651215
1433894692.291,0.022727966
1433894692.306,2.3678284
1433894692.322,5.1782227
1433894692.338,8.303261
1433894692.353,11.586578
1433894692.369,14.897789
1433894692.385,18.143456
1433894692.4,21.283577
1433894692.416,24.363487
1433894692.431,27.523895
1433894692.447,31.026993
1433894692.463,35.135483
1433894692.478,39.990097
1433894692.494,45.388252
1433894692.51,50.79428
1433894692.525,55.335793
1433894692.541,58.05133
1433894692.556,58.188896
1433894692.572,55.387413
1433894692.588,49.845314
1433894692.603,42.242584
1433894692.619,33.51126
1433894692.635,24.592102
1433894692.65,16.223831
1433894692.666,8.821449
1433894692.681,2.5257416
1433894692.697,-2.6832352
1433894692.713,-6.930008
1433894692.728,-10.3162155
1433894692.744,-12.9793625
1433894692.76,-15.055199
1433894692.775,-16.70256
1433894692.791,-18.024147
1433894692.806,-19.085285
1433894692.822,-19.9231
1433894692.838,-20.568016
1433894692.853,-21.084682
1433894692.869,-21.544983
1433894692.885,-22.040535
1433894692.9,-22.596325
1433894692.916,-23.205849
1433894692.931,-23.890879
1433894692.947,-24.661474
1433894692.963,-25.567116
1433894692.978,-26.574865
1433894692.994,-27.562584
1433894693.01,-28.295464
1433894693.025,-28.549444
1433894693.041,-28.186033
1433894693.056,-27.268604
1433894693.072,-25.97882
1433894693.088,-24.578905
1433894693.103,-23.22929
1433894693.119,-21.990812
1433894693.135,-20.805351
1433894693.15,-19.617521
1433894693.166,-18.374226
1433894693.181,-17.091173
1433894693.197,-15.771439
1433894693.213,-14.402641
1433894693.228,-12.90201
1433894693.244,-11.186756
1433894693.26,-9.203709
1433894693.275,-6.9920635
1433894693.291,-4.656122
1433894693.306,-2.29494
1433894693.322,0.04857731
1433894693.338,2.417656
1433894693.353,4.955389
1433894693.369,7.8292065
1433894693.385,11.126663
1433894693.4,14.802263
1433894693.416,18.694359
1433894693.431,22.522858
1433894693.447,26.085117
1433894693.463,29.2974
1433894693.478,32.272682
1433894693.494,35.30841
1433894693.51,38.76198
1433894693.525,42.85018
1433894693.541,47.525875
1433894693.556,52.371582
1433894693.572,56.653584
1433894693.588,59.46433
1433894693.603,59.98787
1433894693.619,57.74593
1433894693.635,52.73177
1433894693.65,45.365368
1433894693.666,36.412533
1433894693.681,26.77554
1433894693.697,17.343903
1433894693.713,8.818405
1433894693.728,1.7067947
1433894693.744,-3.772232
1433894693.76,-7.628044
1433894693.775,-10.100861
1433894693.791,-11.548378
1433894693.806,-12.360321
1433894693.822,-12.87278
1433894693.838,-13.311501
1433894693.853,-13.760231
1433894693.869,-14.218742
1433894693.885,-14.61908
1433894693.9,-14.88578
1433894693.916,-14.997902
1433894693.931,-15.035019
1433894693.947,-15.150475
1433894693.963,-15.512856
1433894693.978,-16.220505
1433894693.994,-17.231369
1433894694.01,-18.32515
1433894694.025,-19.203644
1433894694.041,-19.570038
1433894694.056,-19.233765
1433894694.072,-18.168472
1433894694.088,-16.482254
1433894694.103,-14.3172
1433894694.119,-11.762909
1433894694.135,-8.847
1433894694.15,-5.5626373
1433894694.166,-1.9368591
1433894694.181,1.9387207
1433894694.197,5.945038
1433894694.213,9.935623
1433894694.228,13.824295
1433894694.244,17.602707
1433894694.26,21.333145
1433894694.275,25.115662
1433894694.291,29.107254
1433894694.306,33.41153
1433894694.322,38.102203
1433894694.338,43.09085
1433894694.353,48.12961
1433894694.369,52.719147
1433894694.385,56.193344
1433894694.4,57.80139
1433894694.416,56.912155
1433894694.432,53.16443
1433894694.447,46.651596
1433894694.463,37.930603
1433894694.478,27.966263
1433894694.494,17.9133
1433894694.51,8.847244
1433894694.525,1.4592285
1433894694.541,-4.0915833
1433894694.557,-8.149353
1433894694.572,-11.390808
1433894694.588,-14.473785
1433894694.603,-17.759552
1433894694.619,-21.13559
1433894694.635,-24.082092
1433894694.65,-25.976929
1433894694.666,-26.399902
1433894694.682,-25.41861
1433894694.697,-23.609558
1433894694.713,-21.874298
1433894694.728,-20.959076
1433894694.744,-21.213837
1433894694.76,-22.343903
1433894694.775,-23.590454
1433894694.791,-24.035858
1433894694.807,-23.075378
1433894694.822,-20.48346
1433894694.838,-16.505402
1433894694.853,-11.741089
1433894694.869,-6.9566345
1433894694.885,-2.9847107
1433894694.9,-0.60983276
1433894694.916,-0.27316284
1433894694.932,-1.8499146
1433894694.947,-4.371582
1433894694.963,-6.2068176
1433894694.978,-5.5289917
1433894694.994,-1.0321045
1433894695.01,7.4087524
1433894695.025,18.549866
1433894695.041,30.233673
1433894695.057,40.30005
1433894695.072,47.41086
1433894695.088,51.37619
1433894695.103,52.913757
1433894695.119,52.84674
1433894695.135,51.542267
1433894695.15,48.711487
1433894695.166,43.726776
1433894695.182,36.16107
1433894695.197,26.2276
1433894695.213,14.8489685
1433894695.228,3.4779358
1433894695.244,-6.4717712
1433894695.26,-13.954712
1433894695.275,-18.695679
1433894695.291,-21.092651
1433894695.307,-22.126709
1433894695.322,-22.873047
1433894695.338,-24.080566
1433894695.353,-25.909546
1433894695.369,-27.899536
1433894695.385,-29.346863
1433894695.4,-29.96643
1433894695.416,-30.22052
1433894695.432,-31.242249
1433894695.447,-34.187073
1433894695.463,-39.490173
1433894695.478,-46.427795
1433894695.494,-53.39032
1433894695.51,-58.630615
1433894695.525,-61.1875
1433894695.541,-61.277588
1433894695.557,-60.05786
1433894695.572,-58.864136
1433894695.588,-58.54767
1433894695.603,-58.990906
1433894695.619,-59.41736
1433894695.635,-58.946655
1433894695.65,-57.1308
1433894695.666,-54.21405
1433894695.682,-50.911194
1433894695.697,-47.955933
1433894695.713,-45.75934
1433894695.728,-44.247314
1433894695.744,-43.001343
1433894695.76,-41.421326
1433894695.775,-39.17682
1433894695.791,-36.20697
1433894695.807,-32.762085
1433894695.822,-29.228638
1433894695.838,-25.934631
1433894695.853,-23.049622
1433894695.869,-20.493225
1433894695.885,-18.060364
1433894695.9,-15.499756
1433894695.916,-12.628906
1433894695.932,-9.409546
1433894695.947,-5.9198
1433894695.963,-2.3408203
1433894695.978,1.1473999
1433894695.994,4.3875732
1433894696.01,7.3483887
1433894696.025,10.107239
1433894696.041,12.858643
1433894696.057,15.812744
1433894696.072,19.145264
1433894696.088,22.861633
1433894696.103,26.827515
1433894696.119,30.770935
1433894696.135,34.422363
1433894696.15,37.650146
1433894696.166,40.524475
1433894696.182,43.31836
1433894696.197,46.448242
1433894696.213,50.365173
1433894696.228,55.369324
1433894696.244,61.462708
1433894696.26,68.26819
1433894696.275,74.939026
1433894696.291,80.28955
1433894696.307,83.06494
1433894696.322,82.25531
1433894696.338,77.38367
1433894696.353,68.72131
1433894696.369,57.18213
1433894696.385,44.12677
1433894696.4,30.987854
1433894696.416,18.953308
1433894696.432,8.692871
1433894696.447,0.32452393
1433894696.463,-6.5442505
1433894696.478,-12.488037
1433894696.494,-18.036743
1433894696.51,-23.39978
1433894696.525,-28.483887
1433894696.541,-32.956482
1433894696.557,-36.47992
1433894696.572,-38.888
1433894696.588,-40.316467
1433894696.603,-41.065918
1433894696.619,-41.513733
1433894696.635,-41.920715
1433894696.65,-42.41858
1433894696.666,-42.997498
1433894696.682,-43.631836
1433894696.697,-44.305786
1433894696.713,-44.97168
1433894696.728,-45.522156
1433894696.744,-45.76178
1433894696.76,-45.458008
1433894696.775,-44.413757
1433894696.791,-42.56665
1433894696.807,-40.048645
1433894696.822,-37.098755
1433894696.838,-34.02411
1433894696.853,-31.065796
1433894696.869,-28.361694
1433894696.885,-25.878174
1433894696.9,-23.50586
1433894696.916,-21.099365
1433894696.932,-18.564331
1433894696.947,-15.857788
1433894696.963,-12.998169
1433894696.978,-9.9661255
1433894696.994,-6.749878
1433894697.01,-3.2843018
1433894697.025,0.48101807
1433894697.041,4.536316
1433894697.057,8.7595825
1433894697.072,12.993652
1433894697.088,17.096863
1433894697.104,21.05481
1433894697.119,25.023987
1433894697.135,29.329834
1433894697.15,34.315918
1433894697.166,40.22821
1433894697.182,47.00775
1433894697.197,54.240173
1433894697.213,61.118225
1433894697.229,66.55554
1433894697.244,69.42523
1433894697.26,68.83124
1433894697.275,64.35907
1433894697.291,56.27057
1433894697.307,45.385742
1433894697.322,32.928528
1433894697.338,20.157959
1433894697.354,8.097778
1433894697.369,-2.6796875
1433894697.385,-12.038269
1433894697.4,-20.184082
1433894697.416,-27.442383
1433894697.432,-34.08069
1433894697.447,-40.183777
1433894697.463,-45.665894
1433894697.479,-50.30182
1433894697.494,-53.873352
1433894697.51,-56.28009
1433894697.525,-57.61377
1433894697.541,-58.105774
1433894697.557,-58.0437
1433894697.572,-57.697998
1433894697.588,-57.27008
1433894697.604,-56.87549
1433894697.619,-56.61206
1433894697.635,-56.56848
1433894697.65,-56.86035
1433894697.666,-57.471497
1433894697.682,-58.320557
1433894697.697,-59.155457
1433894697.713,-59.68811
1433894697.729,-59.654846
1433894697.744,-58.943787
1433894697.76,-57.568054
1433894697.775,-55.69763
1433894697.791,-53.51111
1433894697.807,-51.165405
1433894697.822,-48.72119
1433894697.838,-46.21216
1433894697.854,-43.625
1433894697.869,-40.980957
1433894697.885,-38.34381
1433894697.9,-35.800293
1433894697.916,-33.417053
1433894697.932,-31.253662
1433894697.947,-29.284729
1433894697.963,-27.505737
1433894697.979,-25.874084
1433894697.994,-24.360535
1433894698.01,-22.902771
1433894698.025,-21.410706
1433894698.041,-19.771606
1433894698.057,-17.898071
1433894698.072,-15.775574
1433894698.088,-13.510498
1433894698.104,-11.294128
1433894698.119,-9.330017
1433894698.135,-7.737488
1433894698.15,-6.5110474
1433894698.166,-5.4870605
1433894698.182,-4.4214478
1433894698.197,-3.095459
1433894698.213,-1.4152222
1433894698.229,0.58880615
1433894698.244,2.7225342
1433894698.26,4.7977295
1433894698.275,6.7089233
1433894698.291,8.507874
1433894698.307,10.36853
1433894698.322,12.506653
1433894698.338,15.06897
1433894698.354,18.066528
1433894698.369,21.38556
1433894698.385,24.885803
1433894698.4,28.441223
1433894698.416,31.99945
1433894698.432,35.562317
1433894698.447,39.170227
1433894698.463,42.90155
1433894698.479,46.891846
1433894698.494,51.27594
1433894698.51,56.092834
1433894698.525,61.165283
1433894698.541,65.96637
1433894698.557,69.64978
1433894698.572,71.27411
1433894698.588,70.03644
1433894698.604,65.60516
1433894698.619,58.21924
1433894698.635,48.6521
1433894698.65,37.958435
1433894698.666,27.194092
1433894698.682,17.1521
1433894698.697,8.284302
1433894698.713,0.67700195
1433894698.729,-5.7980957
1433894698.744,-11.357422
1433894698.76,-16.197083
1433894698.775,-20.463928
1433894698.791,-24.200378
1433894698.807,-27.385376
1433894698.822,-29.962463
1433894698.838,-31.871704
1433894698.854,-33.078125
1433894698.869,-33.60382
1433894698.885,-33.55945
1433894698.9,-33.138916
1433894698.916,-32.556274
1433894698.932,-32.030884
1433894698.947,-31.710876
1433894698.963,-31.64447
1433894698.979,-31.81543
1433894698.994,-32.123535
1433894699.01,-32.465637
1433894699.025,-32.75348
1433894699.041,-32.86383
1433894699.057,-32.699097
1433894699.072,-32.143616
1433894699.088,-31.153687
1433894699.104,-29.752777
1433894699.119,-28.052887
1433894699.135,-26.203583
1433894699.15,-24.308441
1433894699.166,-22.40866
1433894699.182,-20.49533
1433894699.197,-18.52536
1433894699.213,-16.471313
1433894699.229,-14.368439
1433894699.244,-12.225494
1433894699.26,-10.035553
1433894699.275,-7.7810364
1433894699.291,-5.4396667
1433894699.307,-3.040039
1433894699.322,-0.65930176
1433894699.338,1.5834656
1433894699.354,3.6082458
1433894699.369,5.434967
1433894699.385,7.1381226
1433894699.4,8.856567
1433894699.416,10.750397
1433894699.432,12.900452
1433894699.447,15.347687
1433894699.463,18.040863
1433894699.479,20.878784
1433894699.494,23.697235
1433894699.51,26.38272
1433894699.525,28.853119
1433894699.541,31.174133
1433894699.557,33.54355
1433894699.572,36.263184
1433894699.588,39.596313
1433894699.604,43.635834
1433894699.619,48.13501
1433894699.635,52.483215
1433894699.65,55.76947
1433894699.666,57.068848
1433894699.682,55.6792
1433894699.697,51.40448
1433894699.713,44.633087
1433894699.729,36.191498
1433894699.744,27.126617
1433894699.76,18.359406
1433894699.776,10.525177
1433894699.791,3.8742676
1433894699.807,-1.6160889
1433894699.822,-6.101074
1433894699.838,-9.776581
1433894699.854,-12.825043
1433894699.869,-15.397827
1433894699.885,-17.609436
1433894699.901,-19.55243
1433894699.916,-21.213684
1433894699.932,-22.554016
1433894699.947,-23.46399
1433894699.963,-23.95996
1433894699.979,-24.146362
1433894699.994,-24.248383
1433894700.01,-24.528198
1433894700.026,-25.170807
1433894700.041,-26.189331
1433894700.057,-27.44812
1433894700.072,-28.686676
1433894700.088,-29.682632
1433894700.104,-30.243881
1433894700.119,-30.262665
1433894700.135,-29.71701
1433894700.151,-28.639725
1433894700.166,-27.13948
1433894700.182,-25.376663
1433894700.197,-23.515396
1433894700.213,-21.671494
1433894700.229,-19.845596
1433894700.244,-17.953384
1433894700.26,-15.891556
1433894700.276,-13.671524
1433894700.291,-11.469162
1433894700.307,-9.575851
1433894700.322,-8.257889
1433894700.338,-7.6202393
1433894700.354,-7.4797974
1433894700.369,-7.433914
1433894700.385,-7.0602875
1433894700.401,-6.1383057
1433894700.416,-4.7232666
1433894700.432,-3.204773
1433894700.447,-2.0119934
1433894700.463,-1.4181442
1433894700.479,-1.4235382
1433894700.494,-1.7789536
1433894700.51,-2.168785
1433894700.526,-2.3065186
1433894700.541,-1.8532715
1433894700.557,-0.42938232
1433894700.572,2.466095
1433894700.588,7.231102
1433894700.604,13.910957
1433894700.619,21.899261
1433894700.635,30.172134
1433894700.651,37.611095
1433894700.666,43.558765
1433894700.682,48.162926
1433894700.697,52.198273
1433894700.713,56.472786
1433894700.729,61.112694
1433894700.744,65.296875
1433894700.76,67.5295
1433894700.776,66.502396
1433894700.791,61.85439
1433894700.807,54.35774
1433894700.822,45.715103
1433894700.838,37.58588
1433894700.854,30.945026
1433894700.869,25.842167
1433894700.885,21.708971
1433894700.901,17.800423
1433894700.916,13.647432
1433894700.932,9.062332
1433894700.947,4.018297
1433894700.963,-1.4252377
1433894700.979,-7.143379
1433894700.994,-12.772177
1433894701.01,-17.70319
1433894701.026,-21.315678
1433894701.041,-23.264889
1433894701.057,-23.716476
1433894701.072,-23.296967
1433894701.088,-22.749874
1433894701.104,-22.469872
1433894701.119,-22.552055
1433894701.135,-22.766464
1433894701.151,-22.92044
1433894701.166,-23.025948
1433894701.182,-23.24627
1433894701.197,-23.674583
1433894701.213,-24.170807
1433894701.229,-24.382668
1433894701.244,-23.922989
1433894701.26,-22.646606
1433894701.276,-20.681992
1433894701.291,-18.314934
1433894701.307,-15.976074
1433894701.322,-13.905952
1433894701.338,-12.151123
1433894701.354,-10.56707
1433894701.369,-8.906647
1433894701.385,-6.957573
1433894701.401,-4.6080704
1433894701.416,-1.9192276
1433894701.432,0.9091339
1433894701.447,3.6075287
1433894701.463,5.927292
1433894701.479,7.7615356
1433894701.494,9.132462
1433894701.51,10.246887
1433894701.526,11.356445
1433894701.541,12.660507
1433894701.557,14.261124
1433894701.572,16.137619
1433894701.588,18.153595
1433894701.604,20.182037
1433894701.619,22.120102
1433894701.635,23.945465
1433894701.651,25.669678
1433894701.666,27.38652
1433894701.682,29.227951
1433894701.697,31.35672
1433894701.713,33.952927
1433894701.729,37.09494
1433894701.744,40.6828
1433894701.76,44.344635
1433894701.776,47.38939
1433894701.791,49.051147
1433894701.807,48.64894
1433894701.822,45.88704
1433894701.838,40.954697
1433894701.854,34.506683
1433894701.869,27.425964
1433894701.885,20.58606
1433894701.901,14.609741
1433894701.916,9.767853
1433894701.932,6.031723
1433894701.947,3.1790466
1433894701.963,0.92214966
1433894701.979,-0.9363861
1433894701.994,-2.5170898
1433894702.01,-3.8337097
1433894702.026,-4.8447113
1433894702.041,-5.520279
1433894702.057,-5.9324036
1433894702.072,-6.188492
1433894702.088,-6.4693756
1433894702.104,-6.8899994
1433894702.119,-7.501007
1433894702.135,-8.250336
1433894702.151,-9.05368
1433894702.166,-9.820435
1433894702.182,-10.522003
1433894702.197,-11.182037
1433894702.213,-11.829315
1433894702.229,-12.476074
1433894702.244,-13.096832
1433894702.26,-13.599213
1433894702.276,-13.864502
1433894702.291,-13.76944
1433894702.307,-13.174683
1433894702.322,-12.004089
1433894702.338,-10.265381
1433894702.354,-8.066956
1433894702.369,-5.6149597
1433894702.385,-3.1395264
1433894702.401,-0.8197937
1433894702.416,1.2886047
1433894702.432,3.2259216
1433894702.448,5.144623
1433894702.463,7.1648254
1433894702.479,9.352051
1433894702.494,11.690399
1433894702.51,14.068909
1433894702.526,16.318756
1433894702.541,18.306244
1433894702.557,19.967834
1433894702.572,21.407349
1433894702.588,22.886322
1433894702.604,24.73526
1433894702.619,27.29483
1433894702.635,30.723297
1433894702.651,34.900635
1433894702.666,39.451233
1433894702.682,43.76587
1433894702.698,47.14978
1433894702.713,48.9386
1433894702.729,48.638306
1433894702.744,46.03192
