1430865727.647,0.0
1430865727.663,0.0
1430865727.679,0.0
1430865727.694,0.0
1430865727.71,0.0
1430865727.726,0.0
1430865727.741,0.0
1430865727.757,0.0
1430865727.772,0.0
1430865727.788,-9.126058E-4
1430865727.804,-0.010574013
1430865727.819,-0.018788237
1430865727.835,-0.015548423
1430865727.851,0.0073548155
1430865727.866,0.046085976
1430865727.882,0.077842526
1430865727.897,0.06520581
1430865727.913,-0.026594568
1430865727.929,-0.20856725
1430865727.944,-0.46136454
1430865727.96,-0.71795297
1430865727.976,-0.90858835
1430865727.991,-0.99426395
1430865728.007,-0.9950782
1430865728.022,-0.9901163
1430865728.038,-1.0845691
1430865728.054,-1.3590018
1430865728.069,-1.8298949
1430865728.085,-2.4551015
1430865728.101,-3.1017914
1430865728.116,-3.6422782
1430865728.132,-4.0036654
1430865728.147,-4.209487
1430865728.163,-4.3781624
1430865728.179,-4.672562
1430865728.194,-5.2200565
1430865728.21,-6.047352
1430865728.226,-7.0992026
1430865728.241,-8.113682
1430865728.257,-8.835066
1430865728.272,-9.116438
1430865728.288,-9.029671
1430865728.304,-8.881463
1430865728.319,-9.103099
1430865728.335,-10.0472555
1430865728.351,-11.805724
1430865728.366,-14.221011
1430865728.382,-16.648098
1430865728.397,-18.446465
1430865728.413,-19.250767
1430865728.429,-19.22906
1430865728.444,-19.101364
1430865728.46,-19.860163
1430865728.476,-22.295422
1430865728.491,-26.58276
1430865728.507,-32.277798
1430865728.522,-38.02415
1430865728.538,-42.48975
1430865728.554,-44.935883
1430865728.569,-45.678528
1430865728.585,-46.061947
1430865728.601,-47.893333
1430865728.616,-52.569923
1430865728.632,-60.36216
1430865728.648,-70.39198
1430865728.663,-80.4039
1430865728.679,-88.21494
1430865728.694,-92.65337
1430865728.71,-94.21742
1430865728.726,-94.9479
1430865728.741,-97.52152
1430865728.757,-103.79241
1430865728.773,-112.70146
1430865728.788,-124.74964
1430865728.804,-138.67012
1430865728.819,-153.01282
1430865728.835,-165.56435
1430865728.851,-172.88023
1430865728.866,-170.80646
1430865728.882,-156.3942
1430865728.898,-130.27086
1430865728.913,-97.73055
1430865728.929,-67.35538
1430865728.944,-46.3983
1430865728.96,-37.104965
1430865728.976,-34.884293
1430865728.991,-30.353134
1430865729.007,-14.090576
1430865729.023,18.661163
1430865729.038,66.12569
1430865729.054,121.772
1430865729.069,178.12221
1430865729.085,230.75125
1430865729.101,278.85168
1430865729.116,323.5774
1430865729.132,365.3374
1430865729.148,402.21796
1430865729.163,430.46487
1430865729.179,446.36453
1430865729.194,448.24927
1430865729.21,437.03305
1430865729.226,415.7307
1430865729.241,387.9244
1430865729.257,356.31754
1430865729.273,321.93762
1430865729.288,284.58423
1430865729.304,243.67322
1430865729.319,199.22726
1430865729.335,152.47507
1430865729.351,105.71275
1430865729.366,61.790573
1430865729.382,23.086533
1430865729.398,-9.229492
1430865729.413,-35.400818
1430865729.429,-56.70027
1430865729.444,-74.72577
1430865729.46,-90.68062
1430865729.476,-104.95743
1430865729.491,-117.20534
1430865729.507,-126.66835
1430865729.523,-132.72987
1430865729.538,-135.32632
1430865729.554,-135.02226
1430865729.569,-132.7856
1430865729.585,-129.63031
1430865729.601,-126.27347
1430865729.616,-122.96991
1430865729.632,-119.579056
1430865729.648,-115.7733
1430865729.663,-111.27016
1430865729.679,-106.01873
1430865729.694,-100.212265
1430865729.71,-94.177505
1430865729.726,-88.23777
1430865729.741,-82.595634
1430865729.757,-77.29748
1430865729.773,-72.27434
1430865729.788,-67.4267
1430865729.804,-62.673454
1430865729.819,-57.999687
1430865729.835,-53.43863
1430865729.851,-49.044167
1430865729.866,-44.85533
1430865729.882,-40.892357
1430865729.898,-37.154377
1430865729.913,-33.61742
1430865729.929,-30.281807
1430865729.944,-27.148918
1430865729.96,-24.223423
1430865729.976,-21.507343
1430865729.991,-19.000843
1430865730.007,-16.704758
1430865730.023,-14.617756
1430865730.038,-12.734842
1430865730.054,-11.045023
1430865730.069,-9.54896
1430865730.085,-8.232366
1430865730.101,-7.07957
1430865730.116,-6.0807343
1430865730.132,-5.218335
1430865730.148,-4.4756947
1430865730.163,-3.8424969
1430865730.179,-3.308774
1430865730.194,-2.8514776
1430865730.21,-2.4708862
1430865730.226,-2.152913
1430865730.241,-1.8869495
1430865730.257,-1.6642971
1430865730.273,-1.4794211
1430865730.288,-1.3201656
1430865730.304,-1.1877818
1430865730.319,-1.0785427
1430865730.335,-0.9816842
1430865730.351,-0.9024596
1430865730.366,-0.83057976
1430865730.382,-0.7732167
1430865730.398,-0.72121906
1430865730.413,-0.67639065
1430865730.429,-0.63298607
1430865730.444,-0.597105
1430865730.46,-0.5652909
1430865730.476,-0.532763
1430865730.491,-0.5053563
1430865730.507,-0.48100615
1430865730.523,-0.45738125
1430865730.538,-0.43615246
1430865730.554,-0.41744232
1430865730.569,-0.39714718
1430865730.585,-0.38026953
1430865730.601,-0.36699152
1430865730.616,-0.34910774
1430865730.632,-0.33499265
1430865730.648,-0.32148433
1430865730.663,-0.3085873
1430865730.679,-0.29776454
1430865730.694,-0.28767872
1430865730.71,-0.27628207
1430865730.726,-0.26519012
1430865730.741,-0.25618505
1430865730.757,-0.24631214
1430865730.773,-0.23830771
1430865730.788,-0.23267555
1430865730.804,-0.2246387
1430865730.819,-0.22356105
1430865730.835,-0.22164822
1430865730.851,-0.22649169
1430865730.866,-0.23010278
1430865730.882,-0.24306011
1430865730.898,-0.25599527
1430865730.913,-0.27422452
1430865730.929,-0.2982247
1430865730.944,-0.32255864
1430865730.96,-0.3519013
1430865730.976,-0.3834436
1430865730.991,-0.41656828
1430865731.007,-0.44891858
1430865731.023,-0.48887777
1430865731.038,-0.5220208
1430865731.054,-0.56306267
1430865731.069,-0.5997782
1430865731.085,-0.644212
1430865731.101,-0.6899047
1430865731.116,-0.734339
1430865731.132,-0.78731155
1430865731.148,-0.84491014
1430865731.163,-0.908515
1430865731.179,-0.9803245
1430865731.194,-1.0536273
1430865731.21,-1.1427255
1430865731.226,-1.2373059
1430865731.241,-1.3487046
1430865731.257,-1.4696958
1430865731.273,-1.6071568
1430865731.288,-1.7604868
1430865731.304,-1.9281716
1430865731.32,-2.119516
1430865731.335,-2.3283267
1430865731.351,-2.5596852
1430865731.366,-2.8151665
1430865731.382,-3.099114
1430865731.398,-3.4037466
1430865731.413,-3.7461452
1430865731.429,-4.109794
1430865731.445,-4.5086656
1430865731.46,-4.94604
1430865731.476,-5.4023156
1430865731.491,-5.903399
1430865731.507,-6.442025
1430865731.523,-7.011483
1430865731.538,-7.6237736
1430865731.554,-8.274354
1430865731.57,-8.959341
1430865731.585,-9.68002
1430865731.601,-10.442486
1430865731.616,-11.245811
1430865731.632,-12.101534
1430865731.648,-13.026183
1430865731.663,-14.003047
1430865731.679,-15.020491
1430865731.695,-16.061583
1430865731.71,-17.087101
1430865731.726,-18.078136
1430865731.741,-18.985846
1430865731.757,-19.773592
1430865731.773,-20.386723
1430865731.788,-20.727972
1430865731.804,-20.695185
1430865731.82,-20.169752
1430865731.835,-19.034027
1430865731.851,-17.244741
1430865731.866,-14.775938
1430865731.882,-11.717203
1430865731.898,-8.158112
1430865731.913,-4.299244
1430865731.929,-0.33891678
1430865731.945,3.559826
1430865731.96,7.2398224
1430865731.976,10.622093
1430865731.991,13.59705
1430865732.007,16.106354
1430865732.023,18.065876
1430865732.038,19.397144
1430865732.054,20.056057
1430865732.07,20.09032
1430865732.085,19.619247
1430865732.101,18.860344
1430865732.116,18.064312
1430865732.132,17.420723
1430865732.148,17.011559
1430865732.163,16.752151
1430865732.179,16.462349
1430865732.195,15.925991
1430865732.21,15.042858
1430865732.226,13.891277
1430865732.241,12.7283745
1430865732.257,11.877937
1430865732.273,11.596764
1430865732.288,11.917946
1430865732.304,12.627674
1430865732.32,13.315414
1430865732.335,13.57074
1430865732.351,13.202938
1430865732.366,12.368557
1430865732.382,11.488449
1430865732.398,11.134628
1430865732.413,11.741173
1430865732.429,13.36985
1430865732.445,15.673973
1430865732.46,18.005863
1430865732.476,19.8023
1430865732.491,20.756844
1430865732.507,20.97686
1430865732.523,20.917343
1430865732.538,21.134323
1430865732.554,22.126778
1430865732.57,24.281212
1430865732.585,27.887924
1430865732.601,32.96249
1430865732.616,38.881504
1430865732.632,44.19009
1430865732.648,46.628887
1430865732.663,43.907944
1430865732.679,34.70867
1430865732.695,19.569172
1430865732.71,0.9757347
1430865732.726,-17.503597
1430865732.741,-32.54609
1430865732.757,-42.36908
1430865732.773,-47.020958
1430865732.788,-47.93601
1430865732.804,-46.907166
1430865732.82,-45.15359
1430865732.835,-43.11495
1430865732.851,-40.756054
1430865732.866,-38.037758
1430865732.882,-35.10731
1430865732.898,-32.43318
1430865732.913,-30.02459
1430865732.929,-27.366764
1430865732.945,-23.653816
1430865732.96,-18.264915
1430865732.976,-11.063648
1430865732.991,-2.6634636
1430865733.007,5.8434486
1430865733.023,13.355358
1430865733.038,19.28247
1430865733.054,23.813873
1430865733.07,27.814327
1430865733.085,32.5333
1430865733.101,39.14243
1430865733.116,48.211246
1430865733.132,59.302914
1430865733.148,70.73659
1430865733.163,79.91318
1430865733.179,83.901566
1430865733.195,80.40503
1430865733.21,68.57006
1430865733.226,49.29531
1430865733.241,24.983284
1430865733.257,-1.1514091
1430865733.273,-26.021437
1430865733.288,-47.266266
1430865733.304,-63.54913
1430865733.32,-74.35218
1430865733.335,-79.74251
1430865733.351,-80.17615
1430865733.366,-76.50391
1430865733.382,-69.948235
1430865733.398,-62.006256
1430865733.413,-54.18289
1430865733.429,-47.580063
1430865733.445,-42.63087
1430865733.46,-39.101776
1430865733.476,-36.333263
1430865733.491,-33.6743
1430865733.507,-30.753666
1430865733.523,-27.608305
1430865733.538,-24.459658
1430865733.554,-21.392714
1430865733.57,-18.2419
1430865733.585,-14.578571
1430865733.601,-9.9421425
1430865733.616,-4.187585
1430865733.632,2.498909
1430865733.648,9.606028
1430865733.663,16.601343
1430865733.679,23.190287
1430865733.695,29.403831
1430865733.71,35.665497
1430865733.726,42.598885
1430865733.741,50.88504
1430865733.757,60.996742
1430865733.773,72.88417
1430865733.788,85.6958
1430865733.804,97.64779
1430865733.82,106.29554
1430865733.835,109.06531
1430865733.851,104.052216
1430865733.866,90.68856
1430865733.882,69.99013
1430865733.898,44.283226
1430865733.913,16.5615
1430865733.929,-10.28526
1430865733.945,-33.999702
1430865733.96,-53.16161
1430865733.976,-67.087814
1430865733.992,-75.67267
1430865734.007,-79.28464
1430865734.023,-78.71192
1430865734.038,-75.126335
1430865734.054,-69.84881
1430865734.07,-64.060875
1430865734.085,-58.581207
1430865734.101,-53.644733
1430865734.116,-49.178596
1430865734.132,-44.964752
1430865734.148,-40.909615
1430865734.163,-37.080822
1430865734.179,-33.62569
1430865734.195,-30.483969
1430865734.21,-27.314835
1430865734.226,-23.543133
1430865734.242,-18.630499
1430865734.257,-12.334976
1430865734.273,-4.8524303
1430865734.288,3.2884202
1430865734.304,11.447615
1430865734.32,19.173958
1430865734.335,26.357502
1430865734.351,33.229343
1430865734.367,40.23376
1430865734.382,47.976566
1430865734.398,57.0604
1430865734.413,67.936615
1430865734.429,80.62741
1430865734.445,94.343056
1430865734.46,107.26656
1430865734.476,116.77214
1430865734.492,120.035065
1430865734.507,114.97311
1430865734.523,101.03383
1430865734.538,79.50879
1430865734.554,53.1426
1430865734.57,25.278036
1430865734.585,-1.1574154
1430865734.601,-24.219852
1430865734.617,-43.07875
1430865734.632,-57.59479
1430865734.648,-67.91837
1430865734.663,-74.20443
1430865734.679,-76.72452
1430865734.695,-76.00819
1430865734.71,-72.967575
1430865734.726,-68.72226
1430865734.742,-64.285904
1430865734.757,-60.27853
1430865734.773,-56.832558
1430865734.788,-53.733685
1430865734.804,-50.71134
1430865734.82,-47.63022
1430865734.835,-44.5636
1430865734.851,-41.588684
1430865734.867,-38.6124
1430865734.882,-35.241013
1430865734.898,-30.937916
1430865734.913,-25.252895
1430865734.929,-17.983105
1430865734.945,-9.294304
1430865734.96,0.31529617
1430865734.976,10.201904
1430865734.992,19.746262
1430865735.007,28.520824
1430865735.023,36.439026
1430865735.038,43.852562
1430865735.054,51.52879
1430865735.07,60.45633
1430865735.085,71.42109
1430865735.101,84.48435
1430865735.117,98.521545
1430865735.132,111.22537
1430865735.148,119.563705
1430865735.163,120.697044
1430865735.179,112.93769
1430865735.195,96.384224
1430865735.21,72.89061
1430865735.226,45.421616
1430865735.242,17.113365
1430865735.257,-9.469864
1430865735.273,-32.70005
1430865735.288,-51.746826
1430865735.304,-66.26064
1430865735.32,-76.03979
1430865735.335,-81.12001
1430865735.351,-81.87746
1430865735.367,-79.26697
1430865735.382,-74.701805
1430865735.398,-69.726265
1430865735.413,-65.52435
1430865735.429,-62.587143
1430865735.445,-60.665787
1430865735.46,-59.05825
1430865735.476,-57.077522
1430865735.492,-54.387985
1430865735.507,-51.11738
1430865735.523,-47.657684
1430865735.538,-44.326736
1430865735.554,-41.114067
1430865735.57,-37.575294
1430865735.585,-33.064316
1430865735.601,-27.00763
1430865735.617,-19.270866
1430865735.632,-10.299339
1430865735.648,-0.9016495
1430865735.663,7.9804306
1430865735.679,15.723824
1430865735.695,22.26892
1430865735.71,28.183662
1430865735.726,34.45665
1430865735.742,42.190742
1430865735.757,52.269554
1430865735.773,64.99413
1430865735.788,79.78922
1430865735.804,95.024055
1430865735.82,108.13947
1430865735.835,116.1282
1430865735.851,116.385666
1430865735.867,107.53324
1430865735.882,89.94901
1430865735.898,65.67346
1430865735.913,37.775116
1430865735.929,9.385605
1430865735.945,-17.002937
1430865735.96,-39.84172
1430865735.976,-58.37715
1430865735.992,-72.25757
1430865736.007,-81.372955
1430865736.023,-85.896225
1430865736.038,-86.40175
1430865736.054,-84.01057
1430865736.07,-80.15661
1430865736.085,-76.21113
1430865736.101,-73.07939
1430865736.117,-71.00857
1430865736.132,-69.654106
1430865736.148,-68.33055
1430865736.163,-66.39987
1430865736.179,-63.53157
1430865736.195,-59.828796
1430865736.21,-55.704544
1430865736.226,-51.63704
1430865736.242,-47.88337
1430865736.257,-44.315285
1430865736.273,-40.425133
1430865736.288,-35.53425
1430865736.304,-29.111748
1430865736.32,-21.02037
1430865736.335,-11.682327
1430865736.351,-1.9043884
1430865736.367,7.400322
1430865736.382,15.579781
1430865736.398,22.463829
1430865736.413,28.43393
1430865736.429,34.31012
1430865736.445,41.14982
1430865736.46,49.964653
1430865736.476,61.31701
1430865736.492,74.9431
1430865736.507,89.44091
1430865736.523,102.31609
1430865736.538,110.58026
1430865736.554,111.612076
1430865736.57,104.06923
1430865736.585,88.35888
1430865736.601,66.46148
1430865736.617,41.169395
1430865736.632,15.244873
1430865736.648,-9.2276535
1430865736.664,-30.895164
1430865736.679,-48.87397
1430865736.695,-62.480682
1430865736.71,-71.181335
1430865736.726,-74.87304
1430865736.742,-74.15678
1430865736.757,-70.37388
1430865736.773,-65.26533
1430865736.788,-60.406517
1430865736.804,-56.741028
1430865736.82,-54.35585
1430865736.835,-52.77231
1430865736.851,-51.34484
1430865736.867,-49.640327
1430865736.882,-47.62329
1430865736.898,-45.523926
1430865736.914,-43.548386
1430865736.929,-41.69052
1430865736.945,-39.614693
1430865736.96,-36.83446
1430865736.976,-32.867237
1430865736.992,-27.405273
1430865737.007,-20.414436
1430865737.023,-12.136349
1430865737.039,-3.0088234
1430865737.054,6.381935
1430865737.07,15.4650345
1430865737.085,23.812424
1430865737.101,31.280842
1430865737.117,38.048298
1430865737.132,44.673973
1430865737.148,51.941975
1430865737.164,60.662727
1430865737.179,71.356445
1430865737.195,83.88023
1430865737.21,97.1698
1430865737.226,109.201096
1430865737.242,117.34749
1430865737.257,119.10569
1430865737.273,112.85072
1430865737.289,98.45308
1430865737.304,77.335686
1430865737.32,52.029747
1430865737.335,25.40383
1430865737.351,-0.06349373
1430865737.367,-22.553823
1430865737.382,-40.93543
1430865737.398,-54.53495
1430865737.414,-63.04624
1430865737.429,-66.62697
1430865737.445,-66.00207
1430865737.46,-62.491722
1430865737.476,-57.726334
1430865737.492,-53.207565
1430865737.507,-49.86087
1430865737.523,-47.888027
1430865737.539,-46.834656
1430865737.554,-45.99598
1430865737.57,-44.742504
1430865737.585,-42.827053
1430865737.601,-40.35907
1430865737.617,-37.65877
1430865737.632,-35.010868
1430865737.648,-32.440777
1430865737.664,-29.658129
1430865737.679,-26.155266
1430865737.695,-21.385422
1430865737.71,-15.002066
1430865737.726,-7.054475
1430865737.742,1.993238
1430865737.757,11.506763
1430865737.773,20.871601
1430865737.789,29.749338
1430865737.804,38.145596
1430865737.82,46.40172
1430865737.835,55.02516
1430865737.851,64.62615
1430865737.867,75.59293
1430865737.882,87.862564
1430865737.898,100.57873
1430865737.914,111.96645
1430865737.929,119.54153
1430865737.945,120.784
1430865737.96,113.93186
1430865737.976,98.732315
1430865737.992,76.590065
1430865738.007,50.16912
1430865738.023,22.528488
1430865738.039,-3.6688719
1430865738.054,-26.684168
1430865738.07,-45.663612
1430865738.085,-60.33106
1430865738.101,-70.63899
1430865738.117,-76.65981
1430865738.132,-78.69629
1430865738.148,-77.48052
1430865738.164,-74.1281
1430865738.179,-70.00853
1430865738.195,-66.256195
1430865738.21,-63.445274
1430865738.226,-61.4116
1430865738.242,-59.496246
1430865738.257,-56.958817
1430865738.273,-53.47625
1430865738.289,-49.315247
1430865738.304,-45.184998
1430865738.32,-41.792713
1430865738.335,-39.36356
1430865738.351,-37.40899
1430865738.367,-34.917095
1430865738.382,-30.83449
1430865738.398,-24.5475
1430865738.414,-16.181057
1430865738.429,-6.479862
1430865738.445,3.5590267
1430865738.46,13.08934
1430865738.476,21.78873
1430865738.492,29.77945
1430865738.507,37.55425
1430865738.523,45.737446
1430865738.539,54.932583
1430865738.554,65.61831
1430865738.57,77.99608
1430865738.585,91.754074
1430865738.601,105.765274
1430865738.617,117.98536
1430865738.632,125.770996
1430865738.648,126.52408
1430865738.664,118.58093
1430865738.679,101.94878
1430865738.695,78.34704
1430865738.71,50.72964
1430865738.726,22.360035
1430865738.742,-4.09774
1430865738.757,-27.00801
1430865738.773,-45.731823
1430865738.789,-60.149666
1430865738.804,-70.33597
1430865738.82,-76.35834
1430865738.835,-78.48796
1430865738.851,-77.38625
1430865738.867,-74.18034
1430865738.882,-70.215034
1430865738.898,-66.67595
1430865738.914,-64.188385
1430865738.929,-62.697155
1430865738.945,-61.63594
1430865738.96,-60.265194
1430865738.976,-58.00885
1430865738.992,-54.694397
1430865739.007,-50.543327
1430865739.023,-46.050236
1430865739.039,-41.69221
1430865739.054,-37.734787
1430865739.07,-34.041824
1430865739.085,-30.172771
1430865739.101,-25.485806
1430865739.117,-19.51764
1430865739.132,-12.162399
1430865739.148,-3.7629967
1430865739.164,5.01239
1430865739.179,13.490089
1430865739.195,21.281929
1430865739.21,28.410606
1430865739.226,35.31543
1430865739.242,42.684685
1430865739.257,51.269684
1430865739.273,61.61371
1430865739.289,73.83718
1430865739.304,87.37264
1430865739.32,100.769554
1430865739.335,111.77404
1430865739.351,117.822266
1430865739.367,116.69295
1430865739.382,107.306595
1430865739.398,90.07738
1430865739.414,66.88745
1430865739.429,40.482742
1430865739.445,13.699249
1430865739.46,-11.159058
1430865739.476,-32.653084
1430865739.492,-50.098145
1430865739.507,-63.30471
1430865739.523,-72.31351
1430865739.539,-77.33171
1430865739.554,-78.7663
1430865739.57,-77.32693
1430865739.586,-74.03019
1430865739.601,-70.00275
1430865739.617,-66.22877
1430865739.632,-63.33008
1430865739.648,-61.38172
1430865739.664,-59.99578
1430865739.679,-58.591057
1430865739.695,-56.59877
1430865739.711,-53.827065
1430865739.726,-50.42405
1430865739.742,-46.78856
1430865739.757,-43.29534
1430865739.773,-40.077446
1430865739.789,-36.901085
1430865739.804,-33.180313
1430865739.82,-28.240929
1430865739.836,-21.618935
1430865739.851,-13.318359
1430865739.867,-3.9106827
1430865739.882,5.6598053
1430865739.898,14.416855
1430865739.914,21.776657
1430865739.929,27.776978
1430865739.945,33.078613
1430865739.961,38.65602
1430865739.976,45.563416
1430865739.992,54.560974
1430865740.007,65.94751
1430865740.023,79.33786
1430865740.039,93.59888
1430865740.054,106.792175
1430865740.07,116.44789
1430865740.086,120.092834
1430865740.101,115.90907
1430865740.117,103.4146
1430865740.132,83.676636
1430865740.148,59.098404
1430865740.164,32.72545
1430865740.179,7.369812
1430865740.195,-14.831436
1430865740.211,-32.714294
1430865740.226,-45.872574
1430865740.242,-54.41861
1430865740.257,-58.770187
1430865740.273,-59.568054
1430865740.289,-57.688095
1430865740.304,-54.196075
1430865740.32,-50.182327
1430865740.336,-46.5775
1430865740.351,-43.968536
1430865740.367,-42.468063
1430865740.382,-41.804123
1430865740.398,-41.507355
1430865740.414,-41.129898
1430865740.429,-40.45146
1430865740.445,-39.363068
1430865740.461,-37.848877
1430865740.476,-35.753937
1430865740.492,-32.817993
1430865740.507,-28.75441
1430865740.523,-23.380585
1430865740.539,-16.7975
1430865740.554,-9.373199
1430865740.57,-1.6317444
1430865740.586,5.9437714
1430865740.601,13.014236
1430865740.617,19.502579
1430865740.632,25.606339
1430865740.648,31.692764
1430865740.664,38.26265
1430865740.679,45.879654
1430865740.695,55.02559
1430865740.711,65.87273
1430865740.726,78.027954
1430865740.742,90.27489
1430865740.757,100.63631
1430865740.773,106.69844
1430865740.789,106.2811
1430865740.804,98.18199
1430865740.82,82.62465
1430865740.836,61.350998
1430865740.851,37.0513
1430865740.867,12.634567
1430865740.882,-9.560486
1430865740.898,-28.13092
1430865740.914,-42.434097
1430865740.929,-52.43799
1430865740.945,-58.317963
1430865740.961,-60.433395
1430865740.976,-59.436478
1430865740.992,-56.334198
1430865741.007,-52.368942
1430865741.023,-48.583725
1430865741.039,-45.490555
1430865741.054,-42.978912
1430865741.07,-40.554047
1430865741.086,-37.779907
1430865741.101,-34.66263
1430865741.117,-31.66623
1430865741.132,-29.36969
1430865741.148,-28.089355
1430865741.164,-27.573486
1430865741.179,-27.06076
1430865741.195,-25.578934
1430865741.211,-22.304214
1430865741.226,-16.8544
1430865741.242,-9.396606
1430865741.257,-0.51408386
1430865741.273,9.029236
1430865741.289,18.45375
1430865741.304,27.296143
1430865741.32,35.408676
1430865741.336,43.036316
1430865741.351,50.78514
1430865741.367,59.39154
1430865741.382,69.41803
1430865741.398,80.80826
1430865741.414,92.74283
1430865741.429,103.524414
1430865741.445,110.92085
1430865741.461,112.70094
1430865741.476,107.29065
1430865741.492,94.26088
1430865741.507,74.50673
1430865741.523,50.091934
1430865741.539,23.683441
1430865741.554,-2.0161438
1430865741.57,-24.770248
1430865741.586,-43.120422
1430865741.601,-56.391464
1430865741.617,-64.63736
1430865741.632,-68.431656
1430865741.648,-68.763504
1430865741.664,-66.78546
1430865741.679,-63.679413
1430865741.695,-60.369934
1430865741.711,-57.422256
1430865741.726,-54.97989
1430865741.742,-52.82524
1430865741.757,-50.581802
1430865741.773,-47.969772
1430865741.789,-45.004227
1430865741.804,-41.818954
1430865741.82,-38.616455
1430865741.836,-35.44078
1430865741.851,-31.988098
1430865741.867,-27.783585
1430865741.882,-22.307587
1430865741.898,-15.334656
1430865741.914,-7.0273895
1430865741.929,2.060196
1430865741.945,11.233994
1430865741.961,19.868286
1430865741.976,27.655136
1430865741.992,34.68857
1430865742.007,41.406357
1430865742.023,48.533005
1430865742.039,56.863983
1430865742.054,67.045044
1430865742.07,79.147766
1430865742.086,92.40094
1430865742.101,104.98863
1430865742.117,114.25519
1430865742.132,117.47885
1430865742.148,112.6001
1430865742.164,99.09532
1430865742.179,78.1707
1430865742.195,52.41945
1430865742.211,24.951843
1430865742.226,-1.4474335
1430865742.242,-24.762451
1430865742.258,-43.82788
1430865742.273,-58.072067
1430865742.289,-67.34343
1430865742.304,-71.91562
1430865742.32,-72.56183
1430865742.336,-70.58156
1430865742.351,-67.46701
1430865742.367,-64.51442
1430865742.383,-62.35768
1430865742.398,-60.909744
1430865742.414,-59.572952
1430865742.429,-57.709885
1430865742.445,-54.996094
1430865742.461,-51.616394
1430865742.476,-48.003113
1430865742.492,-44.62114
1430865742.508,-41.626602
1430865742.523,-38.80748
1430865742.539,-35.681427
1430865742.554,-31.668243
1430865742.57,-26.372482
1430865742.586,-19.683777
1430865742.601,-11.851776
1430865742.617,-3.3972778
1430865742.633,5.1509094
1430865742.648,13.4028015
1430865742.664,21.243439
1430865742.679,28.838638
1430865742.695,36.615616
1430865742.711,45.139984
1430865742.726,55.044495
1430865742.742,66.68106
1430865742.758,79.74545
1430865742.773,92.96373
1430865742.789,104.07063
1430865742.804,110.270584
1430865742.82,109.132385
1430865742.836,99.46796
1430865742.851,81.81999
1430865742.867,58.3118
1430865742.883,31.97322
1430865742.898,5.751602
1430865742.914,-18.083908
1430865742.929,-38.237198
1430865742.945,-54.11827
1430865742.961,-65.57878
1430865742.976,-72.612335
1430865742.992,-75.47679
1430865743.008,-74.77614
1430865743.023,-71.53641
1430865743.039,-67.085724
1430865743.054,-62.668915
1430865743.07,-59.092697
1430865743.086,-56.505447
1430865743.101,-54.475754
1430865743.117,-52.333878
1430865743.133,-49.560165
1430865743.148,-46.14833
1430865743.164,-42.530396
1430865743.179,-39.32808
1430865743.195,-36.88063
1430865743.211,-35.004242
1430865743.226,-32.944046
1430865743.242,-29.720383
1430865743.258,-24.607224
1430865743.273,-17.438019
1430865743.289,-8.722244
1430865743.304,0.6527252
1430865743.32,9.749054
1430865743.336,17.973572
1430865743.351,25.23671
1430865743.367,31.90532
1430865743.383,38.659058
1430865743.398,46.2482
1430865743.414,55.334274
1430865743.429,66.163635
1430865743.445,78.33531
1430865743.461,90.57602
1430865743.476,100.79161
1430865743.492,106.421005
1430865743.508,105.16753
1430865743.523,95.751755
1430865743.539,78.467285
1430865743.554,55.165787
1430865743.57,28.759476
1430865743.586,2.424591
1430865743.601,-21.135178
1430865743.617,-40.220276
1430865743.633,-54.05194
1430865743.648,-62.675644
1430865743.664,-66.603485
1430865743.679,-66.68373
1430865743.695,-63.942947
1430865743.711,-59.548035
1430865743.726,-54.646408
1430865743.742,-50.162994
1430865743.758,-46.65352
1430865743.773,-44.23625
1430865743.789,-42.658493
1430865743.804,-41.43715
1430865743.82,-40.14601
1430865743.836,-38.542618
1430865743.851,-36.575256
1430865743.867,-34.291245
1430865743.883,-31.665115
1430865743.898,-28.504745
1430865743.914,-24.493439
1430865743.929,-19.337463
1430865743.945,-12.915939
1430865743.961,-5.368271
1430865743.976,2.9467468
1430865743.992,11.591187
1430865744.008,20.187027
1430865744.023,28.511963
1430865744.039,36.584854
1430865744.054,44.69226
1430865744.07,53.36783
1430865744.086,63.225372
1430865744.101,74.578735
1430865744.117,86.96904
1430865744.133,98.922165
1430865744.148,108.00659
1430865744.164,111.45842
1430865744.179,107.117935
1430865744.195,94.24837
1430865744.211,73.91144
1430865744.226,48.69934
1430865744.242,21.909546
1430865744.258,-3.3748016
1430865744.273,-24.957764
1430865744.289,-41.664764
1430865744.304,-53.156708
1430865744.32,-59.613556
1430865744.336,-61.530167
1430865744.351,-59.671494
1430865744.367,-55.120697
1430865744.383,-49.15155
1430865744.398,-43.07779
1430865744.414,-37.9144
1430865744.429,-34.20836
1430865744.445,-31.918045
1430865744.461,-30.572922
1430865744.476,-29.518478
1430865744.492,-28.225616
1430865744.508,-26.439102
1430865744.523,-24.145248
1430865744.539,-21.423203
1430865744.554,-18.351242
1430865744.57,-14.7847595
1430865744.586,-10.541893
1430865744.601,-5.454651
1430865744.617,0.47934723
1430865744.633,7.0822296
1430865744.648,14.039612
1430865744.664,21.068054
1430865744.679,28.185722
1430865744.695,35.79619
1430865744.711,44.588936
1430865744.726,55.28244
1430865744.742,68.136116
1430865744.758,82.54224
1430865744.773,96.802
1430865744.789,108.39969
1430865744.804,114.542114
1430865744.82,113.06509
1430865744.836,103.0557
1430865744.851,85.20447
1430865744.867,61.532288
1430865744.883,34.835983
1430865744.898,7.888809
1430865744.914,-17.00306
1430865744.93,-38.29403
1430865744.945,-55.07173
1430865744.961,-66.92785
1430865744.976,-73.85488
1430865744.992,-76.25729
1430865745.008,-74.947556
1430865745.023,-71.06581
1430865745.039,-65.85652
1430865745.055,-60.40509
1430865745.07,-55.364723
1430865745.086,-50.966934
1430865745.101,-47.107674
1430865745.117,-43.5813
1430865745.133,-40.284706
1430865745.148,-37.20471
1430865745.164,-34.31686
1430865745.18,-31.45826
1430865745.195,-28.240139
1430865745.211,-24.146633
1430865745.226,-18.73312
1430865745.242,-11.855919
1430865745.258,-3.694538
1430865745.273,5.2407
1430865745.289,14.380573
1430865745.305,23.25734
1430865745.32,31.70517
1430865745.336,39.892277
1430865745.351,48.333984
1430865745.367,57.717026
1430865745.383,68.67025
1430865745.398,81.36641
1430865745.414,95.09835
1430865745.43,108.108154
1430865745.445,117.78372
1430865745.461,121.33024
1430865745.476,116.66385
1430865745.492,103.192894
1430865745.508,82.13062
1430865745.523,56.077637
1430865745.539,28.237005
1430865745.555,1.4874125
1430865745.57,-22.224895
1430865745.586,-41.961952
1430865745.601,-57.455406
1430865745.617,-68.7828
1430865745.633,-76.09996
1430865745.648,-79.69301
1430865745.664,-80.10086
1430865745.68,-78.13777
1430865745.695,-74.763504
1430865745.711,-70.84889
1430865745.726,-66.95068
1430865745.742,-63.28125
1430865745.758,-59.809036
1430865745.773,-56.466637
1430865745.789,-53.227703
1430865745.805,-50.158466
1430865745.82,-47.26638
1430865745.836,-44.42101
1430865745.851,-41.206078
1430865745.867,-37.08842
1430865745.883,-31.570148
1430865745.898,-24.38118
1430865745.914,-15.6909485
1430865745.93,-6.01733
1430865745.945,3.9109802
1430865745.961,13.429142
1430865745.976,22.191238
1430865745.992,30.320908
1430865746.008,38.454308
1430865746.023,47.48564
1430865746.039,58.188652
1430865746.055,70.68391
1430865746.07,84.029884
1430865746.086,96.1248
1430865746.101,104.13039
1430865746.117,105.246315
1430865746.133,97.69299
1430865746.148,81.3627
1430865746.164,57.91378
1430865746.18,30.231056
1430865746.195,1.5616302
1430865746.211,-25.283852
1430865746.226,-48.384544
1430865746.242,-66.69373
1430865746.258,-79.830376
1430865746.273,-87.912895
1430865746.289,-91.40045
1430865746.305,-91.12339
1430865746.32,-88.153114
1430865746.336,-83.69802
1430865746.351,-78.821945
1430865746.367,-74.25709
1430865746.383,-70.31657
1430865746.398,-66.988686
1430865746.414,-64.06109
1430865746.43,-61.260834
1430865746.445,-58.380325
1430865746.461,-55.26561
1430865746.476,-51.781708
1430865746.492,-47.798096
1430865746.508,-43.111572
1430865746.523,-37.499725
1430865746.539,-30.760468
1430865746.555,-22.870827
1430865746.57,-13.954163
1430865746.586,-4.4594574
1430865746.601,5.077797
1430865746.617,14.179413
1430865746.633,22.601799
1430865746.648,30.509758
1430865746.664,38.539795
1430865746.68,47.619316
1430865746.695,58.60067
1430865746.711,71.680305
1430865746.726,85.94459
1430865746.742,99.23945
1430865746.758,108.591225
1430865746.773,111.055756
1430865746.789,104.81051
1430865746.805,89.741585
1430865746.82,67.56998
1430865746.836,41.24492
1430865746.851,14.0188675
1430865746.867,-11.385025
1430865746.883,-33.162827
1430865746.898,-50.44171
1430865746.914,-62.946
1430865746.93,-70.74202
1430865746.945,-74.18315
1430865746.961,-73.90399
1430865746.976,-70.87537
1430865746.992,-66.33807
1430865747.008,-61.48185
1430865747.023,-57.24536
1430865747.039,-54.092934
1430865747.055,-52.06614
1430865747.07,-50.76133
1430865747.086,-49.677475
1430865747.101,-48.3311
1430865747.117,-46.347664
1430865747.133,-43.47175
1430865747.148,-39.54908
1430865747.164,-34.491783
1430865747.18,-28.300468
1430865747.195,-21.080261
1430865747.211,-13.079498
1430865747.226,-4.643799
1430865747.242,3.8493347
1430865747.258,12.1036
1430865747.273,19.901215
1430865747.289,27.294052
1430865747.305,34.544388
1430865747.32,42.214905
1430865747.336,50.935905
1430865747.351,61.227486
1430865747.367,72.90232
1430865747.383,84.846054
1430865747.398,94.89885
1430865747.414,100.338936
1430865747.43,98.72026
1430865747.445,88.77629
1430865747.461,70.945885
1430865747.476,47.314247
1430865747.492,20.977402
1430865747.508,-4.8192368
1430865747.523,-27.431747
1430865747.539,-45.228065
1430865747.555,-57.544792
1430865747.57,-64.50813
1430865747.586,-66.758446
1430865747.602,-65.239235
1430865747.617,-61.077454
1430865747.633,-55.37851
1430865747.648,-49.145668
1430865747.664,-43.141853
1430865747.68,-37.92074
1430865747.695,-33.824253
1430865747.711,-30.994453
1430865747.726,-29.343071
1430865747.742,-28.50745
1430865747.758,-27.862701
1430865747.773,-26.63673
1430865747.789,-24.138065
1430865747.805,-20.011986
1430865747.82,-14.340969
1430865747.836,-7.603821
1430865747.852,-0.46719742
1430865747.867,6.4892807
1430865747.883,12.992691
1430865747.898,19.13704
1430865747.914,25.348408
1430865747.93,32.197464
1430865747.945,40.32191
1430865747.961,50.19926
1430865747.977,62.009846
1430865747.992,75.3191
1430865748.008,88.84442
1430865748.023,100.460304
1430865748.039,107.554276
1430865748.055,107.76172
1430865748.07,99.70212
1430865748.086,83.55451
1430865748.102,61.07486
1430865748.117,35.046215
1430865748.133,8.564865
1430865748.148,-15.7631035
1430865748.164,-36.201683
1430865748.18,-51.896214
1430865748.195,-62.716465
1430865748.211,-69.0082
1430865748.227,-71.35664
1430865748.242,-70.533226
1430865748.258,-67.37585
1430865748.273,-62.716217
1430865748.289,-57.264828
1430865748.305,-51.699524
1430865748.32,-46.554676
1430865748.336,-42.23076
1430865748.352,-38.880714
1430865748.367,-36.42157
1430865748.383,-34.52034
1430865748.398,-32.744217
1430865748.414,-30.723614
1430865748.43,-28.17802
1430865748.445,-24.877201
1430865748.461,-20.583096
1430865748.477,-15.027763
1430865748.492,-8.035339
1430865748.508,0.32356644
1430865748.523,9.62735
1430865748.539,19.268787
1430865748.555,28.727013
1430865748.57,37.93399
1430865748.586,47.35933
1430865748.602,57.802788
1430865748.617,69.817764
1430865748.633,83.053986
1430865748.648,95.921326
1430865748.664,105.79615
1430865748.68,109.80128
1430865748.695,105.80365
1430865748.711,93.22063
1430865748.727,73.30837
1430865748.742,48.67291
1430865748.758,22.408964
1430865748.773,-2.7922726
1430865748.789,-25.151163
1430865748.805,-43.803944
1430865748.82,-58.38629
1430865748.836,-68.82541
1430865748.852,-75.21819
1430865748.867,-77.96611
1430865748.883,-77.87004
1430865748.898,-76.039375
1430865748.914,-73.49004
1430865748.93,-70.84413
1430865748.945,-68.179794
1430865748.961,-65.181206
1430865748.977,-61.479874
1430865748.992,-56.973793
1430865749.008,-51.82839
1430865749.023,-46.427208
1430865749.039,-41.046745
1430865749.055,-35.747086
1430865749.07,-30.341084
1430865749.086,-24.566166
1430865749.102,-18.230015
1430865749.117,-11.275643
1430865749.133,-3.769291
1430865749.148,4.1268387
1430865749.164,12.248959
1430865749.18,20.424984
1430865749.195,28.576447
1430865749.211,36.790848
1430865749.227,45.45794
1430865749.242,55.185135
1430865749.258,66.48953
1430865749.273,79.3106
1430865749.289,92.567665
1430865749.305,104.08258
1430865749.32,111.02453
1430865749.336,110.81558
1430865749.352,102.05608
1430865749.367,85.06819
1430865749.383,61.82712
1430865749.398,35.243797
1430865749.414,8.295847
1430865749.43,-16.70811
1430865749.445,-38.290154
1430865749.461,-55.71979
1430865749.477,-68.64352
1430865749.492,-77.019905
1430865749.508,-81.08137
1430865749.523,-81.50127
1430865749.539,-79.27855
1430865749.555,-75.50232
1430865749.57,-70.964775
1430865749.586,-66.0515
1430865749.602,-60.861897
1430865749.617,-55.4939
1430865749.633,-50.221504
1430865749.648,-45.57965
1430865749.664,-42.010536
1430865749.68,-39.600822
1430865749.695,-37.96745
1430865749.711,-36.334274
1430865749.727,-33.895233
1430865749.742,-30.065884
1430865749.758,-24.587883
1430865749.773,-17.55914
1430865749.789,-9.326088
1430865749.805,-0.38218307
1430865749.82,8.72514
1430865749.836,17.46455
1430865749.852,25.553276
1430865749.867,33.133064
1430865749.883,40.78003
1430865749.898,49.381725
1430865749.914,59.693317
1430865749.93,71.78816
1430865749.945,84.80552
1430865749.961,96.802704
1430865749.977,105.18104
1430865749.992,107.336426
1430865750.008,101.562775
1430865750.023,87.567566
1430865750.039,66.66738
1430865750.055,41.405586
1430865750.07,14.727699
1430865750.086,-10.690582
1430865750.102,-32.939827
1430865750.117,-50.95977
1430865750.133,-64.171715
1430865750.148,-72.383255
1430865750.164,-75.75619
1430865750.18,-74.91367
1430865750.195,-71.042984
1430865750.211,-65.67413
1430865750.227,-60.246758
1430865750.242,-55.650215
1430865750.258,-52.028755
1430865750.273,-48.9225
1430865750.289,-45.726593
1430865750.305,-42.1659
1430865750.32,-38.358208
1430865750.336,-34.712708
1430865750.352,-31.611298
1430865750.367,-29.110153
1430865750.383,-26.874222
1430865750.398,-24.333405
1430865750.414,-20.928635
1430865750.43,-16.305214
1430865750.445,-10.501678
1430865750.461,-3.8522415
1430865750.477,3.1245117
1430865750.492,9.925842
1430865750.508,16.3704
1430865750.524,22.610626
1430865750.539,29.07756
1430865750.555,36.33725
1430865750.57,44.923813
1430865750.586,55.0903
1430865750.602,66.68445
1430865750.617,78.90961
1430865750.633,90.248535
1430865750.649,98.60771
1430865750.664,101.75571
1430865750.68,98.00122
1430865750.695,86.841965
1430865750.711,69.17082
1430865750.727,47.075684
1430865750.742,23.092422
1430865750.758,-0.4328766
1430865750.774,-21.848923
1430865750.789,-40.11728
1430865750.805,-54.59726
1430865750.82,-64.802826
1430865750.836,-70.476456
1430865750.852,-71.77075
1430865750.867,-69.49541
1430865750.883,-64.858154
1430865750.899,-59.207153
1430865750.914,-53.625595
1430865750.93,-48.69214
1430865750.945,-44.60196
1430865750.961,-41.246964
1430865750.977,-38.46289
1430865750.992,-36.076157
1430865751.008,-33.944443
1430865751.024,-31.936295
1430865751.039,-29.923187
1430865751.055,-27.822601
1430865751.07,-25.472504
1430865751.086,-22.622147
1430865751.102,-18.922379
1430865751.117,-14.082169
1430865751.133,-7.9564056
1430865751.149,-0.77827454
1430865751.164,6.908554
1430865751.18,14.411774
1430865751.195,21.208664
1430865751.211,27.145615
1430865751.227,32.588104
1430865751.242,38.294968
1430865751.258,45.290665
1430865751.274,54.40999
1430865751.289,65.88805
1430865751.305,78.955734
1430865751.32,91.77263
1430865751.336,101.687546
1430865751.352,106.036224
1430865751.367,102.89615
1430865751.383,91.75232
1430865751.399,73.59271
1430865751.414,50.61142
1430865751.43,25.558228
1430865751.445,1.1794739
1430865751.461,-20.28769
1430865751.477,-37.29471
1430865751.492,-49.090942
1430865751.508,-55.588837
1430865751.524,-57.35733
1430865751.539,-55.367523
1430865751.555,-50.893707
1430865751.57,-45.263
1430865751.586,-39.601288
1430865751.602,-34.668884
1430865751.617,-30.760864
1430865751.633,-27.658142
1430865751.649,-24.865143
1430865751.664,-21.859497
1430865751.68,-18.438416
1430865751.695,-14.751556
1430865751.711,-11.249603
1430865751.727,-8.272339
1430865751.742,-5.848999
1430865751.758,-3.593933
1430865751.774,-0.96276855
1430865751.789,2.4514465
1430865751.805,6.715393
1430865751.82,11.691254
1430865751.836,17.1456
1430865751.852,22.97763
1430865751.867,29.175262
1430865751.883,35.750793
1430865751.899,42.683563
1430865751.914,50.00705
1430865751.93,57.906982
1430865751.945,66.68738
1430865751.961,76.49036
1430865751.977,86.874664
1430865751.992,96.47894
1430865752.008,103.28946
1430865752.024,105.07962
1430865752.039,100.227936
1430865752.055,88.293884
1430865752.07,70.19287
1430865752.086,47.868225
1430865752.102,23.78125
1430865752.117,0.27163696
1430865752.133,-20.788605
1430865752.149,-38.165314
1430865752.164,-51.229614
1430865752.18,-59.83069
1430865752.195,-64.12213
1430865752.211,-64.56052
1430865752.227,-61.843628
1430865752.242,-56.968414
1430865752.258,-51.06122
1430865752.274,-45.24292
1430865752.289,-40.329956
1430865752.305,-36.69391
1430865752.32,-34.198364
1430865752.336,-32.413147
1430865752.352,-30.767029
1430865752.367,-28.832367
1430865752.383,-26.306183
1430865752.399,-23.052368
1430865752.414,-19.070862
1430865752.43,-14.439728
1430865752.445,-9.301056
1430865752.461,-3.7647095
1430865752.477,2.0963135
1430865752.492,8.268982
1430865752.508,14.731262
1430865752.524,21.41687
1430865752.539,28.257965
1430865752.555,35.312714
1430865752.57,43.01895
1430865752.586,52.100006
1430865752.602,63.25363
1430865752.617,76.47519
1430865752.633,90.56882
1430865752.649,103.102875
1430865752.664,111.007355
1430865752.68,111.62613
1430865752.695,103.66589
1430865752.711,87.68176
1430865752.727,65.78537
1430865752.742,40.93625
1430865752.758,16.122864
1430865752.774,-6.3563232
1430865752.789,-25.097198
1430865752.805,-39.575287
1430865752.82,-49.805756
1430865752.836,-56.19992
1430865752.852,-59.24124
1430865752.867,-59.506226
1430865752.883,-57.5654
1430865752.899,-54.071655
1430865752.914,-49.700043
1430865752.93,-45.087616
1430865752.945,-40.7099
1430865752.961,-36.785583
1430865752.977,-33.281982
1430865752.992,-30.026154
1430865753.008,-26.853302
1430865753.024,-23.690948
1430865753.039,-20.514862
1430865753.055,-17.255524
1430865753.07,-13.724838
1430865753.086,-9.683945
1430865753.102,-4.9221954
1430865753.117,0.54074097
1430865753.133,6.535568
1430865753.149,12.782074
1430865753.164,19.119385
1430865753.18,25.63263
1430865753.196,32.736633
1430865753.211,41.06726
1430865753.227,51.17308
1430865753.242,63.087494
1430865753.258,76.04288
1430865753.274,88.297775
1430865753.289,97.42534
1430865753.305,100.90669
1430865753.321,96.94417
1430865753.336,85.04735
1430865753.352,66.24904
1430865753.367,42.784912
1430865753.383,17.474411
1430865753.399,-7.0312195
1430865753.414,-28.688034
1430865753.43,-46.239487
1430865753.446,-59.083405
1430865753.461,-67.11078
1430865753.477,-70.57791
1430865753.492,-70.09404
1430865753.508,-66.58598
1430865753.524,-61.25978
1430865753.539,-55.31523
1430865753.555,-49.754898
1430865753.571,-45.17073
1430865753.586,-41.769257
1430865753.602,-39.380722
1430865753.617,-37.64763
1430865753.633,-36.172333
1430865753.649,-34.548462
1430865753.664,-32.42726
1430865753.68,-29.56987
1430865753.696,-25.868195
1430865753.711,-21.361588
1430865753.727,-16.201004
1430865753.742,-10.5625305
1430865753.758,-4.5294952
1430865753.774,1.88414
1430865753.789,8.7725525
1430865753.805,16.236786
1430865753.821,24.43628
1430865753.836,33.581543
1430865753.852,43.886215
1430865753.867,55.313133
1430865753.883,67.29398
1430865753.899,78.443054
1430865753.914,86.647896
1430865753.93,89.52225
1430865753.946,85.227234
1430865753.961,73.141914
1430865753.977,54.25065
1430865753.992,30.849022
1430865754.008,5.861305
1430865754.024,-17.98204
1430865754.039,-38.67166
1430865754.055,-55.05722
1430865754.071,-66.62639
1430865754.086,-73.32007
1430865754.102,-75.4118
1430865754.117,-73.60763
1430865754.133,-68.98422
1430865754.149,-62.90171
1430865754.164,-56.637337
1430865754.18,-51.134224
1430865754.196,-46.842163
1430865754.211,-43.790176
1430865754.227,-41.693848
1430865754.242,-40.10286
1430865754.258,-38.449326
1430865754.274,-36.127937
1430865754.289,-32.603188
1430865754.305,-27.605995
1430865754.321,-21.287956
1430865754.336,-14.150246
1430865754.352,-6.836403
1430865754.367,0.17618561
1430865754.383,6.7849045
1430865754.399,13.23996
1430865754.414,19.939278
1430865754.43,27.200806
1430865754.446,35.27143
1430865754.461,44.353874
1430865754.477,54.65718
1430865754.492,66.13312
1430865754.508,78.17695
1430865754.524,89.25404
1430865754.539,97.03986
1430865754.555,98.9777
1430865754.571,93.10777
1430865754.586,78.91055
1430865754.602,57.59127
1430865754.617,31.805565
1430865754.633,4.906479
1430865754.649,-19.991474
1430865754.664,-40.669193
1430865754.68,-56.088142
1430865754.696,-66.13422
1430865754.711,-71.30149
1430865754.727,-72.29411
1430865754.742,-69.881096
1430865754.758,-64.87242
1430865754.774,-58.19071
1430865754.789,-50.83567
1430865754.805,-43.75922
1430865754.821,-37.656204
1430865754.836,-32.821114
1430865754.852,-29.151726
1430865754.867,-26.235863
1430865754.883,-23.571215
1430865754.899,-20.748688
1430865754.914,-17.510336
1430865754.93,-13.747648
1430865754.946,-9.463417
1430865754.961,-4.700835
1430865754.977,0.48531866
1430865754.992,6.0278034
1430865755.008,11.949583
1430865755.024,18.287079
1430865755.039,25.126883
1430865755.055,32.63179
1430865755.071,41.04704
1430865755.086,50.636356
1430865755.102,61.48477
1430865755.117,73.157295
1430865755.133,84.44908
1430865755.149,93.3322
1430865755.164,97.38811
1430865755.18,94.48432
1430865755.196,83.65742
1430865755.211,65.4937
1430865755.227,42.077133
1430865755.242,16.327154
1430865755.258,-8.821205
1430865755.274,-31.108082
1430865755.289,-49.186146
1430865755.305,-62.515766
1430865755.321,-71.09143
1430865755.336,-75.16695
1430865755.352,-75.214966
1430865755.367,-71.93581
1430865755.383,-66.27115
1430865755.399,-59.3412
1430865755.414,-52.270756
1430865755.43,-45.970886
1430865755.446,-40.954918
1430865755.461,-37.253685
1430865755.477,-34.462418
1430865755.492,-31.913765
1430865755.508,-28.934723
1430865755.524,-25.026997
1430865755.539,-20.019539
1430865755.555,-14.088264
1430865755.571,-7.58284
1430865755.586,-0.88494873
1430865755.602,5.729561
1430865755.617,12.181519
1430865755.633,18.549568
1430865755.649,24.995003
1430865755.664,31.78202
1430865755.68,39.262672
1430865755.696,47.86785
1430865755.711,57.99935
1430865755.727,69.69609
1430865755.742,82.25722
1430865755.758,94.04169
1430865755.774,102.58818
1430865755.789,105.241196
1430865755.805,99.97136
1430865755.821,86.23898
1430865755.836,65.21904
1430865755.852,39.514717
1430865755.868,12.339249
1430865755.883,-13.41571
1430865755.899,-35.741493
1430865755.914,-53.654068
1430865755.93,-66.858795
1430865755.946,-75.38645
1430865755.961,-79.43006
1430865755.977,-79.38494
1430865755.993,-76.01593
1430865756.008,-70.44527
1430865756.024,-63.973732
1430865756.039,-57.72603
1430865756.055,-52.425507
1430865756.071,-48.3273
1430865756.086,-45.314453
1430865756.102,-43.08548
1430865756.118,-41.24463
1430865756.133,-39.307587
1430865756.149,-36.743607
1430865756.164,-33.12863
1430865756.18,-28.312622
1430865756.196,-22.486252
1430865756.211,-16.121216
1430865756.227,-9.719284
1430865756.243,-3.5244446
1430865756.258,2.551178
1430865756.274,8.872589
1430865756.289,15.926132
1430865756.305,24.156921
1430865756.321,34.03679
1430865756.336,45.876312
1430865756.352,59.620056
1430865756.368,74.42256
1430865756.383,88.3645
1430865756.399,98.65347
1430865756.414,102.27632
1430865756.43,97.11163
1430865756.446,82.772
1430865756.461,60.92563
1430865756.477,34.71779
1430865756.493,7.6871796
1430865756.508,-17.226425
1430865756.524,-38.34935
1430865756.539,-55.116028
1430865756.555,-67.661026
1430865756.571,-76.22119
1430865756.586,-80.98952
1430865756.602,-82.18739
1430865756.618,-80.30614
1430865756.633,-76.21884
1430865756.649,-71.07408
1430865756.664,-65.88695
1430865756.68,-61.299774
1430865756.696,-57.36255
1430865756.711,-53.784515
1430865756.727,-50.187866
1430865756.743,-46.441727
1430865756.758,-42.62465
1430865756.774,-38.95015
1430865756.789,-35.40927
1430865756.805,-31.706314
1430865756.821,-27.303818
1430865756.836,-21.704315
1430865756.852,-14.734863
1430865756.868,-6.651291
1430865756.883,1.9672089
1430865756.899,10.497162
1430865756.914,18.526443
1430865756.93,26.055756
1430865756.946,33.52115
1430865756.961,41.68695
1430865756.977,51.37436
1430865756.993,63.00154
1430865757.008,76.12955
1430865757.024,89.17636
1430865757.039,99.57431
1430865757.055,104.41072
1430865757.071,101.43802
1430865757.086,89.8557
1430865757.102,70.64032
1430865757.118,46.15297
1430865757.133,19.390106
1430865757.149,-6.926941
1430865757.164,-30.771057
1430865757.18,-50.868805
1430865757.196,-66.44339
1430865757.211,-77.029236
1430865757.227,-82.50383
1430865757.243,-83.25687
1430865757.258,-80.20421
1430865757.274,-74.787796
1430865757.289,-68.57091
1430865757.305,-62.854263
1430865757.321,-58.385162
1430865757.336,-55.2312
1430865757.352,-52.971573
1430865757.368,-50.998093
1430865757.383,-48.832535
1430865757.399,-46.322586
1430865757.414,-43.60057
1430865757.43,-40.942337
1430865757.446,-38.389557
1430865757.461,-35.665985
1430865757.477,-32.189407
1430865757.493,-27.318619
1430865757.508,-20.704102
1430865757.524,-12.509338
1430865757.539,-3.3917694
1430865757.555,5.765106
1430865757.571,14.259705
1430865757.586,21.848984
1430865757.602,28.85225
1430865757.618,35.983276
1430865757.633,44.142136
1430865757.649,54.007904
1430865757.664,65.72656
1430865757.68,78.5853
1430865757.696,90.97063
1430865757.711,100.52229
1430865757.727,104.73035
1430865757.743,101.6017
1430865757.758,90.390076
1430865757.774,71.848724
1430865757.789,48.07744
1430865757.805,21.9068
1430865757.821,-3.829422
1430865757.836,-26.859634
1430865757.852,-45.69841
1430865757.868,-59.590836
1430865757.883,-68.33119
1430865757.899,-72.194916
1430865757.914,-71.849945
1430865757.93,-68.440414
1430865757.946,-63.38353
1430865757.961,-58.066086
1430865757.977,-53.532288
1430865757.993,-50.253677
1430865758.008,-48.04724
1430865758.024,-46.325684
1430865758.039,-44.427322
1430865758.055,-41.933334
1430865758.071,-38.805595
1430865758.086,-35.407455
1430865758.102,-32.191566
1430865758.118,-29.480904
1430865758.133,-27.251266
1430865758.149,-25.070923
1430865758.164,-22.283768
1430865758.18,-18.259117
1430865758.196,-12.60408
1430865758.211,-5.328865
1430865758.227,3.1740875
1430865758.243,12.201584
1430865758.258,21.058868
1430865758.274,29.22602
1430865758.289,36.629593
1430865758.305,43.69072
1430865758.321,51.242058
1430865758.336,60.191147
1430865758.352,71.03708
1430865758.368,83.39028
1430865758.383,95.82131
1430865758.399,105.947235
1430865758.414,111.07602
1430865758.43,109.022095
1430865758.446,98.77196
1430865758.461,80.92016
1430865758.477,57.448143
1430865758.493,31.17807
1430865758.508,5.045967
1430865758.524,-18.510162
1430865758.54,-37.833656
1430865758.555,-52.121933
1430865758.571,-61.179436
1430865758.586,-65.34701
1430865758.602,-65.34978
1430865758.618,-62.304565
1430865758.633,-57.536304
1430865758.649,-52.37804
1430865758.664,-47.87727
1430865758.68,-44.61568
1430865758.696,-42.613697
1430865758.711,-41.466072
1430865758.727,-40.58241
1430865758.743,-39.410564
1430865758.758,-37.55175
1430865758.774,-34.891693
1430865758.79,-31.49953
1430865758.805,-27.607346
1430865758.821,-23.396198
1430865758.836,-18.973267
1430865758.852,-14.250538
1430865758.868,-9.05711
1430865758.883,-3.2474213
1430865758.899,3.1676407
1430865758.915,9.969727
1430865758.93,16.880089
1430865758.946,23.674686
1430865758.961,30.391659
1430865758.977,37.29808
1430865758.993,44.825283
1430865759.008,53.47515
1430865759.024,63.60202
1430865759.04,75.22812
1430865759.055,87.729744
1430865759.071,99.67198
1430865759.086,108.81581
1430865759.102,112.64637
1430865759.118,109.06646
1430865759.133,97.354675
1430865759.149,78.39124
1430865759.165,54.522026
1430865759.18,28.684202
1430865759.196,3.5113773
1430865759.211,-19.169115
1430865759.227,-38.415634
1430865759.243,-53.765224
1430865759.258,-64.88941
1430865759.274,-71.48365
1430865759.29,-73.54501
1430865759.305,-71.66655
1430865759.321,-67.06443
1430865759.336,-61.35203
1430865759.352,-56.01602
1430865759.368,-51.999653
1430865759.383,-49.45201
1430865759.399,-47.9416
1430865759.415,-46.7387
1430865759.43,-45.252625
1430865759.446,-43.241356
1430865759.461,-40.814594
1430865759.477,-38.222706
1430865759.493,-35.66512
1430865759.508,-32.97381
1430865759.524,-29.684607
1430865759.54,-25.190214
1430865759.555,-19.049088
1430865759.571,-11.260805
1430865759.586,-2.3238716
1430865759.602,6.9372907
1430865759.618,15.6501465
1430865759.633,23.250443
1430865759.649,29.645533
1430865759.665,35.247246
1430865759.68,40.77689
1430865759.696,47.133686
1430865759.711,55.067955
1430865759.727,64.9912
1430865759.743,76.63811
1430865759.758,88.84862
1430865759.774,99.62762
1430865759.79,106.46186
1430865759.805,107.026726
1430865759.821,99.93091
1430865759.836,85.20582
1430865759.852,64.35888
1430865759.868,39.796745
1430865759.883,14.22249
1430865759.899,-10.087904
1430865759.915,-31.511887
1430865759.93,-49.04174
1430865759.946,-62.1074
1430865759.961,-70.461395
1430865759.977,-74.20611
1430865759.993,-73.94655
1430865760.008,-70.76071
1430865760.024,-66.01962
1430865760.04,-61.046913
1430865760.055,-56.796333
1430865760.071,-53.6417
1430865760.086,-51.433025
1430865760.102,-49.678112
1430865760.118,-47.83854
1430865760.133,-45.537453
1430865760.149,-42.755245
1430865760.165,-39.724693
1430865760.18,-36.826477
1430865760.196,-34.333035
1430865760.211,-32.218353
1430865760.227,-30.045013
1430865760.243,-27.068977
1430865760.258,-22.522522
1430865760.274,-15.933331
1430865760.29,-7.4077797
1430865760.305,2.3094482
1430865760.321,12.197746
1430865760.336,21.277828
1430865760.352,29.045189
1430865760.368,35.595898
1430865760.383,41.516785
1430865760.399,47.619125
1430865760.415,54.705353
1430865760.43,63.317814
1430865760.446,73.61612
1430865760.461,85.09601
1430865760.477,96.40107
1430865760.493,105.32411
1430865760.508,109.25914
1430865760.524,105.94155
1430865760.54,94.317406
1430865760.555,75.06547
1430865760.571,50.500793
1430865760.586,23.820122
1430865760.602,-1.8879318
1430865760.618,-24.435844
1430865760.633,-42.707253
1430865760.649,-56.4666
1430865760.665,-65.869095
1430865760.68,-71.18847
1430865760.696,-72.74024
1430865760.711,-71.119316
1430865760.727,-67.27704
1430865760.743,-62.46237
1430865760.758,-57.92933
1430865760.774,-54.58352
1430865760.79,-52.716988
1430865760.805,-52.001266
1430865760.821,-51.57953
1430865760.836,-50.553246
1430865760.852,-48.289597
1430865760.868,-44.780373
1430865760.883,-40.538353
1430865760.899,-36.371353
1430865760.915,-32.894577
1430865760.93,-30.204407
1430865760.946,-27.810738
1430865760.961,-24.834206
1430865760.977,-20.451057
1430865760.993,-14.223251
1430865761.008,-6.256485
1430865761.024,2.8781204
1430865761.04,12.398079
1430865761.055,21.536858
1430865761.071,29.779022
1430865761.086,36.911156
1430865761.102,43.096146
1430865761.118,48.800034
1430865761.133,54.731194
1430865761.149,61.64714
1430865761.165,70.10442
1430865761.18,80.04673
1430865761.196,90.66907
1430865761.211,100.23952
1430865761.227,106.47927
1430865761.243,107.0598
1430865761.258,100.35437
1430865761.274,86.07764
1430865761.29,65.439835
1430865761.305,40.842056
1430865761.321,15.224411
1430865761.336,-8.763245
1430865761.352,-29.233917
1430865761.368,-45.246582
1430865761.383,-56.511276
1430865761.399,-63.143112
1430865761.415,-65.50079
1430865761.43,-64.226944
1430865761.446,-60.2955
1430865761.462,-55.01053
1430865761.477,-49.72583
1430865761.493,-45.48857
1430865761.508,-42.729523
1430865761.524,-41.22473
1430865761.54,-40.269943
1430865761.555,-39.107162
1430865761.571,-37.260727
1430865761.587,-34.69809
1430865761.602,-31.771774
1430865761.618,-28.935928
1430865761.633,-26.427704
1430865761.649,-24.131989
1430865761.665,-21.57306
1430865761.68,-18.161346
1430865761.696,-13.465317
1430865761.712,-7.4441223
1430865761.727,-0.42393494
1430865761.743,7.027771
1430865761.758,14.409866
1430865761.774,21.413864
1430865761.79,28.009613
1430865761.805,34.339706
1430865761.821,40.703934
1430865761.837,47.48958
1430865761.852,55.188156
1430865761.868,64.24298
1430865761.883,74.7211
1430865761.899,86.00087
1430865761.915,96.5246
1430865761.93,104.02539
1430865761.946,106.17053
1430865761.962,101.313
1430865761.977,89.11978
1430865761.993,70.68175
1430865762.008,48.20169
1430865762.024,24.27597
1430865762.04,1.3491821
1430865762.055,-18.755493
1430865762.071,-34.91426
1430865762.087,-46.649506
1430865762.102,-53.966156
1430865762.118,-57.281998
1430865762.133,-57.217636
1430865762.149,-54.59816
1430865762.165,-50.408447
1430865762.18,-45.67737
1430865762.196,-41.294983
1430865762.212,-37.9122
1430865762.227,-35.69934
1430865762.243,-34.385788
1430865762.258,-33.461838
1430865762.274,-32.443604
1430865762.29,-31.095139
1430865762.305,-29.501892
1430865762.321,-27.75557
1430865762.337,-25.79004
1430865762.352,-23.258286
1430865762.368,-19.690964
1430865762.383,-14.714874
1430865762.399,-8.340347
1430865762.415,-0.9706726
1430865762.43,6.744385
1430865762.446,14.160309
1430865762.462,20.822525
1430865762.477,26.628647
1430865762.493,31.860199
1430865762.508,37.20775
1430865762.524,43.582214
1430865762.54,51.905334
1430865762.555,62.6214
1430865762.571,75.36548
1430865762.587,88.71947
1430865762.602,100.374664
1430865762.618,107.687256
1430865762.633,108.35942
1430865762.649,101.12355
1430865762.665,86.162506
1430865762.68,65.00841
1430865762.696,40.26451
1430865762.712,14.840332
1430865762.727,-8.694305
1430865762.743,-28.595413
1430865762.758,-44.08841
1430865762.774,-55.136566
1430865762.79,-62.10965
1430865762.805,-65.499146
1430865762.821,-65.82588
1430865762.837,-63.72522
1430865762.852,-60.019333
1430865762.868,-55.654785
1430865762.883,-51.38942
1430865762.899,-47.665222
1430865762.915,-44.487076
1430865762.93,-41.594208
1430865762.946,-38.707108
1430865762.962,-35.831573
1430865762.977,-33.180786
1430865762.993,-31.066895
1430865763.008,-29.571335
1430865763.024,-28.419724
1430865763.04,-26.93306
1430865763.055,-24.30458
1430865763.071,-19.790833
1430865763.087,-13.089981
1430865763.102,-4.466049
1430865763.118,5.255226
1430865763.133,14.976303
1430865763.149,23.68766
1430865763.165,30.89653
1430865763.18,36.806908
1430865763.196,42.252037
1430865763.212,48.433937
1430865763.227,56.410698
1430865763.243,66.66088
1430865763.258,78.77053
1430865763.274,91.23729
1430865763.29,101.71551
1430865763.305,107.4637
1430865763.321,106.181274
1430865763.337,96.74282
1430865763.352,79.67657
1430865763.368,56.99475
1430865763.383,31.59703
1430865763.399,6.387108
1430865763.415,-16.402924
1430865763.43,-35.52973
1430865763.446,-50.41941
1430865763.462,-60.958015
1430865763.477,-67.21267
1430865763.493,-69.472855
1430865763.508,-68.38654
1430865763.524,-65.03476
1430865763.54,-60.709686
1430865763.555,-56.601357
1430865763.571,-53.380035
1430865763.587,-51.137817
1430865763.602,-49.43499
1430865763.618,-47.69596
1430865763.633,-45.48242
1430865763.649,-42.744164
1430865763.665,-39.810898
1430865763.68,-37.111206
1430865763.696,-34.909943
1430865763.712,-33.06578
1430865763.727,-30.980469
1430865763.743,-27.843254
1430865763.758,-23.002434
1430865763.774,-16.299538
1430865763.79,-8.114944
1430865763.805,0.7470474
1430865763.821,9.457111
1430865763.837,17.460873
1430865763.852,24.69777
1430865763.868,31.545742
1430865763.883,38.670662
1430865763.899,46.810707
1430865763.915,56.56485
1430865763.93,68.06012
1430865763.946,80.74678
1430865763.962,93.19644
1430865763.977,103.23944
1430865763.993,108.39577
1430865764.008,106.644775
1430865764.024,97.0497
1430865764.04,80.19671
1430865764.055,57.962654
1430865764.071,32.98239
1430865764.087,7.8506355
1430865764.102,-15.393322
1430865764.118,-35.446667
1430865764.134,-51.61049
1430865764.149,-63.518368
1430865764.165,-71.061264
1430865764.18,-74.42863
1430865764.196,-74.2163
1430865764.212,-71.47876
1430865764.227,-67.52889
1430865764.243,-63.631413
1430865764.259,-60.540096
1430865764.274,-58.4291
1430865764.29,-56.900574
1430865764.305,-55.343376
1430865764.321,-53.31363
1430865764.337,-50.79174
1430865764.352,-48.133133
1430865764.368,-45.811646
1430865764.384,-44.032078
1430865764.399,-42.60513
1430865764.415,-40.931355
1430865764.43,-38.32232
1430865764.446,-34.136253
1430865764.462,-28.105278
1430865764.477,-20.279087
1430865764.493,-11.085257
1430865764.509,-1.2474537
1430865764.524,8.36873
1430865764.54,16.995945
1430865764.555,24.296785
1430865764.571,30.651348
1430865764.587,37.116707
1430865764.602,45.08333
1430865764.618,55.57805
1430865764.634,68.59943
1430865764.649,82.73962
1430865764.665,95.456215
1430865764.68,103.79098
1430865764.696,105.27719
1430865764.712,98.678185
1430865764.727,84.32531
1430865764.743,63.85389
1430865764.759,39.772793
1430865764.774,14.758941
1430865764.79,-8.875744
1430865764.805,-29.466734
1430865764.821,-45.98144
1430865764.837,-57.962048
1430865764.852,-65.32475
1430865764.868,-68.37007
1430865764.884,-67.78976
1430865764.899,-64.67009
1430865764.915,-60.36197
1430865764.93,-56.164
1430865764.946,-52.89191
1430865764.962,-50.76831
1430865764.977,-49.40647
1430865764.993,-48.195667
1430865765.009,-46.598854
1430865765.024,-44.497704
1430865765.04,-42.085484
1430865765.055,-39.73128
1430865765.071,-37.707516
1430865765.087,-35.994186
1430865765.102,-34.246117
1430865765.118,-31.909958
1430865765.134,-28.294071
1430865765.149,-22.908073
1430865765.165,-15.672572
1430865765.18,-6.9855866
1430865765.196,2.3024788
1430865765.212,11.2052145
1430865765.227,18.979961
1430865765.243,25.399082
1430865765.259,30.858036
1430865765.274,36.163963
1430865765.29,42.306328
1430865765.305,50.053513
1430865765.321,59.723637
1430865765.337,70.8501
1430865765.352,82.038025
1430865765.368,91.043686
1430865765.384,95.260025
1430865765.399,92.48045
1430865765.415,81.713135
1430865765.43,63.62623
1430865765.446,40.463924
1430865765.462,15.318246
1430865765.477,-8.728587
1430865765.493,-29.373142
1430865765.509,-45.267437
1430865765.524,-55.945374
1430865765.54,-61.50657
1430865765.555,-62.39913
1430865765.571,-59.436066
1430865765.587,-53.797874
1430865765.602,-46.93527
1430865765.618,-40.322742
1430865765.634,-35.036194
1430865765.649,-31.524405
1430865765.665,-29.559391
1430865765.68,-28.47819
1430865765.696,-27.507832
1430865765.712,-26.15797
1430865765.727,-24.285898
1430865765.743,-22.074999
1430865765.759,-19.767998
1430865765.774,-17.413412
1430865765.79,-14.758137
1430865765.805,-11.344397
1430865765.821,-6.7396584
1430865765.837,-0.78601074
1430865765.852,6.2397156
1430865765.868,13.732027
1430865765.884,21.04797
1430865765.899,27.747854
1430865765.915,33.862144
1430865765.93,39.922005
1430865765.946,46.73735
1430865765.962,55.100254
1430865765.977,65.45479
1430865765.993,77.514046
1430865766.009,90.09312
1430865766.024,101.17243
1430865766.04,108.29128
1430865766.055,109.14659
1430865766.071,102.32663
1430865766.087,87.73949
1430865766.102,66.74708
1430865766.118,41.73301
1430865766.134,15.555376
1430865766.149,-9.220091
1430865766.165,-30.653488
1430865766.18,-47.60263
1430865766.196,-59.633087
1430865766.212,-66.85416
1430865766.227,-69.7795
1430865766.243,-69.240486
1430865766.259,-66.1984
1430865766.274,-61.665398
1430865766.29,-56.547813
1430865766.305,-51.58136
1430865766.321,-47.223816
1430865766.337,-43.709797
1430865766.352,-41.01562
1430865766.368,-38.994614
1430865766.384,-37.43063
1430865766.399,-36.097115
1430865766.415,-34.76872
1430865766.43,-33.153084
1430865766.446,-30.80067
1430865766.462,-27.218826
1430865766.477,-22.010126
1430865766.493,-15.129823
1430865766.509,-6.9030066
1430865766.524,1.9832544
1430865766.54,10.76524
1430865766.555,18.927616
1430865766.571,26.324196
1430865766.587,33.28328
1430865766.602,40.472317
1430865766.618,48.691498
1430865766.634,58.73372
1430865766.649,70.91654
1430865766.665,84.67911
1430865766.68,98.29101
1430865766.696,109.05933
1430865766.712,113.97606
1430865766.727,110.74024
1430865766.743,98.58319
1430865766.759,78.638756
1430865766.774,53.46608
1430865766.79,26.24781
1430865766.806,-0.11823654
1430865766.821,-23.481567
1430865766.837,-42.556324
1430865766.852,-56.734226
1430865766.868,-65.91379
1430865766.884,-70.445114
1430865766.899,-71.13805
1430865766.915,-69.12594
1430865766.931,-65.678185
1430865766.946,-61.8491
1430865766.962,-58.289852
1430865766.977,-55.191525
1430865766.993,-52.443645
1430865767.009,-49.749645
1430865767.024,-46.890762
1430865767.04,-43.795208
1430865767.056,-40.53619
1430865767.071,-37.21785
1430865767.087,-33.88385
1430865767.102,-30.379635
1430865767.118,-26.408436
1430865767.134,-21.652676
1430865767.149,-15.936787
1430865767.165,-9.335876
1430865767.181,-2.1642761
1430865767.196,5.220749
1430865767.212,12.5642395
1430865767.227,19.827766
1430865767.243,27.147491
1430865767.259,34.880524
1430865767.274,43.487946
1430865767.29,53.48207
1430865767.306,65.113144
1430865767.321,78.007774
1430865767.337,90.81512
1430865767.352,101.23977
1430865767.368,106.55429
1430865767.384,104.51508
1430865767.399,94.18697
1430865767.415,76.34945
1430865767.431,53.229103
1430865767.446,27.733124
1430865767.462,2.614563
1430865767.477,-20.099579
1430865767.493,-39.22061
1430865767.509,-54.152298
1430865767.524,-64.71458
1430865767.54,-70.988144
1430865767.556,-73.42313
1430865767.571,-72.786545
1430865767.587,-70.17422
1430865767.602,-66.68141
1430865767.618,-63.170723
1430865767.634,-60.039246
1430865767.649,-57.307762
1430865767.665,-54.729904
1430865767.681,-52.060455
1430865767.696,-49.2651
1430865767.712,-46.45363
1430865767.727,-43.81804
1430865767.743,-41.379845
1430865767.759,-38.839317
1430865767.774,-35.69197
1430865767.79,-31.354332
1430865767.806,-25.523499
1430865767.821,-18.228798
1430865767.837,-9.870369
1430865767.852,-0.9869919
1430865767.868,7.9039917
1430865767.884,16.436668
1430865767.899,24.475449
1430865767.915,32.115128
1430865767.931,39.765915
1430865767.946,48.134087
1430865767.962,57.985588
1430865767.977,69.624306
1430865767.993,82.40208
1430865768.009,94.49631
1430865768.024,103.18902
1430865768.04,105.68038
1430865768.056,100.13816
1430865768.071,86.287735
1430865768.087,65.55286
1430865768.102,40.50045
1430865768.118,13.994331
1430865768.134,-11.361763
1430865768.149,-33.656654
1430865768.165,-51.665497
1430865768.181,-64.74665
1430865768.196,-72.747444
1430865768.212,-75.98719
1430865768.227,-75.28806
1430865768.243,-71.83926
1430865768.259,-67.03487
1430865768.274,-62.11534
1430865768.29,-57.90793
1430865768.306,-54.69709
1430865768.321,-52.17476
1430865768.337,-49.773376
1430865768.352,-46.97972
1430865768.368,-43.674927
1430865768.384,-40.071434
1430865768.399,-36.605553
1430865768.415,-33.57508
1430865768.431,-30.87246
1430865768.446,-27.986534
1430865768.462,-24.192963
1430865768.477,-18.907974
1430865768.493,-11.973579
1430865768.509,-3.693924
1430865768.524,5.292778
1430865768.54,14.170891
1430865768.556,22.251091
1430865768.571,29.156403
1430865768.587,34.968994
1430865768.602,40.311317
1430865768.618,46.149017
1430865768.634,53.42729
1430865768.649,62.50412
1430865768.665,72.69984
1430865768.681,82.19137
1430865768.696,88.4453
1430865768.712,88.94387
1430865768.727,82.00061
1430865768.743,67.30788
1430865768.759,45.965996
1430865768.774,20.171043
1430865768.79,-7.381035
1430865768.806,-34.047783
1430865768.821,-57.533188
1430865768.837,-76.15097
1430865768.852,-88.8757
1430865768.868,-95.528885
1430865768.884,-96.69515
1430865768.899,-93.70029
1430865768.915,-88.21737
1430865768.931,-81.91401
1430865768.946,-76.02027
1430865768.962,-71.126526
1430865768.977,-67.24494
1430865768.993,-64.01352
1430865769.009,-61.01024
1430865769.024,-57.94851
1430865769.04,-54.735115
1430865769.056,-51.413673
1430865769.071,-47.95581
1430865769.087,-44.202904
1430865769.102,-39.862648
1430865769.118,-34.63256
1430865769.134,-28.312977
1430865769.149,-20.877216
1430865769.165,-12.462112
1430865769.181,-3.3400116
1430865769.196,6.1967964
1430865769.212,15.830971
1430865769.227,25.296837
1430865769.243,34.45753
1430865769.259,43.398697
1430865769.274,52.462547
1430865769.29,62.18251
1430865769.306,72.96093
1430865769.321,84.69763
1430865769.337,96.42045
1430865769.352,106.23349
1430865769.368,111.63408
1430865769.384,110.18878
1430865769.399,100.316864
1430865769.415,81.860825
1430865769.431,56.210613
1430865769.446,26.013924
1430865769.462,-5.5341687
1430865769.478,-35.422386
1430865769.493,-61.36115
1430865769.509,-82.00129
1430865769.524,-96.83703
1430865769.54,-105.914444
1430865769.556,-109.664024
1430865769.571,-108.73416
1430865769.587,-103.982315
1430865769.602,-96.425606
1430865769.618,-87.18217
1430865769.634,-77.286606
1430865769.649,-67.658516
1430865769.665,-58.909935
1430865769.681,-51.429085
1430865769.696,-45.356026
1430865769.712,-40.67231
1430865769.728,-37.2389
1430865769.743,-34.8246
1430865769.759,-33.06594
1430865769.774,-31.501228
1430865769.79,-29.542007
1430865769.806,-26.628914
1430865769.821,-22.327873
1430865769.837,-16.572502
1430865769.853,-9.777626
1430865769.868,-2.7925339
1430865769.884,3.3203506
1430865769.899,7.726654
1430865769.915,10.24118
1430865769.931,11.523102
1430865769.946,13.019241
1430865769.962,16.47554
1430865769.978,23.293518
1430865769.993,33.805878
1430865770.009,47.032578
1430865770.024,60.76706
1430865770.04,72.22734
1430865770.056,78.83661
1430865770.071,78.96835
1430865770.087,72.29123
1430865770.103,59.747437
1430865770.118,43.046967
1430865770.134,24.239319
1430865770.149,5.1861877
1430865770.165,-12.576035
1430865770.181,-27.892563
1430865770.196,-39.938065
1430865770.212,-48.20465
1430865770.228,-52.55655
1430865770.243,-53.302826
1430865770.259,-51.20822
1430865770.274,-47.338043
1430865770.29,-42.772797
1430865770.306,-38.339294
1430865770.321,-34.418884
1430865770.337,-30.974487
1430865770.353,-27.759491
1430865770.368,-24.598602
1430865770.384,-21.550049
1430865770.399,-18.920715
1430865770.415,-17.056519
1430865770.431,-16.07425
1430865770.446,-15.668182
1430865770.462,-15.122772
1430865770.478,-13.432312
1430865770.493,-9.642487
1430865770.509,-3.1419067
1430865770.524,6.1924744
1430865770.54,17.968048
1430865770.556,31.4646
1430865770.571,45.824097
1430865770.587,60.332855
1430865770.603,74.539215
1430865770.618,88.37424
1430865770.634,102.17532
1430865770.649,116.55963
1430865770.665,132.1789
1430865770.681,149.29523
1430865770.696,167.3778
1430865770.712,184.82059
1430865770.728,199.15967
1430865770.743,207.62057
1430865770.759,208.01233
1430865770.774,199.41809
1430865770.79,182.48993
1430865770.806,159.17487
1430865770.821,132.16782
1430865770.837,104.18021
1430865770.853,77.56897
1430865770.868,54.07318
1430865770.884,34.837402
1430865770.899,20.40805
1430865770.915,10.674957
1430865770.931,4.9138794
1430865770.946,2.0037537
1430865770.962,0.65078735
1430865770.978,-0.21206665
1430865770.993,-1.1955566
1430865771.009,-2.4996643
1430865771.024,-3.951538
1430865771.04,-5.338806
1430865771.056,-6.4411316
1430865771.071,-7.218048
1430865771.087,-7.688904
1430865771.103,-7.978241
1430865771.118,-8.130249
1430865771.134,-8.098053
1430865771.149,-7.633606
1430865771.165,-6.3933105
1430865771.181,-4.0313416
1430865771.196,-0.35128784
1430865771.212,4.6277466
1430865771.228,10.582764
1430865771.243,17.048035
1430865771.259,23.565887
1430865771.274,29.848907
1430865771.29,35.941956
1430865771.306,42.334076
1430865771.321,49.755157
1430865771.337,58.860138
1430865771.353,69.75299
1430865771.368,81.53668
1430865771.384,92.232666
1430865771.399,99.19267
1430865771.415,99.84714
1430865771.431,92.58299
1430865771.446,77.24713
1430865771.462,55.21443
1430865771.478,28.864319
1430865771.493,0.9805908
1430865771.509,-25.900848
1430865771.524,-49.741226
1430865771.54,-69.13342
1430865771.556,-83.25244
1430865771.571,-91.88518
1430865771.587,-95.40259
1430865771.603,-94.72397
1430865771.618,-91.127594
1430865771.634,-85.942215
1430865771.649,-80.27898
1430865771.665,-74.85185
1430865771.681,-69.9868
1430865771.696,-65.7582
1430865771.712,-62.05198
1430865771.728,-58.762825
1430865771.743,-55.730675
1430865771.759,-52.779076
1430865771.774,-49.64305
1430865771.79,-46.036064
1430865771.806,-41.67639
1430865771.821,-36.36769
1430865771.837,-30.080124
1430865771.853,-23.003876
1430865771.868,-15.478531
1430865771.884,-7.92535
1430865771.899,-0.7063141
1430865771.915,6.0229683
1430865771.931,12.405926
1430865771.946,18.846489
1430865771.962,25.99932
1430865771.978,34.542984
1430865771.993,44.975555
1430865772.009,57.2121
1430865772.024,70.3417
1430865772.04,82.53354
1430865772.056,91.28221
1430865772.071,94.01808
1430865772.087,88.82523
1430865772.103,75.17697
1430865772.118,54.12829
1430865772.134,28.129772
1430865772.15,0.3127365
1430865772.165,-26.310993
1430865772.181,-49.45962
1430865772.196,-67.88541
1430865772.212,-81.19172
1430865772.228,-89.616776
1430865772.243,-93.68579
1430865772.259,-94.08584
1430865772.274,-91.625336
1430865772.29,-87.235596
1430865772.306,-81.88029
1430865772.321,-76.36393
1430865772.337,-71.18662
1430865772.353,-66.50942
1430865772.368,-62.26866
1430865772.384,-58.41784
1430865772.4,-54.97226
1430865772.415,-52.069923
1430865772.431,-49.650444
1430865772.446,-47.34829
1430865772.462,-44.378212
1430865772.478,-39.87493
1430865772.493,-33.2181
1430865772.509,-24.382256
1430865772.525,-13.987854
1430865772.54,-3.0415192
1430865772.556,7.473343
1430865772.571,16.94075
1430865772.587,25.33731
1430865772.603,33.14366
1430865772.618,41.22516
1430865772.634,50.577454
1430865772.65,61.87245
1430865772.665,75.0051
1430865772.681,88.780365
1430865772.696,100.93387
1430865772.712,108.699875
1430865772.728,109.53609
1430865772.743,102.00435
1430865772.759,86.14017
1430865772.775,63.398254
1430865772.79,36.137466
1430865772.806,7.0603943
1430865772.821,-21.257843
1430865772.837,-46.60637
1430865772.853,-67.37262
1430865772.868,-82.6169
1430865772.884,-92.235596
1430865772.9,-96.87851
1430865772.915,-97.76242
1430865772.931,-96.1924
1430865772.946,-93.24336
1430865772.962,-89.49185
1430865772.978,-85.166046
1430865772.993,-80.3636
1430865773.009,-75.21481
1430865773.025,-69.95633
1430865773.04,-64.85254
1430865773.056,-60.076263
1430865773.071,-55.6624
1430865773.087,-51.44113
1430865773.103,-47.166
1430865773.118,-42.50705
1430865773.134,-37.16812
1430865773.15,-30.901703
1430865773.165,-23.624283
1430865773.181,-15.411438
1430865773.196,-6.479904
1430865773.212,2.851654
1430865773.228,12.250519
1430865773.243,21.449478
1430865773.259,30.411774
1430865773.275,39.404938
1430865773.29,48.994934
1430865773.306,59.897064
1430865773.321,72.48808
1430865773.337,86.39508
1430865773.353,100.14047
1430865773.368,111.26831
1430865773.384,116.950836
1430865773.4,114.87419
1430865773.415,103.99574
1430865773.431,84.92052
1430865773.446,59.674362
1430865773.462,31.083466
1430865773.478,2.0097656
1430865773.493,-25.175308
1430865773.509,-48.808212
1430865773.525,-67.85661
1430865773.54,-81.80191
1430865773.556,-90.55647
1430865773.571,-94.426636
1430865773.587,-94.17934
1430865773.603,-90.94733
1430865773.618,-86.03528
1430865773.634,-80.618805
1430865773.65,-75.51933
1430865773.665,-71.05699
1430865773.681,-67.10535
1430865773.696,-63.359436
1430865773.712,-59.51599
1430865773.728,-55.510376
1430865773.743,-51.456436
1430865773.759,-47.52385
1430865773.775,-43.731186
1430865773.79,-39.898376
1430865773.806,-35.631287
1430865773.821,-30.513168
1430865773.837,-24.23555
1430865773.853,-16.736603
1430865773.868,-8.242645
1430865773.884,0.7754364
1430865773.9,9.734421
1430865773.915,18.143646
1430865773.931,25.771133
1430865773.946,32.868362
1430865773.962,40.096985
1430865773.978,48.34723
1430865773.993,58.368378
1430865774.009,70.27783
1430865774.025,83.306946
1430865774.04,95.68306
1430865774.056,104.98491
1430865774.071,108.69644
1430865774.087,104.980896
1430865774.103,93.188156
1430865774.118,74.087616
1430865774.134,49.664734
1430865774.15,22.552795
1430865774.165,-4.5678406
1430865774.181,-29.448029
1430865774.196,-50.53102
1430865774.212,-66.873566
1430865774.228,-78.12518
1430865774.243,-84.3624
1430865774.259,-86.14458
1430865774.275,-84.401764
1430865774.29,-80.35495
1430865774.306,-75.27141
1430865774.321,-70.23395
1430865774.337,-65.91
1430865774.353,-62.500443
1430865774.368,-59.793472
1430865774.384,-57.359253
1430865774.4,-54.820007
1430865774.415,-51.973236
1430865774.431,-48.889923
1430865774.446,-45.785263
1430865774.462,-42.82373
1430865774.478,-39.936646
1430865774.493,-36.76729
1430865774.509,-32.767525
1430865774.525,-27.41391
1430865774.54,-20.474815
1430865774.556,-12.120598
1430865774.571,-2.8821259
1430865774.587,6.5746994
1430865774.603,15.62841
1430865774.618,23.922623
1430865774.634,31.415955
1430865774.65,38.38147
1430865774.665,45.357574
1430865774.681,53.04715
1430865774.696,62.04885
1430865774.712,72.48076
1430865774.728,83.52309
1430865774.743,93.3506
1430865774.759,99.424324
1430865774.775,99.24842
1430865774.79,91.256134
1430865774.806,75.44454
1430865774.821,53.367664
1430865774.837,27.636696
1430865774.853,1.1062584
1430865774.868,-23.827648
1430865774.884,-45.49648
1430865774.9,-62.922127
1430865774.915,-75.59721
1430865774.931,-83.37695
1430865774.946,-86.538086
1430865774.962,-85.80421
1430865774.978,-82.33546
1430865774.993,-77.498764
1430865775.009,-72.53572
1430865775.025,-68.26482
1430865775.04,-65.01726
1430865775.056,-62.7257
1430865775.072,-61.09047
1430865775.087,-59.846153
1430865775.103,-58.868683
1430865775.118,-58.14408
1430865775.134,-57.719284
1430865775.15,-57.63572
1430865775.165,-57.880604
1430865775.181,-58.394142
1430865775.197,-59.091484
1430865775.212,-59.877556
1430865775.228,-60.666374
1430865775.243,-61.37677
1430865775.259,-61.94834
1430865775.275,-62.304245
1430865775.29,-62.337837
1430865775.306,-61.82009
1430865775.322,-60.43849
1430865775.337,-57.808487
1430865775.353,-53.632736
1430865775.368,-47.78563
1430865775.384,-40.52269
1430865775.4,-32.385742
1430865775.415,-24.05931
1430865775.431,-16.14003
1430865775.447,-8.97345
1430865775.462,-2.5646515
1430865775.478,3.3189697
1430865775.493,8.979584
1430865775.509,14.652756
1430865775.525,20.513428
1430865775.54,26.63974
1430865775.556,33.020325
1430865775.572,39.52188
1430865775.587,45.94394
1430865775.603,51.993378
1430865775.618,57.493805
1430865775.634,62.44873
1430865775.65,67.10843
1430865775.665,71.808136
1430865775.681,76.82297
1430865775.697,82.14929
1430865775.712,87.476074
1430865775.728,92.35812
1430865775.743,96.40106
1430865775.759,99.47061
1430865775.775,101.74414
1430865775.79,103.543945
1430865775.806,105.19672
1430865775.822,106.93048
1430865775.837,108.80344
1430865775.853,110.78375
1430865775.868,112.79974
1430865775.884,114.74234
1430865775.9,116.502045
1430865775.915,117.87552
1430865775.931,118.71518
1430865775.947,118.95715
1430865775.962,118.81009
1430865775.978,118.83078
1430865775.993,119.838776
1430865776.009,122.67673
1430865776.025,127.73926
1430865776.04,134.54074
1430865776.056,141.5729
1430865776.072,146.51074
1430865776.087,146.8245
1430865776.103,140.55362
1430865776.118,126.90228
1430865776.134,106.42853
1430865776.15,80.90515
1430865776.165,52.73462
1430865776.181,24.440643
1430865776.197,-1.829071
1430865776.212,-24.489471
1430865776.228,-42.65793
1430865776.243,-55.976837
1430865776.259,-64.58197
1430865776.275,-68.9317
1430865776.29,-69.71008
1430865776.306,-67.75723
1430865776.322,-64.03134
1430865776.337,-59.453613
1430865776.353,-54.85742
1430865776.368,-50.812683
1430865776.384,-47.57312
1430865776.4,-45.122772
1430865776.415,-43.306976
1430865776.431,-41.886536
1430865776.447,-40.547638
1430865776.462,-38.82718
1430865776.478,-36.13739
1430865776.493,-31.922302
1430865776.509,-25.969788
1430865776.525,-18.555115
1430865776.54,-10.450348
1430865776.556,-2.5036926
1430865776.572,4.700287
1430865776.587,11.123596
1430865776.603,17.17987
1430865776.618,23.487457
1430865776.634,30.59259
1430865776.65,38.96698
1430865776.665,48.91443
1430865776.681,60.55475
1430865776.697,73.43375
1430865776.712,86.282196
1430865776.728,96.91626
1430865776.743,102.6642
1430865776.759,101.24118
1430865776.775,91.50729
1430865776.79,73.98596
1430865776.806,50.621674
1430865776.822,24.21289
1430865776.837,-2.3306427
1430865776.853,-26.677567
1430865776.868,-47.292328
1430865776.884,-63.413635
1430865776.9,-74.971115
1430865776.915,-82.324326
1430865776.931,-86.13376
1430865776.947,-87.18422
1430865776.962,-86.20343
1430865776.978,-83.765015
1430865776.993,-80.297714
1430865777.009,-76.14206
1430865777.025,-71.589294
1430865777.04,-66.96025
1430865777.056,-62.503433
1430865777.072,-58.36296
1430865777.087,-54.529343
1430865777.103,-50.870163
1430865777.118,-47.20833
1430865777.134,-43.34169
1430865777.15,-39.103302
1430865777.165,-34.358948
1430865777.181,-28.984467
1430865777.197,-22.898132
1430865777.212,-16.010803
1430865777.228,-8.35582
1430865777.243,-0.082084656
1430865777.259,8.534935
1430865777.275,17.18071
1430865777.29,25.72248
1430865777.306,34.403427
1430865777.322,43.774765
1430865777.337,54.474533
1430865777.353,66.62006
1430865777.368,79.37777
1430865777.384,90.85762
1430865777.4,98.401146
1430865777.415,99.458496
1430865777.431,92.46215
1430865777.447,77.37796
1430865777.462,55.74875
1430865777.478,30.217293
1430865777.493,3.7155228
1430865777.509,-21.211464
1430865777.525,-42.773766
1430865777.54,-60.002846
1430865777.556,-72.567345
1430865777.572,-80.57904
1430865777.587,-84.4005
1430865777.603,-84.64375
1430865777.618,-82.11633
1430865777.634,-77.78308
1430865777.65,-72.633865
1430865777.665,-67.50192
1430865777.681,-62.873474
1430865777.697,-58.81908
1430865777.712,-55.08415
1430865777.728,-51.33768
1430865777.744,-47.383884
1430865777.759,-43.339027
1430865777.775,-39.506653
1430865777.79,-36.182785
1430865777.806,-33.33274
1430865777.822,-30.546158
1430865777.837,-27.063686
1430865777.853,-22.221947
1430865777.869,-15.733551
1430865777.884,-7.858715
1430865777.9,0.6476364
1430865777.915,8.889849
1430865777.931,16.273258
1430865777.947,22.74791
1430865777.962,28.910896
1430865777.978,35.747604
1430865777.994,44.254105
1430865778.009,54.967457
1430865778.025,67.5939
1430865778.04,80.86664
1430865778.056,92.66626
1430865778.072,100.45927
1430865778.087,101.97193
1430865778.103,95.78566
1430865778.119,81.78386
1430865778.134,61.24288
1430865778.15,36.47147
1430865778.165,10.241176
1430865778.181,-14.789328
1430865778.197,-36.550312
1430865778.212,-53.6715
1430865778.228,-65.550095
1430865778.244,-72.20661
1430865778.259,-74.234436
1430865778.275,-72.688286
1430865778.29,-68.89415
1430865778.306,-64.17191
1430865778.322,-59.51651
1430865778.337,-55.359253
1430865778.353,-51.635532
1430865778.369,-47.957413
1430865778.384,-44.03109
1430865778.4,-39.838295
1430865778.415,-35.691067
1430865778.431,-32.01089
1430865778.447,-29.014248
1430865778.462,-26.51234
1430865778.478,-23.948132
1430865778.494,-20.602627
1430865778.509,-15.910931
1430865778.525,-9.673655
1430865778.54,-2.0904303
1430865778.556,6.382985
1430865778.572,15.156006
1430865778.587,23.765308
1430865778.603,31.911753
1430865778.619,39.51891
1430865778.634,46.819412
1430865778.65,54.321487
1430865778.665,62.653004
1430865778.681,72.25724
1430865778.697,82.955
1430865778.712,93.69483
1430865778.728,102.504944
1430865778.744,106.91496
1430865778.759,104.62447
1430865778.775,94.32913
1430865778.79,76.18348
1430865778.806,51.94068
1430865778.822,24.45541
1430865778.837,-3.0117035
1430865778.853,-27.66726
1430865778.869,-47.61263
1430865778.884,-62.00687
1430865778.9,-70.86522
1430865778.915,-74.71039
1430865778.931,-74.366356
1430865778.947,-70.80123
1430865778.962,-65.13498
1430865778.978,-58.551853
1430865778.994,-52.119617
1430865779.009,-46.62599
1430865779.025,-42.397583
1430865779.04,-39.327526
1430865779.056,-36.972336
1430865779.072,-34.89722
1430865779.087,-32.7513
1430865779.103,-30.405235
1430865779.119,-27.840885
1430865779.134,-25.001259
1430865779.15,-21.709877
1430865779.165,-17.67633
1430865779.181,-12.623375
1430865779.197,-6.3970337
1430865779.212,0.9059067
1430865779.228,8.951454
1430865779.244,17.342163
1430865779.259,25.731049
1430865779.275,34.13674
1430865779.29,42.938545
1430865779.306,52.820328
1430865779.322,64.35118
1430865779.337,77.61546
1430865779.353,91.785995
1430865779.369,105.01803
1430865779.384,114.73106
1430865779.4,118.264175
1430865779.415,113.68441
1430865779.431,100.418945
1430865779.447,79.50537
1430865779.462,53.28222
1430865779.478,24.733887
1430865779.494,-3.26783
1430865779.509,-28.532387
1430865779.525,-49.630524
1430865779.54,-65.92265
1430865779.556,-77.22932
1430865779.572,-83.74696
1430865779.587,-86.05006
1430865779.603,-85.09579
1430865779.619,-82.082306
1430865779.634,-78.14404
1430865779.65,-73.982635
1430865779.665,-69.735245
1430865779.681,-65.204735
1430865779.697,-60.234985
1430865779.712,-54.998756
1430865779.728,-50.115738
1430865779.744,-46.214203
1430865779.759,-43.51999
1430865779.775,-41.5878
1430865779.79,-39.429443
1430865779.806,-35.933517
1430865779.822,-30.433578
1430865779.837,-22.939972
1430865779.853,-14.053558
1430865779.869,-4.5967407
1430865779.884,4.7535095
1430865779.9,13.695587
1430865779.915,22.203537
1430865779.931,30.47786
1430865779.947,38.868225
1430865779.962,47.892807
1430865779.978,58.16481
1430865779.994,70.15028
1430865780.009,83.591064
1430865780.025,97.3004
1430865780.04,108.967545
1430865780.056,115.727875
1430865780.072,114.98291
1430865780.087,105.360916
1430865780.103,87.2054
1430865780.119,62.522903
1430865780.134,34.337753
1430865780.15,5.807251
1430865780.165,-20.496368
1430865780.181,-42.89119
1430865780.197,-60.543915
1430865780.212,-73.1579
1430865780.228,-80.8396
1430865780.244,-83.9823
1430865780.259,-83.362305
1430865780.275,-80.033325
1430865780.29,-75.21672
1430865780.306,-70.00377
1430865780.322,-65.10805
1430865780.337,-60.817123
1430865780.353,-57.07933
1430865780.369,-53.677734
1430865780.384,-50.454926
1430865780.4,-47.31761
1430865780.416,-44.287537
1430865780.431,-41.312042
1430865780.447,-38.23271
1430865780.462,-34.6929
1430865780.478,-30.290009
1430865780.494,-24.665146
1430865780.509,-17.727097
1430865780.525,-9.742157
1430865780.54,-1.288269
1430865780.556,6.959259
1430865780.572,14.539398
1430865780.587,21.432098
1430865780.603,28.131119
1430865780.619,35.51361
1430865780.634,44.447525
1430865780.65,55.50499
1430865780.666,68.534424
1430865780.681,82.522995
1430865780.697,95.629684
1430865780.712,105.493546
1430865780.728,109.69504
1430865780.744,106.400406
1430865780.759,94.909
1430865780.775,75.959015
1430865780.791,51.555466
1430865780.806,24.43866
1430865780.822,-2.579773
1430865780.837,-27.17781
1430865780.853,-47.809998
1430865780.869,-63.668564
1430865780.884,-74.5392
1430865780.9,-80.64717
1430865780.916,-82.65108
1430865780.931,-81.50296
1430865780.947,-78.36635
1430865780.962,-74.26962
1430865780.978,-69.93741
1430865780.994,-65.67241
1430865781.009,-61.472763
1430865781.025,-57.24962
1430865781.041,-53.046524
1430865781.056,-49.01906
1430865781.072,-45.399002
1430865781.087,-42.268784
1430865781.103,-39.500336
1430865781.119,-36.725525
1430865781.134,-33.483627
1430865781.15,-29.304886
1430865781.166,-23.900558
1430865781.181,-17.175873
1430865781.197,-9.30452
1430865781.212,-0.68388367
1430865781.228,8.163284
1430865781.244,16.72409
1430865781.259,24.707047
1430865781.275,32.206985
1430865781.291,39.72676
1430865781.306,48.089935
1430865781.322,58.04355
1430865781.337,69.89308
1430865781.353,83.03696
1430865781.369,95.82439
1430865781.384,105.747284
1430865781.4,110.071396
1430865781.416,106.63141
1430865781.431,94.63678
1430865781.447,74.993164
1430865781.462,50.020386
1430865781.478,22.799545
1430865781.494,-3.7466278
1430865781.509,-27.34813
1430865781.525,-46.67717
1430865781.541,-61.12294
1430865781.556,-70.54114
1430865781.572,-75.14111
1430865781.587,-75.4711
1430865781.603,-72.487
1430865781.619,-67.46768
1430865781.634,-61.73297
1430865781.65,-56.33792
1430865781.666,-51.868317
1430865781.681,-48.37018
1430865781.697,-45.494766
1430865781.712,-42.786636
1430865781.728,-39.90645
1430865781.744,-36.744675
1430865781.759,-33.396286
1430865781.775,-30.059052
1430865781.791,-26.837524
1430865781.806,-23.651947
1430865781.822,-20.199615
1430865781.837,-16.050064
1430865781.853,-10.84967
1430865781.869,-4.514679
1430865781.884,2.6710815
1430865781.9,10.169846
1430865781.916,17.404556
1430865781.931,24.080673
1430865781.947,30.35418
1430865781.962,36.8543
1430865781.978,44.4936
1430865781.994,54.069115
1430865782.009,65.882256
1430865782.025,79.286896
1430865782.041,92.58702
1430865782.056,103.24066
1430865782.072,108.48582
1430865782.087,106.16817
1430865782.103,95.470695
1430865782.119,77.2026
1430865782.134,53.571625
1430865782.15,27.51564
1430865782.166,1.923912
1430865782.181,-20.90747
1430865782.197,-39.516777
1430865782.212,-53.146637
1430865782.228,-61.628906
1430865782.244,-65.287575
1430865782.259,-64.891884
1430865782.275,-61.635445
1430865782.291,-56.896736
1430865782.306,-51.93141
1430865782.322,-47.5709
1430865782.337,-44.068268
1430865782.353,-41.224434
1430865782.369,-38.67862
1430865782.384,-36.168793
1430865782.4,-33.65777
1430865782.416,-31.274048
1430865782.431,-29.051773
1430865782.447,-26.831871
1430865782.462,-24.21209
1430865782.478,-20.73021
1430865782.494,-16.039131
1430865782.509,-10.142662
1430865782.525,-3.3216248
1430865782.541,3.9483337
1430865782.556,11.22876
1430865782.572,18.267418
1430865782.587,25.072311
1430865782.603,31.849075
1430865782.619,38.957428
1430865782.634,46.910744
1430865782.65,56.186928
1430865782.666,67.04421
1430865782.681,79.156975
1430865782.697,91.2423
1430865782.712,101.15447
1430865782.728,106.28821
1430865782.744,104.41278
1430865782.759,94.496994
1430865782.775,77.11867
1430865782.791,54.274467
1430865782.806,28.742218
1430865782.822,3.2938995
1430865782.837,-19.881042
1430865782.853,-39.294815
1430865782.869,-54.15014
1430865782.884,-64.135506
1430865782.9,-69.43347
1430865782.916,-70.73529
1430865782.931,-69.161125
1430865782.947,-66.07602
1430865782.962,-62.66133
1430865782.978,-59.663963
1430865782.994,-57.22992
1430865783.009,-55.07083
1430865783.025,-52.709076
1430865783.041,-49.829636
1430865783.056,-46.42202
1430865783.072,-42.761726
1430865783.088,-39.17456
1430865783.103,-35.84983
1430865783.119,-32.70121
1430865783.134,-29.312943
1430865783.15,-25.167847
1430865783.166,-19.845848
1430865783.181,-13.211647
1430865783.197,-5.4713364
1430865783.212,2.9636154
1430865783.228,11.612938
1430865783.244,20.109001
1430865783.259,28.319366
1430865783.275,36.336792
1430865783.291,44.537567
1430865783.306,53.46882
1430865783.322,63.681633
1430865783.338,75.36731
1430865783.353,87.93607
1430865783.369,99.82347
1430865783.384,108.66163
1430865783.4,111.87334
1430865783.416,107.52324
1430865783.431,95.03264
1430865783.447,75.405174
1430865783.463,50.937645
1430865783.478,24.498482
1430865783.494,-1.2506409
1430865783.509,-24.353233
1430865783.525,-43.640198
1430865783.541,-58.561417
1430865783.556,-68.90018
1430865783.572,-74.69713
1430865783.588,-76.26711
1430865783.603,-74.37218
1430865783.619,-70.18302
1430865783.634,-65.14364
1430865783.65,-60.544243
1430865783.666,-57.184196
1430865783.681,-55.163567
1430865783.697,-53.926483
1430865783.713,-52.60328
1430865783.728,-50.460228
1430865783.744,-47.24575
1430865783.759,-43.233505
1430865783.775,-39.018394
1430865783.791,-35.120064
1430865783.806,-31.629898
1430865783.822,-28.18996
1430865783.838,-24.095215
1430865783.853,-18.817097
1430865783.869,-12.209129
1430865783.884,-4.6524887
1430865783.9,3.1875877
1430865783.916,10.649097
1430865783.931,17.433739
1430865783.947,23.697731
1430865783.963,30.003864
1430865783.978,37.083076
1430865783.994,45.617973
1430865784.009,56.075783
1430865784.025,68.43836
1430865784.041,81.99223
1430865784.056,95.23135
1430865784.072,105.93376
1430865784.088,111.616684
1430865784.103,110.189545
1430865784.119,100.72547
1430865784.134,83.76448
1430865784.15,61.222263
1430865784.166,35.782536
1430865784.181,10.166157
1430865784.197,-13.561699
1430865784.213,-34.06205
1430865784.228,-50.677685
1430865784.244,-63.094254
1430865784.259,-71.147
1430865784.275,-74.906654
1430865784.291,-74.85343
1430865784.306,-71.92218
1430865784.322,-67.41388
1430865784.338,-62.59964
1430865784.353,-58.371525
1430865784.369,-55.08447
1430865784.384,-52.60562
1430865784.4,-50.496555
1430865784.416,-48.397953
1430865784.431,-46.07549
1430865784.447,-43.51785
1430865784.463,-40.85696
1430865784.478,-38.266525
1430865784.494,-35.818336
1430865784.509,-33.395428
1430865784.525,-30.624279
1430865784.541,-26.95002
1430865784.556,-21.823801
1430865784.572,-15.045376
1430865784.588,-6.82662
1430865784.603,2.129654
1430865784.619,10.983751
1430865784.634,19.09458
1430865784.65,26.221289
1430865784.666,32.59925
1430865784.681,38.757847
1430865784.697,45.341812
1430865784.713,53.05744
1430865784.728,62.46039
1430865784.744,73.71427
1430865784.759,86.245255
1430865784.775,98.5421
1430865784.791,108.20725
1430865784.806,112.591415
1430865784.822,109.59028
1430865784.838,98.44091
1430865784.853,80.021484
1430865784.869,56.53402
1430865784.884,30.804045
1430865784.9,5.5464907
1430865784.916,-17.263075
1430865784.931,-36.417023
1430865784.947,-51.36676
1430865784.963,-61.935448
1430865784.978,-68.21837
1430865784.994,-70.54429
1430865785.009,-69.534096
1430865785.025,-66.153725
1430865785.041,-61.601604
1430865785.056,-57.03425
1430865785.072,-53.303326
1430865785.088,-50.577995
1430865785.103,-48.525833
1430865785.119,-46.478043
1430865785.134,-43.88022
1430865785.15,-40.580154
1430865785.166,-36.911934
1430865785.181,-33.389107
1430865785.197,-30.390888
1430865785.213,-27.927984
1430865785.228,-25.567574
1430865785.244,-22.689266
1430865785.259,-18.733027
1430865785.275,-13.411152
1430865785.291,-6.7845078
1430865785.306,0.7893219
1430865785.322,8.778595
1430865785.338,16.627064
1430865785.353,23.90773
1430865785.369,30.472157
1430865785.384,36.4889
1430865785.4,42.44284
1430865785.416,49.016953
1430865785.431,56.91191
1430865785.447,66.53132
1430865785.463,77.79143
1430865785.478,89.77367
1430865785.494,100.72055
1430865785.509,108.240036
1430865785.525,109.911255
1430865785.541,104.03075
1430865785.556,90.244644
1430865785.572,69.72438
1430865785.588,44.894398
1430865785.603,18.663368
1430865785.619,-6.281067
1430865785.634,-27.975754
1430865785.65,-45.220665
1430865785.666,-57.48455
1430865785.681,-64.69089
1430865785.697,-67.2057
1430865785.713,-65.845184
1430865785.728,-61.888622
1430865785.744,-56.81323
1430865785.759,-51.948063
1430865785.775,-48.121445
1430865785.791,-45.52851
1430865785.806,-43.814365
1430865785.822,-42.395714
1430865785.838,-40.696312
1430865785.853,-38.456383
1430865785.869,-35.69347
1430865785.884,-32.671196
1430865785.9,-29.683205
1430865785.916,-26.869991
1430865785.931,-24.079739
1430865785.947,-20.871174
1430865785.963,-16.669338
1430865785.978,-11.021744
1430865785.994,-3.8325768
1430865786.01,4.5084724
1430865786.025,13.305622
1430865786.041,21.815392
1430865786.056,29.598572
1430865786.072,36.641834
1430865786.088,43.37657
1430865786.103,50.48626
1430865786.119,58.69692
1430865786.135,68.492355
1430865786.15,79.83348
1430865786.166,91.92451
1430865786.181,103.138916
1430865786.197,111.19539
1430865786.213,113.79139
1430865786.228,109.26792
1430865786.244,97.18857
1430865786.26,78.50112
1430865786.275,55.27395
1430865786.291,29.983856
1430865786.306,4.9321632
1430865786.322,-18.103424
1430865786.338,-37.92967
1430865786.353,-53.804497
1430865786.369,-65.24661
1430865786.385,-72.12544
1430865786.4,-74.69268
1430865786.416,-73.70096
1430865786.431,-70.33533
1430865786.447,-65.92984
1430865786.463,-61.619133
1430865786.478,-58.11059
1430865786.494,-55.524326
1430865786.51,-53.534035
1430865786.525,-51.6328
1430865786.541,-49.426548
1430865786.556,-46.779007
1430865786.572,-43.838093
1430865786.588,-40.796875
1430865786.603,-37.755146
1430865786.619,-34.56583
1430865786.635,-30.907925
1430865786.65,-26.389488
1430865786.666,-20.754456
1430865786.681,-13.925198
1430865786.697,-6.0656967
1430865786.713,2.4842796
1430865786.728,11.251961
1430865786.744,19.760738
1430865786.76,27.624447
1430865786.775,34.766937
1430865786.791,41.46231
1430865786.806,48.329903
1430865786.822,56.159805
1430865786.838,65.695076
1430865786.853,77.1874
1430865786.869,90.15568
1430865786.885,103.17375
1430865786.9,114.060005
1430865786.916,120.24542
1430865786.931,119.53287
1430865786.947,110.78084
1430865786.963,94.437096
1430865786.978,72.37451
1430865786.994,47.301586
1430865787.01,21.896088
1430865787.025,-1.8665733
1430865787.041,-22.92529
1430865787.056,-40.823822
1430865787.072,-55.29964
1430865787.088,-66.02583
1430865787.103,-72.7462
1430865787.119,-75.54076
1430865787.135,-75.092606
1430865787.15,-72.49645
1430865787.166,-68.9957
1430865787.181,-65.49457
1430865787.197,-62.458424
1430865787.213,-59.881996
1430865787.228,-57.57158
1430865787.244,-55.330288
1430865787.26,-53.116253
1430865787.275,-50.969948
1430865787.291,-48.94387
1430865787.306,-46.983826
1430865787.322,-44.92543
1430865787.338,-42.43937
1430865787.353,-39.140907
1430865787.369,-34.683838
1430865787.385,-28.924332
1430865787.4,-21.875774
1430865787.416,-13.879616
1430865787.431,-5.3905087
1430865787.447,3.1072598
1430865787.463,11.199261
1430865787.478,18.602491
1430865787.494,25.237926
1430865787.51,31.314571
1430865787.525,37.515198
1430865787.541,44.783653
1430865787.556,54.081085
1430865787.572,65.84072
1430865787.588,79.55007
1430865787.603,93.58458
1430865787.619,105.53282
1430865787.635,112.804405
1430865787.65,113.404564
1430865787.666,106.380035
1430865787.681,92.0853
1430865787.697,71.90669
1430865787.713,47.957405
1430865787.728,22.571384
1430865787.744,-2.0816517
1430865787.76,-24.29033
1430865787.775,-42.893265
1430865787.791,-57.28977
1430865787.806,-67.32018
1430865787.822,-73.13396
1430865787.838,-75.19253
1430865787.853,-74.20559
1430865787.869,-71.093124
1430865787.885,-67.00525
1430865787.9,-62.90528
1430865787.916,-59.551476
1430865787.931,-57.21209
1430865787.947,-55.75684
1430865787.963,-54.78583
1430865787.978,-53.80349
1430865787.994,-52.39559
1430865788.01,-50.319733
1430865788.025,-47.54037
1430865788.041,-44.174583
1430865788.056,-40.453186
1430865788.072,-36.58223
1430865788.088,-32.548332
1430865788.103,-28.121315
1430865788.119,-22.89719
1430865788.135,-16.560625
1430865788.15,-9.033621
1430865788.166,-0.6623001
1430865788.181,7.9503975
1430865788.197,16.13443
1430865788.213,23.46743
1430865788.228,29.922817
1430865788.244,35.874474
1430865788.26,41.966988
1430865788.275,48.98908
1430865788.291,57.667305
1430865788.306,68.429665
1430865788.322,81.10943
1430865788.338,94.652214
1430865788.353,107.04993
1430865788.369,115.68301
1430865788.385,117.961845
1430865788.4,112.20633
1430865788.416,98.18851
1430865788.431,77.31544
1430865788.447,52.21021
1430865788.463,25.941168
1430865788.478,1.215416
1430865788.494,-20.137566
1430865788.51,-37.26768
1430865788.525,-50.057083
1430865788.541,-58.817955
1430865788.556,-63.96375
1430865788.572,-65.99014
1430865788.588,-65.487686
1430865788.603,-63.25274
1430865788.619,-60.17111
1430865788.635,-57.09912
1430865788.65,-54.588135
1430865788.666,-52.75798
1430865788.682,-51.33259
1430865788.697,-49.928062
1430865788.713,-48.228043
1430865788.728,-46.230827
1430865788.744,-44.14061
1430865788.76,-42.189064
1430865788.775,-40.433586
1430865788.791,-38.673843
1430865788.807,-36.4409
1430865788.822,-33.16898
1430865788.838,-28.337307
1430865788.853,-21.690418
1430865788.869,-13.349743
1430865788.885,-3.9062614
1430865788.9,5.8253784
1430865788.916,14.930252
1430865788.932,22.793247
1430865788.947,29.332268
1430865788.963,35.01881
1430865788.978,40.670418
1430865788.994,47.204628
1430865789.01,55.347622
1430865789.025,65.53881
1430865789.041,77.623276
1430865789.057,90.72496
1430865789.072,103.064926
1430865789.088,112.213135
1430865789.103,115.53647
1430865789.119,111.05185
1430865789.135,98.168015
1430865789.15,77.92633
1430865789.166,52.673943
1430865789.182,25.356995
1430865789.197,-1.302021
1430865789.213,-25.141815
1430865789.228,-44.767582
1430865789.244,-59.36969
1430865789.26,-68.647804
1430865789.275,-72.79898
1430865789.291,-72.60363
1430865789.307,-69.29841
1430865789.322,-64.375404
1430865789.338,-59.223183
1430865789.353,-54.85852
1430865789.369,-51.71962
1430865789.385,-49.746315
1430865789.4,-48.41517
1430865789.416,-47.06853
1430865789.432,-45.168503
1430865789.447,-42.51961
1430865789.463,-39.29633
1430865789.478,-35.935486
1430865789.494,-32.820206
1430865789.51,-29.978077
1430865789.525,-27.002636
1430865789.541,-23.21745
1430865789.557,-17.984646
1430865789.572,-11.118996
1430865789.588,-2.882698
1430865789.603,6.087368
1430865789.619,15.090748
1430865789.635,23.552917
1430865789.65,31.298805
1430865789.666,38.373726
1430865789.682,45.117073
1430865789.697,52.13815
1430865789.713,60.109734
1430865789.728,69.577446
1430865789.744,80.57805
1430865789.76,92.37927
1430865789.775,103.413414
1430865789.791,111.51387
1430865789.807,114.40926
1430865789.822,110.36202
1430865789.838,98.704865
1430865789.853,79.996025
1430865789.869,56.0312
1430865789.885,29.30324
1430865789.9,2.5231762
1430865789.916,-21.977543
1430865789.932,-42.55668
1430865789.947,-58.38217
1430865789.963,-69.24732
1430865789.978,-75.40351
1430865789.994,-77.4212
1430865790.01,-76.13744
1430865790.025,-72.63165
1430865790.041,-68.190735
1430865790.057,-64.03674
1430865790.072,-61.013214
1430865790.088,-59.353172
1430865790.103,-58.6537
1430865790.119,-58.09256
1430865790.135,-56.93214
1430865790.15,-54.686142
1430865790.166,-51.3845
1430865790.182,-47.439545
1430865790.197,-43.353355
1430865790.213,-39.43509
1430865790.228,-35.64257
1430865790.244,-31.565178
1430865790.26,-26.589005
1430865790.275,-20.220076
1430865790.291,-12.305136
1430865790.307,-3.1785011
1430865790.322,6.452215
1430865790.338,15.837053
1430865790.353,24.402857
1430865790.369,32.00836
1430865790.385,38.889153
1430865790.4,45.633186
1430865790.416,52.89515
1430865790.432,61.38642
1430865790.447,71.61754
1430865790.463,83.60347
1430865790.478,96.52054
1430865790.494,108.5704
1430865790.51,117.14366
1430865790.525,119.577446
1430865790.541,114.02324
1430865790.557,100.19777
1430865790.572,79.49899
1430865790.588,54.53416
1430865790.603,28.15181
1430865790.619,2.7046928
1430865790.635,-20.32497
1430865790.65,-40.196804
1430865790.666,-56.503853
1430865790.682,-68.81244
1430865790.697,-76.68802
1430865790.713,-79.846016
1430865790.728,-78.55913
1430865790.744,-73.87477
1430865790.76,-67.545425
1430865790.775,-61.43103
1430865790.791,-57.072693
1430865790.807,-55.061867
1430865790.822,-54.969604
1430865790.838,-55.68161
1430865790.853,-56.034
1430865790.869,-55.32537
1430865790.885,-53.519176
1430865790.9,-50.952244
1430865790.916,-47.924385
1430865790.932,-44.43911
1430865790.947,-40.226303
1430865790.963,-34.969044
1430865790.978,-28.653053
1430865790.994,-21.549116
1430865791.01,-14.088437
1430865791.025,-6.592719
1430865791.041,0.8262844
1430865791.057,8.259309
1430865791.072,15.811764
1430865791.088,23.593575
1430865791.103,31.66798
1430865791.119,40.143215
1430865791.135,49.256317
1430865791.15,59.29284
1430865791.166,70.40407
1430865791.182,82.299545
1430865791.197,94.04816
1430865791.213,103.97529
1430865791.228,109.925446
1430865791.244,109.87915
1430865791.26,102.483986
1430865791.275,87.83424
1430865791.291,67.37842
1430865791.307,43.559708
1430865791.322,18.988104
1430865791.338,-4.2409554
1430865791.354,-24.860813
1430865791.369,-42.2677
1430865791.385,-56.102863
1430865791.4,-66.06481
1430865791.416,-71.87825
1430865791.432,-73.62251
1430865791.447,-71.97826
1430865791.463,-68.18374
1430865791.479,-63.71778
1430865791.494,-59.825386
1430865791.51,-57.18768
1430865791.525,-55.745415
1430865791.541,-54.966694
1430865791.557,-54.14167
1430865791.572,-52.753616
1430865791.588,-50.666145
1430865791.604,-48.099506
1430865791.619,-45.44941
1430865791.635,-43.04693
1430865791.65,-40.90599
1430865791.666,-38.667023
1430865791.682,-35.721066
1430865791.697,-31.449577
1430865791.713,-25.504261
1430865791.729,-17.951317
1430865791.744,-9.2318535
1430865791.76,0.0042152405
1430865791.775,9.157604
1430865791.791,17.796852
1430865791.807,25.777977
1430865791.822,33.176044
1430865791.838,40.370018
1430865791.854,47.90113
1430865791.869,56.395042
1430865791.885,66.29991
1430865791.9,77.582
1430865791.916,89.37111
1430865791.932,99.92796
1430865791.947,106.90022
1430865791.963,107.97519
1430865791.979,101.65134
1430865791.994,87.80014
1430865792.01,67.762344
1430865792.025,43.95452
1430865792.041,19.120907
1430865792.057,-4.333
1430865792.072,-24.759254
1430865792.088,-41.195156
1430865792.104,-53.24033
1430865792.119,-60.73665
1430865792.135,-63.846867
1430865792.15,-63.098904
1430865792.166,-59.51504
1430865792.182,-54.549442
1430865792.197,-49.708035
1430865792.213,-46.075314
1430865792.229,-44.006554
1430865792.244,-43.1081
1430865792.26,-42.564804
1430865792.275,-41.529556
1430865792.291,-39.617355
1430865792.307,-36.961296
1430865792.322,-34.111298
1430865792.338,-31.673141
1430865792.354,-29.998734
1430865792.369,-28.938179
1430865792.385,-27.913689
1430865792.4,-26.098976
1430865792.416,-22.784897
1430865792.432,-17.624428
1430865792.447,-10.754837
1430865792.463,-2.6363754
1430865792.479,6.085762
1430865792.494,14.821144
1430865792.51,23.209099
1430865792.525,31.081215
1430865792.541,38.52909
1430865792.557,45.847702
1430865792.572,53.56375
1430865792.588,62.36022
1430865792.604,72.67256
1430865792.619,84.2411
1430865792.635,95.67554
1430865792.65,104.597694
1430865792.666,108.206604
1430865792.682,104.349495
1430865792.697,92.37086
1430865792.713,73.43995
1430865792.729,50.111847
1430865792.744,25.484344
1430865792.76,2.2311478
1430865792.775,-17.802849
1430865792.791,-33.683334
1430865792.807,-45.09323
1430865792.822,-52.08246
1430865792.838,-54.94777
1430865792.854,-54.37876
1430865792.869,-51.468544
1430865792.885,-47.584846
1430865792.9,-44.026764
1430865792.916,-41.673424
1430865792.932,-40.67064
1430865792.947,-40.58103
1430865792.963,-40.516426
1430865792.979,-39.630295
1430865792.994,-37.494835
1430865793.01,-34.262848
1430865793.025,-30.463615
1430865793.041,-26.753532
1430865793.057,-23.469246
1430865793.072,-20.427483
1430865793.088,-17.049873
1430865793.104,-12.6489105
1430865793.119,-6.842392
1430865793.135,0.2957077
1430865793.15,8.352119
1430865793.166,16.71421
1430865793.182,24.882729
1430865793.197,32.541664
1430865793.213,39.657333
1430865793.229,46.433975
1430865793.244,53.381546
1430865793.26,61.20153
1430865793.275,70.518364
1430865793.291,81.379364
1430865793.307,92.86324
1430865793.322,102.9538
1430865793.338,109.03708
1430865793.354,108.726654
1430865793.369,100.73773
1430865793.385,85.3773
1430865793.4,64.403496
1430865793.416,40.33674
1430865793.432,15.709663
1430865793.447,-7.494858
1430865793.463,-27.960037
1430865793.479,-44.85247
1430865793.494,-57.608734
1430865793.51,-65.95418
1430865793.525,-69.91579
1430865793.541,-70.0621
1430865793.557,-67.45028
1430865793.572,-63.41559
1430865793.588,-59.224037
1430865793.604,-55.749443
1430865793.619,-53.263367
1430865793.635,-51.520706
1430865793.65,-49.98214
1430865793.666,-48.190414
1430865793.682,-45.945366
1430865793.697,-43.36526
1430865793.713,-40.66206
1430865793.729,-37.93317
1430865793.744,-34.99066
1430865793.76,-31.366367
1430865793.775,-26.482048
1430865793.791,-19.99039
1430865793.807,-11.914497
1430865793.822,-2.7340012
1430865793.838,6.7743034
1430865793.854,15.857609
1430865793.869,24.063492
1430865793.885,31.389278
1430865793.9,38.311764
1430865793.916,45.598206
1430865793.932,54.09386
1430865793.947,64.39101
1430865793.963,76.58168
1430865793.979,89.93652
1430865793.994,102.82443
1430865794.01,112.91156
1430865794.026,117.652374
1430865794.041,115.0138
1430865794.057,104.158585
1430865794.072,85.783745
1430865794.088,62.001476
1430865794.104,35.697884
1430865794.119,9.70031
1430865794.135,-13.866274
1430865794.15,-33.81776
1430865794.166,-49.738483
1430865794.182,-61.58618
1430865794.197,-69.431656
1430865794.213,-73.45674
1430865794.229,-74.07535
1430865794.244,-72.08621
1430865794.26,-68.57046
1430865794.276,-64.618034
1430865794.291,-61.018017
1430865794.307,-58.034786
1430865794.322,-55.515007
1430865794.338,-53.06426
1430865794.354,-50.408493
1430865794.369,-47.535015
1430865794.385,-44.675003
1430865794.401,-42.05438
1430865794.416,-39.725613
1430865794.432,-37.407177
1430865794.447,-34.539886
1430865794.463,-30.423481
1430865794.479,-24.531141
1430865794.494,-16.779161
1430865794.51,-7.5785456
1430865794.526,2.2415452
1430865794.541,11.699967
1430865794.557,20.088505
1430865794.572,27.17062
1430865794.588,33.338715
1430865794.604,39.385597
1430865794.619,46.333923
1430865794.635,54.99819
1430865794.651,65.74762
1430865794.666,78.12187
1430865794.682,90.73426
1430865794.697,101.34097
1430865794.713,107.33798
1430865794.729,106.42275
1430865794.744,97.40893
1430865794.76,80.648544
1430865794.776,57.94526
1430865794.791,31.995396
1430865794.807,5.605482
1430865794.822,-18.942677
1430865794.838,-40.07847
1430865794.854,-56.90155
1430865794.869,-68.95898
1430865794.885,-76.22313
1430865794.901,-78.94873
1430865794.916,-77.95702
1430865794.932,-74.394226
1430865794.947,-69.642456
1430865794.963,-64.87889
1430865794.979,-60.827682
1430865794.994,-57.653847
1430865795.01,-55.03801
1430865795.026,-52.41657
1430865795.041,-49.301613
1430865795.057,-45.530437
1430865795.072,-41.359173
1430865795.088,-37.30014
1430865795.104,-33.89622
1430865795.119,-31.35736
1430865795.135,-29.428406
1430865795.151,-27.484982
1430865795.166,-24.8111
1430865795.182,-20.901577
1430865795.197,-15.686413
1430865795.213,-9.351463
1430865795.229,-2.2910576
1430865795.244,5.144581
1430865795.26,12.676895
1430865795.276,20.178074
1430865795.291,27.640697
1430865795.307,35.284184
1430865795.322,43.59059
1430865795.338,53.13136
1430865795.354,64.22658
1430865795.369,76.50623
1430865795.385,88.56363
1430865795.401,98.21253
1430865795.416,102.96724
1430865795.432,100.86517
1430865795.447,91.108215
1430865795.463,74.32465
1430865795.479,52.347572
1430865795.494,27.665836
1430865795.51,2.7920952
1430865795.526,-20.193142
1430865795.541,-39.83148
1430865795.557,-55.252567
1430865795.572,-66.09026
1430865795.588,-72.298965
1430865795.604,-74.210045
1430865795.619,-72.57279
1430865795.635,-68.52996
1430865795.651,-63.431767
1430865795.666,-58.558853
1430865795.682,-54.74806
1430865795.697,-52.232895
1430865795.713,-50.643322
1430865795.729,-49.349052
1430865795.744,-47.776943
1430865795.76,-45.694454
1430865795.776,-43.123814
1430865795.791,-40.263786
1430865795.807,-37.208588
1430865795.822,-33.865963
1430865795.838,-29.9463
1430865795.854,-25.170914
1430865795.869,-19.34623
1430865795.885,-12.475723
1430865795.901,-4.792095
1430865795.916,3.3220558
1430865795.932,11.452641
1430865795.947,19.269203
1430865795.963,26.704609
1430865795.979,33.968365
1430865795.994,41.467888
1430865796.01,49.666576
1430865796.026,58.96675
1430865796.041,69.538666
1430865796.057,81.13512
1430865796.072,92.903824
1430865796.088,103.2973
1430865796.104,110.192215
1430865796.119,111.39182
1430865796.135,105.29467
1430865796.151,91.57675
1430865796.166,71.41472
1430865796.182,47.14672
1430865796.197,21.59703
1430865796.213,-2.7194862
1430865796.229,-24.087784
1430865796.244,-41.546055
1430865796.26,-54.67602
1430865796.276,-63.272495
1430865796.291,-67.33901
1430865796.307,-67.2281
1430865796.322,-63.84365
1430865796.338,-58.522068
1430865796.354,-52.766632
1430865796.369,-47.80529
1430865796.385,-44.295994
1430865796.401,-42.261772
1430865796.416,-41.315067
1430865796.432,-40.885994
1430865796.447,-40.49449
1430865796.463,-39.806953
1430865796.479,-38.62599
1430865796.494,-36.78069
1430865796.51,-34.112503
1430865796.526,-30.391533
1430865796.541,-25.423283
1430865796.557,-19.10305
1430865796.572,-11.602005
1430865796.588,-3.215973
1430865796.604,5.515335
1430865796.619,14.027271
1430865796.635,21.89515
1430865796.651,28.86694
1430865796.666,35.048252
1430865796.682,40.889946
1430865796.697,47.216522
1430865796.713,55.121887
1430865796.729,65.45176
1430865796.744,78.30536
1430865796.76,92.474365
1430865796.776,105.468475
1430865796.791,113.997955
1430865796.807,115.1207
1430865796.822,107.27475
1430865796.838,90.86038
1430865796.854,67.99857
1430865796.869,41.704556
1430865796.885,14.919388
1430865796.901,-10.121353
1430865796.916,-32.006886
1430865796.932,-49.88674
1430865796.948,-63.260773
1430865796.963,-71.83486
1430865796.979,-75.76567
1430865796.994,-75.73151
1430865797.01,-72.91502
1430865797.026,-68.755226
1430865797.041,-64.51286
1430865797.057,-60.91266
1430865797.073,-58.12862
1430865797.088,-55.690792
1430865797.104,-52.948032
1430865797.119,-49.40698
1430865797.135,-45.056755
1430865797.151,-40.371777
1430865797.166,-36.0896
1430865797.182,-32.7763
1430865797.198,-30.488235
1430865797.213,-28.641766
1430865797.229,-26.280354
1430865797.244,-22.465782
1430865797.26,-16.690407
1430865797.276,-8.954395
1430865797.291,0.21882248
1430865797.307,10.057976
1430865797.323,19.745216
1430865797.338,28.70412
1430865797.354,36.65939
1430865797.369,43.84512
1430865797.385,50.983788
1430865797.401,59.044918
1430865797.416,68.83975
1430865797.432,80.45005
1430865797.448,92.797485
1430865797.463,103.83599
1430865797.479,110.94175
1430865797.494,111.76816
1430865797.51,104.98407
1430865797.526,90.64737
1430865797.541,70.091
1430865797.557,45.525093
1430865797.573,19.42778
1430865797.588,-5.9130096
1430865797.604,-28.646889
1430865797.619,-47.425232
1430865797.635,-61.415016
1430865797.651,-70.27188
1430865797.666,-74.21404
1430865797.682,-74.0213
1430865797.698,-70.96971
1430865797.713,-66.50978
1430865797.729,-62.01815
1430865797.744,-58.394745
1430865797.76,-55.95443
1430865797.776,-54.51451
1430865797.791,-53.613213
1430865797.807,-52.77105
1430865797.823,-51.682487
1430865797.838,-50.070786
1430865797.854,-47.769295
1430865797.869,-44.62713
1430865797.885,-40.580338
1430865797.901,-35.703697
1430865797.916,-30.167778
1430865797.932,-24.146988
1430865797.948,-17.709053
1430865797.963,-10.776726
1430865797.979,-3.2340317
1430865797.994,4.8871765
1430865798.01,13.345528
1430865798.026,21.807701
1430865798.041,30.03492
1430865798.057,38.173874
1430865798.073,46.79164
1430865798.088,56.691605
1430865798.104,68.4103
1430865798.119,81.69406
1430865798.135,95.160255
1430865798.151,106.40146
1430865798.166,112.564064
1430865798.182,111.29909
1430865798.198,101.52666
1430865798.213,84.01094
1430865798.229,60.994347
1430865798.244,35.423676
1430865798.26,10.068138
1430865798.276,-13.172127
1430865798.291,-33.357643
1430865798.307,-50.113182
1430865798.323,-63.2183
1430865798.338,-72.383286
1430865798.354,-77.353134
1430865798.369,-78.261185
1430865798.385,-75.877556
1430865798.401,-71.461075
1430865798.416,-66.44638
1430865798.432,-61.972237
1430865798.448,-58.594994
1430865798.463,-56.20012
1430865798.479,-54.285698
1430865798.494,-52.2547
1430865798.51,-49.73986
1430865798.526,-46.715385
1430865798.541,-43.475174
1430865798.557,-40.37034
1430865798.573,-37.584824
1430865798.588,-34.94422
1430865798.604,-31.9179
1430865798.619,-27.903137
1430865798.635,-22.470352
1430865798.651,-15.599373
1430865798.666,-7.7173615
1430865798.682,0.5013199
1430865798.698,8.4166565
1430865798.713,15.666733
1430865798.729,22.298271
1430865798.744,28.735245
1430865798.76,35.63893
1430865798.776,43.846596
1430865798.791,54.005966
1430865798.807,66.3336
1430865798.823,80.188736
1430865798.838,93.99026
1430865798.854,105.2658
1430865798.869,111.299835
1430865798.885,109.936134
1430865798.901,100.247955
1430865798.916,82.903114
1430865798.932,59.926125
1430865798.948,34.120445
1430865798.963,8.368774
1430865798.979,-14.976486
1430865798.994,-34.39334
1430865799.01,-49.235527
1430865799.026,-59.468422
1430865799.041,-65.54874
1430865799.057,-68.12538
1430865799.073,-68.008675
1430865799.088,-66.09086
1430865799.104,-63.29307
1430865799.119,-60.415794
1430865799.135,-58.007286
1430865799.151,-56.122982
1430865799.166,-54.41343
1430865799.182,-52.316624
1430865799.198,-49.391556
1430865799.213,-45.63677
1430865799.229,-41.49616
1430865799.244,-37.63068
1430865799.26,-34.525963
1430865799.276,-32.20223
1430865799.291,-30.096176
1430865799.307,-27.327404
1430865799.323,-23.123184
1430865799.338,-17.033203
1430865799.354,-9.188572
1430865799.369,-0.19320297
1430865799.385,9.079033
1430865799.401,17.850422
1430865799.416,25.617947
1430865799.432,32.386753
1430865799.448,38.591717
1430865799.463,44.97611
1430865799.479,52.38496
1430865799.494,61.45339
1430865799.51,72.31705
1430865799.526,84.42528
1430865799.541,96.357605
1430865799.557,105.905624
1430865799.573,110.545715
1430865799.588,108.112976
1430865799.604,97.53866
1430865799.62,79.37651
1430865799.635,55.64344
1430865799.651,29.357197
1430865799.666,3.5640488
1430865799.682,-19.319052
1430865799.698,-37.880024
1430865799.713,-51.57788
1430865799.729,-60.464165
1430865799.745,-64.89118
1430865799.76,-65.4546
1430865799.776,-63.02765
1430865799.791,-58.745277
1430865799.807,-53.877823
1430865799.823,-49.52645
1430865799.838,-46.358894
1430865799.854,-44.446976
1430865799.87,-43.38929
1430865799.885,-42.552605
1430865799.901,-41.34256
1430865799.916,-39.467285
1430865799.932,-36.91983
1430865799.948,-33.99037
1430865799.963,-30.855745
1430865799.979,-27.580557
1430865799.995,-23.879225
1430865800.01,-19.291756
1430865800.026,-13.440303
1430865800.041,-6.2528877
1430865800.057,1.9263306
1430865800.073,10.531393
1430865800.088,19.111174
1430865800.104,27.528383
1430865800.12,35.962517
1430865800.135,44.72549
1430865800.151,54.06867
1430865800.166,64.07615
1430865800.182,74.64129
1430865800.198,85.432175
1430865800.213,95.766556
1430865800.229,104.41228
1430865800.245,109.65054
1430865800.26,109.5533
1430865800.276,102.72515
1430865800.291,88.849304
1430865800.307,69.02509
1430865800.323,45.471745
1430865800.338,20.791637
1430865800.354,-2.713026
1430865800.37,-23.518328
1430865800.385,-40.796036
1430865800.401,-54.237404
1430865800.416,-63.700268
1430865800.432,-69.20288
1430865800.448,-71.04008
1430865800.463,-69.68559
1430865800.479,-65.964615
1430865800.495,-60.814827
1430865800.51,-55.18512
1430865800.526,-49.852905
1430865800.541,-45.338154
1430865800.557,-41.86039
1430865800.573,-39.375008
1430865800.588,-37.69146
1430865800.604,-36.521545
1430865800.62,-35.57204
1430865800.635,-34.5607
1430865800.651,-33.13012
1430865800.666,-30.838215
1430865800.682,-27.240938
1430865800.698,-22.022158
1430865800.713,-15.127762
1430865800.729,-6.902239
1430865800.745,2.0531788
1430865800.76,11.023329
1430865800.776,19.467758
1430865800.791,27.174234
1430865800.807,34.367172
1430865800.823,41.67768
1430865800.838,50.05613
1430865800.854,60.42112
1430865800.87,73.165085
1430865800.885,87.65161
1430865800.901,102.04399
1430865800.916,113.49594
1430865800.932,119.02344
1430865800.948,116.46164
1430865800.963,105.19621
1430865800.979,86.35339
1430865800.995,62.33376
1430865801.01,36.063087
1430865801.026,10.245628
1430865801.041,-13.05928
1430865801.057,-32.57926
1430865801.073,-47.7404
1430865801.088,-58.464725
1430865801.104,-65.112564
1430865801.12,-68.29819
1430865801.135,-68.84775
1430865801.151,-67.65166
1430865801.166,-65.52034
1430865801.182,-63.09815
1430865801.198,-60.767635
1430865801.213,-58.521416
1430865801.229,-56.102287
1430865801.245,-53.159443
1430865801.26,-49.534775
1430865801.276,-45.404633
1430865801.291,-41.313244
1430865801.307,-37.82547
1430865801.323,-35.221066
1430865801.338,-33.25622
1430865801.354,-31.185047
1430865801.37,-28.103184
1430865801.385,-23.329014
1430865801.401,-16.57328
1430865801.416,-8.123058
1430865801.432,1.3450165
1430865801.448,10.964581
1430865801.463,19.980091
1430865801.479,27.961254
1430865801.495,35.003105
1430865801.51,41.753555
1430865801.526,49.1875
1430865801.541,58.209114
1430865801.557,69.13794
1430865801.573,81.2672
1430865801.588,92.935
1430865801.604,101.76356
1430865801.62,105.33964
1430865801.635,101.886894
1430865801.651,90.8029
1430865801.666,72.829865
1430865801.682,49.85551
1430865801.698,24.398468
1430865801.713,-0.9841347
1430865801.729,-24.17852
1430865801.745,-43.77931
1430865801.76,-59.088882
1430865801.776,-69.8828
1430865801.791,-76.3209
1430865801.807,-78.851746
1430865801.823,-78.22452
1430865801.838,-75.479935
1430865801.854,-71.790985
1430865801.87,-68.197754
1430865801.885,-65.35579
1430865801.901,-63.36774
1430865801.916,-61.86531
1430865801.932,-60.282265
1430865801.948,-58.16431
1430865801.963,-55.321743
1430865801.979,-51.89947
1430865801.995,-48.214603
1430865802.01,-44.524635
1430865802.026,-40.84531
1430865802.041,-36.919518
1430865802.057,-32.27444
1430865802.073,-26.505657
1430865802.088,-19.441029
1430865802.104,-11.312675
1430865802.12,-2.6611214
1430865802.135,5.8719597
1430865802.151,13.809128
1430865802.166,21.014977
1430865802.182,27.739105
1430865802.198,34.511246
1430865802.213,41.991093
1430865802.229,50.774532
1430865802.245,61.213524
1430865802.26,73.11874
1430865802.276,85.57242
1430865802.292,96.801056
1430865802.307,104.470055
1430865802.323,106.25589
1430865802.338,100.603165
1430865802.354,87.271835
1430865802.37,67.53894
1430865802.385,43.735126
1430865802.401,18.592964
1430865802.417,-5.458969
1430865802.432,-26.718018
