1425405683.728,0.0
1425405683.744,0.0
1425405683.76,0.0
1425405683.775,0.0
1425405683.791,0.0
1425405683.806,0.0
1425405683.822,0.0
1425405683.838,0.0
1425405683.853,0.0
1425405683.869,0.0022315353
1425405683.885,-0.0045169927
1425405683.9,-0.011265522
1425405683.916,-0.011383951
1425405683.931,0.0011864507
1425405683.947,0.025910312
1425405683.963,0.050634187
1425405683.978,0.051362894
1425405683.994,-0.0014929791
1425405684.01,-0.1302426
1425405684.025,-0.35562757
1425405684.041,-0.6591247
1425405684.056,-1.0095103
1425405684.072,-1.3709826
1425405684.088,-1.7197359
1425405684.103,-2.0551105
1425405684.119,-2.39945
1425405684.135,-2.7866635
1425405684.15,-3.2399073
1425405684.166,-3.796012
1425405684.181,-4.418684
1425405684.197,-5.0592937
1425405684.213,-5.6644096
1425405684.228,-6.2021537
1425405684.244,-6.6808796
1425405684.26,-7.149598
1425405684.275,-7.6782336
1425405684.291,-8.310739
1425405684.306,-9.143657
1425405684.322,-10.089731
1425405684.338,-11.041313
1425405684.353,-11.8842125
1425405684.369,-12.564316
1425405684.385,-13.13563
1425405684.4,-13.760044
1425405684.416,-14.65232
1425405684.431,-15.962056
1425405684.447,-17.914442
1425405684.463,-20.317299
1425405684.478,-22.903854
1425405684.494,-25.37947
1425405684.51,-27.578028
1425405684.525,-29.57246
1425405684.541,-31.675173
1425405684.556,-34.3178
1425405684.572,-37.813618
1425405684.588,-42.541233
1425405684.603,-48.1463
1425405684.619,-54.104755
1425405684.635,-59.83309
1425405684.65,-64.972374
1425405684.666,-69.58293
1425405684.681,-74.14353
1425405684.697,-79.344986
1425405684.713,-85.70726
1425405684.728,-93.76193
1425405684.744,-102.99779
1425405684.76,-112.61757
1425405684.775,-121.73034
1425405684.791,-129.76602
1425405684.806,-136.75102
1425405684.822,-143.30344
1425405684.838,-150.74623
1425405684.853,-157.77356
1425405684.869,-166.64323
1425405684.885,-177.94798
1425405684.9,-191.79102
1425405684.916,-206.96808
1425405684.931,-220.56592
1425405684.947,-228.24644
1425405684.963,-225.36154
1425405684.978,-208.53198
1425405684.994,-176.87024
1425405685.01,-132.76222
1425405685.025,-80.04997
1425405685.041,-23.069275
1425405685.056,34.94339
1425405685.072,92.43695
1425405685.088,149.15695
1425405685.103,205.22772
1425405685.119,260.36963
1425405685.135,313.74133
1425405685.15,363.87396
1425405685.166,409.83353
1425405685.181,450.90775
1425405685.197,486.50244
1425405685.213,515.73865
1425405685.228,537.2274
1425405685.244,549.22
1425405685.26,549.9613
1425405685.275,538.367
1425405685.291,514.2055
1425405685.306,478.674
1425405685.322,433.87952
1425405685.338,382.45126
1425405685.353,327.02106
1425405685.369,269.84186
1425405685.385,212.63379
1425405685.4,156.6594
1425405685.416,102.95233
1425405685.431,52.373596
1425405685.447,5.9046936
1425405685.463,-35.580414
1425405685.478,-71.42584
1425405685.494,-101.35184
1425405685.51,-125.50113
1425405685.525,-144.3797
1425405685.541,-158.69403
1425405685.556,-169.15071
1425405685.572,-176.3711
1425405685.588,-180.75139
1425405685.603,-182.57419
1425405685.619,-182.06863
1425405685.635,-179.5066
1425405685.65,-175.23325
1425405685.666,-169.65286
1425405685.681,-163.17691
1425405685.697,-156.14568
1425405685.713,-148.80681
1425405685.728,-141.29686
1425405685.744,-133.68983
1425405685.76,-126.01962
1425405685.775,-118.33268
1425405685.791,-110.68864
1425405685.806,-103.155716
1425405685.822,-95.804535
1425405685.838,-88.68412
1425405685.853,-81.827576
1425405685.869,-75.24646
1425405685.885,-68.9536
1425405685.9,-62.9503
1425405685.916,-57.24809
1425405685.931,-51.8561
1425405685.947,-46.77976
1425405685.963,-42.024307
1425405685.978,-37.585175
1425405685.994,-33.459602
1425405686.01,-29.63122
1425405686.025,-26.092937
1425405686.041,-22.82238
1425405686.056,-19.811337
1425405686.072,-17.053886
1425405686.088,-14.550525
1425405686.103,-12.309599
1425405686.119,-10.330732
1425405686.135,-8.610677
1425405686.15,-7.128739
1425405686.166,-5.859052
1425405686.181,-4.7657166
1425405686.197,-3.8179226
1425405686.213,-2.9949102
1425405686.228,-2.2914302
1425405686.244,-1.7060194
1425405686.26,-1.2372622
1425405686.275,-0.8817394
1425405686.291,-0.61495435
1425405686.306,-0.40205026
1425405686.322,-0.20084703
1425405686.338,0.014718145
1425405686.353,0.2507973
1425405686.369,0.48783332
1425405686.385,0.6804342
1425405686.4,0.79663026
1425405686.416,0.82120943
1425405686.432,0.78511846
1425405686.447,0.7527997
1425405686.463,0.8028388
1425405686.478,0.9955144
1425405686.494,1.3268902
1425405686.51,1.7301189
1425405686.525,2.0932517
1425405686.541,2.3100634
1425405686.556,2.3393629
1425405686.572,2.233227
1425405686.588,2.1384268
1425405686.603,2.2135835
1425405686.619,2.5839126
1425405686.635,3.2399623
1425405686.65,4.0457525
1425405686.666,4.775017
1425405686.682,5.231404
1425405686.697,5.3291874
1425405686.713,5.171911
1425405686.728,5.0081916
1425405686.744,5.129684
1425405686.76,5.725376
1425405686.775,6.783741
1425405686.791,8.066788
1425405686.807,9.222238
1425405686.822,9.972799
1425405686.838,10.205348
1425405686.853,10.067413
1425405686.869,9.861251
1425405686.885,9.902529
1425405686.9,10.405294
1425405686.916,11.465993
1425405686.932,13.091362
1425405686.947,15.191369
1425405686.963,17.461636
1425405686.978,19.262794
1425405686.994,19.679382
1425405687.01,17.79618
1425405687.025,13.161957
1425405687.041,6.148155
1425405687.057,-2.0320683
1425405687.072,-9.747128
1425405687.088,-15.612425
1425405687.103,-18.967451
1425405687.119,-20.04618
1425405687.135,-19.60213
1425405687.15,-18.43447
1425405687.166,-16.976233
1425405687.182,-15.294264
1425405687.197,-13.299837
1425405687.213,-11.17095
1425405687.228,-9.369997
1425405687.244,-8.547411
1425405687.26,-9.166246
1425405687.275,-11.202236
1425405687.291,-14.080381
1425405687.307,-16.874119
1425405687.322,-18.628988
1425405687.338,-18.793457
1425405687.353,-17.371702
1425405687.369,-14.901051
1425405687.385,-12.173012
1425405687.4,-9.890522
1425405687.416,-8.358303
1425405687.432,-7.449951
1425405687.447,-6.7036533
1425405687.463,-5.6964836
1425405687.478,-4.220234
1425405687.494,-2.4458656
1425405687.51,-0.76672745
1425405687.525,0.36663055
1425405687.541,0.7343178
1425405687.557,0.41453934
1425405687.572,-0.24772453
1425405687.588,-0.7737446
1425405687.603,-0.75868607
1425405687.619,-0.040592194
1425405687.635,1.2333946
1425405687.65,2.6874695
1425405687.666,3.9105415
1425405687.682,4.588337
1425405687.697,4.7420006
1425405687.713,4.5912266
1425405687.728,4.485777
1425405687.744,4.629719
1425405687.76,5.0463257
1425405687.775,5.514435
1425405687.791,5.8159027
1425405687.807,5.832489
1425405687.822,5.6402245
1425405687.838,5.4375725
1425405687.853,5.426216
1425405687.869,5.7042236
1425405687.885,6.2620125
1425405687.9,7.008629
1425405687.916,7.8359833
1425405687.932,8.586254
1425405687.947,9.031731
1425405687.963,8.723583
1425405687.978,7.3456383
1425405687.994,4.7804947
1425405688.01,1.3903389
1425405688.025,-2.075264
1425405688.041,-4.7002983
1425405688.057,-5.858593
1425405688.072,-5.423691
1425405688.088,-3.8344803
1425405688.103,-1.8500214
1425405688.119,-0.22353363
1425405688.135,0.6109314
1425405688.15,0.55439377
1425405688.166,-0.1455307
1425405688.182,-1.2433586
1425405688.197,-2.5237465
1425405688.213,-3.9667015
1425405688.228,-5.5953636
1425405688.244,-7.4343185
1425405688.26,-9.381607
1425405688.275,-11.215305
1425405688.291,-12.707428
1425405688.307,-13.679909
1425405688.322,-14.194508
1425405688.338,-14.501968
1425405688.353,-14.930721
1425405688.369,-15.699707
1425405688.385,-16.815277
1425405688.4,-18.040747
1425405688.416,-18.981806
1425405688.432,-19.385303
1425405688.447,-19.14377
1425405688.463,-18.453789
1425405688.478,-17.586988
1425405688.494,-16.776865
1425405688.51,-16.049812
1425405688.525,-15.214151
1425405688.541,-13.910515
1425405688.557,-11.846031
1425405688.572,-8.963051
1425405688.588,-5.292986
1425405688.603,-1.1327515
1425405688.619,3.1052074
1425405688.635,7.0022964
1425405688.65,10.127369
1425405688.666,12.083206
1425405688.682,12.586493
1425405688.697,11.638739
1425405688.713,9.596174
1425405688.728,7.2026253
1425405688.744,5.305828
1425405688.76,4.578333
1425405688.775,5.214754
1425405688.791,6.862646
1425405688.807,8.79659
1425405688.822,10.3274145
1425405688.838,11.0538645
1425405688.853,11.008865
1425405688.869,10.555004
1425405688.885,10.086607
1425405688.9,9.82413
1425405688.916,9.818276
1425405688.932,9.868803
1425405688.947,9.746361
1425405688.963,9.285889
1425405688.978,8.480883
1425405688.994,7.4937167
1425405689.01,6.5937057
1425405689.025,6.0088644
1425405689.041,5.8301272
1425405689.057,5.923353
1425405689.072,6.0329804
1425405689.088,5.8815603
1425405689.103,5.400873
1425405689.119,4.7440596
1425405689.135,4.2409534
1425405689.15,4.197793
1425405689.166,4.6763206
1425405689.182,5.483853
1425405689.197,6.264926
1425405689.213,6.633891
1425405689.228,6.401633
1425405689.244,5.635284
1425405689.26,4.635209
1425405689.275,3.7930603
1425405689.291,3.4167614
1425405689.307,3.6227045
1425405689.322,4.405136
1425405689.338,5.5908947
1425405689.354,6.830177
1425405689.369,7.5717015
1425405689.385,7.199284
1425405689.4,5.175907
1425405689.416,1.3509593
1425405689.432,-3.8868408
1425405689.447,-9.686699
1425405689.463,-14.875201
1425405689.479,-18.418663
1425405689.494,-19.825283
1425405689.51,-19.28524
1425405689.525,-17.512394
1425405689.541,-15.3803215
1425405689.557,-13.609389
1425405689.572,-12.06278
1425405689.588,-10.84782
1425405689.604,-9.924427
1425405689.619,-9.182081
1425405689.635,-8.494582
1425405689.65,-7.812198
1425405689.666,-7.0928297
1425405689.682,-6.306535
1425405689.697,-5.377371
1425405689.713,-4.236192
1425405689.729,-2.9022012
1425405689.744,-1.426619
1425405689.76,0.07003212
1425405689.775,1.3734193
1425405689.791,2.2636561
1425405689.807,2.620242
1425405689.822,2.5323725
1425405689.838,2.317111
1425405689.854,2.4223957
1425405689.869,3.1799803
1425405689.885,4.788469
1425405689.9,7.133428
1425405689.916,9.851299
1425405689.932,12.458178
1425405689.947,14.560371
1425405689.963,15.964333
1425405689.979,16.787426
1425405689.994,17.335464
1425405690.01,17.972769
1425405690.025,19.082813
1425405690.041,20.926771
1425405690.057,23.55951
1425405690.072,26.772049
1425405690.088,30.012924
1425405690.104,32.434532
1425405690.119,33.025803
1425405690.135,30.959509
1425405690.15,25.844915
1425405690.166,18.03685
1425405690.182,8.553518
1425405690.197,-1.2021446
1425405690.213,-9.906694
1425405690.229,-16.66642
1425405690.244,-21.21258
1425405690.26,-23.767963
1425405690.275,-24.817493
1425405690.291,-24.849537
1425405690.307,-24.215263
1425405690.322,-23.119543
1425405690.338,-21.739458
1425405690.354,-20.254166
1425405690.369,-18.861933
1425405690.385,-17.69685
1425405690.4,-16.808996
1425405690.416,-16.085238
1425405690.432,-15.3632
1425405690.447,-14.466223
1425405690.463,-13.348717
1425405690.479,-12.078154
1425405690.494,-10.856802
1425405690.51,-9.86481
1425405690.525,-9.112514
1425405690.541,-8.399743
1425405690.557,-7.3407173
1425405690.572,-5.540798
1425405690.588,-2.8129497
1425405690.604,0.6826422
1425405690.619,4.4915442
1425405690.635,8.054518
1425405690.65,10.922887
1425405690.666,12.995681
1425405690.682,14.471174
1425405690.697,15.778542
1425405690.713,17.349264
1425405690.729,19.485168
1425405690.744,22.26619
1425405690.76,25.561869
1425405690.775,28.956797
1425405690.791,31.752888
1425405690.807,33.036953
1425405690.822,31.90352
1425405690.838,27.777699
1425405690.854,20.768345
1425405690.869,11.723703
1425405690.885,2.0980926
1425405690.9,-6.614413
1425405690.916,-13.282087
1425405690.932,-17.52464
1425405690.947,-19.624786
1425405690.963,-20.244942
1425405690.979,-20.026943
1425405690.994,-19.397974
1425405691.01,-18.541595
1425405691.025,-17.552235
1425405691.041,-16.558989
1425405691.057,-15.704222
1425405691.072,-15.051284
1425405691.088,-14.525697
1425405691.104,-13.934592
1425405691.119,-13.079255
1425405691.135,-11.896863
1425405691.15,-10.521971
1425405691.166,-9.201438
1425405691.182,-8.157773
1425405691.197,-7.443127
1425405691.213,-6.8823905
1425405691.229,-6.1874256
1425405691.244,-5.0549045
1425405691.26,-3.3144984
1425405691.275,-0.9910134
1425405691.291,1.7308687
1425405691.307,4.5889874
1425405691.322,7.333523
1425405691.338,9.782491
1425405691.354,11.944513
1425405691.369,13.960666
1425405691.385,16.144264
1425405691.4,18.84181
1425405691.416,22.317627
1425405691.432,26.530005
1425405691.447,30.998383
1425405691.463,34.789246
1425405691.479,36.686466
1425405691.494,35.598053
1425405691.51,31.002035
1425405691.525,23.19732
1425405691.541,13.340004
1425405691.557,3.0209086
1425405691.572,-6.20107
1425405691.588,-13.328604
1425405691.604,-18.066895
1425405691.619,-20.793783
1425405691.635,-22.127396
1425405691.65,-22.68018
1425405691.666,-22.81481
1425405691.682,-22.670681
1425405691.697,-22.281693
1425405691.713,-21.7177
1425405691.729,-21.099964
1425405691.744,-20.523552
1425405691.76,-19.987404
1425405691.775,-19.362291
1425405691.791,-18.438017
1425405691.807,-17.07033
1425405691.822,-15.246328
1425405691.838,-13.169014
1425405691.854,-11.13392
1425405691.869,-9.420123
1425405691.885,-8.104194
1425405691.9,-7.0419517
1425405691.916,-5.875552
1425405691.932,-4.217578
1425405691.947,-1.8514378
1425405691.963,1.182967
1425405691.979,4.563926
1425405691.994,7.8625617
1425405692.01,10.711237
1425405692.026,12.958133
1425405692.041,14.744196
1425405692.057,16.386559
1425405692.072,18.314638
1425405692.088,20.871502
1425405692.104,24.264263
1425405692.119,28.39101
1425405692.135,32.841225
1425405692.151,36.78427
1425405692.166,39.14746
1425405692.182,38.84829
1425405692.197,35.202393
1425405692.213,28.268341
1425405692.229,18.925282
1425405692.244,8.652191
1425405692.26,-0.97822666
1425405692.276,-8.812808
1425405692.291,-14.445721
1425405692.307,-18.162346
1425405692.322,-20.576038
1425405692.338,-22.286201
1425405692.354,-23.55229
1425405692.369,-24.344809
1425405692.385,-24.502111
1425405692.401,-24.006424
1425405692.416,-23.051834
1425405692.432,-22.003384
1425405692.447,-21.221884
1425405692.463,-20.854067
1425405692.479,-20.780893
1425405692.494,-20.65916
1425405692.51,-20.118975
1425405692.526,-18.916767
1425405692.541,-17.071274
1425405692.557,-14.821853
1425405692.572,-12.509097
1425405692.588,-10.407264
1425405692.604,-8.588461
1425405692.619,-6.9348607
1425405692.635,-5.175976
1425405692.651,-3.0600166
1425405692.666,-0.4570217
1425405692.682,2.5719628
1425405692.697,5.805217
1425405692.713,8.922527
1425405692.729,11.623775
1425405692.744,13.733984
1425405692.76,15.290285
1425405692.776,16.542397
1425405692.791,17.922003
1425405692.807,19.890816
1425405692.822,22.824953
1425405692.838,26.837706
1425405692.854,31.674805
1425405692.869,36.592712
1425405692.885,40.47657
1425405692.901,42.06651
1425405692.916,40.3633
1425405692.932,34.992043
1425405692.947,26.413988
1425405692.963,15.915183
1425405692.979,5.1937094
1425405692.994,-4.1508636
1425405693.01,-11.149613
1425405693.026,-15.670501
1425405693.041,-18.280094
1425405693.057,-19.858608
1425405693.072,-21.12256
1425405693.088,-22.375885
1425405693.104,-23.499651
1425405693.119,-24.223682
1425405693.135,-24.34425
1425405693.151,-23.91278
1425405693.166,-23.164515
1425405693.182,-22.360266
1425405693.197,-21.63115
1425405693.213,-20.928864
1425405693.229,-20.103386
1425405693.244,-19.027136
1425405693.26,-17.695755
1425405693.276,-16.224998
1425405693.291,-14.742197
1425405693.307,-13.341438
1425405693.322,-12.00617
1425405693.338,-10.675708
1425405693.354,-9.204671
1425405693.369,-7.4729853
1425405693.385,-5.36208
1425405693.401,-2.8245854
1425405693.416,0.130332
1425405693.432,3.36244
1425405693.447,6.623683
1425405693.463,9.599106
1425405693.479,12.041181
1425405693.494,13.855472
1425405693.51,15.162599
1425405693.526,16.242
1425405693.541,17.441038
1425405693.557,19.050945
1425405693.572,21.2599
1425405693.588,24.156424
1425405693.604,27.732845
1425405693.619,31.778164
1425405693.635,35.79976
1425405693.651,38.89924
1425405693.666,39.950756
1425405693.682,37.924767
1425405693.697,32.36857
1425405693.713,23.703112
1425405693.729,13.184682
1425405693.744,2.5525208
1425405693.76,-6.624199
1425405693.776,-13.412916
1425405693.791,-17.683691
1425405693.807,-19.926182
1425405693.822,-20.857265
1425405693.838,-21.087898
1425405693.854,-20.955986
1425405693.869,-20.608885
1425405693.885,-20.111958
1425405693.901,-19.602806
1425405693.916,-19.243565
1425405693.932,-19.164936
1425405693.947,-19.376177
1425405693.963,-19.744757
1425405693.979,-19.99096
1425405693.994,-19.813353
1425405694.01,-19.016476
1425405694.026,-17.603634
1425405694.041,-15.773915
1425405694.057,-13.862122
1425405694.072,-12.154686
1425405694.088,-10.796697
1425405694.104,-9.690353
1425405694.119,-8.574731
1425405694.135,-7.116784
1425405694.151,-5.0951815
1425405694.166,-2.4337845
1425405694.182,0.7655182
1425405694.197,4.3140583
1425405694.213,7.9710884
1425405694.229,11.482121
1425405694.244,14.600019
1425405694.26,17.114765
1425405694.276,18.909958
1425405694.291,20.082724
1425405694.307,20.952179
1425405694.322,22.050312
1425405694.338,23.925804
1425405694.354,26.941093
1425405694.369,30.961048
1425405694.385,35.255913
1425405694.401,38.573605
1425405694.416,39.54924
1425405694.432,37.13399
1425405694.447,31.118914
1425405694.463,22.209942
1425405694.479,11.848215
1425405694.494,1.6895447
1425405694.51,-6.942745
1425405694.526,-13.445537
1425405694.541,-17.895302
1425405694.557,-20.798542
1425405694.572,-22.65918
1425405694.588,-23.760435
1425405694.604,-24.113628
1425405694.619,-23.70163
1425405694.635,-22.629135
1425405694.651,-21.242609
1425405694.666,-19.970684
1425405694.682,-19.140846
1425405694.698,-18.805178
1425405694.713,-18.745905
1425405694.729,-18.592304
1425405694.744,-18.045975
1425405694.76,-17.048397
1425405694.776,-15.767298
1425405694.791,-14.490555
1425405694.807,-13.439568
1425405694.823,-12.613903
1425405694.838,-11.795408
1425405694.854,-10.608982
1425405694.869,-8.756764
1425405694.885,-6.121461
1425405694.901,-2.8307667
1425405694.916,0.78604317
1425405694.932,4.31901
1425405694.948,7.4249153
1425405694.963,9.954494
1425405694.979,11.943033
1425405694.994,13.635693
1425405695.01,15.435041
1425405695.026,17.791767
1425405695.041,21.084833
1425405695.057,25.448528
1425405695.073,30.576096
1425405695.088,35.6224
1425405695.104,39.34457
1425405695.119,40.39338
1425405695.135,37.83824
1425405695.151,31.53601
1425405695.166,22.304396
1425405695.182,11.64986
1425405695.198,1.2917347
1425405695.213,-7.4269104
1425405695.229,-13.866125
1425405695.244,-18.103806
1425405695.26,-20.685392
1425405695.276,-22.248713
1425405695.291,-23.194853
1425405695.307,-23.693264
1425405695.323,-23.710592
1425405695.338,-23.258963
1425405695.354,-22.457733
1425405695.369,-21.605307
1425405695.385,-21.00176
1425405695.401,-20.778635
1425405695.416,-20.782848
1425405695.432,-20.625105
1425405695.448,-19.84064
1425405695.463,-18.199179
1425405695.479,-15.814333
1425405695.494,-13.167328
1425405695.51,-10.849031
1425405695.526,-9.3101845
1425405695.541,-8.616632
1425405695.557,-8.395451
1425405695.573,-8.032713
1425405695.588,-6.9520817
1425405695.604,-4.845251
1425405695.619,-1.8032856
1425405695.635,1.8109207
1425405695.651,5.4893265
1425405695.666,8.858444
1425405695.682,11.711905
1425405695.698,14.049433
1425405695.713,15.982162
1425405695.729,17.707527
1425405695.744,19.429699
1425405695.76,21.417904
1425405695.776,23.958534
1425405695.791,27.326025
1425405695.807,31.520285
1425405695.823,36.079605
1425405695.838,39.97972
1425405695.854,41.87072
1425405695.869,40.49813
1425405695.885,35.29911
1425405695.901,26.665558
1425405695.916,15.932433
1425405695.932,4.8951006
1425405695.948,-4.7992783
1425405695.963,-12.201586
1425405695.979,-17.185484
1425405695.994,-20.28578
1425405696.01,-22.249573
1425405696.026,-23.66504
1425405696.041,-24.777222
1425405696.057,-25.547764
1425405696.073,-25.83656
1425405696.088,-25.603294
1425405696.104,-24.953857
1425405696.119,-24.068977
1425405696.135,-23.112928
1425405696.151,-22.184326
1425405696.166,-21.289803
1425405696.182,-20.395882
1425405696.198,-19.499638
1425405696.213,-18.601233
1425405696.229,-17.666973
1425405696.244,-16.602808
1425405696.26,-15.272014
1425405696.276,-13.581511
1425405696.291,-11.569197
1425405696.307,-9.401289
1425405696.323,-7.283927
1425405696.338,-5.3548183
1425405696.354,-3.578701
1425405696.369,-1.7906418
1425405696.385,0.2379818
1425405696.401,2.61413
1425405696.416,5.3098116
1425405696.432,8.152508
1425405696.448,10.945232
1425405696.463,13.560986
1425405696.479,15.947814
1425405696.494,18.095428
1425405696.51,20.015484
1425405696.526,21.773752
1425405696.541,23.536795
1425405696.557,25.658096
1425405696.573,28.533644
1425405696.588,32.317123
1425405696.604,36.585835
1425405696.619,40.2724
1425405696.635,41.896847
1425405696.651,40.126793
1425405696.666,34.43367
1425405696.682,25.351303
1425405696.698,14.400253
1425405696.713,3.4604979
1425405696.729,-5.855089
1425405696.744,-12.713641
1425405696.76,-17.102905
1425405696.776,-19.583769
1425405696.791,-20.872124
1425405696.807,-21.527466
1425405696.823,-21.879894
1425405696.838,-22.08036
1425405696.854,-22.202011
1425405696.869,-22.28419
1425405696.885,-22.321238
1425405696.901,-22.23104
1425405696.916,-21.895988
1425405696.932,-21.249968
1425405696.948,-20.289534
1425405696.963,-19.162174
1425405696.979,-18.03873
1425405696.994,-17.114458
1425405697.01,-16.429392
1425405697.026,-15.894687
1425405697.041,-15.260609
1425405697.057,-14.247553
1425405697.073,-12.661815
1425405697.088,-10.452656
1425405697.104,-7.7757506
1425405697.119,-4.8886786
1425405697.135,-2.0632153
1425405697.151,0.49272704
1425405697.166,2.7242537
1425405697.182,4.7055864
1425405697.198,6.5780087
1425405697.213,8.466892
1425405697.229,10.437555
1425405697.244,12.453691
1425405697.26,14.424815
1425405697.276,16.260647
1425405697.291,17.956192
1425405697.307,19.597158
1425405697.323,21.378723
1425405697.338,23.561682
1425405697.354,26.375101
1425405697.37,29.83593
1425405697.385,33.60491
1425405697.401,36.901176
1425405697.416,38.599667
1425405697.432,37.563744
1425405697.448,33.15352
1425405697.463,25.55001
1425405697.479,15.84178
1425405697.494,5.6544676
1425405697.51,-3.4141564
1425405697.526,-10.385058
1425405697.541,-15.097523
1425405697.557,-18.03175
1425405697.573,-19.878656
1425405697.588,-21.133163
1425405697.604,-21.952908
1425405697.62,-22.310112
1425405697.635,-22.18438
1425405697.651,-21.746159
1425405697.666,-21.245054
1425405697.682,-20.886164
1425405697.698,-20.66769
1425405697.713,-20.43979
1425405697.729,-19.994202
1425405697.745,-19.234308
1425405697.76,-18.19205
1425405697.776,-16.996103
1425405697.791,-15.7228985
1425405697.807,-14.396877
1425405697.823,-12.998783
1425405697.838,-11.483995
1425405697.854,-9.84255
1425405697.87,-8.072468
1425405697.885,-6.14636
1425405697.901,-4.002183
1425405697.916,-1.5698233
1425405697.932,1.1507244
1425405697.948,4.0580626
1425405697.963,6.931964
1425405697.979,9.503608
1425405697.995,11.581699
1425405698.01,13.132383
1425405698.026,14.293854
1425405698.041,15.347608
1425405698.057,16.568966
1425405698.073,18.194645
1425405698.088,20.370892
1425405698.104,23.182785
1425405698.12,26.622059
1425405698.135,30.467793
1425405698.151,34.124733
1425405698.166,36.630516
1425405698.182,36.826447
1425405698.198,33.794952
1425405698.213,27.27433
1425405698.229,17.977646
1425405698.245,7.409107
1425405698.26,-2.6267462
1425405698.276,-10.621444
1425405698.291,-15.857047
1425405698.307,-18.488815
1425405698.323,-19.252401
1425405698.338,-19.036783
1425405698.354,-18.530602
1425405698.37,-18.046326
1425405698.385,-17.628738
1425405698.401,-17.217922
1425405698.416,-16.805473
1425405698.432,-16.481518
1425405698.448,-16.331234
1425405698.463,-16.353073
1425405698.479,-16.370888
1425405698.495,-16.111187
1425405698.51,-15.301448
1425405698.526,-13.890503
1425405698.541,-12.124424
1425405698.557,-10.422794
1425405698.573,-9.227819
1425405698.588,-8.707336
1425405698.604,-8.628703
1425405698.62,-8.440731
1425405698.635,-7.5189457
1425405698.651,-5.4779654
1425405698.666,-2.307952
1425405698.682,1.6112499
1425405698.698,5.7309446
1425405698.713,9.49163
1425405698.729,12.52925
1425405698.745,14.697203
1425405698.76,16.11117
1425405698.776,17.091204
1425405698.791,18.140184
1425405698.807,19.80119
1425405698.823,22.512016
1425405698.838,26.32396
1425405698.854,30.704586
1425405698.87,34.554012
1425405698.885,36.475143
1425405698.901,35.266983
1425405698.916,30.448849
1425405698.932,22.473904
1425405698.948,12.650474
1425405698.963,2.6249676
1425405698.979,-6.123473
1425405698.995,-12.769901
1425405699.01,-17.183773
1425405699.026,-19.797876
1425405699.041,-21.226582
1425405699.057,-21.930157
1425405699.073,-22.110785
1425405699.088,-21.792995
1425405699.104,-21.004158
1425405699.12,-19.895298
1425405699.135,-18.752813
1425405699.151,-17.858597
1425405699.166,-17.355305
1425405699.182,-17.1765
1425405699.198,-17.081709
1425405699.213,-16.784653
1425405699.229,-16.082396
1425405699.245,-14.980233
1425405699.26,-13.60698
1425405699.276,-12.194226
1425405699.291,-10.889408
1425405699.307,-9.734106
1425405699.323,-8.638797
1425405699.338,-7.430314
1425405699.354,-5.915601
1425405699.37,-3.9428635
1425405699.385,-1.3957119
1425405699.401,1.7101288
1425405699.416,5.2213564
1425405699.432,8.813659
1425405699.448,12.116636
1425405699.463,14.784152
1425405699.479,16.716724
1425405699.495,18.070068
1425405699.51,19.222416
1425405699.526,20.619942
1425405699.541,22.635242
1425405699.557,25.419107
1425405699.573,28.896122
1425405699.588,32.710186
1425405699.604,36.21621
1425405699.62,38.50792
1425405699.635,38.579544
1425405699.651,35.58712
1425405699.666,29.254827
1425405699.682,20.101164
1425405699.698,9.428558
1425405699.713,-1.0804338
1425405699.729,-9.894755
1425405699.745,-16.175682
1425405699.76,-19.935862
1425405699.776,-21.822153
1425405699.791,-22.701843
1425405699.807,-23.247892
1425405699.823,-23.712673
1425405699.838,-24.05612
1425405699.854,-24.115112
1425405699.87,-23.806303
1425405699.885,-23.130146
1425405699.901,-22.1717
1425405699.916,-20.980806
1425405699.932,-19.623718
1425405699.948,-18.153648
1425405699.963,-16.7093
1425405699.979,-15.422302
1425405699.995,-14.3720665
1425405700.01,-13.492809
1425405700.026,-12.618249
1425405700.042,-11.5501995
1425405700.057,-10.203572
1425405700.073,-8.636486
1425405700.088,-6.9987707
1425405700.104,-5.3703365
1425405700.12,-3.6843243
1425405700.135,-1.715622
1425405700.151,0.74661255
1425405700.166,3.7668362
1425405700.182,7.144826
1425405700.198,10.525078
1425405700.213,13.514005
1425405700.229,15.912975
1425405700.245,17.727833
1425405700.26,19.165766
1425405700.276,20.530285
1425405700.292,22.139597
1425405700.307,24.252157
1425405700.323,27.059895
1425405700.338,30.581604
1425405700.354,34.53622
1425405700.37,38.240196
1425405700.385,40.62854
1425405700.401,40.516132
1425405700.417,37.030983
1425405700.432,30.030838
1425405700.448,20.29205
1425405700.463,9.309344
1425405700.479,-1.1805906
1425405700.495,-9.835437
1425405700.51,-16.011047
1425405700.526,-19.821419
1425405700.542,-21.82677
1425405700.557,-22.668337
1425405700.573,-22.795258
1425405700.588,-22.453915
1425405700.604,-21.80078
1425405700.62,-21.020273
1425405700.635,-20.348976
1425405700.651,-19.970951
1425405700.667,-19.899178
1425405700.682,-19.977564
1425405700.698,-19.95774
1425405700.713,-19.604559
1425405700.729,-18.787712
1425405700.745,-17.542099
1425405700.76,-15.976988
1425405700.776,-14.312074
1425405700.792,-12.727058
1425405700.807,-11.368062
1425405700.823,-10.279233
1425405700.838,-9.378242
1425405700.854,-8.431572
1425405700.87,-7.1511135
1425405700.885,-5.2704906
1425405700.901,-2.629219
1425405700.917,0.7275944
1425405700.932,4.52536
1425405700.948,8.351237
1425405700.963,11.728302
1425405700.979,14.316136
1425405700.995,16.00624
1425405701.01,16.983402
1425405701.026,17.656368
1425405701.042,18.580307
1425405701.057,20.230522
1425405701.073,22.934649
1425405701.088,26.711739
1425405701.104,31.249348
1425405701.12,35.799725
1425405701.135,39.296173
1425405701.151,40.51033
1425405701.167,38.430485
1425405701.182,32.643158
1425405701.198,23.633312
1425405701.213,12.6997385
1425405701.229,1.620758
1425405701.245,-7.95708
1425405701.26,-15.009152
1425405701.276,-19.35984
1425405701.292,-21.53125
1425405701.307,-22.362867
1425405701.323,-22.584656
1425405701.338,-22.582043
1425405701.354,-22.400455
1425405701.37,-21.929472
1425405701.385,-21.099197
1425405701.401,-20.03001
1425405701.417,-18.94832
1425405701.432,-18.131165
1425405701.448,-17.694185
1425405701.463,-17.569805
1425405701.479,-17.50642
1425405701.495,-17.194288
1425405701.51,-16.386078
1425405701.526,-15.052118
1425405701.542,-13.357328
1425405701.557,-11.626294
1425405701.573,-10.129364
1425405701.588,-8.968234
1425405701.604,-7.9624486
1425405701.62,-6.751421
1425405701.635,-4.9323688
1425405701.651,-2.2881184
1425405701.667,1.0812631
1425405701.682,4.777605
1425405701.698,8.278936
1425405701.713,11.134668
1425405701.729,13.178963
1425405701.745,14.563643
1425405701.76,15.675466
1425405701.776,16.99386
1425405701.792,18.907341
1425405701.807,21.646816
1425405701.823,25.244558
1425405701.838,29.464151
1425405701.854,33.765472
1425405701.87,37.233437
1425405701.885,38.762447
1425405701.901,37.304214
1425405701.917,32.308674
1425405701.932,24.028902
1425405701.948,13.575428
1425405701.963,2.6172166
1425405701.979,-7.185561
1425405701.995,-14.69854
1425405702.01,-19.592724
1425405702.026,-22.246609
1425405702.042,-23.396202
1425405702.057,-23.736137
1425405702.073,-23.671955
1425405702.088,-23.359575
1425405702.104,-22.80891
1425405702.12,-22.067892
1425405702.135,-21.247147
1425405702.151,-20.51745
1425405702.167,-19.978867
1425405702.182,-19.65715
1425405702.198,-19.482422
1425405702.213,-19.308102
1425405702.229,-18.975224
1425405702.245,-18.352274
1425405702.26,-17.372627
1425405702.276,-16.01652
1425405702.292,-14.384453
1425405702.307,-12.603546
1425405702.323,-10.800756
1425405702.338,-9.002847
1425405702.354,-7.104658
1425405702.37,-4.942726
1425405702.385,-2.347214
1425405702.401,0.70242476
1425405702.417,4.0803986
1425405702.432,7.4857483
1425405702.448,10.6067295
1425405702.463,13.200291
1425405702.479,15.191089
1425405702.495,16.677494
1425405702.51,17.903414
1425405702.526,19.163607
1425405702.542,20.750854
1425405702.557,22.933352
1425405702.573,25.90811
1425405702.588,29.687647
1425405702.604,33.96487
1425405702.62,37.979645
1425405702.635,40.583954
1425405702.651,40.521683
1425405702.667,36.90746
1425405702.682,29.653025
1425405702.698,19.630426
1425405702.713,8.481766
1425405702.729,-1.920793
1425405702.745,-10.092957
1425405702.76,-15.408683
1425405702.776,-18.166506
1425405702.792,-19.263594
1425405702.807,-19.728779
1425405702.823,-20.26791
1425405702.838,-21.105747
1425405702.854,-22.05663
1425405702.87,-22.823122
1425405702.885,-23.205803
1425405702.901,-23.204716
1425405702.917,-22.963816
1425405702.932,-22.59664
1425405702.948,-22.1196
1425405702.964,-21.468924
1425405702.979,-20.580341
1425405702.995,-19.499731
1425405703.01,-18.373703
1425405703.026,-17.362577
1425405703.042,-16.513731
1425405703.057,-15.738405
1425405703.073,-14.824574
1425405703.089,-13.592365
1425405703.104,-11.94855
1425405703.12,-9.905219
1425405703.135,-7.499874
1425405703.151,-4.7865977
1425405703.167,-1.7972018
1425405703.182,1.3926615
1425405703.198,4.650811
1425405703.214,7.7816386
1425405703.229,10.636012
1425405703.245,13.142795
1425405703.26,15.363066
1425405703.276,17.4065
1425405703.292,19.40329
1425405703.307,21.441854
1425405703.323,23.630442
1425405703.339,26.12024
1425405703.354,29.156404
1425405703.37,32.897438
1425405703.385,37.174297
1425405703.401,41.272003
1425405703.417,43.949688
1425405703.432,43.807438
1425405703.448,39.84392
1425405703.464,31.9851
1425405703.479,21.272486
1425405703.495,9.542969
1425405703.51,-1.2004709
1425405703.526,-9.547717
1425405703.542,-15.02584
1425405703.557,-18.057413
1425405703.573,-19.525928
1425405703.589,-20.287334
1425405703.604,-20.864105
1425405703.62,-21.437353
1425405703.635,-21.970108
1425405703.651,-22.412441
1425405703.667,-22.729004
1425405703.682,-22.930592
1425405703.698,-22.964968
1425405703.714,-22.766659
1425405703.729,-22.260283
1425405703.745,-21.413652
1425405703.76,-20.22399
1425405703.776,-18.758772
1425405703.792,-17.106878
1425405703.807,-15.388787
1425405703.823,-13.727194
1425405703.839,-12.236793
1425405703.854,-10.962042
1425405703.87,-9.824307
1425405703.885,-8.617495
1425405703.901,-7.0902233
1425405703.917,-5.0229187
1425405703.932,-2.3424473
1425405703.948,0.8716053
1425405703.964,4.3744473
1425405703.979,7.8679857
1425405703.995,11.025572
1425405704.01,13.658939
1425405704.026,15.699837
1425405704.042,17.303015
1425405704.057,18.735441
1425405704.073,20.348257
1425405704.089,22.455097
1425405704.104,25.287409
1425405704.12,28.903906
1425405704.135,33.108833
1425405704.151,37.31393
1425405704.167,40.558064
1425405704.182,41.65404
1425405704.198,39.557358
1425405704.214,33.8108
1425405704.229,24.866764
1425405704.245,14.037429
1425405704.26,3.1020768
1425405704.276,-6.305979
1425405704.292,-13.260138
1425405704.307,-17.709541
1425405704.323,-20.210726
1425405704.339,-21.53269
1425405704.354,-22.212427
1425405704.37,-22.48285
1425405704.385,-22.38346
1425405704.401,-21.987349
1425405704.417,-21.4677
1425405704.432,-21.071623
1425405704.448,-20.928146
1425405704.464,-20.987125
1425405704.479,-21.056767
1425405704.495,-20.925297
1425405704.51,-20.450932
1425405704.526,-19.591421
1425405704.542,-18.338732
1425405704.557,-16.690424
1425405704.573,-14.673993
1425405704.589,-12.402056
1425405704.604,-10.100591
1425405704.62,-8.033241
1425405704.635,-6.3134613
1425405704.651,-4.799555
1425405704.667,-3.1343303
1425405704.682,-0.90706205
1425405704.698,2.0599566
1425405704.714,5.6343493
1425405704.729,9.390458
1425405704.745,12.831475
1425405704.76,15.655768
1425405704.776,17.846786
1425405704.792,19.672176
1425405704.807,21.521477
1425405704.823,23.779045
1425405704.839,26.706291
1425405704.854,30.424515
1425405704.87,34.834778
1425405704.885,39.523487
1425405704.901,43.652203
1425405704.917,46.043365
1425405704.932,45.45317
1425405704.948,41.028267
1425405704.964,32.75358
1425405704.979,21.58375
1425405704.995,9.232896
1425405705.01,-2.3710651
1425405705.026,-11.754492
1425405705.042,-18.248064
1425405705.057,-22.070395
1425405705.073,-23.962566
1425405705.089,-24.770744
1425405705.104,-25.051842
1425405705.12,-25.018528
1425405705.135,-24.670155
1425405705.151,-23.985554
1425405705.167,-23.087791
1425405705.182,-22.18805
1425405705.198,-21.463488
1425405705.214,-20.93149
1425405705.229,-20.40486
1425405705.245,-19.605082
1425405705.26,-18.339767
1425405705.276,-16.63857
1425405705.292,-14.773945
1425405705.307,-13.100483
1425405705.323,-11.839008
1425405705.339,-10.915979
1425405705.354,-9.914972
1425405705.37,-8.294558
1425405705.385,-5.6223145
1425405705.401,-1.8386955
1425405705.417,2.695383
1425405705.432,7.331663
1425405705.448,11.3850765
1425405705.464,14.437746
1425405705.479,16.443604
1425405705.495,17.74993
1425405705.51,18.943398
1425405705.526,20.649635
1425405705.542,23.392296
1425405705.557,27.398243
1425405705.573,32.482853
1425405705.589,37.924896
1425405705.604,42.527798
1425405705.62,44.82094
1425405705.636,43.544594
1425405705.651,38.10097
1425405705.667,28.913548
1425405705.682,17.345734
1425405705.698,5.324066
1425405705.714,-5.3280525
1425405705.729,-13.429756
1425405705.745,-18.720482
1425405705.761,-21.707783
1425405705.776,-23.26466
1425405705.792,-24.20507
1425405705.807,-24.984924
1425405705.823,-25.666946
1425405705.839,-26.092968
1425405705.854,-26.07964
1425405705.87,-25.562424
1425405705.886,-24.608067
1425405705.901,-23.383018
1425405705.917,-22.023731
1425405705.932,-20.637161
1425405705.948,-19.250816
1425405705.964,-17.900639
1425405705.979,-16.612232
1425405705.995,-15.389542
1425405706.011,-14.177696
1425405706.026,-12.828358
1425405706.042,-11.138248
1425405706.057,-8.871899
1425405706.073,-5.874737
1425405706.089,-2.1639786
1425405706.104,2.099121
1425405706.12,6.562645
1425405706.136,10.851849
1425405706.151,14.635193
1425405706.167,17.80943
1425405706.182,20.560581
1425405706.198,23.364395
1425405706.214,26.810703
1425405706.229,31.295174
1425405706.245,36.718998
1425405706.261,42.307453
1425405706.276,46.7194
1425405706.292,48.432274
1425405706.307,46.260143
1425405706.323,39.84785
1425405706.339,29.844265
1425405706.354,17.741302
1425405706.37,5.412628
1425405706.386,-5.455368
1425405706.401,-13.820908
1425405706.417,-19.410614
1425405706.432,-22.645302
1425405706.448,-24.247437
1425405706.464,-24.972595
1425405706.479,-25.370682
1425405706.495,-25.738358
1425405706.511,-26.18972
1425405706.526,-26.719414
1425405706.542,-27.259865
1425405706.557,-27.640465
1425405706.573,-27.616707
1425405706.589,-26.922798
1425405706.604,-25.390236
1425405706.62,-23.114456
1425405706.636,-20.417084
1425405706.651,-17.795128
1425405706.667,-15.678795
1425405706.682,-14.233803
1425405706.698,-13.26828
1425405706.714,-12.291595
1425405706.729,-10.690506
1425405706.745,-8.027725
1425405706.761,-4.1922836
1425405706.776,0.53829956
1425405706.792,5.5921326
1425405706.807,10.340332
1425405706.823,14.351379
1425405706.839,17.507355
1425405706.854,20.089645
1425405706.87,22.620941
1425405706.886,25.734703
1425405706.901,29.938004
1425405706.917,35.449295
1425405706.932,41.977554
1425405706.948,48.641983
1425405706.964,53.997856
1425405706.979,56.305527
1425405706.995,54.097023
1425405707.011,46.751564
1425405707.026,34.89743
1425405707.042,20.324875
1425405707.057,5.4690475
1425405707.073,-7.469055
1425405707.089,-17.225685
1425405707.104,-23.70906
1425405707.12,-27.772491
1425405707.136,-30.56385
1425405707.151,-33.01467
1425405707.167,-35.498238
1425405707.182,-37.90924
1425405707.198,-39.94265
1425405707.214,-41.35939
1425405707.229,-42.083275
1425405707.245,-42.18051
1425405707.261,-41.750473
1425405707.276,-40.858406
1425405707.292,-39.530975
1425405707.307,-37.773277
1425405707.323,-35.64158
1425405707.339,-33.265358
1425405707.354,-30.791489
1425405707.37,-28.367798
1425405707.386,-26.057022
1425405707.401,-23.816513
1425405707.417,-21.4925
1425405707.432,-18.9169
1425405707.448,-15.94883
1425405707.464,-12.560913
1425405707.479,-8.81675
1425405707.495,-4.840172
1425405707.511,-0.7312927
1425405707.526,3.4453278
1425405707.542,7.659546
1425405707.557,11.852539
1425405707.573,15.941322
1425405707.589,19.781334
1425405707.604,23.225296
1425405707.62,26.191277
1425405707.636,28.757004
1425405707.651,31.171745
1425405707.667,33.847633
1425405707.682,37.27677
1425405707.698,41.815804
1425405707.714,47.420937
1425405707.729,53.45108
1425405707.745,58.606163
1425405707.761,61.221237
1425405707.776,59.7837
1425405707.792,53.54998
1425405707.807,42.917717
1425405707.823,29.40744
1425405707.839,15.139008
1425405707.854,2.133728
1425405707.87,-8.318726
1425405707.886,-15.927109
1425405707.901,-21.215454
1425405707.917,-25.045692
1425405707.932,-28.19654
1425405707.948,-31.08397
1425405707.964,-33.778023
1425405707.979,-36.142548
1425405707.995,-38.045
1425405708.011,-39.42125
1425405708.026,-40.272675
1425405708.042,-40.61045
1425405708.057,-40.437378
1425405708.073,-39.702194
1425405708.089,-38.38423
1425405708.104,-36.498596
1425405708.12,-34.191254
1425405708.136,-31.696663
1425405708.151,-29.34195
1425405708.167,-27.401703
1425405708.182,-25.986626
1425405708.198,-24.926155
1425405708.214,-23.810066
1425405708.229,-22.131516
1425405708.245,-19.517197
1425405708.261,-15.946732
1425405708.276,-11.768028
1425405708.292,-7.5618134
1425405708.308,-3.8736572
1425405708.323,-0.95961
1425405708.339,1.2997437
1425405708.354,3.3438187
1425405708.37,5.682205
1425405708.386,8.66935
1425405708.401,12.338669
1425405708.417,16.443802
1425405708.432,20.55893
1425405708.448,24.306358
1425405708.464,27.469063
1425405708.479,30.024231
1425405708.495,32.120758
1425405708.511,34.03363
1425405708.526,36.124794
1425405708.542,38.848206
1425405708.558,42.63154
1425405708.573,47.63806
1425405708.589,53.482735
1425405708.604,59.101532
1425405708.62,62.87445
1425405708.636,63.097496
1425405708.651,58.646004
1425405708.667,49.467995
1425405708.683,36.69126
1425405708.698,22.290398
1425405708.714,8.401962
1425405708.729,-3.329155
1425405708.745,-12.119507
1425405708.761,-18.080162
1425405708.776,-21.88366
1425405708.792,-24.371094
1425405708.808,-26.18843
1425405708.823,-27.671661
1425405708.839,-28.883171
1425405708.854,-29.771461
1425405708.87,-30.305542
1425405708.886,-30.543533
1425405708.901,-30.620445
1425405708.917,-30.62188
1425405708.933,-30.555786
1425405708.948,-30.314499
1425405708.964,-29.782005
1425405708.979,-28.9422
1425405708.995,-27.907867
1425405709.011,-26.868347
1425405709.026,-25.987953
1425405709.042,-25.276894
1425405709.058,-24.528564
1425405709.073,-23.400688
1425405709.089,-21.56845
1425405709.104,-18.877396
1425405709.12,-15.440079
1425405709.136,-11.616585
1425405709.151,-7.8763657
1425405709.167,-4.6187286
1425405709.183,-1.9659653
1425405709.198,0.2504959
1425405709.214,2.4299622
1425405709.229,5.006439
1425405709.245,8.241722
1425405709.261,12.089455
1425405709.276,16.215614
1425405709.292,20.15635
1425405709.308,23.464554
1425405709.323,25.931305
1425405709.339,27.618973
1425405709.354,28.874756
1425405709.37,30.256737
1425405709.386,32.422173
1425405709.401,35.888718
1425405709.417,40.820168
1425405709.433,46.74362
1425405709.448,52.511307
1425405709.464,56.45185
1425405709.479,56.839325
1425405709.495,52.52005
1425405709.511,43.4112
1425405709.526,30.60608
1425405709.542,16.095634
1425405709.558,2.1028442
1425405709.573,-9.596741
1425405709.589,-18.172752
1425405709.604,-23.750565
1425405709.62,-27.136818
1425405709.636,-29.276108
1425405709.651,-30.86058
1425405709.667,-32.133293
1425405709.683,-33.004128
1425405709.698,-33.270676
1425405709.714,-32.879326
1425405709.729,-31.987793
1425405709.745,-30.92672
1425405709.761,-30.020744
1425405709.776,-29.427223
1425405709.792,-29.05751
1425405709.808,-28.638382
1425405709.823,-27.846329
1425405709.839,-26.480225
1425405709.854,-24.531265
1425405709.87,-22.172585
1425405709.886,-19.665504
1425405709.901,-17.220299
1425405709.917,-14.893372
1425405709.933,-12.610603
1425405709.948,-10.173904
1425405709.964,-7.3882904
1425405709.979,-4.1456146
1425405709.995,-0.4826355
1425405710.011,3.4169617
1425405710.026,7.2934723
1425405710.042,10.8949585
1425405710.058,14.060806
1425405710.073,16.781769
1425405710.089,19.190384
1425405710.104,21.512802
1425405710.12,24.040752
1425405710.136,27.073307
1425405710.151,30.825073
1425405710.167,35.349487
1425405710.183,40.369934
1425405710.198,45.17273
1425405710.214,48.60849
1425405710.229,49.354134
1425405710.245,46.326363
1425405710.261,39.14952
1425405710.276,28.43024
1425405710.292,15.676132
1425405710.308,2.8106956
1425405710.323,-8.396439
1425405710.339,-16.90361
1425405710.354,-22.557774
1425405710.37,-25.905071
1425405710.386,-27.765747
1425405710.401,-28.85712
1425405710.417,-29.570362
1425405710.433,-30.022655
1425405710.448,-30.205261
1425405710.464,-30.121948
1425405710.479,-29.810246
1425405710.495,-29.29044
1425405710.511,-28.559921
1425405710.526,-27.608387
1425405710.542,-26.449966
1425405710.558,-25.175316
1425405710.573,-23.888844
1425405710.589,-22.660408
1425405710.604,-21.45565
1425405710.62,-20.188217
1425405710.636,-18.758816
1425405710.651,-17.14415
1425405710.667,-15.347397
1425405710.683,-13.366703
1425405710.698,-11.097103
1425405710.714,-8.369396
1425405710.729,-5.031067
1425405710.745,-1.0782776
1425405710.761,3.2720757
1425405710.776,7.659416
1425405710.792,11.700249
1425405710.808,15.153545
1425405710.823,17.997341
1425405710.839,20.354671
1425405710.854,22.447319
1425405710.87,24.47511
1425405710.886,26.61007
1425405710.901,29.00248
1425405710.917,31.86393
1425405710.933,35.383633
1425405710.948,39.620644
1425405710.964,44.248585
1425405710.98,48.393475
1425405710.995,50.711945
1425405711.011,49.810875
1425405711.026,44.793762
1425405711.042,35.765648
1425405711.058,23.962715
1425405711.073,11.343586
1425405711.089,-0.11960983
1425405711.104,-9.131069
1425405711.12,-15.405003
1425405711.136,-19.500572
1425405711.151,-22.304691
1425405711.167,-24.505611
1425405711.183,-26.395416
1425405711.198,-27.872025
1425405711.214,-28.78664
1425405711.23,-29.069923
1425405711.245,-28.83234
1425405711.261,-28.247887
1425405711.276,-27.46661
1425405711.292,-26.559284
1425405711.308,-25.548332
1425405711.323,-24.428818
1425405711.339,-23.218979
1425405711.355,-21.932732
1425405711.37,-20.570488
1425405711.386,-19.126068
1425405711.401,-17.62759
1425405711.417,-16.10334
1425405711.433,-14.554947
1425405711.448,-12.896416
1425405711.464,-10.984024
1425405711.48,-8.652239
1425405711.495,-5.8321
1425405711.511,-2.5701504
1425405711.526,0.9493313
1425405711.542,4.5036335
1425405711.558,7.9204655
1425405711.573,11.115101
1425405711.589,14.08058
1425405711.605,16.832476
1425405711.62,19.398693
1425405711.636,21.81425
1425405711.651,24.147705
1425405711.667,26.56923
1425405711.683,29.332706
1425405711.698,32.72105
1425405711.714,36.80683
1425405711.73,41.24431
1425405711.745,45.12443
1425405711.761,47.138794
1425405711.776,45.961334
1425405711.792,40.80816
1425405711.808,31.890245
1425405711.823,20.435703
1425405711.839,8.316706
1425405711.855,-2.6008282
1425405711.87,-11.06452
1425405711.886,-16.729774
1425405711.901,-20.044521
1425405711.917,-21.849957
1425405711.933,-22.953485
1425405711.948,-23.83969
1425405711.964,-24.700085
1425405711.98,-25.475939
1425405711.995,-26.059662
1425405712.011,-26.35788
1425405712.026,-26.334934
1425405712.042,-25.98943
1425405712.058,-25.33652
1425405712.073,-24.382618
1425405712.089,-23.119505
1425405712.105,-21.554165
1425405712.12,-19.755804
1425405712.136,-17.861519
1425405712.151,-16.074697
1425405712.167,-14.573696
1425405712.183,-13.425735
1425405712.198,-12.512741
1425405712.214,-11.5830555
1425405712.23,-10.305484
1425405712.245,-8.4134655
1425405712.261,-5.7466755
1425405712.276,-2.3195171
1425405712.292,1.6964226
1425405712.308,5.945524
1425405712.323,10.015658
1425405712.339,13.495477
1425405712.355,16.149837
1425405712.37,18.055332
1425405712.386,19.576218
1425405712.401,21.225948
1425405712.417,23.442822
1425405712.433,26.482613
1425405712.448,30.350819
1425405712.464,34.83028
1425405712.48,39.45983
1425405712.495,43.449722
1425405712.511,45.753773
1425405712.526,45.256695
1425405712.542,41.23551
1425405712.558,33.748856
1425405712.573,23.795607
1425405712.589,12.989332
1425405712.605,2.9931679
1425405712.62,-5.097583
1425405712.636,-11.011038
1425405712.651,-15.123571
1425405712.667,-18.045898
1425405712.683,-20.232822
1425405712.698,-21.842999
1425405712.714,-22.860874
1425405712.73,-23.299377
1425405712.745,-23.296787
1425405712.761,-23.072628
1425405712.776,-22.828156
1425405712.792,-22.61338
1425405712.808,-22.413292
1425405712.823,-22.118002
1425405712.839,-21.620409
1425405712.855,-20.820606
1425405712.87,-19.670727
1425405712.886,-18.186089
1425405712.901,-16.47564
1425405712.917,-14.746885
1425405712.933,-13.1856785
1425405712.948,-11.891352
1425405712.964,-10.755703
1425405712.98,-9.473118
1425405712.995,-7.655195
1425405713.011,-4.98884
1425405713.026,-1.4298663
1425405713.042,2.758893
1425405713.058,7.0324745
1425405713.073,10.825537
1425405713.089,13.764823
1425405713.105,15.8619175
1425405713.12,17.51429
1425405713.136,19.3405
1425405713.151,21.893097
1425405713.167,25.449589
1425405713.183,29.93374
1425405713.198,34.871223
1425405713.214,39.4795
1425405713.23,42.765327
1425405713.245,43.68747
1425405713.261,41.413128
1425405713.276,35.633526
1425405713.292,26.79678
1425405713.308,16.07307
1425405713.323,5.064825
1425405713.339,-4.720362
1425405713.355,-12.333097
1425405713.37,-17.568405
1425405713.386,-20.814598
1425405713.401,-22.690273
1425405713.417,-23.685062
1425405713.433,-24.031967
1425405713.448,-23.829287
1425405713.464,-23.194784
1425405713.48,-22.367916
1425405713.495,-21.637306
1425405713.511,-21.161669
1425405713.526,-20.90504
1425405713.542,-20.621065
1425405713.558,-20.025164
1425405713.573,-18.905792
1425405713.589,-17.275188
1425405713.605,-15.338891
1425405713.62,-13.420125
1425405713.636,-11.796953
1425405713.651,-10.592335
1425405713.667,-9.691269
1425405713.683,-8.74263
1425405713.698,-7.314618
1425405713.714,-5.054959
1425405713.73,-1.8453741
1425405713.745,2.0686421
1425405713.761,6.2007327
1425405713.776,9.986736
1425405713.792,13.038608
1425405713.808,15.297344
1425405713.823,17.066677
1425405713.839,18.849062
1425405713.855,21.207987
1425405713.87,24.558035
1425405713.886,29.012646
1425405713.902,34.18501
1425405713.917,39.17036
1425405713.933,42.607746
1425405713.948,43.07778
1425405713.964,39.61532
1425405713.98,32.13213
1425405713.995,21.597324
1425405714.011,9.754235
1425405714.027,-1.4751873
1425405714.042,-10.631007
1425405714.058,-17.144436
1425405714.073,-21.271374
1425405714.089,-23.736036
1425405714.105,-25.22464
1425405714.12,-26.142838
1425405714.136,-26.545588
1425405714.152,-26.409342
1425405714.167,-25.795134
1425405714.183,-24.929237
1425405714.198,-24.066618
1425405714.214,-23.37708
1425405714.23,-22.797619
1425405714.245,-22.095268
1425405714.261,-21.003454
1425405714.277,-19.357733
1425405714.292,-17.229828
1425405714.308,-14.851948
1425405714.323,-12.549548
1425405714.339,-10.567903
1425405714.355,-8.9761
1425405714.37,-7.661003
1425405714.386,-6.3326025
1425405714.402,-4.6818657
1425405714.417,-2.4364386
1425405714.433,0.5153849
1425405714.448,4.0706663
1425405714.464,7.908071
1425405714.48,11.591747
1425405714.495,14.705875
1425405714.511,17.045607
1425405714.527,18.72831
1425405714.542,20.165205
1425405714.558,21.942362
1425405714.573,24.625463
1425405714.589,28.485443
1425405714.605,33.32343
1425405714.62,38.362125
1425405714.636,42.344734
1425405714.652,43.85254
1425405714.667,41.750427
1425405714.683,35.626648
1425405714.698,26.093708
1425405714.714,14.607382
1425405714.73,3.08956
1425405714.745,-6.77596
1425405714.761,-14.046831
1425405714.777,-18.67653
1425405714.792,-21.329351
1425405714.808,-22.869005
1425405714.823,-23.960949
1425405714.839,-24.85526
1425405714.855,-25.4786
1425405714.87,-25.708178
1425405714.886,-25.519333
1425405714.902,-25.089525
1425405714.917,-24.629196
1425405714.933,-24.315596
1425405714.948,-24.091446
1425405714.964,-23.754158
1425405714.98,-23.020441
1425405714.995,-21.708214
1425405715.011,-19.796122
1425405715.027,-17.472881
1425405715.042,-15.052319
1425405715.058,-12.826658
1425405715.073,-10.968453
1425405715.089,-9.45355
1425405715.105,-8.078199
1425405715.12,-6.5254526
1425405715.136,-4.5014772
1425405715.152,-1.8390541
1425405715.167,1.4387331
1425405715.183,5.115385
1425405715.198,8.899144
1425405715.214,12.459595
1425405715.23,15.550623
1425405715.245,18.058008
1425405715.261,20.035633
1425405715.277,21.656937
1425405715.292,23.228645
1425405715.308,25.131294
1425405715.323,27.73071
1425405715.339,31.22569
1425405715.355,35.44141
1425405715.37,39.676025
1425405715.386,42.73078
1425405715.402,43.244476
1425405715.417,40.151566
1425405715.433,33.201313
1425405715.448,23.186905
1425405715.464,11.743585
1425405715.48,0.8056383
1425405715.495,-8.072408
1425405715.511,-14.16445
1425405715.527,-17.678585
1425405715.542,-19.424522
1425405715.558,-20.345581
1425405715.573,-21.08339
1425405715.589,-21.873451
1425405715.605,-22.623516
1425405715.62,-23.150112
1425405715.636,-23.350925
1425405715.652,-23.258821
1425405715.667,-22.953629
1425405715.683,-22.52039
1425405715.698,-21.97819
1425405715.714,-21.294867
1425405715.73,-20.424631
1425405715.745,-19.364904
1425405715.761,-18.14693
1425405715.777,-16.837368
1425405715.792,-15.483578
1425405715.808,-14.139803
1425405715.823,-12.790718
1425405715.839,-11.385273
1425405715.855,-9.833616
1425405715.87,-8.020895
1425405715.886,-5.81448
1425405715.902,-3.1381474
1425405715.917,-0.0052280426
1425405715.933,3.469986
1425405715.948,7.078724
1425405715.964,10.564001
1425405715.98,13.68054
1425405715.995,16.268791
1425405716.011,18.296803
1425405716.027,19.859156
1425405716.042,21.182205
1425405716.058,22.565002
1425405716.073,24.340324
1425405716.089,26.827772
1425405716.105,30.231419
1425405716.12,34.417976
1425405716.136,38.772766
1425405716.152,42.155655
1425405716.167,43.16136
1425405716.183,40.628235
1425405716.198,34.17936
1425405716.214,24.5193
1425405716.23,13.255468
1425405716.245,2.3360577
1425405716.261,-6.6658173
1425405716.277,-13.032696
1425405716.292,-16.935066
1425405716.308,-19.108484
1425405716.323,-20.33571
1425405716.339,-21.10809
1425405716.355,-21.565865
1425405716.37,-21.666258
1425405716.386,-21.388977
1425405716.402,-20.866308
1425405716.417,-20.308165
1425405716.433,-19.896332
1425405716.448,-19.630634
1425405716.464,-19.375902
1425405716.48,-18.871935
1425405716.495,-17.925163
1425405716.511,-16.488844
1425405716.527,-14.722973
1425405716.542,-12.922262
1425405716.558,-11.388674
1425405716.574,-10.239281
1425405716.589,-9.359652
1425405716.605,-8.389103
1425405716.62,-6.893652
1425405716.636,-4.550974
1425405716.652,-1.3321438
1425405716.667,2.5086765
1425405716.683,6.503395
1425405716.699,10.141838
1425405716.714,13.045731
1425405716.73,15.092926
1425405716.745,16.48012
1425405716.761,17.674126
1425405716.777,19.266205
1425405716.792,21.789497
1425405716.808,25.47824
1425405716.824,30.128822
1425405716.839,35.031567
1425405716.855,39.118187
1425405716.87,41.1941
1425405716.886,40.33403
1425405716.902,36.125526
1425405716.917,28.875643
1425405716.933,19.48973
1425405716.949,9.288197
1425405716.964,-0.39840508
1425405716.98,-8.548199
1425405716.995,-14.642377
1425405717.011,-18.69043
1425405717.027,-21.065355
1425405717.042,-22.2633
1425405717.058,-22.730467
1425405717.074,-22.755623
1425405717.089,-22.480839
1425405717.105,-21.979553
1425405717.12,-21.347105
1425405717.136,-20.639944
1425405717.152,-19.92758
1425405717.167,-19.2257
1425405717.183,-18.481674
1425405717.199,-17.600883
1425405717.214,-16.537361
1425405717.23,-15.322908
1425405717.245,-14.100486
1425405717.261,-13.031444
1425405717.277,-12.1874895
1425405717.292,-11.434472
1425405717.308,-10.443491
1425405717.324,-8.786472
1425405717.339,-6.161394
1425405717.355,-2.5750961
1425405717.37,1.5788269
1425405717.386,5.713955
1425405717.402,9.269611
1425405717.417,11.998861
1425405717.433,14.008745
1425405717.449,15.722946
1425405717.464,17.615805
1425405717.48,20.091621
1425405717.495,23.331158
1425405717.511,27.29281
1425405717.527,31.61536
1425405717.542,35.581573
1425405717.558,38.15405
1425405717.574,38.170723
1425405717.589,34.76358
1425405717.605,27.783901
1425405717.62,18.006586
1425405717.636,6.96936
1425405717.652,-3.5625153
1425405717.667,-12.1894
1425405717.683,-18.316242
1425405717.699,-22.123817
1425405717.714,-24.276396
1425405717.73,-25.423468
1425405717.745,-25.972425
1425405717.761,-26.011587
1425405717.777,-25.528856
1425405717.792,-24.58118
1425405717.808,-23.382366
1425405717.824,-22.212671
1425405717.839,-21.282377
1425405717.855,-20.583546
1425405717.87,-19.90333
1425405717.886,-18.902447
1425405717.902,-17.343391
1425405717.917,-15.252827
1425405717.933,-12.958613
1425405717.949,-10.9382715
1425405717.964,-9.55846
1425405717.98,-8.850486
1425405717.995,-8.40823
1425405718.011,-7.579343
1425405718.027,-5.765179
1425405718.042,-2.732864
1425405718.058,1.2535717
1425405718.074,5.588214
1425405718.089,9.571959
1425405718.105,12.74898
1425405718.12,15.059134
1425405718.136,16.835995
1425405718.152,18.614851
1425405718.167,20.992619
1425405718.183,24.377857
1425405718.199,28.83502
1425405718.214,33.9344
1425405718.23,38.68824
1425405718.245,41.708122
1425405718.261,41.606018
1425405718.277,37.54049
1425405718.292,29.600815
1425405718.308,18.912039
1425405718.324,7.3017573
1425405718.339,-3.354278
1425405718.355,-11.73712
1425405718.37,-17.435518
1425405718.386,-20.855606
1425405718.402,-22.8313
1425405718.417,-24.136124
1425405718.433,-25.19054
1425405718.449,-26.010386
1425405718.464,-26.389353
1425405718.48,-26.178152
1425405718.495,-25.44108
1425405718.511,-24.42124
1425405718.527,-23.442383
1425405718.542,-22.686127
1425405718.558,-22.101744
1425405718.574,-21.37984
1425405718.589,-20.179365
1425405718.605,-18.283981
1425405718.62,-15.7914505
1425405718.636,-13.071598
1425405718.652,-10.608326
1425405718.667,-8.75092
1425405718.683,-7.561344
1425405718.699,-6.70861
1425405718.714,-5.6660433
1425405718.73,-3.9041243
1425405718.745,-1.1445665
1425405718.761,2.4851532
1425405718.777,6.532037
1425405718.792,10.383926
1425405718.808,13.512699
1425405718.824,15.728889
1425405718.839,17.230843
1425405718.855,18.52576
1425405718.87,20.205875
1425405718.886,22.759266
1425405718.902,26.369057
1425405718.917,30.889973
1425405718.933,35.79331
1425405718.949,40.17249
1425405718.964,42.87656
1425405718.98,42.74049
1425405718.995,38.929604
1425405719.011,31.385483
1425405719.027,20.978886
1425405719.042,9.375019
1425405719.058,-1.5280294
1425405719.074,-10.192626
1425405719.089,-15.979848
1425405719.105,-19.186962
1425405719.12,-20.72561
1425405719.136,-21.60661
1425405719.152,-22.488619
1425405719.167,-23.505972
1425405719.183,-24.441216
1425405719.199,-24.97278
1425405719.214,-24.945232
1425405719.23,-24.420307
1425405719.246,-23.629013
1425405719.261,-22.811214
1425405719.277,-22.091572
1425405719.292,-21.431032
1425405719.308,-20.68155
1425405719.324,-19.685421
1425405719.339,-18.359015
1425405719.355,-16.718956
1425405719.371,-14.910744
1425405719.386,-13.083871
1425405719.402,-11.343408
1425405719.417,-9.684485
1425405719.433,-8.0226
1425405719.449,-6.202734
1425405719.464,-4.085785
1425405719.48,-1.5982113
1425405719.496,1.2529926
1425405719.511,4.336607
1425405719.527,7.4323835
1425405719.542,10.323083
1425405719.558,12.839394
1425405719.574,14.978493
1425405719.589,16.87166
1425405719.605,18.774971
1425405719.621,20.947527
1425405719.636,23.614933
1425405719.652,26.887709
1425405719.667,30.727438
1425405719.683,34.861183
1425405719.699,38.67147
1425405719.714,41.196495
1425405719.73,41.335808
1425405719.746,38.19112
1425405719.761,31.51893
1425405719.777,21.969608
1425405719.792,11.013439
1425405719.808,0.4490509
1425405719.824,-8.19137
1425405719.839,-14.159538
1425405719.855,-17.573507
1425405719.871,-19.199415
1425405719.886,-19.95536
1425405719.902,-20.553963
1425405719.917,-21.263247
1425405719.933,-22.061577
1425405719.949,-22.730282
1425405719.964,-23.10894
1425405719.98,-23.119284
1425405719.996,-22.788105
1425405720.011,-22.201626
1425405720.027,-21.481062
1425405720.042,-20.692436
1425405720.058,-19.852398
1425405720.074,-18.951555
1425405720.089,-17.946697
1425405720.105,-16.818188
1425405720.121,-15.569811
1425405720.136,-14.203091
1425405720.152,-12.719967
1425405720.167,-11.089495
1425405720.183,-9.264076
1425405720.199,-7.186455
1425405720.214,-4.8327427
1425405720.23,-2.1943188
1425405720.246,0.6861706
1425405720.261,3.7450962
1425405720.277,6.8677444
1425405720.292,9.892956
1425405720.308,12.65382
1425405720.324,15.013399
1425405720.339,16.938988
1425405720.355,18.520702
1425405720.371,19.957088
1425405720.386,21.491314
1425405720.402,23.35381
1425405720.417,25.735836
1425405720.433,28.722332
1425405720.449,32.238575
1425405720.464,35.854298
1425405720.48,38.73898
1425405720.496,39.765118
1425405720.511,37.86725
1425405720.527,32.53046
1425405720.542,24.155663
1425405720.558,14.032349
1425405720.574,3.9578934
1425405720.589,-4.4728737
1425405720.605,-10.392101
1425405720.621,-13.8824005
1425405720.636,-15.714027
1425405720.652,-16.85062
1425405720.667,-17.932114
1425405720.683,-19.087944
1425405720.699,-20.034267
1425405720.714,-20.436653
1425405720.73,-20.159607
1425405720.746,-19.411293
1425405720.761,-18.578117
1425405720.777,-18.01773
1425405720.792,-17.84673
1425405720.808,-17.874474
1425405720.824,-17.725311
1425405720.839,-17.066868
1425405720.855,-15.779846
1425405720.871,-14.0566025
1425405720.886,-12.232868
1425405720.902,-10.625046
1425405720.917,-9.355549
1425405720.933,-8.312778
1425405720.949,-7.259754
1425405720.964,-5.9292564
1425405720.98,-4.156151
1425405720.996,-1.9000397
1425405721.011,0.7770233
1425405721.027,3.7128487
1425405721.042,6.698517
1425405721.058,9.487049
1425405721.074,11.88583
1425405721.089,13.821709
1425405721.105,15.414051
1425405721.121,16.918957
1425405721.136,18.669708
1425405721.152,20.931168
1425405721.167,23.838745
1425405721.183,27.266666
1425405721.199,30.831646
1425405721.214,33.80357
1425405721.23,35.23915
1425405721.246,34.18285
1425405721.261,30.077145
1425405721.277,23.050575
1425405721.292,14.018002
1425405721.308,4.423424
1425405721.324,-4.274063
1425405721.339,-11.098812
1425405721.355,-15.770939
1425405721.371,-18.629025
1425405721.386,-20.242416
1425405721.402,-21.058327
1425405721.417,-21.254055
1425405721.433,-20.83609
1425405721.449,-19.842194
1425405721.464,-18.528767
1425405721.48,-17.274666
1425405721.496,-16.44693
1425405721.511,-16.194931
1425405721.527,-16.381016
1425405721.542,-16.641811
1425405721.558,-16.57756
1425405721.574,-15.901588
1425405721.589,-14.611431
1425405721.605,-12.944439
1425405721.621,-11.279972
1425405721.636,-9.930225
1425405721.652,-9.002354
1425405721.667,-8.31472
1425405721.683,-7.463257
1425405721.699,-6.0109787
1425405721.714,-3.6850014
1425405721.73,-0.5161667
1425405721.746,3.1306877
1425405721.761,6.7703056
1425405721.777,9.912319
1425405721.792,12.31628
1425405721.808,14.013222
1425405721.824,15.301514
1425405721.839,16.591133
1425405721.855,18.334557
1425405721.871,20.87918
1425405721.886,24.360416
1425405721.902,28.567776
1425405721.918,32.8283
1425405721.933,36.029285
1425405721.949,36.87651
1425405721.964,34.320015
1425405721.98,28.079552
1425405721.996,18.855396
1425405722.011,8.215904
1425405722.027,-1.9787102
1425405722.042,-10.187218
1425405722.058,-15.70319
1425405722.074,-18.677547
1425405722.089,-19.860058
1425405722.105,-20.095726
1425405722.121,-19.983181
1425405722.136,-19.754711
1425405722.152,-19.424828
1425405722.168,-18.958714
1425405722.183,-18.425308
1425405722.199,-17.970623
1425405722.214,-17.70052
1425405722.23,-17.590237
1425405722.246,-17.488232
1425405722.261,-17.136047
1425405722.277,-16.33245
1425405722.293,-14.995781
1425405722.308,-13.239101
1425405722.324,-11.315369
1425405722.339,-9.536926
1425405722.355,-8.105034
1425405722.371,-7.0133324
1425405722.386,-5.9777603
1425405722.402,-4.5848007
1425405722.418,-2.4553452
1425405722.433,0.51327133
1425405722.449,4.0910645
1425405722.464,7.7634735
1425405722.48,10.960564
1425405722.496,13.327118
1425405722.511,14.83638
1425405722.527,15.770851
1425405722.543,16.58952
1425405722.558,17.72971
1425405722.574,19.54676
1425405722.589,22.279186
1425405722.605,25.980095
1425405722.621,30.410862
1425405722.636,34.93826
1425405722.652,38.422703
1425405722.668,39.531986
1425405722.683,37.155727
1425405722.699,30.939163
1425405722.714,21.537395
1425405722.73,10.503792
1425405722.746,-0.25551224
1425405722.761,-9.079021
1425405722.777,-15.069691
1425405722.793,-18.270721
1425405722.808,-19.426395
1425405722.824,-19.536083
1425405722.839,-19.490566
1425405722.855,-19.757736
1425405722.871,-20.39669
1425405722.886,-21.19395
1425405722.902,-21.904182
1425405722.918,-22.371265
1425405722.933,-22.585636
1425405722.949,-22.51398
1425405722.964,-22.047764
1425405722.98,-21.024658
1425405722.996,-19.292461
1425405723.011,-16.904575
1425405723.027,-14.206158
1425405723.043,-11.69545
1425405723.058,-9.836956
1425405723.074,-8.822922
1425405723.089,-8.475006
1425405723.105,-8.313686
1425405723.121,-7.7968636
1425405723.136,-6.424038
1425405723.152,-3.9646225
1425405723.168,-0.46121597
1425405723.183,3.7582512
1425405723.199,8.170914
1425405723.214,12.178955
1425405723.23,15.2878
1425405723.246,17.295021
1425405723.261,18.370377
1425405723.277,19.026012
1425405723.293,19.916725
1425405723.308,21.546654
1425405723.324,24.248486
1425405723.339,27.980598
1425405723.355,32.338478
1425405723.371,36.526108
1425405723.386,39.460907
1425405723.402,39.951397
1425405723.418,37.111664
1425405723.433,30.713764
1425405723.449,21.427235
1425405723.464,10.697208
1425405723.48,0.28869247
1425405723.496,-8.311985
1425405723.511,-14.345066
1425405723.527,-17.88047
1425405723.543,-19.579784
1425405723.558,-20.247799
1425405723.574,-20.509365
1425405723.589,-20.644379
1425405723.605,-20.640308
1425405723.621,-20.42957
1425405723.636,-19.999454
1425405723.652,-19.46435
1425405723.668,-18.971199
1425405723.683,-18.627117
1425405723.699,-18.377975
1425405723.714,-18.022705
1425405723.73,-17.30111
1425405723.746,-16.024658
1425405723.761,-14.242065
1425405723.777,-12.238018
1425405723.793,-10.417648
1425405723.808,-9.10277
1425405723.824,-8.323679
1425405723.839,-7.750782
1425405723.855,-6.83127
1425405723.871,-5.067608
1425405723.886,-2.236475
1425405723.902,1.4501915
1425405723.918,5.489044
1425405723.933,9.261147
1425405723.949,12.3216095
1425405723.964,14.501549
1425405723.98,16.003103
1425405723.996,17.234516
1425405724.011,18.713917
1425405724.027,20.919273
1425405724.043,24.162382
1425405724.058,28.456844
1425405724.074,33.386086
1425405724.089,38.050934
1425405724.105,41.20439
1425405724.121,41.617523
1425405724.136,38.492294
1425405724.152,31.82777
1425405724.168,22.504023
1425405724.183,11.980022
1425405724.199,1.8515911
1425405724.214,-6.681629
1425405724.23,-13.035263
1425405724.246,-17.24715
1425405724.261,-19.728695
1425405724.277,-21.014332
1425405724.293,-21.52434
1425405724.308,-21.571558
1425405724.324,-21.358438
1425405724.339,-21.024166
1425405724.355,-20.678127
1425405724.371,-20.367184
1425405724.386,-20.058586
1425405724.402,-19.680607
1425405724.418,-19.139587
1425405724.433,-18.36972
1425405724.449,-17.360287
1425405724.464,-16.201712
1425405724.48,-15.034552
1425405724.496,-14.041063
1425405724.511,-13.301257
1425405724.527,-12.717041
1425405724.543,-11.966749
1425405724.558,-10.613625
1425405724.574,-8.280699
1425405724.589,-4.8994827
1425405724.605,-0.77018166
1425405724.621,3.5361385
1425405724.636,7.4287868
1425405724.652,10.536322
1425405724.668,12.86081
1425405724.683,14.715517
1425405724.699,16.585363
1425405724.714,18.909157
1425405724.73,22.016151
1425405724.746,25.986668
1425405724.761,30.620823
1425405724.777,35.30946
1425405724.793,39.04032
1425405724.808,40.5522
1425405724.824,38.768814
1425405724.84,33.224796
1425405724.855,24.392841
1425405724.871,13.611546
1425405724.886,2.6731944
1425405724.902,-6.8290396
1425405724.918,-13.954687
1425405724.933,-18.576231
1425405724.949,-21.176754
1425405724.965,-22.472536
1425405724.98,-23.060322
1425405724.996,-23.266682
1425405725.011,-23.172043
1425405725.027,-22.791965
1425405725.043,-22.181189
1425405725.058,-21.47137
1425405725.074,-20.793335
1425405725.09,-20.21629
1425405725.105,-19.676334
1425405725.121,-19.021896
1425405725.136,-18.089268
1425405725.152,-16.83233
1425405725.168,-15.362804
1425405725.183,-13.9068775
1425405725.199,-12.660192
1425405725.215,-11.634414
1425405725.23,-10.590863
1425405725.246,-9.125065
1425405725.261,-6.840003
1425405725.277,-3.5879154
1425405725.293,0.44943333
1425405725.308,4.792408
1425405725.324,8.884508
1425405725.34,12.3037815
1425405725.355,14.971775
1425405725.371,17.142769
1425405725.386,19.369366
1425405725.402,22.262459
1425405725.418,26.25307
1425405725.433,31.340206
1425405725.449,36.93729
1425405725.465,41.878242
1425405725.48,44.70583
1425405725.496,44.123077
1425405725.511,39.465546
1425405725.527,31.022625
1425405725.543,20.034931
1425405725.558,8.239807
1425405725.574,-2.6297913
1425405725.59,-11.400917
1425405725.605,-17.65138
1425405725.621,-21.668095
1425405725.636,-24.07317
1425405725.652,-25.52772
1425405725.668,-26.489126
1425405725.683,-27.176422
1425405725.699,-27.66941
1425405725.715,-27.990929
1425405725.73,-28.189335
1425405725.746,-28.294178
1425405725.761,-28.274237
1425405725.777,-28.006258
1425405725.793,-27.30904
1425405725.808,-26.019344
1425405725.824,-24.091337
1425405725.84,-21.710268
1425405725.855,-19.219725
1425405725.871,-17.03423
1425405725.886,-15.434143
1425405725.902,-14.437767
1425405725.918,-13.727287
1425405725.933,-12.771034
1425405725.949,-11.037876
1425405725.965,-8.190666
1425405725.98,-4.265209
1425405725.996,0.36268997
1425405726.011,5.092247
1425405726.027,9.324854
1425405726.043,12.688749
1425405726.058,15.151718
1425405726.074,17.039389
1425405726.09,18.890028
1425405726.105,21.314074
1425405726.121,24.753252
1425405726.136,29.386332
1425405726.152,34.919044
1425405726.168,40.569046
1425405726.183,45.087837
1425405726.199,47.04958
1425405726.215,45.29426
1425405726.23,39.37613
1425405726.246,29.85523
1425405726.261,18.19068
1425405726.277,6.2986507
1425405726.293,-4.05731
1425405726.308,-11.851328
1425405726.324,-16.951763
1425405726.34,-19.988071
1425405726.355,-21.876547
1425405726.371,-23.422472
1425405726.386,-24.998331
1425405726.402,-26.596096
1425405726.418,-27.952892
1425405726.433,-28.80936
1425405726.449,-29.02121
1425405726.465,-28.632244
1425405726.48,-27.828468
1425405726.496,-26.83429
1425405726.511,-25.843792
1425405726.527,-24.932997
1425405726.543,-24.06957
1425405726.558,-23.152584
1425405726.574,-22.05151
1425405726.59,-20.677448
1425405726.605,-18.995983
1425405726.621,-17.025953
1425405726.636,-14.817856
1425405726.652,-12.460854
1425405726.668,-9.978381
1425405726.683,-7.3830376
1425405726.699,-4.6297445
1425405726.715,-1.6618319
1425405726.73,1.5385284
1425405726.746,4.917243
1425405726.761,8.356345
1425405726.777,11.673872
1425405726.793,14.74398
1425405726.808,17.460121
1425405726.824,19.824238
1425405726.84,21.890305
1425405726.855,23.80352
1425405726.871,25.763271
1425405726.886,28.088867
1425405726.902,31.1115
1425405726.918,35.061024
1425405726.933,39.740273
1425405726.949,44.36389
1425405726.965,47.557556
1425405726.98,47.760723
1425405726.996,43.828804
1425405727.011,35.635616
1425405727.027,24.252298
1425405727.043,11.652893
1425405727.058,0.0022554398
1425405727.074,-9.069845
1425405727.09,-14.977044
1425405727.105,-18.14563
1425405727.121,-19.61051
1425405727.136,-20.405338
1425405727.152,-21.19954
1425405727.168,-22.143162
1425405727.183,-23.117374
1425405727.199,-23.910473
1425405727.215,-24.443302
1425405727.23,-24.746126
1425405727.246,-24.896189
1425405727.261,-24.896631
1425405727.277,-24.705957
1425405727.293,-24.216917
1425405727.308,-23.372726
1425405727.324,-22.177208
1425405727.34,-20.72103
1425405727.355,-19.097971
1425405727.371,-17.41123
1425405727.386,-15.711001
1425405727.402,-14.029009
1425405727.418,-12.325882
1425405727.433,-10.526353
1425405727.449,-8.465681
1425405727.465,-5.9610777
1425405727.48,-2.882321
1425405727.496,0.7514484
1425405727.512,4.7343545
1425405727.527,8.6986065
1425405727.543,12.257327
1425405727.558,15.168815
1425405727.574,17.396877
1425405727.59,19.11854
1425405727.605,20.63789
1425405727.621,22.278141
1425405727.637,24.328024
1425405727.652,27.002472
1425405727.668,30.471146
1425405727.683,34.677612
1425405727.699,39.224895
1425405727.715,43.190742
1425405727.73,45.273724
1425405727.746,44.11445
1425405727.762,38.918835
1425405727.777,29.888609
1425405727.793,18.328224
1425405727.808,6.2590456
1425405727.824,-4.319186
1425405727.84,-12.138859
1425405727.855,-16.971643
1425405727.871,-19.489115
1425405727.887,-20.700079
1425405727.902,-21.444307
1425405727.918,-22.082792
1425405727.933,-22.58563
1425405727.949,-22.776075
1425405727.965,-22.621815
1425405727.98,-22.270273
1425405727.996,-21.997547
1425405728.012,-21.953905
1425405728.027,-22.121494
1425405728.043,-22.279259
1425405728.058,-22.131992
1425405728.074,-21.446985
1425405728.09,-20.165533
1425405728.105,-18.41695
1425405728.121,-16.47286
1425405728.137,-14.640108
1425405728.152,-13.175936
1425405728.168,-12.120015
1425405728.183,-11.302378
1425405728.199,-10.322916
1425405728.215,-8.754302
1425405728.23,-6.278612
1425405728.246,-2.876401
1425405728.262,1.1416597
1425405728.277,5.2176723
1425405728.293,8.785048
1425405728.308,11.473856
1425405728.324,13.2787
1425405728.34,14.503388
1425405728.355,15.64951
1425405728.371,17.212574
1425405728.387,19.59742
1425405728.402,23.001064
1425405728.418,27.400038
1425405728.433,32.382687
1425405728.449,37.073288
1425405728.465,40.193504
1425405728.48,40.35942
1425405728.496,36.58405
1425405728.512,28.804058
1425405728.527,18.088793
1425405728.543,6.360366
1425405728.558,-4.249339
1425405728.574,-12.187204
1425405728.59,-16.941492
1425405728.605,-19.02435
1425405728.621,-19.534943
1425405728.637,-19.490913
1425405728.652,-19.480759
1425405728.668,-19.534214
1425405728.683,-19.462055
1425405728.699,-19.094242
1425405728.715,-18.526356
1425405728.73,-18.034058
1425405728.746,-17.84938
1425405728.762,-17.961815
1425405728.777,-18.07959
1425405728.793,-17.801819
1425405728.808,-16.83761
1425405728.824,-15.221565
1425405728.84,-13.306511
1425405728.855,-11.592539
1425405728.871,-10.469603
1425405728.887,-9.995962
1425405728.902,-9.859951
1425405728.918,-9.490906
1425405728.933,-8.297396
1425405728.949,-5.9182377
1425405728.965,-2.3671532
1425405728.98,1.9638004
1425405728.996,6.4172745
1425405729.012,10.317368
1425405729.027,13.179613
1425405729.043,14.851259
1425405729.058,15.562759
1425405729.074,15.819593
1425405729.09,16.220177
1425405729.105,17.306793
1425405729.121,19.452871
1425405729.137,22.846384
1425405729.152,27.31503
1425405729.168,32.253845
1425405729.183,36.532803
1425405729.199,38.69964
1425405729.215,37.401093
1425405729.23,31.963007
1425405729.246,22.819153
1425405729.262,11.480219
1425405729.277,0.077638626
1425405729.293,-9.439175
1425405729.308,-15.964716
1425405729.324,-19.47322
1425405729.34,-20.773598
1425405729.355,-20.921265
1425405729.371,-20.770151
1425405729.387,-20.663017
1425405729.402,-20.582834
1425405729.418,-20.400452
1425405729.433,-20.095413
1425405729.449,-19.760279
1425405729.465,-19.516407
1425405729.48,-19.37468
1425405729.496,-19.225079
1425405729.512,-18.850649
1425405729.527,-18.074825
1425405729.543,-16.840157
1425405729.558,-15.262222
1425405729.574,-13.545422
1425405729.59,-11.905247
1425405729.605,-10.47797
1425405729.621,-9.282082
1425405729.637,-8.206066
1425405729.652,-7.0818443
1425405729.668,-5.7070007
1425405729.683,-3.9483109
1425405729.699,-1.7378006
1425405729.715,0.88110733
1425405729.73,3.7668343
1425405729.746,6.7090874
1425405729.762,9.494949
1425405729.777,11.943764
1425405729.793,13.978851
1425405729.808,15.60828
1425405729.824,16.927143
1425405729.84,18.086773
1425405729.855,19.29895
1425405729.871,20.820957
1425405729.887,22.970348
1425405729.902,25.966183
1425405729.918,29.764397
1425405729.933,33.79359
1425405729.949,36.960583
1425405729.965,37.86221
1425405729.98,35.313316
1425405729.996,28.886536
1425405730.012,19.246109
1425405730.027,8.002567
1425405730.043,-2.8093338
1425405730.058,-11.475227
1425405730.074,-17.143467
1425405730.09,-19.975231
1425405730.105,-20.829517
1425405730.121,-20.730736
1425405730.137,-20.410439
1425405730.152,-20.12959
1425405730.168,-19.812416
1425405730.184,-19.306992
1425405730.199,-18.615158
1425405730.215,-17.89019
1425405730.23,-17.319813
1425405730.246,-16.998573
1425405730.262,-16.81931
1425405730.277,-16.558964
1425405730.293,-15.972195
1425405730.309,-14.982887
1425405730.324,-13.653294
1425405730.34,-12.164001
1425405730.355,-10.667088
1425405730.371,-9.234219
1425405730.387,-7.845745
1425405730.402,-6.4650497
1425405730.418,-5.0518723
1425405730.434,-3.6023064
1425405730.449,-2.055584
1425405730.465,-0.29076385
1425405730.48,1.8292809
1425405730.496,4.3704414
1425405730.512,7.220703
1425405730.527,10.089993
1425405730.543,12.624905
1425405730.559,14.548073
1425405730.574,15.821957
1425405730.59,16.626163
1425405730.605,17.319859
1425405730.621,18.28603
1425405730.637,19.862534
1425405730.652,22.221642
1425405730.668,25.361824
1425405730.684,28.943817
1425405730.699,32.252327
1425405730.715,34.191685
1425405730.73,33.572983
1425405730.746,29.561024
1425405730.762,22.10735
1425405730.777,12.163952
1425405730.793,1.4551811
1425405730.809,-8.09391
1425405730.824,-15.007355
1425405730.84,-18.76152
1425405730.855,-19.804306
1425405730.871,-19.220997
1425405730.887,-18.145134
1425405730.902,-17.36396
1425405730.918,-17.118538
1425405730.934,-17.256805
1425405730.949,-17.47409
1425405730.965,-17.549603
1425405730.98,-17.39573
1425405730.996,-17.028389
1425405731.012,-16.465313
1425405731.027,-15.716564
1425405731.043,-14.7612
1425405731.059,-13.653503
1425405731.074,-12.489525
1425405731.09,-11.3993225
1425405731.105,-10.450577
1425405731.121,-9.597008
1425405731.137,-8.6686325
1425405731.152,-7.4948273
1425405731.168,-5.977951
1425405731.184,-4.128723
1425405731.199,-2.0383148
1425405731.215,0.19969177
1425405731.23,2.522644
1425405731.246,4.905464
1425405731.262,7.292923
1425405731.277,9.561951
1425405731.293,11.586418
1425405731.309,13.287552
1425405731.324,14.742104
1425405731.34,16.087402
1425405731.355,17.476494
1425405731.371,18.95185
1425405731.387,20.482887
1425405731.402,22.06466
1425405731.418,23.783012
1425405731.434,25.786179
1425405731.449,28.056587
1425405731.465,30.153717
1425405731.48,31.149536
1425405731.496,29.906075
1425405731.512,25.584953
1425405731.527,18.145546
1425405731.543,8.551956
1425405731.559,-1.520874
1425405731.574,-10.281433
1425405731.59,-16.494736
1425405731.605,-19.815659
1425405731.621,-20.755241
1425405731.637,-20.231026
1425405731.652,-19.111305
1425405731.668,-17.92981
1425405731.684,-16.83326
1425405731.699,-15.770805
1425405731.715,-14.735046
1425405731.73,-13.82238
1425405731.746,-13.221542
1425405731.762,-13.040634
1425405731.777,-13.221313
1425405731.793,-13.4567795
1425405731.809,-13.35009
1425405731.824,-12.526474
1425405731.84,-10.883392
1425405731.855,-8.637405
1425405731.871,-6.263199
1425405731.887,-4.2872467
1425405731.902,-3.0378494
1425405731.918,-2.4830933
1425405731.934,-2.2074814
1425405731.949,-1.5859299
1425405731.965,-0.06742859
1425405731.98,2.516121
1425405731.996,5.855934
1425405732.012,9.274963
1425405732.027,12.020073
1425405732.043,13.638565
1425405732.059,14.152832
1425405732.074,14.084412
1425405732.09,14.1577
1425405732.105,15.0301285
1425405732.121,17.00325
1425405732.137,20.011414
1425405732.152,23.638153
1425405732.168,27.240585
1425405732.184,29.9859
1425405732.199,30.975822
1425405732.215,29.403282
1425405732.23,24.86216
1425405732.246,17.600937
1425405732.262,8.611504
1425405732.277,-0.619606
1425405732.293,-8.565025
1425405732.309,-14.234131
1425405732.324,-17.397446
1425405732.34,-18.53817
1425405732.355,-18.444908
1425405732.371,-17.787315
1425405732.387,-16.869804
1425405732.402,-15.713234
1425405732.418,-14.30117
1425405732.434,-12.817268
1425405732.449,-11.614464
1425405732.465,-11.049683
1425405732.48,-11.206718
1425405732.496,-11.818451
1425405732.512,-12.379051
1425405732.527,-12.40345
1425405732.543,-11.659241
1425405732.559,-10.262566
1425405732.574,-8.560829
1425405732.59,-6.9225082
1425405732.605,-5.531708
1425405732.621,-4.3324966
1425405732.637,-3.0980377
1425405732.652,-1.5886765
1425405732.668,0.29492188
1425405732.684,2.4791183
1425405732.699,4.7536736
1425405732.715,6.891781
1425405732.73,8.754921
1425405732.746,10.331173
1425405732.762,11.772484
1425405732.777,13.316872
1425405732.793,15.260162
1425405732.809,17.837719
1425405732.824,21.09314
1425405732.84,24.696438
1425405732.856,27.910458
1425405732.871,29.6501
1425405732.887,28.89238
1425405732.902,25.028664
1425405732.918,18.266018
1425405732.934,9.60173
1425405732.949,0.5731926
1425405732.965,-7.332054
1425405732.98,-13.143684
1425405732.996,-16.634964
1425405733.012,-18.215946
1425405733.027,-18.591095
1425405733.043,-18.385231
1425405733.059,-17.93618
1425405733.074,-17.284988
1425405733.09,-16.348656
1425405733.106,-15.099819
1425405733.121,-13.668907
1425405733.137,-12.289196
1425405733.152,-11.201309
1425405733.168,-10.496075
1425405733.184,-10.090858
1425405733.199,-9.790169
1425405733.215,-9.420921
1425405733.231,-8.914871
1425405733.246,-8.320335
1425405733.262,-7.630657
1425405733.277,-6.7311745
1425405733.293,-5.3658676
1425405733.309,-3.289585
1425405733.324,-0.459507
1425405733.34,2.8324356
1425405733.356,6.0807495
1425405733.371,8.778416
1425405733.387,10.667595
1425405733.402,11.864452
1425405733.418,12.783447
1425405733.434,13.910351
1425405733.449,15.704521
1425405733.465,18.400234
1425405733.481,21.983356
1425405733.496,26.080822
1425405733.512,29.909908
1425405733.527,32.332073
1425405733.543,32.13712
1425405733.559,28.503838
1425405733.574,21.435528
1425405733.59,11.886772
1425405733.606,1.5361938
1425405733.621,-7.8089256
1425405733.637,-14.797619
1425405733.652,-18.946304
1425405733.668,-20.596664
1425405733.684,-20.609573
1425405733.699,-19.882378
1425405733.715,-19.080517
1425405733.731,-18.51648
1425405733.746,-18.26313
1425405733.762,-18.240574
1425405733.777,-18.341694
1425405733.793,-18.398956
1425405733.809,-18.185081
1425405733.824,-17.472244
1425405733.84,-16.118977
1425405733.856,-14.180595
1425405733.871,-11.918457
1425405733.887,-9.742664
1425405733.902,-8.058376
1425405733.918,-7.0481987
1425405733.934,-6.579441
1425405733.949,-6.218071
1425405733.965,-5.448002
1425405733.981,-3.8966217
1425405733.996,-1.5239296
1425405734.012,1.4014664
1425405734.027,4.409191
1425405734.043,7.0779724
1425405734.059,9.191891
1425405734.074,10.810703
1425405734.09,12.210632
1425405734.106,13.756088
1425405734.121,15.799362
1425405734.137,18.635387
1425405734.152,22.31594
1425405734.168,26.580173
1425405734.184,30.660114
1425405734.199,33.366154
1425405734.215,33.38557
1425405734.231,29.796352
1425405734.246,22.551334
1425405734.262,12.695133
1425405734.277,2.0467453
1425405734.293,-7.437832
1425405734.309,-14.409882
1425405734.324,-18.52538
1425405734.34,-20.397
1425405734.356,-21.08382
1425405734.371,-21.505829
1425405734.387,-22.035389
1425405734.402,-22.525082
1425405734.418,-22.604485
1425405734.434,-22.05009
1425405734.449,-20.971878
1425405734.465,-19.729614
1425405734.481,-18.699791
1425405734.496,-18.0484
1425405734.512,-17.652172
1425405734.527,-17.18
1425405734.543,-16.28846
1425405734.559,-14.829075
1425405734.574,-12.848728
1425405734.59,-10.624302
1425405734.606,-8.464085
1425405734.621,-6.617584
1425405734.637,-5.140274
1425405734.652,-3.861824
1425405734.668,-2.4579163
1425405734.684,-0.5667572
1425405734.699,2.0338478
1425405734.715,5.291401
1425405734.731,8.864002
1425405734.746,12.205013
1425405734.762,14.823978
1425405734.777,16.485813
1425405734.793,17.349289
1425405734.809,17.861233
1425405734.824,18.60638
1425405734.84,20.029621
1425405734.856,22.339119
1425405734.871,25.482319
1425405734.887,29.171482
1425405734.902,32.851192
1425405734.918,35.713844
1425405734.934,36.74423
1425405734.949,34.996876
1425405734.965,29.969578
1425405734.981,21.929588
1425405734.996,11.94548
1425405735.012,1.6528625
1425405735.027,-7.354538
1425405735.043,-14.006729
1425405735.059,-18.08023
1425405735.074,-20.073307
1425405735.09,-20.872921
1425405735.106,-21.262028
1425405735.121,-21.656174
1425405735.137,-22.029766
1425405735.152,-22.10355
1425405735.168,-21.604855
1425405735.184,-20.500694
1425405735.199,-18.999996
1425405735.215,-17.510601
1425405735.231,-16.417492
1425405735.246,-15.9065895
1425405735.262,-15.883858
1425405735.277,-16.044292
1425405735.293,-16.029343
1425405735.309,-15.577621
1425405735.324,-14.564487
1425405735.34,-13.015003
1425405735.356,-11.030506
1425405735.371,-8.7883835
1425405735.387,-6.4645348
1425405735.402,-4.277687
1425405735.418,-2.3532295
1425405735.434,-0.69288635
1425405735.449,0.872982
1425405735.465,2.601204
1425405735.481,4.7087593
1425405735.496,7.1889
1425405735.512,9.858997
1425405735.527,12.402378
1425405735.543,14.570587
1425405735.559,16.300304
1425405735.574,17.736618
1425405735.59,19.135231
1425405735.606,20.755093
1425405735.621,22.788467
1425405735.637,25.358147
1425405735.652,28.451168
1425405735.668,31.838345
1425405735.684,34.865967
1425405735.699,36.526016
1425405735.715,35.660793
1425405735.731,31.438213
1425405735.746,23.823349
1425405735.762,13.798782
1425405735.778,3.111992
1425405735.793,-6.3381195
1425405735.809,-13.201889
1425405735.824,-17.086086
1425405735.84,-18.553211
1425405735.856,-18.622192
1425405735.871,-18.275204
1425405735.887,-18.002129
1425405735.903,-17.855022
1425405735.918,-17.620426
1425405735.934,-17.150085
1425405735.949,-16.488632
1425405735.965,-15.848427
1425405735.981,-15.425739
1425405735.996,-15.267075
1425405736.012,-15.226902
1425405736.028,-15.056152
1425405736.043,-14.538017
1425405736.059,-13.589569
1425405736.074,-12.326534
1425405736.09,-10.991837
1425405736.106,-9.8156185
1425405736.121,-8.926401
1425405736.137,-8.243954
1425405736.153,-7.491432
1425405736.168,-6.2867126
1425405736.184,-4.320717
1425405736.199,-1.4979019
1425405736.215,1.996666
1425405736.231,5.697073
1425405736.246,9.036448
1425405736.262,11.573856
1425405736.278,13.139948
1425405736.293,13.93869
1425405736.309,14.457474
1425405736.324,15.2964325
1425405736.34,16.972881
1425405736.356,19.751225
1425405736.371,23.542507
1425405736.387,27.82265
1425405736.403,31.666832
1425405736.418,33.909363
1425405736.434,33.421562
1425405736.449,29.58298
1425405736.465,22.51914
1425405736.481,13.212912
1425405736.496,3.1762257
1425405736.512,-6.0110703
1425405736.528,-13.246313
1425405736.543,-18.106777
1425405736.559,-20.804964
1425405736.574,-21.877329
1425405736.59,-21.850515
1425405736.606,-21.06999
1425405736.621,-19.729109
1425405736.637,-18.01777
1425405736.653,-16.242
1425405736.668,-14.761724
1425405736.684,-13.895832
1425405736.699,-13.728031
1425405736.715,-14.074923
1425405736.731,-14.555908
1425405736.746,-14.754528
1425405736.762,-14.423119
1425405736.778,-13.607817
1425405736.793,-12.596939
1425405736.809,-11.746828
1425405736.824,-11.260288
1425405736.84,-11.037409
1425405736.856,-10.652315
1425405736.871,-9.550709
1425405736.887,-7.298376
1425405736.903,-3.8400536
1425405736.918,0.46647263
1425405736.934,4.939022
1425405736.949,8.834381
1425405736.965,11.609058
1425405736.981,13.099787
1425405736.996,13.571814
1425405737.012,13.65045
1425405737.028,14.104288
1425405737.043,15.626169
1425405737.059,18.624092
1425405737.074,23.024
1425405737.09,28.15277
1425405737.106,32.810852
1425405737.121,35.502342
1425405737.137,34.903313
1425405737.153,30.357498
1425405737.168,22.231916
1425405737.184,11.864466
1425405737.199,1.2035885
1425405737.215,-7.9234867
1425405737.231,-14.389557
1425405737.246,-18.075441
1425405737.262,-19.677025
1425405737.278,-20.206976
1425405737.293,-20.487547
1425405737.309,-20.852064
1425405737.324,-21.150951
1425405737.34,-21.116444
1425405737.356,-20.575762
1425405737.371,-19.674976
1425405737.387,-18.683655
1425405737.403,-17.868132
1425405737.418,-17.26449
1425405737.434,-16.703758
1425405737.449,-15.879204
1425405737.465,-14.609276
1425405737.481,-12.944527
1425405737.496,-11.1879635
1425405737.512,-9.755896
1425405737.528,-8.94499
1425405737.543,-8.755732
1425405737.559,-8.861359
1425405737.574,-8.673237
1425405737.59,-7.6190033
1425405737.606,-5.342577
1425405737.621,-1.9009762
1425405737.637,2.2865028
1425405737.653,6.554611
1425405737.668,10.272377
1425405737.684,13.035336
1425405737.699,14.786081
1425405737.715,15.800066
1425405737.731,16.559412
1425405737.746,17.567726
1425405737.762,19.24776
1425405737.778,21.856838
1425405737.793,25.409843
1425405737.809,29.615072
1425405737.824,33.76611
1425405737.84,36.7611
1425405737.856,37.35296
1425405737.871,34.51943
1425405737.887,27.99042
1425405737.903,18.463436
1425405737.918,7.5501995
1425405737.934,-2.8211098
1425405737.949,-11.01837
1425405737.965,-16.290691
1425405737.981,-18.871906
1425405737.996,-19.670921
1425405738.012,-19.737093
1425405738.028,-19.800308
1425405738.043,-20.048754
1425405738.059,-20.310875
1425405738.074,-20.341059
1425405738.09,-20.057726
1425405738.106,-19.587128
1425405738.121,-19.150858
1425405738.137,-18.845013
1425405738.153,-18.607887
1425405738.168,-18.20715
1425405738.184,-17.407545
1425405738.199,-16.132116
1425405738.215,-14.510263
1425405738.231,-12.830158
1425405738.246,-11.411558
1425405738.262,-10.434437
1425405738.278,-9.869621
1425405738.293,-9.4619465
1425405738.309,-8.812908
1425405738.324,-7.5212345
1425405738.34,-5.3465385
1425405738.356,-2.2638988
1425405738.371,1.4768982
1425405738.387,5.4547234
1425405738.403,9.182987
1425405738.418,12.315006
1425405738.434,14.712671
1425405738.45,16.478565
1425405738.465,17.895561
1425405738.481,19.273315
1425405738.496,20.919798
1425405738.512,23.063425
1425405738.528,25.846842
1425405738.543,29.214888
1425405738.559,32.752113
1425405738.575,35.572174
1425405738.59,36.45836
1425405738.606,34.266556
1425405738.621,28.46881
1425405738.637,19.549606
1425405738.653,8.95331
1425405738.668,-1.3782654
1425405738.684,-9.776144
1425405738.7,-15.404003
1425405738.715,-18.424128
1425405738.731,-19.693443
1425405738.746,-20.17932
1425405738.762,-20.5182
1425405738.778,-20.825281
1425405738.793,-20.881699
1425405738.809,-20.426714
1425405738.825,-19.433846
1425405738.84,-18.128366
1425405738.856,-16.88082
1425405738.871,-16.027243
1425405738.887,-15.676979
1425405738.903,-15.684975
1425405738.918,-15.676317
1425405738.934,-15.262959
1425405738.95,-14.205221
1425405738.965,-12.581358
1425405738.981,-10.747154
1425405738.996,-9.180069
1425405739.012,-8.221359
1425405739.028,-7.8686695
1425405739.043,-7.7220783
1425405739.059,-7.1407166
1425405739.075,-5.514637
1425405739.09,-2.5721664
1425405739.106,1.4705315
1425405739.121,5.9724216
1425405739.137,10.15572
1425405739.153,13.387386
1425405739.168,15.42066
1425405739.184,16.457878
1425405739.2,16.979301
1425405739.215,17.508167
1425405739.231,18.477753
1425405739.246,20.159512
1425405739.262,22.70702
1425405739.278,26.069582
1425405739.293,29.848803
1425405739.309,33.16093
1425405739.325,34.733818
1425405739.34,33.304775
1425405739.356,28.243778
1425405739.371,19.955093
1425405739.387,9.8955345
1425405739.403,0.02199936
1425405739.418,-7.9647026
1425405739.434,-13.28528
1425405739.45,-16.140362
1425405739.465,-17.35225
1425405739.481,-17.765831
1425405739.496,-17.848686
1425405739.512,-17.63015
1425405739.528,-17.022526
1425405739.543,-16.077362
1425405739.559,-15.126831
1425405739.575,-14.541168
1425405739.59,-14.5057335
1425405739.606,-14.842236
1425405739.621,-15.103722
1425405739.637,-14.789127
1425405739.653,-13.627182
1425405739.668,-11.718529
1425405739.684,-9.487469
1425405739.7,-7.4677925
1425405739.715,-6.081299
1425405739.731,-5.4062347
1425405739.746,-5.194309
1425405739.762,-4.928875
1425405739.778,-4.0825844
1425405739.793,-2.324627
1425405739.809,0.302063
1425405739.825,3.4608994
1425405739.84,6.639923
1425405739.856,9.385693
1425405739.871,11.452812
1425405739.887,12.927673
1425405739.903,14.127296
1425405739.918,15.491577
1425405739.934,17.440945
1425405739.95,20.218697
1425405739.965,23.749828
1425405739.981,27.530357
1425405739.996,30.606014
1425405740.012,31.794819
1425405740.028,30.065079
1425405740.043,24.983345
1425405740.059,16.990215
1425405740.075,7.381096
1425405740.09,-2.1577911
1425405740.106,-10.08593
1425405740.121,-15.535032
1425405740.137,-18.423763
1425405740.153,-19.336979
1425405740.168,-19.093098
1425405740.184,-18.406456
1425405740.2,-17.66949
1425405740.215,-16.975357
1425405740.231,-16.29432
1425405740.246,-15.612179
1425405740.262,-15.01783
1425405740.278,-14.60891
1425405740.293,-14.388378
1425405740.309,-14.214485
1425405740.325,-13.832817
1425405740.34,-13.0167885
1425405740.356,-11.703186
1425405740.371,-10.093178
1425405740.387,-8.548069
1425405740.403,-7.3862
1425405740.418,-6.6693916
1425405740.434,-6.121647
1425405740.45,-5.2438164
1425405740.465,-3.5549393
1425405740.481,-0.89800644
1425405740.496,2.4307213
1425405740.512,5.8336143
1425405740.528,8.714872
1425405740.543,10.77866
1425405740.559,12.176147
1425405740.575,13.402603
1425405740.59,15.020187
1425405740.606,17.447495
1425405740.621,20.790184
1425405740.637,24.844227
1425405740.653,29.068214
1425405740.668,32.629463
1425405740.684,34.46536
1425405740.7,33.552814
1425405740.715,29.249737
1425405740.731,21.689201
1425405740.746,11.888115
1425405740.762,1.5154457
1425405740.778,-7.7043266
1425405740.793,-14.566139
1425405740.809,-18.74284
1425405740.825,-20.700365
1425405740.84,-21.244286
1425405740.856,-21.074738
1425405740.871,-20.529148
1425405740.887,-19.66084
1425405740.903,-18.46999
1425405740.918,-17.0705
1425405740.934,-15.71327
1425405740.95,-14.631964
1425405740.965,-13.925854
1425405740.981,-13.471649
1425405740.996,-13.029076
1425405741.012,-12.343426
1425405741.028,-11.301495
1425405741.043,-9.951088
1425405741.059,-8.4695
1425405741.075,-7.075718
1425405741.09,-5.882826
1425405741.106,-4.8354836
1425405741.122,-3.702137
1425405741.137,-2.1554909
1425405741.153,0.076683044
1425405741.168,3.0329056
1425405741.184,6.4302444
1425405741.2,9.780825
1425405741.215,12.536558
1425405741.231,14.420876
1425405741.247,15.50551
1425405741.262,16.26757
1425405741.278,17.340607
1425405741.293,19.34388
1425405741.309,22.566519
1425405741.325,26.80766
1425405741.34,31.293367
1425405741.356,34.7749
1425405741.372,35.829483
1425405741.387,33.359062
1425405741.403,27.068647
1425405741.418,17.696045
1425405741.434,6.8707294
1425405741.45,-3.4517784
1425405741.465,-11.687162
1425405741.481,-17.109898
1425405741.497,-19.965006
1425405741.512,-20.999702
1425405741.528,-21.044943
1425405741.543,-20.55325
1425405741.559,-19.672459
1425405741.575,-18.448235
1425405741.59,-17.0746
1425405741.606,-15.908922
1425405741.622,-15.279139
1425405741.637,-15.248713
1425405741.653,-15.519018
1425405741.668,-15.622797
1425405741.684,-15.160131
1425405741.7,-14.010315
1425405741.715,-12.410061
1425405741.731,-10.760794
1425405741.747,-9.433723
1425405741.762,-8.559097
1425405741.778,-7.999155
1425405741.793,-7.3797894
1425405741.809,-6.2903214
1425405741.825,-4.382004
1425405741.84,-1.5751686
1425405741.856,1.9389648
1425405741.872,5.7289295
1425405741.887,9.312429
1425405741.903,12.298168
1425405741.918,14.568497
1425405741.934,16.274551
1425405741.95,17.779718
1425405741.965,19.544844
1425405741.981,21.988081
1425405741.997,25.326021
1425405742.012,29.452515
1425405742.028,33.729412
1425405742.043,37.04899
1425405742.059,38.041313
1425405742.075,35.589302
1425405742.09,29.337532
1425405742.106,20.008224
1425405742.122,9.206993
1425405742.137,-1.1001205
1425405742.153,-9.339457
1425405742.168,-14.80831
1425405742.184,-17.765759
1425405742.2,-19.030424
1425405742.215,-19.485016
1425405742.231,-19.668905
1425405742.247,-19.728825
1425405742.262,-19.584524
1425405742.278,-19.169876
1425405742.293,-18.58031
1425405742.309,-17.996563
1425405742.325,-17.558056
1425405742.34,-17.234175
1425405742.356,-16.835884
1425405742.372,-16.13038
1425405742.387,-14.957825
1425405742.403,-13.390884
1425405742.418,-11.651259
1425405742.434,-10.059671
1425405742.45,-8.793653
1425405742.465,-7.847659
1425405742.481,-6.9379263
1425405742.497,-5.6836395
1425405742.512,-3.7513666
1425405742.528,-1.0421991
1425405742.543,2.2469683
1425405742.559,5.7066555
1425405742.575,8.874193
1425405742.59,11.429779
1425405742.606,13.308449
1425405742.622,14.734042
1425405742.637,16.147432
1425405742.653,18.069016
1425405742.668,20.931292
1425405742.684,24.842125
1425405742.7,29.47687
1425405742.715,33.92613
1425405742.731,36.91134
1425405742.747,37.11169
1425405742.762,33.672787
1425405742.778,26.604422
1425405742.793,16.875088
1425405742.809,6.158882
1425405742.825,-3.71216
1425405742.84,-11.349987
1425405742.856,-16.202744
1425405742.872,-18.564617
1425405742.887,-19.218355
1425405742.903,-19.073017
1425405742.918,-18.733791
1425405742.934,-18.43855
1425405742.95,-18.176098
1425405742.965,-17.889618
1425405742.981,-17.579708
1425405742.997,-17.331259
1425405743.012,-17.145262
1425405743.028,-16.889091
1425405743.043,-16.324902
1425405743.059,-15.271079
1425405743.075,-13.723009
1425405743.09,-11.970352
1425405743.106,-10.449394
1425405743.122,-9.525653
1425405743.137,-9.267305
1425405743.153,-9.364797
1425405743.168,-9.22884
1425405743.184,-8.250458
1425405743.2,-6.015636
1425405743.215,-2.5189312
1425405743.231,1.8221285
1425405743.247,6.31169
1425405743.262,10.221865
1425405743.278,13.060583
1425405743.293,14.770557
1425405743.309,15.755092
1425405743.325,16.730001
1425405743.34,18.448475
1425405743.356,21.419334
1425405743.372,25.632544
1425405743.387,30.511093
1425405743.403,34.957596
1425405743.418,37.63671
1425405743.434,37.331482
1425405743.45,33.37856
1425405743.465,25.901747
1425405743.481,15.907102
1425405743.497,4.948348
1425405743.512,-5.3020363
1425405743.528,-13.596348
1425405743.543,-19.37463
1425405743.559,-22.800655
1425405743.575,-24.392246
1425405743.59,-24.75964
1425405743.606,-24.357635
1425405743.622,-23.459621
1425405743.637,-22.271812
1425405743.653,-21.039436
1425405743.668,-20.006752
1425405743.684,-19.352522
1425405743.7,-19.071331
1425405743.715,-18.966278
1425405743.731,-18.700092
1425405743.747,-18.030045
1425405743.762,-16.842854
1425405743.778,-15.295221
1425405743.794,-13.678221
1425405743.809,-12.303854
1425405743.825,-11.284777
1425405743.84,-10.466066
1425405743.856,-9.439806
1425405743.872,-7.738661
1425405743.887,-5.088129
1425405743.903,-1.5684338
1425405743.918,2.4010162
1425405743.934,6.220915
1425405743.95,9.450342
1425405743.965,11.965002
1425405743.981,13.991083
1425405743.997,15.944885
1425405744.012,18.269157
1425405744.028,21.254002
1425405744.044,24.991512
1425405744.059,29.281862
1425405744.075,33.575653
1425405744.09,36.93633
1425405744.106,38.20233
1425405744.122,36.332863
1425405744.137,30.86463
1425405744.153,22.248817
1425405744.169,11.80756
1425405744.184,1.284441
1425405744.2,-7.740711
1425405744.215,-14.425789
1425405744.231,-18.75721
1425405744.247,-21.342613
1425405744.262,-22.928318
1425405744.278,-24.01371
1425405744.294,-24.734928
1425405744.309,-24.988972
1425405744.325,-24.66947
1425405744.34,-23.835266
1425405744.356,-22.733025
1425405744.372,-21.684937
1425405744.387,-20.934357
1425405744.403,-20.54655
1425405744.419,-20.381796
1425405744.434,-20.167746
1425405744.45,-19.647902
1425405744.465,-18.712496
1425405744.481,-17.448702
1425405744.497,-16.152119
1425405744.512,-15.105579
1425405744.528,-14.40863
1425405744.544,-13.827711
1425405744.559,-12.837496
1425405744.575,-10.83345
1425405744.59,-7.472643
1425405744.606,-2.9213924
1425405744.622,2.1505852
1425405744.637,6.828682
1425405744.653,10.358759
1425405744.669,12.490501
1425405744.684,13.532303
1425405744.7,14.187639
1425405744.715,15.17207
1425405744.731,16.986748
1425405744.747,19.815983
1425405744.762,23.616156
1425405744.778,28.110422
1425405744.794,32.753685
1425405744.809,36.574425
1425405744.825,38.30597
1425405744.84,36.730164
1425405744.856,31.26614
1425405744.872,22.403828
1425405744.887,11.68709
1425405744.903,1.2537918
1425405744.919,-7.0452347
1425405744.934,-12.284834
1425405744.95,-14.739008
1425405744.965,-15.491681
1425405744.981,-15.813625
1425405744.997,-16.540447
1425405745.012,-17.835678
1425405745.028,-19.326908
1425405745.044,-20.451607
1425405745.059,-20.862196
1425405745.075,-20.543324
1425405745.09,-19.780697
1425405745.106,-18.935394
1425405745.122,-18.261505
1425405745.137,-17.75883
1425405745.153,-17.223087
1425405745.169,-16.386444
1425405745.184,-15.132371
1425405745.2,-13.561837
1425405745.215,-11.976564
1425405745.231,-10.688352
1425405745.247,-9.841883
1425405745.262,-9.282175
1425405745.278,-8.593439
1425405745.294,-7.2848763
1425405745.309,-5.030839
1425405745.325,-1.7877126
1425405745.34,2.1050568
1425405745.356,6.0888624
1425405745.372,9.574026
1425405745.387,12.158768
1425405745.403,13.794485
1425405745.419,14.778549
1425405745.434,15.6396475
1425405745.45,16.9236
1425405745.465,19.011063
1425405745.481,21.998682
1425405745.497,25.72108
1425405745.512,29.90076
1425405745.528,34.09691
1425405745.544,37.72875
1425405745.559,39.98077
1425405745.575,39.886013
1425405745.59,36.588814
1425405745.606,29.796623
1425405745.622,20.091019
1425405745.637,8.948729
1425405745.653,-1.7125208
1425405745.669,-10.199705
1425405745.684,-15.687452
1425405745.7,-18.366964
1425405745.715,-19.242075
1425405745.731,-19.493572
1425405745.747,-19.956875
1425405745.762,-20.845364
1425405745.778,-21.88465
1425405745.794,-22.650295
1425405745.809,-22.900766
1425405745.825,-22.655527
1425405745.84,-22.13779
1425405745.856,-21.57091
1425405745.872,-21.030222
1425405745.887,-20.412155
1425405745.903,-19.542784
1425405745.919,-18.293692
1425405745.934,-16.689507
1425405745.95,-14.88613
1425405745.965,-13.142111
1425405745.981,-11.664873
1425405745.997,-10.5573435
1425405746.012,-9.697975
1425405746.028,-8.819855
1425405746.044,-7.5535088
1425405746.059,-5.5927715
1425405746.075,-2.815858
1425405746.09,0.63289547
1425405746.106,4.390011
1425405746.122,7.971301
1425405746.137,10.976793
1425405746.153,13.201307
1425405746.169,14.72422
1425405746.184,15.821945
1425405746.2,16.860186
1425405746.215,18.153904
1425405746.231,19.92875
1425405746.247,22.275713
1425405746.262,25.21517
1425405746.278,28.540577
1425405746.294,31.770716
1425405746.309,34.056133
1425405746.325,34.339638
1425405746.34,31.687712
1425405746.356,25.759014
1425405746.372,17.085873
1425405746.387,7.02903
1425405746.403,-2.677805
1425405746.419,-10.514999
1425405746.434,-15.715694
1425405746.45,-18.35414
1425405746.466,-19.135914
1425405746.481,-18.93624
1425405746.497,-18.399527
1425405746.512,-17.777248
1425405746.528,-17.094198
1425405746.544,-16.301798
1425405746.559,-15.470581
1425405746.575,-14.7247505
1425405746.59,-14.176352
1425405746.606,-13.75013
1425405746.622,-13.256075
1425405746.637,-12.406195
1425405746.653,-11.031126
1425405746.669,-9.165653
1425405746.684,-7.097269
1425405746.7,-5.2542095
1425405746.716,-4.0314274
1425405746.731,-3.5621815
1425405746.747,-3.651966
1425405746.762,-3.7807236
1425405746.778,-3.3377419
1425405746.794,-1.8443394
1425405746.809,0.7943554
1425405746.825,4.2630024
1425405746.841,7.967121
1425405746.856,11.274504
1425405746.872,13.739344
1425405746.887,15.287096
1425405746.903,16.164322
1425405746.919,16.844864
1425405746.934,17.85825
1425405746.95,19.618896
1425405746.966,22.236708
1425405746.981,25.3665
1425405746.997,28.168222
1425405747.012,29.437317
1425405747.028,28.011566
1425405747.044,23.273968
1425405747.059,15.487484
1425405747.075,5.8688126
1425405747.091,-3.8197823
1425405747.106,-11.878353
1425405747.122,-17.295181
1425405747.137,-19.952736
1425405747.153,-20.487263
1425405747.169,-19.825726
1425405747.184,-18.729248
1425405747.2,-17.564167
1425405747.216,-16.38147
1425405747.231,-15.1221695
1425405747.247,-13.837704
1425405747.262,-12.704796
1425405747.278,-11.920658
1425405747.294,-11.481358
1425405747.309,-11.182129
1425405747.325,-10.639
1425405747.341,-9.536613
1425405747.356,-7.8024635
1425405747.372,-5.7333183
1425405747.387,-3.7865028
1425405747.403,-2.398903
1425405747.419,-1.6724167
1425405747.434,-1.329956
1425405747.45,-0.84462357
1425405747.466,0.24504852
1425405747.481,2.0946617
1425405747.497,4.5184402
1425405747.512,7.0876656
1425405747.528,9.4072075
1425405747.544,11.303993
1425405747.559,12.847805
1425405747.575,14.262882
1425405747.591,15.79047
1425405747.606,17.642525
1425405747.622,19.940372
1425405747.637,22.655846
1425405747.653,25.454746
1425405747.669,27.636364
1425405747.684,28.17685
1425405747.7,26.156242
1425405747.716,21.123688
1425405747.731,13.494926
1425405747.747,4.4827538
1425405747.762,-4.321663
1425405747.778,-11.529957
1425405747.794,-16.432915
1425405747.809,-19.09198
1425405747.825,-20.083961
1425405747.841,-20.066048
1425405747.856,-19.472275
1425405747.872,-18.46048
1425405747.887,-17.03458
1425405747.903,-15.2778015
1425405747.919,-13.428062
1425405747.934,-11.799149
1425405747.95,-10.615967
1425405747.966,-9.89875
1425405747.981,-9.443665
1425405747.997,-8.981491
1425405748.012,-8.297508
1425405748.028,-7.3798447
1425405748.044,-6.352585
1425405748.059,-5.3694153
1425405748.075,-4.443058
1425405748.091,-3.3999672
1425405748.106,-1.9565086
1425405748.122,0.10895538
1425405748.137,2.7861671
1425405748.153,5.775898
1425405748.169,8.624638
1425405748.184,10.885056
1425405748.2,12.323616
1425405748.216,12.987755
1425405748.231,13.190571
1425405748.247,13.3475
1425405748.262,13.881153
1425405748.278,15.103958
1425405748.294,17.172226
1425405748.309,19.920258
1425405748.325,22.797234
1425405748.341,24.83289
1425405748.356,24.893154
1425405748.372,22.056297
1425405748.387,16.093098
1425405748.403,7.671932
1425405748.419,-1.7471046
1425405748.434,-10.443878
1425405748.45,-17.025864
1425405748.466,-20.86977
1425405748.481,-22.218365
1425405748.497,-21.865551
1425405748.512,-20.691864
1425405748.528,-19.285225
1425405748.544,-17.825233
1425405748.559,-16.223072
1425405748.575,-14.381828
1425405748.591,-12.365307
1425405748.606,-10.370983
1425405748.622,-8.645908
1425405748.637,-7.260933
1425405748.653,-6.1426697
1425405748.669,-5.09029
1425405748.684,-3.9707642
1425405748.7,-2.7891846
1425405748.716,-1.7129326
1425405748.731,-0.8947067
1425405748.747,-0.35884857
1425405748.762,0.0908699
1425405748.778,0.7673683
1425405748.794,1.9402504
1425405748.809,3.6544762
1425405748.825,5.7408714
1425405748.841,7.8810577
1425405748.856,9.7914505
1425405748.872,11.32584
1425405748.887,12.530666
1425405748.903,13.561661
1425405748.919,14.670788
1425405748.934,16.100437
1425405748.95,18.052452
1425405748.966,20.537994
1425405748.981,23.207016
1425405748.997,25.267517
1425405749.012,25.650097
1425405749.028,23.379208
1425405749.044,18.03489
1425405749.059,10.104012
1425405749.075,0.9377594
1425405749.091,-7.736744
1425405749.106,-14.380249
1425405749.122,-18.21976
1425405749.137,-19.375866
1425405749.153,-18.663754
1425405749.169,-17.101665
1425405749.184,-15.507862
1425405749.2,-14.234913
1425405749.216,-13.246094
1425405749.231,-12.336891
1425405749.247,-11.352509
1425405749.262,-10.277115
1425405749.278,-9.217384
1425405749.294,-8.270569
1425405749.309,-7.458626
1425405749.325,-6.7485924
1425405749.341,-6.071419
1425405749.356,-5.3937798
1425405749.372,-4.718418
1425405749.388,-3.9882813
1425405749.403,-3.107193
1425405749.419,-1.8596992
1425405749.434,-0.10380554
1425405749.45,2.206604
1425405749.466,4.8707123
1425405749.481,7.546772
1425405749.497,9.844513
1425405749.513,11.507755
1425405749.528,12.50256
1425405749.544,13.012054
1425405749.559,13.363216
1425405749.575,13.986439
1425405749.591,15.272564
1425405749.606,17.481403
1425405749.622,20.553852
1425405749.638,23.981033
1425405749.653,26.69014
1425405749.669,27.377857
1425405749.684,24.896057
1425405749.7,18.827778
1425405749.716,9.758633
1425405749.731,-0.7833748
1425405749.747,-10.842407
1425405749.763,-18.659016
1425405749.778,-23.289299
1425405749.794,-24.793201
1425405749.809,-24.02742
1425405749.825,-22.179039
1425405749.841,-20.282112
1425405749.856,-18.861862
1425405749.872,-17.953041
1425405749.888,-17.288055
1425405749.903,-16.572674
1425405749.919,-15.652985
1425405749.934,-14.570358
1425405749.95,-13.368965
1425405749.966,-12.069485
1425405749.981,-10.576042
1425405749.997,-8.783546
1425405750.013,-6.689022
1425405750.028,-4.516098
1425405750.044,-2.6141663
1425405750.059,-1.3058548
1425405750.075,-0.653492
1425405750.091,-0.3673439
1425405750.106,0.09452438
1425405750.122,1.28191
1425405750.138,3.5291443
1425405750.153,6.731098
1425405750.169,10.386799
1425405750.184,13.820904
1425405750.2,16.447838
1425405750.216,18.007454
1425405750.231,18.648266
1425405750.247,18.823242
1425405750.263,19.094734
1425405750.278,19.949265
1425405750.294,21.664616
1425405750.309,24.21848
1425405750.325,27.203106
1425405750.341,29.791847
1425405750.356,30.861801
1425405750.372,29.276669
1425405750.388,24.377106
1425405750.403,16.342506
1425405750.419,6.3269806
1425405750.434,-3.8657417
1425405750.45,-12.443211
1425405750.466,-18.282558
1425405750.481,-21.259762
1425405750.497,-22.153084
1425405750.513,-22.068256
1425405750.528,-21.891834
1425405750.544,-21.953289
1425405750.559,-22.107601
1425405750.575,-22.01019
1425405750.591,-21.448074
1425405750.606,-20.466362
1425405750.622,-19.286388
1425405750.638,-18.130093
1425405750.653,-17.105228
1425405750.669,-16.192547
1425405750.684,-15.263016
1425405750.7,-14.207024
1425405750.716,-12.960201
1425405750.731,-11.527027
1425405750.747,-9.977814
1425405750.763,-8.408112
1425405750.778,-6.908489
1425405750.794,-5.5578156
1425405750.809,-4.3459435
1425405750.825,-3.1379051
1425405750.841,-1.745575
1425405750.856,0.09144211
1425405750.872,2.496975
1425405750.888,5.422287
1425405750.903,8.588245
1425405750.919,11.580502
1425405750.934,13.975018
1425405750.95,15.559437
1425405750.966,16.366676
1425405750.981,16.688377
1425405750.997,16.919643
1425405751.013,17.436222
1425405751.028,18.458164
1425405751.044,20.078518
1425405751.059,22.280014
1425405751.075,24.90289
1425405751.091,27.516872
1425405751.106,29.351925
1425405751.122,29.358662
1425405751.138,26.577942
1425405751.153,20.596779
1425405751.169,11.920078
1425405751.184,1.9403687
1425405751.2,-7.5099792
1425405751.216,-14.886112
1425405751.231,-19.453094
1425405751.247,-21.455605
1425405751.263,-21.784035
1425405751.278,-21.425453
1425405751.294,-20.994415
1425405751.309,-20.627918
1425405751.325,-20.097881
1425405751.341,-19.195442
1425405751.356,-17.91224
1425405751.372,-16.467363
1425405751.388,-15.164461
1425405751.403,-14.23881
1425405751.419,-13.705997
1425405751.434,-13.386993
1425405751.45,-12.977337
1425405751.466,-12.174446
1425405751.481,-10.83688
1425405751.497,-9.085892
1425405751.513,-7.193901
1425405751.528,-5.523163
1425405751.544,-4.3276234
1425405751.559,-3.5929108
1425405751.575,-3.0663147
1425405751.591,-2.376709
1425405751.606,-1.1835442
1425405751.622,0.6762047
1425405751.638,3.178814
1425405751.653,6.1027107
1425405751.669,9.12281
1425405751.684,11.868162
1425405751.7,14.060839
1425405751.716,15.5666275
1425405751.731,16.476635
1425405751.747,17.086536
1425405751.763,17.797092
1425405751.778,18.960266
1425405751.794,20.778976
1425405751.809,23.186903
1425405751.825,25.8208
1425405751.841,28.001385
1425405751.856,28.817774
1425405751.872,27.378998
1425405751.888,23.127728
1425405751.903,16.139679
1425405751.919,7.2787476
1425405751.934,-2.0203362
1425405751.95,-10.214037
1425405751.966,-16.188206
1425405751.981,-19.59303
1425405751.997,-20.887491
1425405752.013,-20.89006
1425405752.028,-20.388123
1425405752.044,-19.801563
1425405752.06,-19.182758
1425405752.075,-18.381252
1425405752.091,-17.326637
1425405752.106,-16.08817
1425405752.122,-14.878872
1425405752.138,-13.903826
1425405752.153,-13.243742
1425405752.169,-12.831257
1425405752.185,-12.459209
1425405752.2,-11.849758
1425405752.216,-10.8365135
1425405752.231,-9.407377
1425405752.247,-7.7689095
1425405752.263,-6.2496376
1425405752.278,-5.166214
1425405752.294,-4.6097736
1425405752.31,-4.3834763
1425405752.325,-4.0210075
1425405752.341,-2.9980507
1425405752.356,-0.9916611
1425405752.372,1.9178505
1425405752.388,5.277645
1425405752.403,8.41576
1425405752.419,10.785173
1425405752.435,12.158306
1425405752.45,12.725544
1425405752.466,12.94746
1425405752.481,13.35474
1425405752.497,14.299286
1425405752.513,15.900459
1425405752.528,18.111134
1425405752.544,20.787617
1425405752.56,23.674349
1425405752.575,26.328568
1425405752.591,27.98719
1425405752.606,27.70855
1425405752.622,24.669899
1425405752.638,18.640038
1425405752.653,10.273399
1425405752.669,1.0160027
1425405752.685,-7.369076
1425405752.7,-13.503231
1425405752.716,-16.858677
1425405752.731,-17.832087
1425405752.747,-17.394695
1425405752.763,-16.496254
1425405752.778,-15.689781
1425405752.794,-15.045574
1425405752.81,-14.351055
1425405752.825,-13.451361
1425405752.841,-12.410711
1425405752.856,-11.452728
1425405752.872,-10.809677
1425405752.888,-10.50746
1425405752.903,-10.363441
1425405752.919,-10.033394
1425405752.935,-9.295578
1425405752.95,-8.104393
1425405752.966,-6.7101555
1425405752.981,-5.478964
1425405752.997,-4.7142124
1425405753.013,-4.4354725
1425405753.028,-4.368246
1425405753.044,-4.00692
1425405753.06,-2.882225
1425405753.075,-0.8112793
1425405753.091,2.0133762
1425405753.106,5.096195
1425405753.122,7.8698254
1425405753.138,9.9704685
1425405753.153,11.353203
1425405753.169,12.282572
1425405753.185,13.148331
1425405753.2,14.3193035
1425405753.216,16.01185
1425405753.231,18.249949
1425405753.247,20.80662
1425405753.263,23.143608
1425405753.278,24.437183
1425405753.294,23.755884
1425405753.31,20.39401
1425405753.325,14.272696
1425405753.341,6.1047897
1425405753.356,-2.706236
1425405753.372,-10.5592785
1425405753.388,-16.180277
1425405753.403,-19.105804
1425405753.419,-19.650213
1425405753.435,-18.6813
1425405753.45,-17.123022
1425405753.466,-15.638306
1425405753.481,-14.473156
1425405753.497,-13.579702
1425405753.513,-12.774736
1425405753.528,-11.91367
1425405753.544,-10.940723
1425405753.56,-9.881887
1425405753.575,-8.788416
1425405753.591,-7.728237
1425405753.606,-6.723381
1425405753.622,-5.7663746
1425405753.638,-4.848007
1425405753.653,-4.019453
1425405753.669,-3.3369465
1425405753.685,-2.8055134
1425405753.7,-2.277338
1425405753.716,-1.4323616
1425405753.731,0.10645485
1425405753.747,2.5369263
1425405753.763,5.705282
1425405753.778,9.046539
1425405753.794,11.864834
1425405753.81,13.612543
1425405753.825,14.211111
1425405753.841,14.063332
1425405753.856,13.879395
1425405753.872,14.36779
1425405753.888,15.990543
1425405753.903,18.76318
1425405753.919,22.230803
1425405753.935,25.477716
1425405753.95,27.322277
1425405753.966,26.620485
1425405753.981,22.675898
1425405753.997,15.620686
1425405754.013,6.5098953
1425405754.028,-2.978571
1425405754.044,-11.114054
1425405754.06,-16.754978
1425405754.075,-19.61661
1425405754.091,-20.250788
1425405754.106,-19.537306
1425405754.122,-18.298164
1425405754.138,-16.98465
1425405754.153,-15.735132
1425405754.169,-14.546377
1425405754.185,-13.44488
1425405754.2,-12.525787
1425405754.216,-11.912483
1425405754.231,-11.596863
1425405754.247,-11.416237
1425405754.263,-11.098534
1425405754.278,-10.402567
1425405754.294,-9.216618
1425405754.31,-7.6420765
1425405754.325,-5.905674
1425405754.341,-4.247387
1425405754.356,-2.7602406
1425405754.372,-1.3531017
1425405754.388,0.18431854
1425405754.403,2.03483
1425405754.419,4.227133
1425405754.435,6.577179
1425405754.45,8.789217
1425405754.466,10.617241
1425405754.481,12.005594
1425405754.497,13.109106
1425405754.513,14.269714
1425405754.528,15.847874
1425405754.544,18.122446
1425405754.56,21.12877
1425405754.575,24.528353
1425405754.591,27.527863
1425405754.606,29.025614
1425405754.622,27.916508
1425405754.638,23.59261
1425405754.653,16.300863
1425405754.669,7.1854286
1425405754.685,-2.0203304
1425405754.7,-9.650988
1425405754.716,-14.732973
1425405754.732,-17.222107
1425405754.747,-17.847439
1425405754.763,-17.611477
1425405754.778,-17.29013
1425405754.794,-17.14436
1425405754.81,-17.045464
1425405754.825,-16.724144
1425405754.841,-16.076874
1425405754.856,-15.209852
1425405754.872,-14.337067
1425405754.888,-13.544275
1425405754.903,-12.7456455
1425405754.919,-11.699726
1425405754.935,-10.23069
1425405754.95,-8.379587
1425405754.966,-6.444249
1425405754.982,-4.831048
1425405754.997,-3.8319254
1425405755.013,-3.4097433
1425405755.028,-3.1895857
1425405755.044,-2.6156864
1425405755.06,-1.2480154
1425405755.075,1.0641222
1425405755.091,4.059869
1425405755.107,7.2433615
1425405755.122,10.065441
1425405755.138,12.205534
1425405755.153,13.660118
1425405755.169,14.740262
1425405755.185,15.940244
1425405755.2,17.76067
1425405755.216,20.500431
1425405755.232,24.072323
1425405755.247,27.856071
1425405755.263,30.817389
1425405755.278,31.713474
1425405755.294,29.5606
1425405755.31,24.08023
1425405755.325,15.894618
1425405755.341,6.3750954
1425405755.357,-2.7885342
1425405755.372,-10.178175
1425405755.388,-15.038477
1425405755.403,-17.395948
1425405755.419,-17.867085
1425405755.435,-17.320675
1425405755.45,-16.537573
1425405755.466,-16.043743
1425405755.482,-16.055187
1425405755.497,-16.542786
1425405755.513,-17.343412
1425405755.528,-18.261745
1425405755.544,-19.061804
1425405755.56,-19.509811
1425405755.575,-19.349321
1425405755.591,-18.376432
1425405755.607,-16.499996
1425405755.622,-13.89792
1425405755.638,-11.000672
1425405755.653,-8.420395
1425405755.669,-6.7022614
1425405755.685,-6.076159
1425405755.7,-6.2991476
1425405755.716,-6.757188
1425405755.732,-6.6844044
1425405755.747,-5.5106993
1425405755.763,-2.9994483
1425405755.778,0.610163
1425405755.794,4.775502
1425405755.81,8.8088875
1425405755.825,12.144173
1425405755.841,14.433645
1425405755.857,15.728585
1425405755.872,16.42084
1425405755.888,17.131208
1425405755.903,18.49876
1425405755.919,20.9656
1425405755.935,24.525162
1425405755.95,28.678658
1425405755.966,32.37255
1425405755.982,34.295353
1425405755.997,33.243824
1425405756.013,28.633884
1425405756.028,20.827848
1425405756.044,11.079609
1425405756.06,1.180093
1425405756.075,-7.210641
1425405756.091,-13.10415
1425405756.107,-16.418476
1425405756.122,-17.809591
1425405756.138,-18.135227
1425405756.153,-18.077011
1425405756.169,-17.887218
1425405756.185,-17.560003
1425405756.2,-17.028198
1425405756.216,-16.41551
1425405756.232,-15.956568
1425405756.247,-15.863794
1425405756.263,-16.136963
1425405756.278,-16.553127
1425405756.294,-16.747536
1425405756.31,-16.411697
1425405756.325,-15.381321
1425405756.341,-13.764648
1425405756.357,-11.870207
1425405756.372,-10.067715
1425405756.388,-8.663237
1425405756.403,-7.7446938
1425405756.419,-7.1147776
1425405756.435,-6.3813205
1425405756.45,-5.085975
1425405756.466,-2.934513
1425405756.482,0.041252136
1425405756.497,3.4192228
1425405756.513,6.600477
1425405756.528,9.069601
1425405756.544,10.6851225
1425405756.56,11.759065
1425405756.575,12.935365
1425405756.591,14.831347
1425405756.607,17.795181
1425405756.622,21.738714
1425405756.638,26.222862
1425405756.653,30.540087
1425405756.669,33.89344
1425405756.685,35.445293
1425405756.7,34.469765
1425405756.716,30.538166
1425405756.732,23.731762
1425405756.747,14.794634
1425405756.763,5.027817
1425405756.778,-4.0420837
1425405756.794,-11.188299
1425405756.81,-15.826073
1425405756.825,-18.154272
1425405756.841,-18.863182
1425405756.857,-18.736115
1425405756.872,-18.325386
1425405756.888,-17.819832
1425405756.903,-17.21035
1425405756.919,-16.463617
1425405756.935,-15.686476
1425405756.95,-15.025288
1425405756.966,-14.580166
1425405756.982,-14.281937
1425405756.997,-13.921015
1425405757.013,-13.266733
1425405757.028,-12.222628
1425405757.044,-10.898394
1425405757.06,-9.584015
1425405757.075,-8.552372
1425405757.091,-7.913582
1425405757.107,-7.4956284
1425405757.122,-6.8918953
1425405757.138,-5.625242
1425405757.153,-3.4111195
1425405757.169,-0.27682495
1425405757.185,3.367525
1425405757.2,6.934122
1425405757.216,9.85306
1425405757.232,11.8564415
1425405757.247,13.040306
1425405757.263,13.866737
1425405757.278,14.92992
1425405757.294,16.77709
1425405757.31,19.71084
1425405757.325,23.667984
1425405757.341,28.150806
1425405757.357,32.229225
1425405757.372,34.672607
1425405757.388,34.304436
1425405757.404,30.407995
1425405757.419,23.136145
1425405757.435,13.557987
1425405757.45,3.3710022
1425405757.466,-5.6592674
1425405757.482,-12.330519
1425405757.497,-16.340548
1425405757.513,-18.178637
1425405757.528,-18.76396
1425405757.544,-18.913483
1425405757.56,-19.089401
1425405757.575,-19.351204
1425405757.591,-19.54562
1425405757.607,-19.500874
1425405757.622,-19.11414
1425405757.638,-18.359863
1425405757.654,-17.223743
1425405757.669,-15.726223
1425405757.685,-13.95586
1425405757.7,-12.08902
1425405757.716,-10.40469
1425405757.732,-9.156723
1425405757.747,-8.485783
1425405757.763,-8.320877
1425405757.779,-8.404411
1425405757.794,-8.338444
1425405757.81,-7.7039146
1425405757.825,-6.1509705
1425405757.841,-3.5384293
1425405757.857,0.0061073303
1425405757.872,4.0613823
1425405757.888,8.054424
1425405757.904,11.3745575
1425405757.919,13.693562
1425405757.935,15.09507
1425405757.95,16.113388
1425405757.966,17.539299
1425405757.982,20.050846
1425405757.997,23.807663
1425405758.013,28.268166
1425405758.029,32.205833
1425405758.044,34.13118
1425405758.06,32.832542
1425405758.075,27.884468
1425405758.091,19.85007
1425405758.107,10.113213
1425405758.122,0.3789482
1425405758.138,-7.875782
1425405758.154,-13.815414
1425405758.169,-17.307896
1425405758.185,-18.783356
