1425406098.007,0.0
1425406098.022,0.0
1425406098.038,0.0
1425406098.053,0.0
1425406098.069,0.0
1425406098.085,0.0
1425406098.1,0.0
1425406098.116,0.0
1425406098.132,0.0
1425406098.147,3.0523195E-4
1425406098.163,-0.007915577
1425406098.178,-0.015056497
1425406098.194,-0.012689297
1425406098.21,0.00594246
1425406098.225,0.03773884
1425406098.241,0.06434548
1425406098.257,0.05518167
1425406098.272,-0.0201849
1425406098.288,-0.17584252
1425406098.303,-0.40925848
1425406098.319,-0.6773441
1425406098.335,-0.9323433
1425406098.35,-1.1422994
1425406098.366,-1.3111883
1425406098.382,-1.4813187
1425406098.397,-1.7146915
1425406098.413,-2.0622172
1425406098.428,-2.53657
1425406098.444,-3.1277301
1425406098.46,-3.7507129
1425406098.475,-4.3222084
1425406098.491,-4.7879086
1425406098.507,-5.152612
1425406098.522,-5.4842935
1425406098.538,-5.8860974
1425406098.554,-6.4468594
1425406098.569,-7.191613
1425406098.585,-8.127063
1425406098.6,-9.077889
1425406098.616,-9.8709345
1425406098.632,-10.393695
1425406098.647,-10.674818
1425406098.663,-10.906222
1425406098.678,-11.378799
1425406098.694,-12.352368
1425406098.71,-13.919975
1425406098.725,-16.08124
1425406098.741,-18.415346
1425406098.757,-20.491879
1425406098.772,-22.027468
1425406098.788,-23.07304
1425406098.804,-24.052713
1425406098.819,-25.604078
1425406098.835,-28.28063
1425406098.85,-32.25891
1425406098.866,-37.434784
1425406098.882,-42.948395
1425406098.897,-47.923923
1425406098.913,-51.798534
1425406098.929,-54.65048
1425406098.944,-57.233555
1425406098.96,-60.659645
1425406098.975,-65.864624
1425406098.991,-73.11631
1425406099.007,-82.12296
1425406099.022,-91.4945
1425406099.038,-99.831924
1425406099.054,-106.26752
1425406099.069,-110.923225
1425406099.085,-114.909805
1425406099.1,-119.82333
1425406099.116,-127.02473
1425406099.132,-135.26591
1425406099.147,-145.76744
1425406099.163,-158.20407
1425406099.179,-171.96289
1425406099.194,-185.39355
1425406099.21,-195.36507
1425406099.225,-197.75008
1425406099.241,-188.99576
1425406099.257,-168.04715
1425406099.272,-137.32925
1425406099.288,-102.19187
1425406099.304,-67.6638
1425406099.319,-36.273666
1425406099.335,-6.7145844
1425406099.35,25.103363
1425406099.366,63.36685
1425406099.382,109.77045
1425406099.397,162.58914
1425406099.413,217.81827
1425406099.429,271.15244
1425406099.444,320.32788
1425406099.46,364.94928
1425406099.475,405.375
1425406099.491,441.20004
1425406099.507,470.53006
1425406099.522,490.51547
1425406099.538,498.54025
1425406099.554,493.45486
1425406099.569,475.78848
1425406099.585,447.65924
1425406099.6,411.83038
1425406099.616,370.72107
1425406099.632,325.99854
1425406099.647,278.6219
1425406099.663,229.22266
1425406099.679,178.59824
1425406099.694,128.04477
1425406099.71,79.25342
1425406099.725,34.147278
1425406099.741,-5.7275085
1425406099.757,-39.596405
1425406099.772,-67.54608
1425406099.788,-90.330414
1425406099.804,-108.96713
1425406099.819,-124.319016
1425406099.835,-136.843
1425406099.85,-146.60686
1425406099.866,-153.43047
1425406099.882,-157.19441
1425406099.897,-158.06427
1425406099.913,-156.52344
1425406099.929,-153.25838
1425406099.944,-148.96349
1425406099.96,-144.15593
1425406099.975,-139.08334
1425406099.991,-133.7534
1425406100.007,-128.05879
1425406100.022,-121.90399
1425406100.038,-115.31253
1425406100.054,-108.43447
1425406100.069,-101.49103
1425406100.085,-94.694016
1425406100.1,-88.174416
1425406100.116,-81.96642
1425406100.132,-76.01586
1425406100.147,-70.241394
1425406100.163,-64.57442
1425406100.179,-59.006927
1425406100.194,-53.583515
1425406100.21,-48.384422
1425406100.225,-43.48873
1425406100.241,-38.93973
1425406100.257,-34.726265
1425406100.272,-30.771439
1425406100.288,-26.988213
1425406100.304,-23.304379
1425406100.319,-19.703747
1425406100.335,-16.244991
1425406100.35,-13.032658
1425406100.366,-10.1658945
1425406100.382,-7.6863785
1425406100.397,-5.550767
1425406100.413,-3.6228056
1425406100.429,-1.7418928
1425406100.444,0.20377207
1425406100.46,2.2253623
1425406100.475,4.216911
1425406100.491,6.0036345
1425406100.507,7.439438
1425406100.522,8.518785
1425406100.538,9.353647
1425406100.554,10.154038
1425406100.569,11.089403
1425406100.585,12.20756
1425406100.6,13.4196615
1425406100.616,14.62434
1425406100.632,15.826411
1425406100.647,17.178537
1425406100.663,18.78139
1425406100.679,20.409098
1425406100.694,21.460083
1425406100.71,21.081863
1425406100.725,18.636753
1425406100.741,13.999836
1425406100.757,7.614607
1425406100.772,0.14865875
1425406100.788,-7.8904285
1425406100.804,-16.366808
1425406100.819,-25.268515
1425406100.835,-34.25928
1425406100.85,-42.37114
1425406100.866,-48.139782
1425406100.882,-50.218575
1425406100.897,-48.08128
1425406100.913,-42.396957
1425406100.929,-34.768143
1425406100.944,-27.056505
1425406100.96,-20.63305
1425406100.975,-15.990143
1425406100.991,-12.846205
1425406101.007,-10.581133
1425406101.022,-8.6218815
1425406101.038,-6.7093506
1425406101.054,-4.878132
1425406101.069,-3.338585
1425406101.085,-2.268959
1425406101.1,-1.7489777
1425406101.116,-1.6930618
1425406101.132,-1.887825
1425406101.147,-2.0159607
1425406101.163,-1.7897606
1425406101.179,-1.0399628
1425406101.194,0.24599457
1425406101.21,1.8748589
1425406101.226,3.528679
1425406101.241,4.878414
1425406101.257,5.723194
1425406101.272,6.0876923
1425406101.288,6.22332
1425406101.304,6.453068
1425406101.319,7.0354996
1425406101.335,8.074001
1425406101.35,9.479729
1425406101.366,11.081383
1425406101.382,12.600388
1425406101.397,13.592537
1425406101.413,13.373028
1425406101.429,11.120243
1425406101.444,6.175701
1425406101.46,-1.5176277
1425406101.476,-10.992397
1425406101.491,-20.41821
1425406101.507,-27.602169
1425406101.522,-30.795124
1425406101.538,-29.455921
1425406101.554,-24.390106
1425406101.569,-17.358013
1425406101.585,-10.206299
1425406101.601,-4.2205276
1425406101.616,0.15397835
1425406101.632,3.056715
1425406101.647,4.8481064
1425406101.663,5.7381706
1425406101.679,5.8197956
1425406101.694,5.221178
1425406101.71,4.2523212
1425406101.726,3.3580608
1425406101.741,2.9048672
1425406101.757,2.9656239
1425406101.772,3.3021736
1425406101.788,3.5629444
1425406101.804,3.5517406
1425406101.819,3.3547268
1425406101.835,3.3229485
1425406101.851,3.777729
1425406101.866,4.8378906
1425406101.882,6.2607994
1425406101.897,7.6394005
1425406101.913,8.57542
1425406101.929,8.876394
1425406101.944,8.617273
1425406101.96,8.066549
1425406101.976,7.6584263
1425406101.991,7.7950687
1425406102.007,8.755934
1425406102.022,10.520666
1425406102.038,12.52174
1425406102.054,13.63418
1425406102.069,12.415863
1425406102.085,7.705763
1425406102.101,-0.7447834
1425406102.116,-11.856222
1425406102.132,-23.409801
1425406102.147,-32.74571
1425406102.163,-37.810173
1425406102.179,-37.871605
1425406102.194,-33.731796
1425406102.21,-27.217558
1425406102.226,-20.356895
1425406102.241,-14.626379
1425406102.257,-10.596512
1425406102.272,-8.120363
1425406102.288,-6.6999683
1425406102.304,-5.830536
1425406102.319,-5.210108
1425406102.335,-4.6579723
1425406102.351,-4.0504665
1425406102.366,-3.2215147
1425406102.382,-2.086811
1425406102.397,-0.5972166
1425406102.413,1.1854706
1425406102.429,3.1053677
1425406102.444,5.0652304
1425406102.46,7.0341377
1425406102.476,9.0508
1425406102.491,11.192971
1425406102.507,13.474994
1425406102.522,15.790841
1425406102.538,17.92115
1425406102.554,19.572752
1425406102.569,20.509811
1425406102.585,20.674215
1425406102.601,20.206232
1425406102.616,19.432613
1425406102.632,18.821774
1425406102.647,18.816797
1425406102.663,19.682611
1425406102.679,21.274195
1425406102.694,22.85228
1425406102.71,23.14507
1425406102.726,20.644852
1425406102.741,14.277662
1425406102.757,4.023353
1425406102.772,-8.744771
1425406102.788,-21.497622
1425406102.804,-31.281845
1425406102.819,-35.897354
1425406102.835,-34.695953
1425406102.851,-28.780304
1425406102.866,-20.417187
1425406102.882,-12.04454
1425406102.897,-5.36533
1425406102.913,-0.9659642
1425406102.929,1.5490054
1425406102.944,2.9633749
1425406102.96,3.9517817
1425406102.976,4.78303
1425406102.991,5.4240723
1425406103.007,5.7697186
1425406103.022,5.945552
1425406103.038,6.2007585
1425406103.054,6.7902603
1425406103.069,7.7462273
1425406103.085,8.873169
1425406103.101,9.800865
1425406103.116,10.2422285
1425406103.132,10.20534
1425406103.147,10.0396595
1425406103.163,10.471158
1425406103.179,12.079986
1425406103.194,15.028476
1425406103.21,18.91764
1425406103.226,22.861279
1425406103.241,25.90859
1425406103.257,27.411852
1425406103.272,27.347706
1425406103.288,26.347658
1425406103.304,25.72981
1425406103.319,26.79
1425406103.335,30.278664
1425406103.351,35.987076
1425406103.366,42.610214
1425406103.382,47.968285
1425406103.397,49.64931
1425406103.413,45.726177
1425406103.429,34.26024
1425406103.444,15.644536
1425406103.46,-7.7837315
1425406103.476,-32.3481
1425406103.491,-54.184387
1425406103.507,-70.36875
1425406103.522,-79.632126
1425406103.538,-82.42854
1425406103.554,-80.361786
1425406103.569,-75.429436
1425406103.585,-69.12226
1425406103.601,-62.427917
1425406103.616,-55.803196
1425406103.632,-49.383385
1425406103.647,-43.16616
1425406103.663,-37.149704
1425406103.679,-31.380112
1425406103.694,-26.044981
1425406103.71,-21.411137
1425406103.726,-17.62771
1425406103.741,-14.794613
1425406103.757,-12.849236
1425406103.772,-11.490576
1425406103.788,-10.195135
1425406103.804,-8.305613
1425406103.819,-5.2618732
1425406103.835,-0.7218971
1425406103.851,5.264326
1425406103.866,12.411665
1425406103.882,20.140574
1425406103.897,27.816149
1425406103.913,34.95912
1425406103.929,41.41507
1425406103.944,47.449196
1425406103.96,53.719498
1425406103.976,61.049126
1425406103.991,70.0563
1425406104.007,80.687416
1425406104.022,91.841125
1425406104.038,101.20981
1425406104.054,105.74393
1425406104.069,102.5528
1425406104.085,89.98291
1425406104.101,68.45158
1425406104.116,40.57699
1425406104.132,10.475285
1425406104.148,-17.443571
1425406104.163,-39.826626
1425406104.179,-55.12147
1425406104.194,-63.646545
1425406104.21,-66.909424
1425406104.226,-66.80498
1425406104.241,-64.87454
1425406104.257,-62.045013
1425406104.273,-58.724205
1425406104.288,-55.095726
1425406104.304,-51.275146
1425406104.319,-47.45625
1425406104.335,-43.848385
1425406104.351,-40.58532
1425406104.366,-37.73709
1425406104.382,-35.29123
1425406104.398,-33.177483
1425406104.413,-31.262123
1425406104.429,-29.314434
1425406104.444,-27.028713
1425406104.46,-24.00394
1425406104.476,-19.90007
1425406104.491,-14.519644
1425406104.507,-7.926243
1425406104.523,-0.41054535
1425406104.538,7.5631638
1425406104.554,15.570263
1425406104.569,23.349346
1425406104.585,30.922146
1425406104.601,38.612778
1425406104.616,47.00181
1425406104.632,56.73725
1425406104.648,68.21593
1425406104.663,81.12416
1425406104.679,94.05972
1425406104.694,104.46581
1425406104.71,109.13373
1425406104.726,105.147064
1425406104.741,91.12198
1425406104.757,67.8994
1425406104.773,38.582268
1425406104.788,7.6371803
1425406104.804,-20.481064
1425406104.819,-42.671055
1425406104.835,-57.780163
1425406104.851,-66.426155
1425406104.866,-70.21759
1425406104.882,-70.88584
1425406104.898,-69.73556
1425406104.913,-67.55307
1425406104.929,-64.79621
1425406104.944,-61.82201
1425406104.96,-58.939037
1425406104.976,-56.32406
1425406104.991,-53.90572
1425406105.007,-51.41386
1425406105.023,-48.490967
1425406105.038,-44.97424
1425406105.054,-40.982594
1425406105.069,-36.88481
1425406105.085,-33.0422
1425406105.101,-29.538391
1425406105.116,-26.044605
1425406105.132,-21.950695
1425406105.148,-16.662262
1425406105.163,-9.913273
1425406105.179,-1.9349785
1425406105.194,6.6686363
1425406105.21,15.23251
1425406105.226,23.303349
1425406105.241,30.913235
1425406105.257,38.496693
1425406105.273,46.741917
1425406105.288,56.34518
1425406105.304,67.69338
1425406105.319,80.48241
1425406105.335,93.43747
1425406105.351,104.22858
1425406105.366,109.83533
1425406105.382,107.41248
1425406105.398,95.393036
1425406105.413,74.32428
1425406105.429,46.975304
1425406105.444,17.560131
1425406105.46,-9.592667
1425406105.476,-31.39167
1425406105.491,-46.627007
1425406105.507,-55.85774
1425406105.523,-60.594807
1425406105.538,-62.417965
1425406105.554,-62.423912
1425406105.569,-61.13288
1425406105.585,-58.814934
1425406105.601,-55.718025
1425406105.616,-52.19994
1425406105.632,-48.620083
1425406105.648,-45.20455
1425406105.663,-41.990322
1425406105.679,-38.84963
1425406105.694,-35.692112
1425406105.71,-32.54596
1425406105.726,-29.55336
1425406105.741,-26.845234
1425406105.757,-24.391987
1425406105.773,-21.895073
1425406105.788,-18.829311
1425406105.804,-14.621437
1425406105.819,-8.881672
1425406105.835,-1.5960999
1425406105.851,6.85585
1425406105.866,15.81271
1425406105.882,24.614845
1425406105.898,32.82391
1425406105.913,40.503162
1425406105.929,48.202904
1425406105.944,56.762604
1425406105.96,66.94243
1425406105.976,78.77814
1425406105.991,91.1461
1425406106.007,101.60529
1425406106.023,106.92321
1425406106.038,104.04628
1425406106.054,91.38301
1425406106.069,69.62491
1425406106.085,41.816177
1425406106.101,12.393253
1425406106.116,-14.247612
1425406106.132,-35.07865
1425406106.148,-49.107918
1425406106.163,-57.085842
1425406106.179,-60.676777
1425406106.194,-61.531624
1425406106.21,-60.749744
1425406106.226,-58.86283
1425406106.241,-56.08875
1425406106.257,-52.676346
1425406106.273,-48.93818
1425406106.288,-45.23744
1425406106.304,-41.797146
1425406106.319,-38.688057
1425406106.335,-35.889137
1425406106.351,-33.367565
1425406106.366,-31.132824
1425406106.382,-29.140762
1425406106.398,-27.220543
1425406106.413,-25.00597
1425406106.429,-22.027794
1425406106.444,-17.880463
1425406106.46,-12.3245735
1425406106.476,-5.419571
1425406106.491,2.5447426
1425406106.507,11.10627
1425406106.523,19.794178
1425406106.538,28.266014
1425406106.554,36.486404
1425406106.569,44.81348
1425406106.585,53.950077
1425406106.601,64.67891
1425406106.616,77.311584
1425406106.632,91.14226
1425406106.648,104.10582
1425406106.663,113.03266
1425406106.679,114.54117
1425406106.694,106.27248
1425406106.71,87.96569
1425406106.726,61.769714
1425406106.741,31.702965
1425406106.757,2.3080292
1425406106.773,-22.690086
1425406106.788,-41.25425
1425406106.804,-53.163002
1425406106.82,-59.439934
1425406106.835,-61.57412
1425406106.851,-60.941414
1425406106.866,-58.628845
1425406106.882,-55.477478
1425406106.898,-52.19329
1425406106.913,-49.278015
1425406106.929,-46.938164
1425406106.945,-45.039093
1425406106.96,-43.251915
1425406106.976,-41.303383
1425406106.991,-39.181694
1425406107.007,-37.16912
1425406107.023,-35.564957
1425406107.038,-34.43441
1425406107.054,-33.369423
1425406107.07,-31.6428
1425406107.085,-28.46463
1425406107.101,-23.355392
1425406107.116,-16.340675
1425406107.132,-7.924858
1425406107.148,1.1439667
1425406107.163,10.140839
1425406107.179,18.626434
1425406107.195,26.522781
1425406107.21,34.1444
1425406107.226,42.12732
1425406107.241,51.27246
1425406107.257,62.24108
1425406107.273,75.07258
1425406107.288,88.74958
1425406107.304,101.0139
1425406107.32,108.668175
1425406107.335,108.51329
1425406107.351,98.48415
1425406107.366,78.63489
1425406107.382,51.3599
1425406107.398,20.755348
1425406107.413,-8.66626
1425406107.429,-33.2742
1425406107.445,-51.214035
1425406107.46,-62.469856
1425406107.476,-68.27146
1425406107.491,-70.31099
1425406107.507,-70.10666
1425406107.523,-68.722244
1425406107.538,-66.86389
1425406107.554,-64.996414
1425406107.57,-63.424934
1425406107.585,-62.214996
1425406107.601,-61.16069
1425406107.616,-59.81817
1425406107.632,-57.66178
1425406107.648,-54.400566
1425406107.663,-50.14042
1425406107.679,-45.327225
1425406107.695,-40.58432
1425406107.71,-36.337326
1425406107.726,-32.602654
1425406107.741,-28.914154
1425406107.757,-24.532036
1425406107.773,-18.738716
1425406107.788,-11.237053
1425406107.804,-2.2359924
1425406107.82,7.550667
1425406107.835,17.183258
1425406107.851,25.884865
1425406107.866,33.363777
1425406107.882,39.96154
1425406107.898,46.625137
1425406107.913,54.5934
1425406107.929,64.85579
1425406107.945,77.53015
1425406107.96,91.39839
1425406107.976,103.8202
1425406107.991,111.30287
1425406108.007,110.53672
1425406108.023,99.61656
1425406108.038,78.94876
1425406108.054,51.338936
1425406108.07,21.147476
1425406108.085,-7.025444
1425406108.101,-29.712395
1425406108.116,-45.31865
1425406108.132,-54.08049
1425406108.148,-57.43017
1425406108.163,-57.173607
1425406108.179,-54.877083
1425406108.195,-51.64225
1425406108.21,-48.17102
1425406108.226,-44.89544
1425406108.241,-42.04325
1425406108.257,-39.650887
1425406108.273,-37.54863
1425406108.288,-35.44876
1425406108.304,-33.055183
1425406108.32,-30.239693
1425406108.335,-27.085678
1425406108.351,-23.862228
1425406108.366,-20.856667
1425406108.382,-18.235893
1425406108.398,-15.873863
1425406108.413,-13.402954
1425406108.429,-10.293343
1425406108.445,-6.110138
1425406108.46,-0.6864624
1425406108.476,5.7681046
1425406108.491,12.738289
1425406108.507,19.695282
1425406108.523,26.33387
1425406108.538,32.765587
1425406108.554,39.55786
1425406108.57,47.543205
1425406108.585,57.47638
1425406108.601,69.5258
1425406108.616,82.86478
1425406108.632,95.43695
1425406108.648,104.23326
1425406108.663,106.01744
1425406108.679,98.474945
1425406108.695,81.19922
1425406108.71,56.127136
1425406108.726,27.056763
1425406108.741,-1.4662781
1425406108.757,-25.583282
1425406108.773,-43.111176
1425406108.788,-53.77739
1425406108.804,-58.724487
1425406108.82,-59.666855
1425406108.835,-58.1297
1425406108.851,-55.176758
1425406108.866,-51.472916
1425406108.882,-47.550507
1425406108.898,-43.855362
1425406108.913,-40.712006
1425406108.929,-38.178604
1425406108.945,-36.02977
1425406108.96,-33.912415
1425406108.976,-31.600174
1425406108.991,-29.171402
1425406109.007,-26.967773
1425406109.023,-25.358368
1425406109.038,-24.433304
1425406109.054,-23.798782
1425406109.07,-22.722763
1425406109.085,-20.416183
1425406109.101,-16.500046
1425406109.116,-11.189545
1425406109.132,-5.2627563
1425406109.148,0.34854126
1425406109.163,4.9912567
1425406109.179,8.715958
1425406109.195,12.262695
1425406109.21,16.884064
1425406109.226,23.924759
1425406109.241,34.379852
1425406109.257,48.46074
1425406109.273,65.27438
1425406109.288,82.70526
1425406109.304,97.554565
1425406109.32,106.16435
1425406109.335,105.4839
1425406109.351,94.12027
1425406109.366,73.077866
1425406109.382,45.61209
1425406109.398,16.276077
1425406109.413,-10.506561
1425406109.429,-31.70169
1425406109.445,-46.263992
1425406109.46,-54.890656
1425406109.476,-59.229797
1425406109.492,-61.02397
1425406109.507,-61.55919
1425406109.523,-61.54814
1425406109.538,-61.31421
1425406109.554,-60.968826
1425406109.57,-60.540894
1425406109.585,-59.9393
1425406109.601,-58.96895
1425406109.617,-57.350967
1425406109.632,-54.93579
1425406109.648,-51.800293
1425406109.663,-48.33354
1425406109.679,-45.090332
1425406109.695,-42.583527
1425406109.71,-40.99733
1425406109.726,-39.99417
1425406109.742,-38.743744
1425406109.757,-36.225403
1425406109.773,-31.61615
1425406109.788,-24.68776
1425406109.804,-15.92244
1425406109.82,-6.366379
1425406109.835,2.8412628
1425406109.851,10.886765
1425406109.867,17.61885
1425406109.882,23.5878
1425406109.898,29.87503
1425406109.913,37.743332
1425406109.929,48.18425
1425406109.945,61.435608
1425406109.96,76.56084
1425406109.976,91.2301
1425406109.992,102.03993
1425406110.007,105.4135
1425406110.023,98.80646
1425406110.038,81.80615
1425406110.054,56.547028
1425406110.07,27.137878
1425406110.085,-1.6930084
1425406110.101,-26.091583
1425406110.117,-44.009354
1425406110.132,-55.384888
1425406110.148,-61.442947
1425406110.163,-63.83719
1425406110.179,-63.95665
1425406110.195,-62.715775
1425406110.21,-60.680664
1425406110.226,-58.32492
1425406110.242,-56.072067
1425406110.257,-54.23648
1425406110.273,-52.850082
1425406110.288,-51.640198
1425406110.304,-50.16516
1425406110.32,-48.047073
1425406110.335,-45.16577
1425406110.351,-41.737305
1425406110.367,-38.187805
1425406110.382,-34.96756
1425406110.398,-32.26622
1425406110.413,-29.901642
1425406110.429,-27.338913
1425406110.445,-23.875809
1425406110.46,-18.968033
1425406110.476,-12.473358
1425406110.492,-4.764099
1425406110.507,3.4355164
1425406110.523,11.324707
1425406110.538,18.34285
1425406110.554,24.43666
1425406110.57,30.07946
1425406110.585,36.183937
1425406110.601,43.807915
1425406110.617,53.751198
1425406110.632,66.01171
1425406110.648,79.429016
1425406110.663,91.57909
1425406110.679,99.253006
1425406110.695,99.36352
1425406110.71,90.11642
1425406110.726,71.803665
1425406110.742,46.956406
1425406110.757,19.546265
1425406110.773,-6.257347
1425406110.788,-27.329193
1425406110.804,-42.226707
1425406110.82,-51.112236
1425406110.835,-55.083122
1425406110.851,-55.510277
1425406110.867,-53.514107
1425406110.882,-49.94085
1425406110.898,-45.4012
1425406110.913,-40.478706
1425406110.929,-35.710632
1425406110.945,-31.479378
1425406110.96,-27.944527
1425406110.976,-25.06855
1425406110.992,-22.692848
1425406111.007,-20.69735
1425406111.023,-19.034225
1425406111.038,-17.65268
1425406111.054,-16.396477
1425406111.07,-14.930962
1425406111.085,-12.752907
1425406111.101,-9.373909
1425406111.117,-4.5086975
1425406111.132,1.7762222
1425406111.148,9.09153
1425406111.163,16.834587
1425406111.179,24.481941
1425406111.195,31.729668
1425406111.21,38.602604
1425406111.226,45.39476
1425406111.242,52.620182
1425406111.257,60.818726
1425406111.273,70.28172
1425406111.288,80.66243
1425406111.304,90.66135
1425406111.32,97.946945
1425406111.335,99.68927
1425406111.351,93.4541
1425406111.367,78.30873
1425406111.382,55.41146
1425406111.398,27.910805
1425406111.413,-0.026004791
1425406111.429,-24.506416
1425406111.445,-43.03969
1425406111.46,-54.970352
1425406111.476,-61.18337
1425406111.492,-63.333942
1425406111.507,-63.07807
1425406111.523,-61.569664
1425406111.538,-59.390495
1425406111.554,-56.701633
1425406111.57,-53.5015
1425406111.585,-49.79942
1425406111.601,-45.78098
1425406111.617,-41.743908
1425406111.632,-38.093933
1425406111.648,-35.16647
1425406111.663,-33.1043
1425406111.679,-31.777514
1425406111.695,-30.79083
1425406111.71,-29.591694
1425406111.726,-27.554373
1425406111.742,-24.181267
1425406111.757,-19.214113
1425406111.773,-12.686943
1425406111.788,-4.955097
1425406111.804,3.4397507
1425406111.82,11.885128
1425406111.835,19.928776
1425406111.851,27.405289
1425406111.867,34.59245
1425406111.882,42.1047
1425406111.898,50.780495
1425406111.913,61.215527
1425406111.929,73.25923
1425406111.945,85.60741
1425406111.96,95.76759
1425406111.976,100.56903
1425406111.992,97.20009
1425406112.007,84.35109
1425406112.023,62.922863
1425406112.038,35.934826
1425406112.054,7.6507363
1425406112.07,-17.832598
1425406112.085,-37.726803
1425406112.101,-51.13662
1425406112.117,-58.729122
1425406112.132,-62.05546
1425406112.148,-62.722046
1425406112.164,-61.8973
1425406112.179,-60.234787
1425406112.195,-58.018665
1425406112.21,-55.409966
1425406112.226,-52.573757
1425406112.242,-49.65096
1425406112.257,-46.779083
1425406112.273,-44.016014
1425406112.288,-41.3984
1425406112.304,-38.958572
1425406112.32,-36.768703
1425406112.335,-34.914886
1425406112.351,-33.39951
1425406112.367,-32.03766
1425406112.382,-30.439001
1425406112.398,-28.005936
1425406112.414,-24.155266
1425406112.429,-18.54881
1425406112.445,-11.311035
1425406112.46,-3.031704
1425406112.476,5.398834
1425406112.492,13.168957
1425406112.507,19.872437
1425406112.523,25.745659
1425406112.539,31.564178
1425406112.554,38.456543
1425406112.57,47.35463
1425406112.585,58.502995
1425406112.601,70.96718
1425406112.617,82.520096
1425406112.632,90.03924
1425406112.648,90.40716
1425406112.664,81.6853
1425406112.679,64.010895
1425406112.695,39.770576
1425406112.71,12.935333
1425406112.726,-12.286766
1425406112.742,-32.727913
1425406112.757,-47.03427
1425406112.773,-55.58229
1425406112.789,-59.771255
1425406112.804,-61.14769
1425406112.82,-60.84919
1425406112.835,-59.475723
1425406112.851,-57.38665
1425406112.867,-54.92668
1425406112.882,-52.54416
1425406112.898,-50.597694
1425406112.914,-49.18332
1425406112.929,-48.0337
1425406112.945,-46.602356
1425406112.96,-44.383232
1425406112.976,-41.196243
1425406112.992,-37.30655
1425406113.007,-33.318703
1425406113.023,-29.844833
1425406113.039,-27.165604
1425406113.054,-25.000656
1425406113.07,-22.587173
1425406113.085,-18.99768
1425406113.101,-13.578949
1425406113.117,-6.2740326
1425406113.132,2.3064423
1425406113.148,11.156769
1425406113.164,19.267792
1425406113.179,26.063126
1425406113.195,31.574692
1425406113.21,36.434418
1425406113.226,41.637314
1425406113.242,48.18573
1425406113.257,56.694794
1425406113.273,67.03381
1425406113.289,78.0632
1425406113.304,87.67934
1425406113.32,93.2043
1425406113.335,92.210724
1425406113.351,83.34839
1425406113.367,67.019394
1425406113.382,45.42125
1425406113.398,21.949356
1425406113.414,0.11845398
1425406113.429,-17.404755
1425406113.445,-29.442368
1425406113.46,-36.230026
1425406113.476,-38.93515
1425406113.492,-38.967743
1425406113.507,-37.5309
1425406113.523,-35.39595
1425406113.539,-33.003876
1425406113.554,-30.593521
1425406113.57,-28.281311
1425406113.585,-26.095825
1425406113.601,-23.95839
1425406113.617,-21.703918
1425406113.632,-19.211823
1425406113.648,-16.513733
1425406113.664,-13.803284
1425406113.679,-11.445496
1425406113.695,-9.777069
1425406113.71,-8.914978
1425406113.726,-8.6519165
1425406113.742,-8.440857
1425406113.757,-7.5352783
1425406113.773,-5.1793213
1425406113.789,-0.9208374
1425406113.804,5.254669
1425406113.82,12.816711
1425406113.835,20.872955
1425406113.851,28.454987
1425406113.867,34.93341
1425406113.882,40.315308
1425406113.898,45.302094
1425406113.914,50.99179
1425406113.929,58.29843
1425406113.945,67.27521
1425406113.96,76.735596
1425406113.976,84.329285
1425406113.992,87.243744
1425406114.007,83.1893
1425406114.023,71.36041
1425406114.039,52.847015
1425406114.054,30.36261
1425406114.07,7.363159
1425406114.085,-12.989471
1425406114.101,-28.651855
1425406114.117,-38.95871
1425406114.132,-44.376617
1425406114.148,-46.000305
1425406114.164,-44.955597
1425406114.179,-42.211304
1425406114.195,-38.503937
1425406114.21,-34.43213
1425406114.226,-30.536163
1425406114.242,-27.228302
1425406114.257,-24.702423
1425406114.273,-22.868713
1425406114.289,-21.44635
1425406114.304,-20.07013
1425406114.32,-18.494629
1425406114.335,-16.676514
1425406114.351,-14.746704
1425406114.367,-12.882141
1425406114.382,-11.165802
1425406114.398,-9.42569
1425406114.414,-7.283844
1425406114.429,-4.2728577
1425406114.445,-0.08520508
1425406114.46,5.285614
1425406114.476,11.457092
1425406114.492,17.849976
1425406114.507,23.910614
1425406114.523,29.35669
1425406114.539,34.326935
1425406114.554,39.38385
1425406114.57,45.300232
1425406114.585,52.744354
1425406114.601,61.921722
1425406114.617,72.16641
1425406114.632,81.812225
1425406114.648,88.3699
1425406114.664,89.18213
1425406114.679,82.35202
1425406114.695,67.56732
1425406114.71,46.4523
1425406114.726,22.181854
1425406114.742,-1.5393982
1425406114.757,-21.62677
1425406114.773,-36.387665
1425406114.789,-45.650665
1425406114.804,-50.27289
1425406114.82,-51.454956
1425406114.835,-50.216736
1425406114.851,-47.33246
1425406114.867,-43.447052
1425406114.882,-39.26544
1425406114.898,-35.524384
1425406114.914,-32.74298
1425406114.929,-30.997833
1425406114.945,-29.888031
1425406114.96,-28.764954
1425406114.976,-27.128296
1425406114.992,-24.86206
1425406115.007,-22.322815
1425406115.023,-20.020386
1425406115.039,-18.305939
1425406115.054,-17.108398
1425406115.07,-15.918854
1425406115.086,-14.042969
1425406115.101,-10.917572
1425406115.117,-6.3734436
1425406115.132,-0.68655396
1425406115.148,5.5726013
1425406115.164,11.821777
1425406115.179,17.718079
1425406115.195,23.291962
1425406115.211,28.930908
1425406115.226,35.222534
1425406115.242,42.79187
1425406115.257,52.00467
1425406115.273,62.706238
1425406115.289,73.941986
1425406115.304,83.90329
1425406115.32,90.16919
1425406115.336,90.304504
1425406115.351,82.74759
1425406115.367,67.4729
1425406115.382,46.291595
1425406115.398,22.347534
1425406115.414,-0.80596924
1425406115.429,-20.287537
1425406115.445,-34.62729
1425406115.461,-43.83896
1425406115.476,-48.969574
1425406115.492,-51.37503
1425406115.507,-52.169403
1425406115.523,-51.96582
1425406115.539,-51.027466
1425406115.554,-49.500854
1425406115.57,-47.62384
1425406115.586,-45.709045
1425406115.601,-43.98764
1425406115.617,-42.461975
1425406115.632,-40.884064
1425406115.648,-38.88922
1425406115.664,-36.276184
1425406115.679,-33.169434
1425406115.695,-30.041473
1425406115.711,-27.453552
1425406115.726,-25.742706
1425406115.742,-24.759827
1425406115.757,-23.832916
1425406115.773,-22.000732
1425406115.789,-18.479462
1425406115.804,-12.994446
1425406115.82,-5.916168
1425406115.836,1.9147339
1425406115.851,9.550842
1425406115.867,16.308899
1425406115.882,22.006195
1425406115.898,26.973572
1425406115.914,31.932312
1425406115.929,37.745056
1425406115.945,45.11331
1425406115.961,54.257263
1425406115.976,64.62094
1425406115.992,74.75757
1425406116.007,82.434296
1425406116.023,85.187195
1425406116.039,81.098816
1425406116.054,69.567444
1425406116.07,51.694885
1425406116.086,30.027313
1425406116.101,7.855133
1425406116.117,-11.841858
1425406116.132,-27.139526
1425406116.148,-37.458374
1425406116.164,-43.2955
1425406116.179,-45.723022
1425406116.195,-45.81198
1425406116.211,-44.32794
1425406116.226,-41.711945
1425406116.242,-38.254272
1425406116.257,-34.290558
1425406116.273,-30.282745
1425406116.289,-26.725922
1425406116.304,-23.953766
1425406116.32,-22.032043
1425406116.336,-20.71524
1425406116.351,-19.635376
1425406116.367,-18.494751
1425406116.382,-17.220428
1425406116.398,-15.939362
1425406116.414,-14.738525
1425406116.429,-13.505341
1425406116.445,-11.783966
1425406116.461,-8.960083
1425406116.476,-4.58313
1425406116.492,1.3315735
1425406116.507,8.222961
1425406116.523,15.182434
1425406116.539,21.375427
1425406116.554,26.4169
1425406116.57,30.578491
1425406116.586,34.665344
1425406116.601,39.7406
1425406116.617,46.68573
1425406116.632,55.740417
1425406116.648,66.20166
1425406116.664,76.38956
1425406116.679,83.84656
1425406116.695,85.99487
1425406116.711,80.942444
1425406116.726,68.22742
1425406116.742,49.126312
1425406116.757,26.41748
1425406116.773,3.5387573
1425406116.789,-16.419586
1425406116.804,-31.512573
1425406116.82,-41.223877
1425406116.836,-46.18344
1425406116.851,-47.562378
1425406116.867,-46.543274
1425406116.882,-44.014587
1425406116.898,-40.606018
1425406116.914,-36.839905
1425406116.929,-33.177216
1425406116.945,-30.009094
1425406116.961,-27.52179
1425406116.976,-25.602295
1425406116.992,-23.930054
1425406117.007,-22.188965
1425406117.023,-20.233551
1425406117.039,-18.149933
1425406117.054,-16.117828
1425406117.07,-14.213501
1425406117.086,-12.217499
1425406117.101,-9.6909485
1425406117.117,-6.1177673
1425406117.132,-1.2273865
1425406117.148,4.8681335
1425406117.164,11.670898
1425406117.179,18.493988
1425406117.195,24.728119
1425406117.211,30.095886
1425406117.226,34.75232
1425406117.242,39.262177
1425406117.257,44.45349
1425406117.273,51.223755
1425406117.289,60.150116
1425406117.304,71.101105
1425406117.32,82.89218
1425406117.336,93.21854
1425406117.351,99.06027
1425406117.367,97.619965
1425406117.382,87.32449
1425406117.398,68.62308
1425406117.414,44.006927
1425406117.429,17.3378
1425406117.445,-7.4063416
1425406117.461,-27.271698
1425406117.476,-40.99765
1425406117.492,-48.939575
1425406117.507,-52.46988
1425406117.523,-53.183105
1425406117.539,-52.36862
1425406117.554,-50.81418
1425406117.57,-48.94165
1425406117.586,-46.994934
1425406117.601,-45.15503
1425406117.617,-43.470306
1425406117.632,-41.831024
1425406117.648,-39.99231
1425406117.664,-37.71927
1425406117.679,-34.987213
1425406117.695,-32.07779
1425406117.711,-29.474915
1425406117.726,-27.620361
1425406117.742,-26.597107
1425406117.758,-26.018951
1425406117.773,-25.072357
1425406117.789,-22.864594
1425406117.804,-18.768707
1425406117.82,-12.683472
1425406117.836,-5.0636597
1425406117.851,3.2740784
1425406117.867,11.487244
1425406117.883,18.99527
1425406117.898,25.701431
1425406117.914,32.051987
1425406117.929,38.90222
1425406117.945,47.23271
1425406117.961,57.68727
1425406117.976,70.03722
1425406117.992,82.79416
1425406118.008,93.30864
1425406118.023,98.37488
1425406118.039,95.27762
1425406118.054,82.89523
1425406118.07,62.258972
1425406118.086,36.391754
1425406118.101,9.300644
1425406118.117,-15.2413025
1425406118.133,-34.76645
1425406118.148,-48.449524
1425406118.164,-56.822952
1425406118.179,-61.120453
1425406118.195,-62.58174
1425406118.211,-62.19232
1425406118.226,-60.674194
1425406118.242,-58.63771
1425406118.258,-56.60576
1425406118.273,-54.93495
1425406118.289,-53.659073
1425406118.304,-52.46498
1425406118.32,-50.86444
1425406118.336,-48.41539
1425406118.351,-45.02849
1425406118.367,-41.007034
1425406118.383,-36.974625
1425406118.398,-33.549515
1425406118.414,-31.069733
1425406118.429,-29.350769
1425406118.445,-27.723495
1425406118.461,-25.253113
1425406118.476,-21.101028
1425406118.492,-14.885208
1425406118.508,-6.883972
1425406118.523,2.0536804
1425406118.539,10.851608
1425406118.554,18.577927
1425406118.57,24.847275
1425406118.586,29.963165
1425406118.601,34.825653
1425406118.617,40.685547
1425406118.633,48.655823
1425406118.648,59.31534
1425406118.664,72.204605
1425406118.679,85.62103
1425406118.695,96.69679
1425406118.711,102.0827
1425406118.726,98.96828
1425406118.742,86.17201
1425406118.758,64.762695
1425406118.773,37.864655
1425406118.789,9.741577
1425406118.804,-15.548599
1425406118.82,-35.21779
1425406118.836,-48.29242
1425406118.851,-55.360046
1425406118.867,-57.904236
1425406118.883,-57.577866
1425406118.898,-55.728363
1425406118.914,-53.30641
1425406118.929,-50.856888
1425406118.945,-48.70291
1425406118.961,-46.94432
1425406118.976,-45.48352
1425406118.992,-44.045456
1425406119.008,-42.350357
1425406119.023,-40.21785
1425406119.039,-37.645218
1425406119.054,-34.774338
1425406119.07,-31.831215
1425406119.086,-28.95652
1425406119.101,-26.138496
1425406119.117,-23.171013
1425406119.133,-19.69313
1425406119.148,-15.272163
1425406119.164,-9.576889
1425406119.179,-2.5031433
1425406119.195,5.6896286
1425406119.211,14.383041
1425406119.226,22.7667
1425406119.242,30.183907
1425406119.258,36.46987
1425406119.273,42.184975
1425406119.289,48.46698
1425406119.304,56.524048
1425406119.32,66.9382
1425406119.336,78.97605
1425406119.351,90.41281
1425406119.367,97.984825
1425406119.383,98.4012
1425406119.398,89.576996
1425406119.414,71.47533
1425406119.429,46.34693
1425406119.445,18.033669
1425406119.461,-9.250793
1425406119.476,-32.09684
1425406119.492,-48.692223
1425406119.508,-58.922432
1425406119.523,-63.86638
1425406119.539,-65.11386
1425406119.554,-64.10008
1425406119.57,-61.880127
1425406119.586,-59.09661
1425406119.601,-56.148407
1425406119.617,-53.305687
1425406119.633,-50.735657
1425406119.648,-48.45146
1425406119.664,-46.3199
1425406119.679,-44.073647
1425406119.695,-41.51886
1425406119.711,-38.643333
1425406119.726,-35.685112
1425406119.742,-32.98777
1425406119.758,-30.750244
1425406119.773,-28.78991
1425406119.789,-26.505188
1425406119.804,-23.080872
1425406119.82,-17.831604
1425406119.836,-10.578407
1425406119.851,-1.7764053
1425406119.867,7.7268143
1425406119.883,17.02813
1425406119.898,25.604485
1425406119.914,33.4507
1425406119.929,41.07481
1425406119.945,49.28919
1425406119.961,58.921177
1425406119.976,70.45357
1425406119.992,83.5934
1425406120.008,96.92874
1425406120.023,107.873856
1425406120.039,113.13507
1425406120.054,109.72444
1425406120.07,96.19336
1425406120.086,73.41902
1425406120.101,44.57973
1425406120.117,14.178825
1425406120.133,-13.443306
1425406120.148,-35.37173
1425406120.164,-50.700478
1425406120.179,-60.183514
1425406120.195,-65.38884
1425406120.211,-67.862045
1425406120.226,-68.690704
1425406120.242,-68.5034
1425406120.258,-67.74396
1425406120.273,-66.80922
1425406120.289,-66.08203
1425406120.304,-65.7238
1425406120.32,-65.62987
1425406120.336,-65.43631
1425406120.351,-64.72261
1425406120.367,-63.28563
1425406120.383,-61.24165
1425406120.398,-59.051247
1425406120.414,-57.271626
1425406120.43,-56.270195
1425406120.445,-55.929485
1425406120.461,-55.60316
1425406120.476,-54.288334
1425406120.492,-51.07579
1425406120.508,-45.611847
1425406120.523,-38.33589
1425406120.539,-30.382286
1425406120.555,-23.018234
1425406120.57,-17.056515
1425406120.586,-12.307499
1425406120.601,-7.6476746
1425406120.617,-1.410778
1425406120.633,7.8844337
1425406120.648,20.895256
1425406120.664,37.07769
1425406120.68,54.620186
1425406120.695,70.72006
1425406120.711,82.11725
1425406120.726,85.81946
1425406120.742,79.98216
1425406120.758,64.49828
1425406120.773,41.227325
1425406120.789,13.4543
1425406120.805,-14.974075
1425406120.82,-40.795563
1425406120.836,-62.05622
1425406120.851,-78.235016
1425406120.867,-89.77607
1425406120.883,-97.45731
1425406120.898,-101.951385
1425406120.914,-103.76155
1425406120.93,-103.519806
1425406120.945,-102.23059
1425406120.961,-101.271164
1425406120.976,-102.12517
1425406120.992,-105.96713
1425406121.008,-113.24687
1425406121.023,-123.35959
1425406121.039,-134.58453
1425406121.055,-144.31567
1425406121.07,-149.74895
1425406121.086,-148.7049
1425406121.101,-140.40567
1425406121.117,-125.65973
1425406121.133,-106.44771
1425406121.148,-85.030594
1425406121.164,-63.147278
1425406121.18,-41.694855
1425406121.195,-21.077393
1425406121.211,-1.8615723
1425406121.226,14.788757
1425406121.242,27.327087
1425406121.258,34.581085
1425406121.273,36.610657
1425406121.289,35.02588
1425406121.305,32.56067
1425406121.32,32.135315
1425406121.336,35.853455
1425406121.351,44.444183
1425406121.367,57.224884
1425406121.383,72.28693
1425406121.398,86.7431
1425406121.414,97.03638
1425406121.43,99.70938
1425406121.445,92.60837
1425406121.461,76.174225
1425406121.476,54.1463
1425406121.492,32.882446
1425406121.508,19.300354
1425406121.523,18.313538
1425406121.539,30.948212
1425406121.555,54.167145
1425406121.57,82.461945
1425406121.586,110.21408
1425406121.601,133.66705
1425406121.617,151.49637
1425406121.633,164.13843
1425406121.648,172.44278
1425406121.664,176.80627
1425406121.68,177.08142
1425406121.695,173.19574
1425406121.711,165.77853
1425406121.726,156.31396
1425406121.742,146.6192
1425406121.758,138.15631
1425406121.773,131.40424
1425406121.789,125.87537
1425406121.805,120.48898
1425406121.82,114.37125
1425406121.836,107.35013
1425406121.851,100.128296
1425406121.867,93.894165
1425406121.883,89.6965
1425406121.898,87.87967
1425406121.914,87.913574
1425406121.93,88.67206
1425406121.945,89.07141
1425406121.961,88.5701
1425406121.976,87.46054
1425406121.992,86.73581
1425406122.008,87.7388
1425406122.023,91.63312
1425406122.039,98.802
1425406122.055,108.34839
1425406122.07,117.81644
1425406122.086,123.509
1425406122.101,121.43338
1425406122.117,108.71594
1425406122.133,84.91406
1425406122.148,52.472626
1425406122.164,16.088745
1425406122.18,-18.8779
1425406122.195,-48.181427
1425406122.211,-69.82077
1425406122.226,-84.111755
1425406122.242,-92.7973
1425406122.258,-97.841644
1425406122.273,-100.62546
1425406122.289,-101.71359
1425406122.305,-101.249146
1425406122.32,-99.34094
1425406122.336,-96.35751
1425406122.351,-92.81525
1425406122.367,-89.22586
1425406122.383,-85.87573
1425406122.398,-82.861145
1425406122.414,-80.05252
1425406122.43,-77.27658
1425406122.445,-74.27528
1425406122.461,-70.7908
1425406122.476,-66.58034
1425406122.492,-61.527542
1425406122.508,-55.611603
1425406122.523,-48.948868
1425406122.539,-41.680252
1425406122.555,-33.904495
1425406122.57,-25.623215
1425406122.586,-16.769089
1425406122.601,-7.2237396
1425406122.617,3.1468658
1425406122.633,14.57048
1425406122.648,27.349274
1425406122.664,41.660187
1425406122.68,57.14427
1425406122.695,72.42679
1425406122.711,84.94124
1425406122.726,91.37616
1425406122.742,88.67818
1425406122.758,75.39538
1425406122.773,52.48459
1425406122.789,23.359428
1425406122.805,-7.1057663
1425406122.82,-34.164215
1425406122.836,-54.60205
1425406122.851,-67.44766
1425406122.867,-73.65803
1425406122.883,-75.20717
1425406122.898,-74.05791
1425406122.914,-71.48074
1425406122.93,-68.04755
1425406122.945,-63.90614
1425406122.961,-59.24005
1425406122.976,-54.453785
1425406122.992,-50.123924
1425406123.008,-46.765625
1425406123.023,-44.610634
1425406123.039,-43.432434
1425406123.055,-42.65535
1425406123.07,-41.487423
1425406123.086,-39.246494
1425406123.102,-35.576164
1425406123.117,-30.606499
1425406123.133,-24.8274
1425406123.148,-18.871471
1425406123.164,-13.174059
1425406123.18,-7.76169
1425406123.195,-2.270153
1425406123.211,3.8595676
1425406123.226,11.150627
1425406123.242,19.939877
1425406123.258,30.451843
1425406123.273,42.730976
1425406123.289,56.483116
1425406123.305,70.68522
1425406123.32,83.301895
1425406123.336,91.36871
1425406123.352,91.75014
1425406123.367,82.3307
1425406123.383,63.0403
1425406123.398,36.229103
1425406123.414,6.107155
1425406123.43,-22.621597
1425406123.445,-46.172226
1425406123.461,-62.644394
1425406123.477,-72.111176
1425406123.492,-75.99307
1425406123.508,-76.05575
1425406123.523,-73.73561
1425406123.539,-69.794304
1425406123.555,-64.54899
1425406123.57,-58.272354
1425406123.586,-51.519302
1425406123.602,-45.118546
1425406123.617,-39.96746
1425406123.633,-36.560417
1425406123.648,-34.801704
1425406123.664,-33.97457
1425406123.68,-33.07267
1425406123.695,-31.168625
1425406123.711,-27.809113
1425406123.727,-23.069534
1425406123.742,-17.419922
1425406123.758,-11.431549
1425406123.773,-5.512024
1425406123.789,0.26617432
1425406123.805,6.150696
1425406123.82,12.67038
1425406123.836,20.434982
1425406123.852,30.010406
1425406123.867,41.786194
1425406123.883,55.87776
1425406123.898,71.81952
1425406123.914,88.35167
1425406123.93,103.19731
1425406123.945,113.27786
1425406123.961,115.34813
1425406123.977,107.08699
1425406123.992,88.10417
1425406124.008,60.540497
1425406124.023,28.58017
1425406124.039,-2.7510986
1425406124.055,-29.209839
1425406124.07,-48.49771
1425406124.086,-60.59041
1425406124.102,-67.048004
1425406124.117,-69.90434
1425406124.133,-70.68205
1425406124.148,-70.04491
1425406124.164,-68.01738
1425406124.18,-64.5703
1425406124.195,-59.94928
1425406124.211,-54.843353
1425406124.227,-50.136536
1425406124.242,-46.532898
1425406124.258,-44.299026
1425406124.273,-43.16487
1425406124.289,-42.43341
1425406124.305,-41.259216
1425406124.32,-38.90474
1425406124.336,-35.016647
1425406124.352,-29.666473
1425406124.367,-23.315079
1425406124.383,-16.47844
1425406124.398,-9.519669
1425406124.414,-2.4390717
1425406124.43,5.076111
1425406124.445,13.487076
1425406124.461,23.16777
1425406124.477,34.354965
1425406124.492,47.092194
1425406124.508,61.20456
1425406124.523,76.06348
1425406124.539,90.26141
1425406124.555,101.379486
1425406124.57,106.38562
1425406124.586,102.42935
1425406124.602,88.071075
1425406124.617,64.13876
1425406124.633,33.81888
1425406124.648,1.7706909
1425406124.664,-27.3497
1425406124.68,-50.26483
1425406124.695,-65.78906
1425406124.711,-74.624664
1425406124.727,-78.536804
1425406124.742,-79.41638
1425406124.758,-78.6315
1425406124.773,-76.92157
1425406124.789,-74.56674
1425406124.805,-71.71567
1425406124.82,-68.51044
1425406124.836,-65.19974
1425406124.852,-61.981384
1425406124.867,-58.99408
1425406124.883,-56.237457
1425406124.898,-53.605865
1425406124.914,-50.891113
1425406124.93,-47.837524
1425406124.945,-44.16736
1425406124.961,-39.66153
1425406124.977,-34.19757
1425406124.992,-27.80664
1425406125.008,-20.625061
1425406125.023,-12.836182
1425406125.039,-4.592224
1425406125.055,3.9743042
1425406125.07,12.805878
1425406125.086,21.881622
1425406125.102,31.34021
1425406125.117,41.50415
1425406125.133,52.88852
1425406125.148,65.865295
1425406125.164,80.12579
1425406125.18,94.11325
1425406125.195,104.99591
1425406125.211,109.20892
1425406125.227,103.71161
1425406125.242,87.34241
1425406125.258,61.56421
1425406125.273,30.220917
1425406125.289,-1.6192017
1425406125.305,-29.33136
1425406125.32,-49.97104
1425406125.336,-62.803894
1425406125.352,-68.92337
1425406125.367,-70.39667
1425406125.383,-69.295135
1425406125.398,-67.16922
1425406125.414,-64.82941
1425406125.43,-62.51947
1425406125.445,-60.138275
1425406125.461,-57.497253
1425406125.477,-54.434723
1425406125.492,-50.92621
1425406125.508,-47.063477
1425406125.523,-43.0412
1425406125.539,-39.080902
1425406125.555,-35.36725
1425406125.57,-31.938812
1425406125.586,-28.671692
1425406125.602,-25.292389
1425406125.617,-21.453705
1425406125.633,-16.906097
1425406125.648,-11.548187
1425406125.664,-5.470154
1425406125.68,1.0934753
1425406125.695,7.9644165
1425406125.711,15.054352
1425406125.727,22.476929
1425406125.742,30.433563
1425406125.758,39.27542
1425406125.774,49.355713
1425406125.789,60.89456
1425406125.805,73.62839
1425406125.82,86.34027
1425406125.836,96.740906
1425406125.852,101.76849
1425406125.867,98.52887
1425406125.883,85.51782
1425406125.898,63.483246
1425406125.914,35.4899
1425406125.93,5.944977
1425406125.945,-20.792694
1425406125.961,-41.810547
1425406125.977,-56.136505
1425406125.992,-64.48361
1425406126.008,-68.37256
1425406126.024,-69.31131
1425406126.039,-68.325424
1425406126.055,-65.99043
1425406126.07,-62.624023
1425406126.086,-58.580902
1425406126.102,-54.268234
1425406126.117,-50.096985
1425406126.133,-46.33452
1425406126.149,-43.07997
1425406126.164,-40.29251
1425406126.18,-37.869553
1425406126.195,-35.705338
1425406126.211,-33.74347
1425406126.227,-31.857712
1425406126.242,-29.858185
1425406126.258,-27.3956
1425406126.274,-24.073364
1425406126.289,-19.51976
1425406126.305,-13.574524
1425406126.32,-6.368286
1425406126.336,1.710846
1425406126.352,10.177536
1425406126.367,18.690842
1425406126.383,27.18898
1425406126.399,35.99582
1425406126.414,45.719803
1425406126.43,56.97612
1425406126.445,70.023224
1425406126.461,84.22
1425406126.477,97.75958
1425406126.492,107.73085
1425406126.508,110.84505
1425406126.524,104.576096
1425406126.539,88.26576
1425406126.555,63.6817
1425406126.57,34.65245
1425406126.586,5.8236237
1425406126.602,-18.810165
1425406126.617,-37.03888
1425406126.633,-48.667297
1425406126.649,-54.9637
1425406126.664,-57.675095
1425406126.68,-58.258102
1425406126.695,-57.53917
1425406126.711,-55.90143
1425406126.727,-53.58618
1425406126.742,-50.924667
1425406126.758,-48.26294
1425406126.774,-45.841766
1425406126.789,-43.595734
1425406126.805,-41.219223
1425406126.82,-38.32869
1425406126.836,-34.736572
1425406126.852,-30.544418
1425406126.867,-26.120483
1425406126.883,-21.83702
1425406126.899,-17.835114
1425406126.914,-13.857742
1425406126.93,-9.37178
1425406126.945,-3.8087463
1425406126.961,3.0843506
1425406126.977,11.07193
1425406126.992,19.500275
1425406127.008,27.6008
1425406127.024,34.854767
1425406127.039,41.236176
1425406127.055,47.25943
1425406127.07,53.856384
1425406127.086,61.979202
1425406127.102,72.21706
1425406127.117,84.277115
1425406127.133,96.69261
1425406127.149,106.83409
1425406127.164,111.46663
1425406127.18,107.762985
1425406127.195,94.43019
1425406127.211,72.37334
1425406127.227,44.630615
1425406127.242,15.41124
1425406127.258,-11.217293
1425406127.274,-32.54445
1425406127.289,-47.674652
1425406127.305,-57.27233
1425406127.32,-62.786293
1425406127.336,-65.687195
1425406127.352,-66.99061
1425406127.367,-67.23844
1425406127.383,-66.666336
1425406127.399,-65.4682
1425406127.414,-63.88118
1425406127.43,-62.18186
1425406127.445,-60.510468
1425406127.461,-58.82036
1425406127.477,-56.85646
1425406127.492,-54.324944
1425406127.508,-51.10202
1425406127.524,-47.384705
1425406127.539,-43.61126
1425406127.555,-40.23915
1425406127.57,-37.347847
1425406127.586,-34.467262
1425406127.602,-30.681778
1425406127.617,-25.064163
1425406127.633,-17.156738
1425406127.649,-7.306595
1425406127.664,3.4280396
1425406127.68,13.678925
1425406127.695,22.37252
1425406127.711,29.115288
1425406127.727,34.342705
1425406127.742,39.132767
1425406127.758,44.844475
1425406127.774,52.625008
1425406127.789,62.95753
1425406127.805,75.24276
1425406127.82,87.729416
1425406127.836,97.68785
1425406127.852,102.08598
1425406127.867,98.51402
1425406127.883,86.07985
1425406127.899,65.87262
1425406127.914,40.783356
1425406127.93,14.644596
1425406127.945,-8.85413
1425406127.961,-27.181873
1425406127.977,-39.433712
1425406127.992,-46.187267
1425406128.008,-48.88369
1425406128.024,-49.10591
1425406128.039,-48.060024
1425406128.055,-46.442684
1425406128.07,-44.54511
1425406128.086,-42.54389
1425406128.102,-40.591507
1425406128.117,-38.85491
1425406128.133,-37.333755
1425406128.149,-35.85926
1425406128.164,-34.109776
1425406128.18,-31.8896
1425406128.195,-29.263325
1425406128.211,-26.607021
1425406128.227,-24.37234
1425406128.242,-22.798332
1425406128.258,-21.674908
1425406128.274,-20.360947
1425406128.289,-18.003199
1425406128.305,-13.928768
1425406128.32,-7.902376
1425406128.336,-0.27227688
1425406128.352,8.169691
1425406128.367,16.48809
1425406128.383,23.942785
1425406128.399,30.29037
1425406128.414,35.90525
1425406128.43,41.651047
1425406128.445,48.60373
1425406128.461,57.49549
1425406128.477,68.224594
1425406128.492,79.499725
1425406128.508,88.977196
1425406128.524,93.80751
1425406128.539,91.56889
1425406128.555,81.171295
1425406128.57,63.384655
1425406128.586,40.694683
1425406128.602,16.57816
1425406128.617,-5.5619736
1425406128.633,-23.328007
1425406128.649,-35.80333
1425406128.664,-43.37764
1425406128.68,-47.21235
1425406128.696,-48.557632
1425406128.711,-48.372253
1425406128.727,-47.21731
1425406128.742,-45.430676
1425406128.758,-43.313587
1425406128.774,-41.223045
1425406128.789,-39.461395
1425406128.805,-38.144997
1425406128.821,-37.10309
1425406128.836,-35.965088
1425406128.852,-34.38311
1425406128.867,-32.268517
1425406128.883,-29.855156
1425406128.899,-27.601494
1425406128.914,-25.835762
1425406128.93,-24.521492
1425406128.946,-23.097496
1425406128.961,-20.680183
1425406128.977,-16.46315
1425406128.992,-10.138626
1425406129.008,-2.1428986
1425406129.024,6.5189743
1425406129.039,14.631302
1425406129.055,21.350517
1425406129.071,26.564491
1425406129.086,30.922112
1425406129.102,35.58094
1425406129.117,41.711945
1425406129.133,50.109932
1425406129.149,60.77684
1425406129.164,72.792114
1425406129.18,84.29486
1425406129.196,92.76261
1425406129.211,95.5724
1425406129.227,90.795944
1425406129.242,77.98816
1425406129.258,58.54492
1425406129.274,35.43255
1425406129.289,12.3368225
1425406129.305,-7.5588455
1425406129.321,-22.360947
1425406129.336,-31.809364
1425406129.352,-36.854057
1425406129.367,-38.91018
1425406129.383,-39.206177
1425406129.399,-38.521194
1425406129.414,-37.211
1425406129.43,-35.485916
1425406129.446,-33.499718
1425406129.461,-31.417221
1425406129.477,-29.298508
1425406129.492,-27.123413
1425406129.508,-24.774643
1425406129.524,-22.158386
1425406129.539,-19.26831
1425406129.555,-16.244751
1425406129.571,-13.312592
1425406129.586,-10.7148285
1425406129.602,-8.521912
1425406129.617,-6.5434113
1425406129.633,-4.240097
1425406129.649,-0.8296814
1425406129.664,4.4036407
1425406129.68,11.77626
1425406129.696,20.998215
1425406129.711,31.18663
1425406129.727,41.179276
1425406129.742,50.020126
1425406129.758,57.315735
1425406129.774,63.348984
1425406129.789,68.977646
1425406129.805,75.255585
1425406129.821,83.15323
1425406129.836,93.118
1425406129.852,104.76147
1425406129.867,116.60674
1425406129.883,126.22178
1425406129.899,130.69086
1425406129.914,127.54686
1425406129.93,115.698654
1425406129.946,95.9864
1425406129.961,70.987526
1425406129.977,44.14051
1425406129.992,18.582611
1425406130.008,-3.706665
1425406130.024,-22.195168
1425406130.039,-37.377747
1425406130.055,-50.091293
1425406130.071,-60.88021
1425406130.086,-69.90197
1425406130.102,-77.01446
1425406130.117,-82.17377
1425406130.133,-85.59959
1425406130.149,-87.73943
1425406130.164,-89.05338
1425406130.18,-89.80751
1425406130.196,-89.99761
1425406130.211,-89.48086
1425406130.227,-88.21215
1425406130.242,-86.40083
1425406130.258,-84.49864
1425406130.274,-83.047066
1425406130.289,-82.3278
1425406130.305,-82.19465
1425406130.321,-82.05006
1425406130.336,-81.09763
1425406130.352,-78.70642
1425406130.367,-74.73571
1425406130.383,-69.59882
1425406130.399,-64.07388
1425406130.414,-58.896576
1425406130.43,-54.32512
1425406130.446,-49.884727
1425406130.461,-44.441826
1425406130.477,-36.586678
1425406130.492,-25.252998
1425406130.508,-10.312645
1425406130.524,7.001152
1425406130.539,24.193436
1425406130.555,37.986572
1425406130.571,45.315002
1425406130.586,44.262184
1425406130.602,34.780136
1425406130.617,18.755081
1425406130.633,-0.5547638
1425406130.649,-19.522247
1425406130.664,-35.1532
1425406130.68,-45.75363
1425406130.696,-50.972656
1425406130.711,-51.46237
1425406130.727,-48.337082
1425406130.742,-42.786285
1425406130.758,-35.874695
1425406130.774,-28.584702
1425406130.789,-21.721146
1425406130.805,-15.810715
1425406130.821,-10.862183
1425406130.836,-6.3953857
1425406130.852,-1.611908
1425406130.867,4.1504364
1425406130.883,11.11644
1425406130.899,19.002533
1425406130.914,27.230316
1425406130.93,35.352036
1425406130.946,43.303787
1425406130.961,51.415848
1425406130.977,60.08322
1425406130.992,69.37836
1425406131.008,78.87567
1425406131.024,87.724976
1425406131.039,95.019684
1425406131.055,100.15993
1425406131.071,103.12378
1425406131.086,104.42186
1425406131.102,104.93637
1425406131.117,105.65015
1425406131.133,107.48529
1425406131.149,111.0641
1425406131.164,116.47925
1425406131.18,122.95712
1425406131.196,128.7507
1425406131.211,131.29913
1425406131.227,127.8636
1425406131.242,116.49101
1425406131.258,96.892044
1425406131.274,70.787155
1425406131.289,41.50891
1425406131.305,12.987869
1425406131.321,-11.393265
1425406131.336,-29.692886
1425406131.352,-41.648468
1425406131.368,-48.33673
1425406131.383,-51.43596
1425406131.399,-52.59172
1425406131.414,-52.926117
1425406131.43,-52.98506
1425406131.446,-52.855286
1425406131.461,-52.393143
1425406131.477,-51.43907
1425406131.493,-49.96466
1425406131.508,-48.091553
1425406131.524,-46.040695
1425406131.539,-44.07306
1425406131.555,-42.36502
1425406131.571,-40.92006
1425406131.586,-39.569443
1425406131.602,-37.957886
1425406131.618,-35.69713
1425406131.633,-32.460983
1425406131.649,-28.130447
1425406131.664,-22.807816
1425406131.68,-16.791199
1425406131.696,-10.403687
1425406131.711,-3.9241333
1425406131.727,2.4712067
1425406131.743,8.715332
1425406131.758,14.910324
1425406131.774,21.326492
1425406131.789,28.436401
1425406131.805,36.722244
1425406131.821,46.27713
1425406131.836,56.395157
1425406131.852,65.35423
1425406131.868,70.696945
1425406131.883,70.03488
1425406131.899,61.987503
1425406131.914,46.907623
1425406131.93,26.922363
1425406131.946,5.306534
1425406131.961,-14.628693
1425406131.977,-30.463318
1425406131.993,-41.236298
1425406132.008,-47.349167
1425406132.024,-49.99962
1425406132.039,-50.514618
1425406132.055,-49.91815
1425406132.071,-48.708282
1425406132.086,-47.07019
1425406132.102,-45.100983
1425406132.118,-42.977997
1425406132.133,-40.93651
1425406132.149,-39.16368
1425406132.164,-37.61328
1425406132.18,-36.049652
1425406132.196,-34.15161
1425406132.211,-31.794144
1425406132.227,-29.144363
1425406132.243,-26.567001
1425406132.258,-24.35019
1425406132.274,-22.429337
1425406132.289,-20.310074
1425406132.305,-17.258102
1425406132.321,-12.677933
1425406132.336,-6.43898
1425406132.352,1.0363007
1425406132.368,8.960915
1425406132.383,16.546066
1425406132.399,23.30436
1425406132.414,29.274887
1425406132.43,34.91091
1425406132.446,41.013153
1425406132.461,48.342613
1425406132.477,57.310814
1425406132.493,67.52286
1425406132.508,77.54438
1425406132.524,84.98973
1425406132.539,87.14283
1425406132.555,81.87332
1425406132.571,68.589424
1425406132.586,48.65712
1425406132.602,25.085594
1425406132.618,1.561554
1425406132.633,-18.767998
1425406132.649,-34.12243
1425406132.664,-44.28369
1425406132.68,-50.16886
1425406132.696,-53.067307
1425406132.711,-54.082718
1425406132.727,-53.88234
1425406132.743,-52.85463
1425406132.758,-51.286316
1425406132.774,-49.522514
1425406132.789,-47.865494
1425406132.805,-46.462296
1425406132.821,-45.164764
1425406132.836,-43.5905
1425406132.852,-41.338593
1425406132.868,-38.22989
1425406132.883,-34.4429
1425406132.899,-30.518929
1425406132.914,-27.076477
1425406132.93,-24.505348
1425406132.946,-22.719345
1425406132.961,-21.070465
1425406132.977,-18.62606
1425406132.993,-14.562393
1425406133.008,-8.553474
1425406133.024,-0.96084595
1425406133.039,7.329674
1425406133.055,15.271545
1425406133.071,22.128662
1425406133.086,27.734451
1425406133.102,32.573433
1425406133.118,37.563988
1425406133.133,43.70603
1425406133.149,51.72309
1425406133.164,61.698906
1425406133.18,72.81429
1425406133.196,83.29079
1425406133.211,90.6414
1425406133.227,92.28737
1425406133.243,86.35383
1425406133.258,72.47855
1425406133.274,52.103226
1425406133.289,28.183952
1425406133.305,4.321663
1425406133.321,-16.351318
1425406133.336,-31.949097
1425406133.352,-42.10418
1425406133.368,-47.595314
1425406133.383,-49.70043
1425406133.399,-49.639305
1425406133.414,-48.271263
1425406133.43,-46.184906
1425406133.446,-43.787834
1425406133.461,-41.49436
1425406133.477,-39.60312
1425406133.493,-38.235497
1425406133.508,-37.288322
1425406133.524,-36.513138
1425406133.539,-35.633522
1425406133.555,-34.49868
1425406133.571,-33.04561
1425406133.586,-31.2621
1425406133.602,-29.121803
1425406133.618,-26.544601
1425406133.633,-23.383087
1425406133.649,-19.49598
1425406133.664,-14.767555
1425406133.68,-9.128906
1425406133.696,-2.6574326
1425406133.711,4.3554
1425406133.727,11.479904
1425406133.743,18.218262
1425406133.758,24.319618
1425406133.774,29.935196
1425406133.789,35.64411
1425406133.805,42.26847
1425406133.821,50.44213
1425406133.836,60.130875
1425406133.852,70.32688
1425406133.868,79.06039
1425406133.883,83.83573
1425406133.899,82.37489
1425406133.914,73.42773
1425406133.93,57.30957
1425406133.946,36.06334
1425406133.961,12.86306
1425406133.977,-8.838371
1425406133.993,-26.36567
1425406134.008,-38.377758
1425406134.024,-45.03625
1425406134.04,-47.487877
1425406134.055,-47.218994
1425406134.071,-45.460983
1425406134.086,-42.949852
1425406134.102,-40.009754
1425406134.118,-36.80987
1425406134.133,-33.49802
1425406134.149,-30.259453
1425406134.164,-27.285446
1425406134.18,-24.70074
1425406134.196,-22.53796
1425406134.211,-20.848072
1425406134.227,-19.660332
1425406134.243,-19.042606
1425406134.258,-18.942707
1425406134.274,-19.092392
1425406134.29,-18.970901
1425406134.305,-17.861805
1425406134.321,-15.04237
1425406134.336,-10.088814
1425406134.352,-3.0688705
1425406134.368,5.3828125
1425406134.383,14.274223
1425406134.399,22.607723
1425406134.415,29.748562
1425406134.43,35.65338
1425406134.446,40.88652
1425406134.461,46.4228
1425406134.477,53.309498
1425406134.493,62.1664
1425406134.508,72.825455
1425406134.524,83.94
1425406134.54,93.03464
1425406134.555,97.01816
1425406134.571,93.168335
1425406134.586,80.21152
1425406134.602,59.082077
1425406134.618,32.822304
1425406134.633,5.672968
1425406134.649,-18.335331
1425406134.665,-36.58384
1425406134.68,-48.447548
1425406134.696,-54.886364
1425406134.711,-57.655537
1425406134.727,-58.400055
1425406134.743,-58.222603
1425406134.758,-57.701485
1425406134.774,-57.135555
1425406134.79,-56.712643
1425406134.805,-56.493874
1425406134.821,-56.27957
1425406134.836,-55.59229
1425406134.852,-53.865585
1425406134.868,-50.789116
1425406134.883,-46.540535
1425406134.899,-41.810997
1425406134.915,-37.51157
1425406134.93,-34.301258
1425406134.946,-32.253876
1425406134.961,-30.767105
1425406134.977,-28.783886
1425406134.993,-25.274569
1425406135.008,-19.654179
1425406135.024,-12.004058
1425406135.04,-2.9852633
1425406135.055,6.4291515
1425406135.071,15.392736
1425406135.086,23.42902
1425406135.102,30.6454
1425406135.118,37.645157
1425406135.133,45.36492
1425406135.149,54.731525
1425406135.165,66.23911
1425406135.18,79.500786
1425406135.196,92.93449
1425406135.211,103.861534
1425406135.227,109.065674
1425406135.243,105.81465
1425406135.258,92.922005
1425406135.274,71.3891
1425406135.29,44.30626
1425406135.305,15.898002
1425406135.321,-9.773
1425406135.336,-30.010601
1425406135.352,-43.975624
1425406135.368,-52.463806
1425406135.383,-57.0898
1425406135.399,-59.45121
1425406135.415,-60.574757
1425406135.43,-60.87836
1425406135.446,-60.390053
1425406135.461,-59.162624
1425406135.477,-57.4375
1425406135.493,-55.572716
1425406135.508,-53.894745
1425406135.524,-52.465088
1425406135.54,-51.070385
1425406135.555,-49.380768
1425406135.571,-47.17396
1425406135.586,-44.526337
1425406135.602,-41.76259
1425406135.618,-39.267933
1425406135.633,-37.13701
1425406135.649,-35.017254
1425406135.665,-32.13598
1425406135.68,-27.642471
1425406135.696,-21.009466
1425406135.711,-12.374029
1425406135.727,-2.5471401
1425406135.743,7.2594547
1425406135.758,15.923698
1425406135.774,22.8917
1425406135.79,28.430578
1425406135.805,33.543697
1425406135.821,39.681923
1425406135.836,48.139038
1425406135.852,59.512215
1425406135.868,73.206894
1425406135.883,87.3242
1425406135.899,98.93109
1425406135.915,104.84155
1425406135.93,102.54557
1425406135.946,91.13129
1425406135.961,71.6831
1425406135.977,47.019936
1425406135.993,20.80705
1425406136.008,-3.5637245
1425406136.024,-23.912287
1425406136.04,-39.615154
1425406136.055,-51.31008
1425406136.071,-60.16452
1425406136.086,-67.18117
1425406136.102,-72.75814
1425406136.118,-76.811325
1425406136.133,-79.087036
1425406136.149,-79.51735
1425406136.165,-78.300674
1425406136.18,-75.81743
1425406136.196,-72.35107
1425406136.211,-68.00379
1425406136.227,-62.812096
1425406136.243,-56.970882
1425406136.258,-50.962875
1425406136.274,-45.471684
1425406136.29,-41.024063
1425406136.305,-37.644043
1425406136.321,-34.68938
1425406136.336,-31.01003
1425406136.352,-25.351927
1425406136.368,-16.880083
1425406136.383,-5.4074345
1425406136.399,8.501577
1425406136.415,23.791765
1425406136.43,39.25369
1425406136.446,53.912724
1425406136.461,67.29268
1425406136.477,79.576744
1425406136.493,91.523895
1425406136.508,104.1176
1425406136.524,118.018196
1425406136.54,132.86351
1425406136.555,146.90883
1425406136.571,157.17389
1425406136.586,160.21619
1425406136.602,153.344
1425406136.618,135.73254
1425406136.633,108.99364
1425406136.649,76.784805
1425406136.665,43.73384
1425406136.68,13.961165
1425406136.696,-9.98444
1425406136.712,-27.518007
1425406136.727,-39.562244
1425406136.743,-47.699104
1425406136.758,-53.336906
1425406136.774,-57.369358
1425406136.79,-60.250793
1425406136.805,-62.275093
1425406136.821,-63.85325
1425406136.836,-65.49217
1425406136.852,-67.57893
1425406136.868,-70.235916
1425406136.883,-73.236176
1425406136.899,-76.199265
1425406136.915,-78.80154
1425406136.93,-81.03629
1425406136.946,-83.11803
1425406136.962,-85.35975
1425406136.977,-87.90795
1425406136.993,-90.61516
1425406137.008,-93.09284
1425406137.024,-94.90573
1425406137.04,-95.84793
1425406137.055,-96.03685
1425406137.071,-95.812225
1425406137.087,-95.44498
1425406137.102,-94.83819
1425406137.118,-93.34013
1425406137.133,-89.828674
1425406137.149,-82.94729
1425406137.165,-71.497215
1425406137.18,-54.888382
1425406137.196,-33.41452
1425406137.212,-8.5493145
1425406137.227,17.16747
1425406137.243,40.44371
1425406137.258,57.981804
1425406137.274,67.44091
1425406137.29,68.21959
1425406137.305,61.79596
1425406137.321,51.31729
1425406137.337,40.54455
1425406137.352,32.570534
1425406137.368,28.89965
1425406137.383,29.283283
1425406137.399,32.20172
1425406137.415,35.832973
1425406137.43,38.839386
1425406137.446,40.788605
1425406137.462,42.03199
1425406137.477,43.32975
1425406137.493,45.369865
1425406137.508,48.565376
1425406137.524,52.893684
1425406137.54,58.01052
1425406137.555,63.29197
1425406137.571,67.999954
1425406137.587,71.320694
1425406137.602,72.58414
1425406137.618,71.45368
1425406137.633,68.06308
1425406137.649,63.07012
1425406137.665,57.53708
1425406137.68,52.63138
1425406137.696,49.367264
1425406137.712,48.257423
1425406137.727,49.199226
1425406137.743,51.536957
1425406137.758,54.39102
1425406137.774,57.004906
1425406137.79,59.181206
1425406137.805,61.4131
1425406137.821,64.75052
1425406137.837,70.33171
1425406137.852,78.75867
1425406137.868,89.49917
1425406137.883,100.657776
1425406137.899,109.16995
1425406137.915,111.58486
1425406137.93,105.16836
1425406137.946,88.93508
1425406137.962,64.157875
1425406137.977,34.121887
1425406137.993,3.133381
1425406138.008,-24.726284
1425406138.024,-46.729404
1425406138.04,-61.925045
1425406138.055,-70.97329
1425406138.071,-75.31847
1425406138.087,-76.57344
1425406138.102,-75.9763
1425406138.118,-74.35015
1425406138.133,-72.16733
1425406138.149,-69.72144
1425406138.165,-67.184875
1425406138.18,-64.61921
1425406138.196,-61.99568
1425406138.212,-59.26253
1425406138.227,-56.417747
1425406138.243,-53.531322
1425406138.258,-50.65607
1425406138.274,-47.809357
1425406138.29,-44.905952
1425406138.305,-41.840992
1425406138.321,-38.500412
1425406138.337,-34.84009
1425406138.352,-30.816721
1425406138.368,-26.387037
1425406138.383,-21.456797
1425406138.399,-15.956377
1425406138.415,-9.843073
1425406138.43,-3.1654034
1425406138.446,4.0783634
1425406138.462,11.992395
1425406138.477,20.793026
1425406138.493,30.585777
1425406138.508,40.945797
1425406138.524,50.52522
1425406138.54,56.900665
1425406138.555,56.967354
1425406138.571,47.923
1425406138.587,28.44482
1425406138.602,-0.4494381
1425406138.618,-35.34895
1425406138.633,-71.25466
1425406138.649,-103.16005
1425406138.665,-127.51566
1425406138.68,-143.07245
1425406138.696,-150.74783
1425406138.712,-152.73537
1425406138.727,-151.38875
1425406138.743,-148.49864
1425406138.758,-145.07346
1425406138.774,-141.61842
1425406138.79,-138.36916
1425406138.805,-135.31134
1425406138.821,-131.96356
1425406138.837,-127.2893
1425406138.852,-119.886215
1425406138.868,-108.55835
1425406138.883,-92.95387
1425406138.899,-73.85397
1425406138.915,-52.933098
1425406138.93,-32.101402
1425406138.946,-12.724031
1425406138.962,4.783684
1425406138.977,20.935741
1425406138.993,36.65502
1425406139.008,52.78193
1425406139.024,69.615814
1425406139.04,86.89819
1425406139.055,103.94679
1425406139.071,120.02545
1425406139.087,134.5882
1425406139.102,147.52087
1425406139.118,159.20642
1425406139.133,170.51543
1425406139.149,182.49416
1425406139.165,195.77115
1425406139.18,209.90706
1425406139.196,222.91635
1425406139.212,231.42401
1425406139.227,231.57614
1425406139.243,220.46817
1425406139.258,197.49113
1425406139.274,164.8469
1425406139.29,127.003944
1425406139.305,89.211754
1425406139.321,55.825066
1425406139.337,29.120354
1425406139.352,9.185051
1425406139.368,-5.374565
1425406139.383,-16.27581
1425406139.399,-24.788597
1425406139.415,-31.465477
1425406139.43,-36.440445
1425406139.446,-39.81317
1425406139.462,-41.947594
1425406139.477,-43.37106
1425406139.493,-44.56314
1425406139.508,-45.732983
1425406139.524,-46.78085
1425406139.54,-47.427814
1425406139.555,-47.456875
1425406139.571,-46.75424
1425406139.587,-45.370182
1425406139.602,-43.353252
1425406139.618,-40.682846
1425406139.634,-37.16377
1425406139.649,-32.5695
1425406139.665,-26.769028
1425406139.68,-19.864147
1425406139.696,-12.203237
1425406139.712,-4.262101
1425406139.727,3.6049793
1425406139.743,11.370785
1425406139.759,19.50171
1425406139.774,28.826797
1425406139.79,40.225994
1425406139.805,54.06395
1425406139.821,69.72288
1425406139.837,85.23649
1425406139.852,97.48677
1425406139.868,102.914154
1425406139.884,98.69356
1425406139.899,83.787575
1425406139.915,59.62614
1425406139.93,29.825977
1425406139.946,-0.82341385
1425406139.962,-27.851177
1425406139.977,-48.369408
1425406139.993,-61.64424
1425406140.009,-68.74578
1425406140.024,-71.712456
1425406140.04,-72.537285
1425406140.055,-72.57756
1425406140.071,-72.46921
1425406140.087,-72.34636
1425406140.102,-72.14247
1425406140.118,-71.74871
1425406140.134,-70.93954
1425406140.149,-69.40812
1425406140.165,-66.858734
1425406140.18,-63.20105
1425406140.196,-58.670456
1425406140.212,-53.880257
1425406140.227,-49.515938
1425406140.243,-46.044106
1425406140.259,-43.443535
1425406140.274,-41.16207
1425406140.29,-38.304688
1425406140.305,-34.00615
1425406140.321,-27.69828
1425406140.337,-19.384247
1425406140.352,-9.624359
1425406140.368,0.63494873
1425406140.384,10.417923
1425406140.399,19.096893
1425406140.415,26.696548
1425406140.43,33.968506
1425406140.446,42.129547
1425406140.462,52.35637
1425406140.477,65.07428
1425406140.493,79.359024
1425406140.509,92.83981
1425406140.524,102.07207
1425406140.54,103.54053
1425406140.555,94.91043
1425406140.571,76.02649
1425406140.587,49.205627
1425406140.602,18.628235
1425406140.618,-10.931534
1425406140.634,-35.575516
1425406140.649,-53.228943
1425406140.665,-63.85034
1425406140.68,-68.83545
1425406140.696,-70.02974
1425406140.712,-69.023865
1425406140.727,-66.79996
1425406140.743,-63.874634
1425406140.759,-60.59276
1425406140.774,-57.30481
1425406140.79,-54.333603
1425406140.805,-51.82614
1425406140.821,-49.65071
1425406140.837,-47.490387
1425406140.852,-45.034363
1425406140.868,-42.240616
1425406140.884,-39.317276
1425406140.899,-36.594086
1425406140.915,-34.19577
1425406140.93,-31.886063
1425406140.946,-29.056473
1425406140.962,-25.015701
1425406140.977,-19.293045
1425406140.993,-11.942108
1425406141.009,-3.5158691
1425406141.024,5.155258
1425406141.04,13.349487
1425406141.055,20.731903
1425406141.071,27.59314
1425406141.087,34.674255
1425406141.102,42.937683
1425406141.118,53.134735
1425406141.134,65.45384
1425406141.149,79.104645
1425406141.165,92.16403
1425406141.18,101.72244
1425406141.196,104.57332
1425406141.212,98.22211
1425406141.227,81.92218
1425406141.243,57.218246
1425406141.259,27.674057
1425406141.274,-2.1711578
1425406141.29,-28.19635
1425406141.305,-47.845062
1425406141.321,-60.527924
1425406141.337,-67.27623
1425406141.352,-69.857544
1425406141.368,-69.94708
1425406141.384,-68.68346
1425406141.399,-66.66
1425406141.415,-64.16733
1425406141.43,-61.446014
1425406141.446,-58.6689
1425406141.462,-55.964264
1425406141.477,-53.31053
1425406141.493,-50.60727
1425406141.509,-47.78119
1425406141.524,-44.898056
1425406141.54,-42.15851
1425406141.555,-39.79869
1425406141.571,-37.898727
1425406141.587,-36.236588
1425406141.602,-34.27922
1425406141.618,-31.314484
1425406141.634,-26.663574
1425406141.649,-19.974487
1425406141.665,-11.381668
1425406141.68,-1.5115814
1425406141.696,8.703491
1425406141.712,18.321991
1425406141.727,26.759506
1425406141.743,34.047775
1425406141.759,40.84938
1425406141.774,48.26761
1425406141.79,57.430176
1425406141.805,68.89905
1425406141.821,82.183395
1425406141.837,95.39743
1425406141.852,105.47339
1425406141.868,108.923874
1425406141.884,103.00079
1425406141.899,86.829834
1425406141.915,62.015564
1425406141.93,32.276886
1425406141.946,2.2767792
1425406141.962,-23.827988
1425406141.977,-43.576584
1425406141.993,-56.517685
1425406142.009,-63.7101
1425406142.024,-66.81709
1425406142.04,-67.293594
1425406142.055,-66.094894
1425406142.071,-63.789536
1425406142.087,-60.903305
1425406142.102,-58.024338
1425406142.118,-55.70085
1425406142.134,-54.17462
1425406142.149,-53.187836
1425406142.165,-52.09662
1425406142.18,-50.196533
1425406142.196,-47.03459
1425406142.212,-42.709595
1425406142.227,-37.820663
1425406142.243,-33.145737
1425406142.259,-29.25412
1425406142.274,-26.172546
1425406142.29,-23.306229
1425406142.306,-19.691742
1425406142.321,-14.484573
1425406142.337,-7.361084
1425406142.352,1.2796173
1425406142.368,10.512802
1425406142.384,19.34459
1425406142.399,27.151428
1425406142.415,33.9534
1425406142.431,40.397385
1425406142.446,47.506256
1425406142.462,56.27318
1425406142.477,67.25215
1425406142.493,80.17874
1425406142.509,93.660645
1425406142.524,105.22069
1425406142.54,111.746796
1425406142.556,110.364655
1425406142.571,99.56867
1425406142.587,79.90492
1425406142.602,54.05358
1425406142.618,26.036041
1425406142.634,-0.10536194
1425406142.649,-21.432037
1425406142.665,-36.697098
1425406142.681,-46.223213
1425406142.696,-51.213005
1425406142.712,-53.065468
1425406142.727,-52.948883
1425406142.743,-51.72483
1425406142.759,-50.007446
1425406142.774,-48.300385
1425406142.79,-46.913254
1425406142.806,-45.886383
1425406142.821,-44.94552
1425406142.837,-43.64334
1425406142.852,-41.588615
1425406142.868,-38.69021
1425406142.884,-35.27507
1425406142.899,-31.980576
1425406142.915,-29.438423
1425406142.931,-27.993713
1425406142.946,-27.39769
1425406142.962,-26.857834
1425406142.977,-25.299278
1425406142.993,-21.8041
1425406143.009,-16.039925
1425406143.024,-8.3946
1425406143.04,0.22901154
1425406143.056,8.779083
1425406143.071,16.53543
1425406143.087,23.365837
1425406143.102,29.740784
1425406143.118,36.51158
1425406143.134,44.61653
1425406143.149,54.653984
1425406143.165,66.55228
1425406143.181,79.26241
1425406143.196,90.67364
1425406143.212,97.90696
1425406143.227,98.06153
1425406143.243,89.19704
1425406143.259,71.25312
1425406143.274,46.361145
1425406143.29,18.360054
1425406143.306,-8.408333
1425406143.321,-30.397797
1425406143.337,-45.83535
1425406143.352,-54.789017
1425406143.368,-58.619057
1425406143.384,-59.024952
1425406143.399,-57.40952
1425406143.415,-54.61169
1425406143.431,-51.129948
1425406143.446,-47.457024
1425406143.462,-44.193523
1425406143.477,-41.871353
1425406143.493,-40.662544
1425406143.509,-40.182186
1425406143.524,-39.669193
1425406143.54,-38.339348
1425406143.556,-35.87875
1425406143.571,-32.59137
1425406143.587,-29.247639
1425406143.602,-26.56686
1425406143.618,-24.754757
1425406143.634,-23.293652
1425406143.649,-21.144451
1425406143.665,-17.255047
1425406143.681,-11.107464
1425406143.696,-2.974228
1425406143.712,6.203953
1425406143.727,15.258171
1425406143.743,23.285706
1425406143.759,30.024296
1425406143.774,35.869255
1425406143.79,41.690186
1425406143.806,48.458115
1425406143.821,56.93715
1425406143.837,67.314186
1425406143.852,78.99321
1425406143.868,90.397644
1425406143.884,99.16374
1425406143.899,102.53839
1425406143.915,98.20889
1425406143.931,85.15736
1425406143.946,64.30325
1425406143.962,38.420414
1425406143.977,11.431787
1425406143.993,-12.798738
1425406144.009,-31.595024
1425406144.024,-44.051464
1425406144.04,-50.85459
1425406144.056,-53.56249
1425406144.071,-53.75036
1425406144.087,-52.52286
1425406144.102,-50.45857
1425406144.118,-47.904053
1425406144.134,-45.22342
1425406144.149,-42.89945
1425406144.165,-41.283684
1425406144.181,-40.415268
1425406144.196,-39.90038
1425406144.212,-39.13062
1425406144.227,-37.596397
1425406144.243,-35.19744
1425406144.259,-32.249012
1425406144.274,-29.308086
1425406144.29,-26.768585
1425406144.306,-24.645054
1425406144.321,-22.438015
1425406144.337,-19.389267
1425406144.352,-14.807795
1425406144.368,-8.451609
1425406144.384,-0.6779728
1425406144.399,7.654516
1425406144.415,15.5575485
1425406144.431,22.299107
1425406144.446,27.81964
1425406144.462,32.726807
1425406144.477,38.100624
1425406144.493,45.027927
1425406144.509,54.128963
1425406144.524,65.134186
1425406144.54,76.71838
1425406144.556,86.62492
1425406144.571,92.09671
1425406144.587,90.6432
1425406144.602,80.89019
1425406144.618,63.23841
1425406144.634,39.980885
1425406144.649,14.714157
1425406144.665,-8.717049
1425406144.681,-27.432758
1425406144.696,-40.166588
1425406144.712,-47.317375
1425406144.727,-50.296555
1425406144.743,-50.72547
1425406144.759,-49.818855
1425406144.774,-48.251057
1425406144.79,-46.332542
1425406144.806,-44.289726
1425406144.821,-42.3344
1425406144.837,-40.63082
1425406144.852,-39.181633
1425406144.868,-37.783943
1425406144.884,-36.16346
1425406144.899,-34.137627
1425406144.915,-31.749664
1425406144.931,-29.264122
1425406144.946,-27.02317
1425406144.962,-25.221878
1425406144.978,-23.760094
1425406144.993,-22.216064
1425406145.009,-19.932182
1425406145.024,-16.328857
1425406145.04,-11.125542
1425406145.056,-4.4935303
1425406145.071,2.9772415
1425406145.087,10.472458
1425406145.102,17.296646
1425406145.118,23.129349
1425406145.134,28.155228
1425406145.149,33.03447
1425406145.165,38.717255
1425406145.181,46.037056
1425406145.196,55.322014
1425406145.212,65.91837
1425406145.228,76.02622
1425406145.243,82.96594
1425406145.259,83.90044
1425406145.274,76.84275
1425406145.29,61.603455
1425406145.306,40.006523
1425406145.321,15.477142
1425406145.337,-8.044968
1425406145.353,-27.350616
1425406145.368,-40.77263
1425406145.384,-48.27661
1425406145.399,-51.01602
1425406145.415,-50.548904
1425406145.431,-48.247154
1425406145.446,-45.01062
1425406145.462,-41.37307
1425406145.478,-37.64708
1425406145.493,-34.10321
1425406145.509,-30.957542
1425406145.524,-28.299034
1425406145.54,-26.091774
1425406145.556,-24.218063
1425406145.571,-22.505264
1425406145.587,-20.88388
1425406145.603,-19.354233
1425406145.618,-17.96048
1425406145.634,-16.63913
1425406145.649,-15.17804
1425406145.665,-13.189346
1425406145.681,-10.28595
1425406145.696,-6.214279
1425406145.712,-1.0359955
1425406145.728,4.8835754
1425406145.743,10.992844
1425406145.759,16.834717
1425406145.774,22.216095
1425406145.79,27.38507
1425406145.806,32.926086
1425406145.821,39.61914
1425406145.837,48.05449
1425406145.853,58.21695
1425406145.868,69.134445
1425406145.884,78.81848
1425406145.899,84.60065
1425406145.915,83.94481
1425406145.931,75.3857
1425406145.946,59.307205
1425406145.962,37.957993
1425406145.978,14.85817
1425406145.993,-6.401428
1425406146.009,-23.227936
1425406146.024,-34.6326
1425406146.04,-41.051453
1425406146.056,-43.74646
1425406146.071,-44.044754
1425406146.087,-42.87079
1425406146.103,-40.706802
1425406146.118,-37.78662
1425406146.134,-34.328262
1425406146.149,-30.631073
1425406146.165,-27.02359
1425406146.181,-23.758759
1425406146.196,-20.927597
1425406146.212,-18.52681
1425406146.228,-16.514404
1425406146.243,-14.904083
1425406146.259,-13.72316
1425406146.274,-12.926086
1425406146.29,-12.258987
1425406146.306,-11.256073
1425406146.321,-9.268631
1425406146.337,-5.7464447
1425406146.353,-0.48880005
1425406146.368,6.1862335
1425406146.384,13.528107
1425406146.399,20.612732
1425406146.415,26.762787
1425406146.431,31.86589
1425406146.446,36.42569
1425406146.462,41.383255
1425406146.478,47.76352
1425406146.493,56.174194
1425406146.509,66.47241
1425406146.524,77.44905
1425406146.54,86.89348
1425406146.556,92.00935
1425406146.571,90.22635
1425406146.587,80.11299
1425406146.603,62.113434
1425406146.618,38.592743
1425406146.634,13.223022
1425406146.649,-10.159409
1425406146.665,-28.66597
1425406146.681,-41.06627
1425406146.696,-47.688797
1425406146.712,-49.8992
1425406146.728,-49.355667
1425406146.743,-47.484375
1425406146.759,-45.254562
1425406146.774,-43.25
1425406146.79,-41.727875
1425406146.806,-40.674545
1425406146.821,-39.775116
1425406146.837,-38.52881
1425406146.853,-36.45192
1425406146.868,-33.33806
1425406146.884,-29.372726
1425406146.899,-25.12468
1425406146.915,-21.2984
1425406146.931,-18.37761
1425406146.946,-16.362534
1425406146.962,-14.725479
1425406146.978,-12.600143
1425406146.993,-9.135437
1425406147.009,-3.8687134
1425406147.024,3.029602
1425406147.04,10.895813
1425406147.056,18.845978
1425406147.071,26.245682
1425406147.087,32.85219
1425406147.103,38.97966
1425406147.118,45.285263
1425406147.134,52.546707
1425406147.149,61.360886
1425406147.165,71.811005
1425406147.181,83.200714
1425406147.196,93.86931
1425406147.212,101.37407
1425406147.228,103.00523
1425406147.243,96.71927
1425406147.259,82.06285
1425406147.274,60.595016
1425406147.29,35.56804
1425406147.306,10.916504
1425406147.321,-10.056351
1425406147.337,-25.55571
1425406147.353,-35.544403
1425406147.368,-41.221375
1425406147.384,-44.12088
1425406147.399,-45.43921
1425406147.415,-45.809204
1425406147.431,-45.501266
1425406147.446,-44.757797
1425406147.462,-43.992233
1425406147.478,-43.695038
1425406147.493,-44.142868
1425406147.509,-45.202026
1425406147.524,-46.29216
1425406147.54,-46.66603
1425406147.556,-45.802948
1425406147.571,-43.681763
1425406147.587,-40.812515
1425406147.603,-37.939957
1425406147.618,-35.60768
1425406147.634,-33.762375
1425406147.65,-31.762314
1425406147.665,-28.605255
1425406147.681,-23.493942
1425406147.696,-16.212143
1425406147.712,-7.2912445
1425406147.728,2.212326
1425406147.743,11.137878
1425406147.759,18.711563
1425406147.774,24.843643
1425406147.79,30.15155
1425406147.806,35.71544
1425406147.821,42.70674
1425406147.837,51.968506
1425406147.853,63.568268
1425406147.868,76.52455
1425406147.884,88.79671
1425406147.9,97.58971
1425406147.915,100.101715
1425406147.931,94.36836
1425406147.946,80.099655
1425406147.962,58.872223
1425406147.978,33.82331
1425406147.993,8.7035675
1425406148.009,-13.117538
1425406148.025,-29.581108
1425406148.04,-40.170303
1425406148.056,-45.699814
1425406148.071,-47.653847
1425406148.087,-47.534286
1425406148.103,-46.442467
1425406148.118,-44.962463
1425406148.134,-43.330444
1425406148.15,-41.66137
1425406148.165,-40.04287
1425406148.181,-38.558846
1425406148.196,-37.14485
1425406148.212,-35.61773
1425406148.228,-33.735985
1425406148.243,-31.383896
1425406148.259,-28.712013
1425406148.275,-26.09784
1425406148.29,-23.943092
1425406148.306,-22.407433
1425406148.321,-21.197083
1425406148.337,-19.581627
1425406148.353,-16.683815
1425406148.368,-11.838547
1425406148.384,-4.896042
1425406148.4,3.6539993
1425406148.415,12.883163
1425406148.431,21.737251
1425406148.446,29.503616
1425406148.462,36.050125
1425406148.478,41.921974
1425406148.493,48.100258
1425406148.509,55.631454
1425406148.525,65.05522
1425406148.54,75.97833
1425406148.556,86.84981
1425406148.571,95.23801
1425406148.587,98.413635
1425406148.603,94.25341
1425406148.618,82.05734
1425406148.634,62.946033
1425406148.65,39.64561
1425406148.665,15.687378
1425406148.681,-5.6524315
1425406148.696,-22.187641
1425406148.712,-33.23151
1425406148.728,-39.372402
1425406148.743,-41.879383
1425406148.759,-42.084656
1425406148.775,-41.02323
1425406148.79,-39.306217
1425406148.806,-37.293243
1425406148.821,-35.21257
1425406148.837,-33.22545
1425406148.853,-31.42344
1425406148.868,-29.821463
1425406148.884,-28.324461
1425406148.9,-26.845432
1425406148.915,-25.337067
1425406148.931,-23.840523
1425406148.946,-22.370049
1425406148.962,-20.85567
1425406148.978,-19.0974
1425406148.993,-16.824335
1425406149.009,-13.813713
1425406149.025,-10.001673
1425406149.04,-5.545182
1425406149.056,-0.78878975
1425406149.071,3.8743153
1425406149.087,8.137907
1425406149.103,11.929327
1425406149.118,15.453249
1425406149.134,19.266596
1425406149.15,24.133045
1425406149.165,30.861359
1425406149.181,39.84808
1425406149.196,50.63951
1425406149.212,61.61868
1425406149.228,70.1271
1425406149.243,73.1169
1425406149.259,68.18823
1425406149.275,54.5568
1425406149.29,33.543785
1425406149.306,8.274811
1425406149.321,-17.288868
1425406149.337,-39.572296
1425406149.353,-56.32008
1425406149.368,-66.9762
1425406149.384,-72.39267
1425406149.4,-74.18139
1425406149.415,-73.98993
1425406149.431,-73.105606
1425406149.446,-72.23805
1425406149.462,-71.664276
1425406149.478,-71.35262
1425406149.493,-71.16631
1425406149.509,-70.92673
1425406149.525,-70.48971
1425406149.54,-69.71137
1425406149.556,-68.49951
1425406149.571,-66.81614
1425406149.587,-64.692986
1425406149.603,-62.216087
1425406149.618,-59.52784
1425406149.634,-56.698547
1425406149.65,-53.719437
1425406149.665,-50.469162
1425406149.681,-46.79718
1425406149.696,-42.584602
1425406149.712,-37.895866
1425406149.728,-32.952908
1425406149.743,-28.085964
1425406149.759,-23.528824
1425406149.775,-19.262363
1425406149.79,-14.859844
1425406149.806,-9.545826
1425406149.821,-2.3848534
1425406149.837,7.2581253
1425406149.853,19.23413
1425406149.868,32.239285
1425406149.884,43.882515
1425406149.9,51.226677
1425406149.915,51.766914
1425406149.931,44.3112
1425406149.946,29.50962
1425406149.962,9.673693
1425406149.978,-11.961189
1425406149.993,-32.320065
1425406150.009,-49.257538
1425406150.025,-61.868343
1425406150.04,-70.2505
1425406150.056,-75.028366
1425406150.071,-76.93907
1425406150.087,-76.70715
1425406150.103,-75.08206
1425406150.118,-72.94175
1425406150.134,-71.17175
1425406150.15,-70.44272
1425406150.165,-70.89985
1425406150.181,-72.159294
1425406150.196,-73.43555
1425406150.212,-73.9998
1425406150.228,-73.47784
1425406150.243,-72.070465
1425406150.259,-70.40023
1425406150.275,-69.20209
1425406150.29,-68.88685
1425406150.306,-69.340706
1425406150.321,-69.82286
1425406150.337,-69.242004
1425406150.353,-66.50108
1425406150.368,-60.88643
1425406150.384,-52.24214
1425406150.4,-41.017548
1425406150.415,-28.028137
1425406150.431,-14.187912
1425406150.446,-0.22685242
1425406150.462,13.433426
1425406150.478,26.739365
1425406150.493,39.92865
1425406150.509,53.36891
1425406150.525,67.24016
1425406150.54,81.13243
1425406150.556,93.70528
1425406150.572,102.67844
1425406150.587,105.339966
1425406150.603,99.520935
1425406150.618,84.644226
1425406150.634,62.285828
1425406150.65,35.843384
1425406150.665,9.556
1425406150.681,-12.846069
1425406150.697,-29.044281
1425406150.712,-38.37915
1425406150.728,-41.397614
1425406150.743,-39.204773
1425406150.759,-32.986176
1425406150.775,-23.927582
1425406150.79,-13.253662
1425406150.806,-2.2726746
1425406150.822,7.9429626
1425406150.837,16.785553
1425406150.853,24.329376
1425406150.868,31.092072
1425406150.884,37.676697
1425406150.9,44.279144
1425406150.915,50.569275
1425406150.931,55.804718
1425406150.947,59.27292
1425406150.962,60.75122
1425406150.978,60.71945
1425406150.993,60.32007
1425406151.009,61.006836
1425406151.025,63.97409
1425406151.04,69.72153
1425406151.056,77.89188
1425406151.072,87.50604
1425406151.087,97.47992
1425406151.103,107.15851
1425406151.118,116.59546
1425406151.134,126.470764
1425406151.15,137.73065
1425406151.165,151.18488
1425406151.181,167.12024
1425406151.197,185.06055
1425406151.212,203.5028
1425406151.228,219.80847
1425406151.243,230.42877
1425406151.259,231.6402
1425406151.275,220.76141
1425406151.29,197.35742
1425406151.306,163.84003
1425406151.322,125.00247
1425406151.337,86.604034
1425406151.353,53.551636
1425406151.368,28.513489
1425406151.384,11.62561
1425406151.4,1.1211853
1425406151.415,-5.4188843
1425406151.431,-10.032898
1425406151.447,-13.94162
1425406151.462,-17.573639
1425406151.478,-21.027893
1425406151.493,-24.394196
1425406151.509,-27.824554
1425406151.525,-31.436249
1425406151.54,-35.210938
1425406151.556,-38.90695
1425406151.572,-42.20685
1425406151.587,-44.818634
1425406151.603,-46.602936
1425406151.618,-47.52481
1425406151.634,-47.546326
1425406151.65,-46.52115
1425406151.665,-44.18274
1425406151.681,-40.2482
1425406151.697,-34.615112
1425406151.712,-27.50647
1425406151.728,-19.470184
1425406151.743,-11.137482
1425406151.759,-2.996643
1425406151.775,4.839508
1425406151.79,12.6875305
1425406151.806,21.215942
1425406151.822,31.157135
1425406151.837,43.000458
1425406151.853,56.55066
1425406151.868,70.55356
1425406151.884,82.588776
1425406151.9,89.46295
1425406151.915,88.11124
1425406151.931,76.78537
1425406151.947,55.968323
1425406151.962,28.556183
1425406151.978,-0.93891907
1425406151.993,-27.82312
1425406152.009,-48.710358
1425406152.025,-62.321106
1425406152.04,-69.451096
1425406152.056,-72.078766
1425406152.072,-72.36929
1425406152.087,-71.83977
1425406152.103,-71.13373
1425406152.118,-70.22975
1425406152.134,-68.82445
1425406152.15,-66.648315
1425406152.165,-63.64717
1425406152.181,-60.012314
1425406152.197,-56.094345
1425406152.212,-52.303925
1425406152.228,-48.99118
1425406152.243,-46.33264
1425406152.259,-44.278122
1425406152.275,-42.509186
1425406152.29,-40.54329
1425406152.306,-37.777412
1425406152.322,-33.705055
1425406152.337,-28.006958
1425406152.353,-20.727196
1425406152.368,-12.271301
1425406152.384,-3.2821808
1425406152.4,5.56929
1425406152.415,13.877937
1425406152.431,21.643738
1425406152.447,29.372246
1425406152.462,37.902603
1425406152.478,48.112534
1425406152.493,60.45497
1425406152.509,74.43648
1425406152.525,88.2794
1425406152.54,99.01375
1425406152.556,103.16814
1425406152.572,97.93771
1425406152.587,82.3842
1425406152.603,58.04059
1425406152.618,28.664986
1425406152.634,-1.0248604
1425406152.65,-26.783997
1425406152.665,-46.101982
1425406152.681,-58.571293
1425406152.697,-65.37603
1425406152.712,-68.39932
1425406152.728,-69.335045
1425406152.743,-69.29456
1425406152.759,-68.831375
1425406152.775,-68.20685
1425406152.79,-67.57466
1425406152.806,-67.019806
1425406152.822,-66.510185
1425406152.837,-65.819435
1425406152.853,-64.62338
1425406152.868,-62.63455
1425406152.884,-59.79352
1425406152.9,-56.37353
1425406152.915,-52.88919
1425406152.931,-49.865784
1425406152.947,-47.51832
1425406152.962,-45.513107
1425406152.978,-43.032898
1425406152.993,-39.092194
1425406153.009,-33.014023
1425406153.025,-24.822601
1425406153.04,-15.261139
1425406153.056,-5.4882507
1425406153.072,3.4638367
1425406153.087,11.19545
1425406153.103,18.049835
1425406153.118,25.031975
1425406153.134,33.38977
1425406153.15,44.146187
1425406153.165,57.602486
1425406153.181,72.88066
1425406153.197,87.75575
1425406153.212,98.906624
1425406153.228,102.75649
1425406153.244,96.6463
1425406153.259,80.01753
1425406153.275,54.86522
1425406153.29,25.27565
1425406153.306,-3.8801575
1425406153.322,-28.548767
1425406153.337,-46.540756
1425406153.353,-57.830276
1425406153.369,-63.84456
1425406153.384,-66.50006
1425406153.4,-67.327515
1425406153.415,-67.15857
1425406153.431,-66.31154
1425406153.447,-64.95769
1425406153.462,-63.345078
1425406153.478,-61.805496
1425406153.494,-60.546646
1425406153.509,-59.486862
1425406153.525,-58.205704
1425406153.54,-56.196762
1425406153.556,-53.18802
1425406153.572,-49.392105
1425406153.587,-45.436005
1425406153.603,-42.08812
1425406153.619,-39.73575
1425406153.634,-38.07872
1425406153.65,-36.166504
1425406153.665,-32.82251
1425406153.681,-27.21225
1425406153.697,-19.317307
1425406153.712,-9.892914
1425406153.728,-0.15742493
1425406153.744,8.827515
1425406153.759,16.572891
1425406153.775,23.31218
1425406153.79,29.88797
1425406153.806,37.41922
1425406153.822,46.93683
1425406153.837,59.001297
1425406153.853,73.25197
1425406153.869,88.103745
1425406153.884,100.77112
1425406153.9,107.82425
1425406153.915,106.23241
1425406153.931,94.54471
1425406153.947,73.63904
1425406153.962,46.64778
1425406153.978,17.92308
1425406153.994,-8.277008
1425406154.009,-29.079422
1425406154.025,-43.454407
1425406154.04,-51.998367
1425406154.056,-56.158463
1425406154.072,-57.483704
1425406154.087,-57.148575
1425406154.103,-55.908295
1425406154.119,-54.225113
1425406154.134,-52.40909
1425406154.15,-50.658524
1425406154.165,-48.993042
1425406154.181,-47.273148
1425406154.197,-45.254272
1425406154.212,-42.74379
1425406154.228,-39.77652
1425406154.244,-36.612854
1425406154.259,-33.65747
1425406154.275,-31.188095
1425406154.29,-29.193817
1425406154.306,-27.241821
1425406154.322,-24.65361
1425406154.337,-20.727615
1425406154.353,-15.097336
1425406154.369,-7.8765106
1425406154.384,0.37973022
1425406154.4,8.916992
1425406154.415,17.088806
1425406154.431,24.595612
1425406154.447,31.623566
1425406154.462,38.807556
1425406154.478,47.041824
1425406154.494,57.15724
1425406154.509,69.41705
1425406154.525,83.052475
1425406154.54,95.99826
1425406154.556,105.14343
1425406154.572,107.14839
1425406154.587,99.617355
1425406154.603,82.15109
1425406154.619,56.745667
1425406154.634,27.320877
1425406154.65,-1.5513458
1425406154.665,-26.027649
1425406154.681,-44.002594
1425406154.697,-55.333786
1425406154.712,-61.256973
1425406154.728,-63.529495
1425406154.744,-63.672073
1425406154.759,-62.64995
1425406154.775,-60.949707
1425406154.79,-58.862106
1425406154.806,-56.64731
1425406154.822,-54.495346
1425406154.837,-52.422104
1425406154.853,-50.224457
1425406154.869,-47.57173
1425406154.884,-44.290833
1425406154.9,-40.53746
1425406154.915,-36.806137
1425406154.931,-33.70128
1425406154.947,-31.547379
1425406154.962,-30.1055
1425406154.978,-28.597946
1425406154.994,-25.97322
1425406155.009,-21.389694
1425406155.025,-14.562515
1425406155.04,-5.8861237
1425406155.056,3.745987
1425406155.072,13.336578
1425406155.087,22.15892
1425406155.103,29.990143
1425406155.119,37.171875
1425406155.134,44.53418
1425406155.15,53.133102
1425406155.165,63.852875
1425406155.181,76.88713
1425406155.197,91.19075
1425406155.212,104.29294
1425406155.228,112.68883
1425406155.244,112.88159
1425406155.259,102.704834
1425406155.275,82.37773
1425406155.29,54.684937
1425406155.306,24.150528
1425406155.322,-4.459976
1425406155.337,-27.629044
1425406155.353,-43.914978
1425406155.369,-53.79712
1425406155.384,-58.91829
1425406155.4,-61.049606
1425406155.415,-61.47386
1425406155.431,-60.89113
1425406155.447,-59.64717
1425406155.462,-58.040894
1425406155.478,-56.431534
1425406155.494,-55.099976
1425406155.509,-54.080673
1425406155.525,-53.085083
1425406155.54,-51.662537
1425406155.556,-49.428635
1425406155.572,-46.330933
1425406155.587,-42.694992
1425406155.603,-39.139603
1425406155.619,-36.241608
1425406155.634,-34.237885
1425406155.65,-32.79883
1425406155.665,-31.052017
1425406155.681,-27.880386
1425406155.697,-22.404236
1425406155.712,-14.408661
1425406155.728,-4.502365
1425406155.744,6.077057
1425406155.759,15.971603
1425406155.775,24.30333
1425406155.79,31.011047
1425406155.806,36.913696
1425406155.822,43.34572
1425406155.837,51.660965
1425406155.853,62.61418
1425406155.869,75.94585
1425406155.884,90.09096
1425406155.9,102.30435
1425406155.916,109.228165
1425406155.931,107.82495
1425406155.947,96.4337
1425406155.962,75.6082
1425406155.978,48.149155
1425406155.994,18.335114
1425406156.009,-9.425919
1425406156.025,-31.892426
1425406156.041,-47.755127
1425406156.056,-57.496338
1425406156.072,-62.612183
1425406156.087,-64.71428
1425406156.103,-64.925095
1425406156.119,-63.80539
1425406156.134,-61.633636
1425406156.15,-58.747955
1425406156.166,-55.675842
1425406156.181,-52.99179
1425406156.197,-51.010742
1425406156.212,-49.609802
1425406156.228,-48.26396
1425406156.244,-46.309967
1425406156.259,-43.33011
1425406156.275,-39.40567
1425406156.291,-35.154602
1425406156.306,-31.401855
1425406156.322,-28.759766
1425406156.337,-27.205475
1425406156.353,-25.989273
1425406156.369,-23.88446
1425406156.384,-19.748795
1425406156.4,-13.060684
1425406156.416,-4.2065277
1425406156.431,5.6879883
1425406156.447,15.235779
1425406156.462,23.38533
1425406156.478,29.83989
1425406156.494,35.137543
1425406156.509,40.38263
1425406156.525,46.836502
1425406156.541,55.450974
1425406156.556,66.49019
1425406156.572,79.205475
1425406156.587,91.75099
1425406156.603,101.364334
1425406156.619,104.996765
1425406156.634,100.23149
1425406156.65,86.23546
1425406156.666,64.27165
1425406156.681,37.47429
1425406156.697,9.941406
1425406156.712,-14.532425
1425406156.728,-33.504745
1425406156.744,-46.30101
1425406156.759,-53.698975
1425406156.775,-57.15383
1425406156.791,-58.057518
1425406156.806,-57.329414
1425406156.822,-55.45719
1425406156.837,-52.779427
1425406156.853,-49.7409
1425406156.869,-46.922928
1425406156.884,-44.823395
1425406156.9,-43.572212
1425406156.916,-42.833603
1425406156.931,-41.94751
1425406156.947,-40.311546
1425406156.962,-37.728043
1425406156.978,-34.55288
1425406156.994,-31.442131
1425406157.009,-28.92279
1425406157.025,-26.990005
1425406157.041,-24.979012
1425406157.056,-21.875809
1425406157.072,-16.798729
1425406157.087,-9.475014
1425406157.103,-0.41347504
1425406157.119,9.331688
1425406157.134,18.5822
1425406157.15,26.540482
1425406157.166,33.020355
1425406157.181,38.501297
1425406157.197,43.900185
1425406157.212,50.33309
1425406157.228,58.732224
1425406157.244,69.49542
1425406157.259,82.024376
1425406157.275,94.515594
1425406157.291,104.034096
1425406157.306,107.26265
1425406157.322,101.561745
1425406157.337,86.1156
1425406157.353,62.469475
1425406157.369,34.206505
1425406157.384,5.8273315
1425406157.4,-18.728241
1425406157.416,-37.172455
1425406157.431,-49.16954
1425406157.447,-55.893417
1425406157.462,-59.056175
1425406157.478,-60.1233
1425406157.494,-59.92067
1425406157.509,-58.780388
1425406157.525,-56.869534
1425406157.541,-54.50065
1425406157.556,-52.174244
1425406157.572,-50.33583
1425406157.587,-49.136597
1425406157.603,-48.29702
1425406157.619,-47.19586
1425406157.634,-45.229336
1425406157.65,-42.129894
1425406157.666,-38.158234
1425406157.681,-34.015583
1425406157.697,-30.461815
1425406157.712,-27.86739
1425406157.728,-25.944134
1425406157.744,-23.781143
1425406157.759,-20.255962
1425406157.775,-14.558174
1425406157.791,-6.6317825
1425406157.806,2.7819786
1425406157.822,12.442791
1425406157.837,21.130898
1425406157.853,28.15023
1425406157.869,33.604282
1425406157.884,38.301537
1425406157.9,43.45938
1425406157.916,50.25174
1425406157.931,59.425438
1425406157.947,70.920074
1425406157.962,83.65297
1425406157.978,95.43552
1425406157.994,103.33161
1425406158.009,104.37137
1425406158.025,96.55584
1425406158.041,79.72578
1425406158.056,55.862343
1425406158.072,28.58565
1425406158.087,2.0748386
1425406158.103,-20.264713
1425406158.119,-36.61652
1425406158.134,-46.922924
1425406158.15,-52.335583
1425406158.166,-54.376698
1425406158.181,-54.313545
1425406158.197,-52.93404
1425406158.212,-50.70731
1425406158.228,-48.06083
1425406158.244,-45.47455
1425406158.259,-43.40721
1425406158.275,-42.058327
1425406158.291,-41.245525
1425406158.306,-40.464714
1425406158.322,-39.118248
1425406158.337,-36.84153
1425406158.353,-33.736626
1425406158.369,-30.317907
1425406158.384,-27.268263
1425406158.4,-25.01358
1425406158.416,-23.42718
1425406158.431,-21.820719
1425406158.447,-19.22117
1425406158.462,-14.831753
1425406158.478,-8.428295
1425406158.494,-0.4749775
1425406158.509,8.071526
1425406158.525,16.179934
1425406158.541,23.160507
1425406158.556,28.906155
1425406158.572,33.91303
1425406158.588,39.09559
1425406158.603,45.455788
1425406158.619,53.68121
1425406158.634,63.768814
1425406158.65,74.72814
1425406158.666,84.52922
1425406158.681,90.47536
1425406158.697,89.94997
1425406158.712,81.35454
1425406158.728,64.80907
1425406158.744,42.313316
1425406158.759,17.217342
1425406158.775,-6.8028145
1425406158.791,-26.782074
1425406158.806,-41.10936
1425406158.822,-49.61266
1425406158.838,-53.100716
1425406158.853,-52.833183
1425406158.869,-50.01718
1425406158.884,-45.674126
1425406158.9,-40.660027
1425406158.916,-35.748367
1425406158.931,-31.613037
1425406158.947,-28.663933
1425406158.963,-26.920418
1425406158.978,-26.00579
1425406158.994,-25.310677
1425406159.009,-24.300293
1425406159.025,-22.77884
1425406159.041,-20.933037
1425406159.056,-19.148453
1425406159.072,-17.71067
1425406159.088,-16.52684
1425406159.103,-15.101212
1425406159.119,-12.701263
1425406159.134,-8.727692
1425406159.15,-2.9906158
1425406159.166,4.1624527
1425406159.181,11.97184
1425406159.197,19.55059
1425406159.213,26.230545
1425406159.228,31.789803
1425406159.244,36.531525
1425406159.259,41.225273
1425406159.275,46.85498
1425406159.291,54.25721
1425406159.306,63.672836
1425406159.322,74.32598
1425406159.338,84.34823
1425406159.353,91.00865
1425406159.369,91.525444
1425406159.384,83.98756
1425406159.4,68.21686
1425406159.416,45.986824
1425406159.431,20.608086
1425406159.447,-4.106453
1425406159.463,-24.957497
1425406159.478,-40.171356
1425406159.494,-49.514946
1425406159.509,-53.947517
1425406159.525,-54.889763
1425406159.541,-53.682167
1425406159.556,-51.271706
1425406159.572,-48.289124
1425406159.588,-45.15188
1425406159.603,-42.212296
1425406159.619,-39.714012
1425406159.634,-37.72577
1425406159.65,-36.05973
1425406159.666,-34.36847
1425406159.681,-32.29045
1425406159.697,-29.694115
1425406159.713,-26.755676
1425406159.728,-23.880554
1425406159.744,-21.495499
1425406159.759,-19.727997
1425406159.775,-18.23841
1425406159.791,-16.268166
1425406159.806,-12.947334
1425406159.822,-7.684654
1425406159.838,-0.47626495
1425406159.853,8.031494
1425406159.869,16.816452
1425406159.884,24.905716
1425406159.9,31.793167
1425406159.916,37.616997
1425406159.931,43.08194
1425406159.947,49.18672
1425406159.963,56.83339
1425406159.978,66.36105
1425406159.994,77.21396
1425406160.009,87.75108
1425406160.025,95.44648
1425406160.041,97.47478
1425406160.056,91.69534
1425406160.072,77.52272
1425406160.088,56.39662
1425406160.103,31.474548
1425406160.119,6.676819
1425406160.134,-14.566238
1425406160.15,-30.24858
1425406160.166,-40.06662
1425406160.181,-45.029327
1425406160.197,-46.665497
1425406160.213,-46.334137
1425406160.228,-44.98149
1425406160.244,-43.150406
1425406160.259,-41.249557
1425406160.275,-39.637375
1425406160.291,-38.568314
1425406160.306,-38.023956
1425406160.322,-37.681442
1425406160.338,-37.004013
1425406160.353,-35.532547
1425406160.369,-33.157623
1425406160.384,-30.224792
1425406160.4,-27.339249
1425406160.416,-25.05075
1425406160.431,-23.487411
1425406160.447,-22.205643
1425406160.463,-20.35019
1425406160.478,-17.052536
1425406160.494,-11.860275
1425406160.509,-5.0209045
1425406160.525,2.65802
1425406160.541,10.136612
1425406160.556,16.661392
1425406160.572,22.10115
1425406160.588,26.988693
1425406160.603,32.28888
1425406160.619,39.029816
1425406160.634,47.85997
1425406160.65,58.76204
1425406160.666,70.80649
1425406160.681,82.10307
1425406160.697,89.99736
1425406160.713,91.69609
1425406160.728,85.11499
1425406160.744,69.71878
1425406160.759,46.96756
1425406160.775,20.014557
1425406160.791,-7.2369537
1425406160.806,-31.29831
1425406160.822,-50.04071
1425406160.838,-62.939743
1425406160.853,-70.726746
1425406160.869,-74.667404
1425406160.884,-76.02055
1425406160.9,-75.731705
1425406160.916,-74.53549
1425406160.931,-73.05333
1425406160.947,-71.82735
1425406160.963,-71.18254
1425406160.978,-71.090866
1425406160.994,-71.13443
1425406161.009,-70.72879
1425406161.025,-69.39244
1425406161.041,-67.08307
1425406161.056,-64.290924
1425406161.072,-61.900497
1425406161.088,-60.846954
1425406161.103,-61.77063
1425406161.119,-64.65268
1425406161.134,-68.68471
1425406161.15,-72.37953
1425406161.166,-73.92827
1425406161.181,-71.704575
1425406161.197,-64.83807
1425406161.213,-53.439682
1425406161.228,-38.543808
1425406161.244,-21.648804
1425406161.259,-4.047287
1425406161.275,13.707672
1425406161.291,32.02234
1425406161.306,51.97397
1425406161.322,74.62891
1425406161.338,100.21471
1425406161.353,127.42844
1425406161.369,153.30736
1425406161.384,173.71155
1425406161.4,184.48308
1425406161.416,182.6474
1425406161.431,167.45712
1425406161.447,140.61804
1425406161.463,105.69112
1425406161.478,66.87703
1425406161.494,27.87265
1425406161.51,-8.944397
1425406161.525,-42.413925
1425406161.541,-72.071014
1425406161.556,-97.41403
1425406161.572,-117.65146
1425406161.588,-131.89914
1425406161.603,-139.77664
1425406161.619,-141.79785
1425406161.635,-139.3894
1425406161.65,-134.32657
1425406161.666,-128.01892
1425406161.681,-120.94571
1425406161.697,-112.73215
1425406161.713,-102.64404
1425406161.728,-90.371216
1425406161.744,-76.543274
1425406161.76,-62.69043
1425406161.775,-50.674866
1425406161.791,-41.777527
1425406161.806,-36.076324
1425406161.822,-32.388824
1425406161.838,-28.833466
1425406161.853,-23.641144
1425406161.869,-15.782654
1425406161.885,-5.180298
1425406161.9,7.5658264
1425406161.916,21.531067
1425406161.931,35.7713
1425406161.947,49.578766
1425406161.963,62.755615
1425406161.978,75.96777
1425406161.994,90.9003
1425406162.01,109.812195
1425406162.025,134.44254
1425406162.041,164.51834
1425406162.056,196.87982
1425406162.072,225.82425
1425406162.088,244.8953
1425406162.103,249.23978
1425406162.119,237.48657
1425406162.135,212.08115
1425406162.15,178.06677
1425406162.166,140.96988
1425406162.181,105.013275
1425406162.197,72.40451
1425406162.213,43.73993
1425406162.228,18.957336
1425406162.244,-1.9234009
1425406162.26,-18.665405
1425406162.275,-31.13208
1425406162.291,-39.738403
1425406162.306,-45.514893
1425406162.322,-49.88269
1425406162.338,-54.11676
1425406162.353,-58.97223
1425406162.369,-64.524475
1425406162.385,-70.39502
1425406162.4,-76.10159
1425406162.416,-81.39804
1425406162.431,-86.33914
1425406162.447,-91.05597
1425406162.463,-95.38342
1425406162.478,-98.61377
1425406162.494,-99.55133
1425406162.51,-96.98706
1425406162.525,-90.25644
1425406162.541,-79.66791
1425406162.556,-66.451416
1425406162.572,-52.210785
1425406162.588,-38.105103
1425406162.603,-24.224365
1425406162.619,-9.507477
1425406162.635,7.8685913
1425406162.65,29.670227
1425406162.666,56.766846
1425406162.681,88.533875
1425406162.697,122.649445
1425406162.713,155.26797
1425406162.728,181.72012
1425406162.744,197.48712
1425406162.76,199.45123
1425406162.775,186.97446
1425406162.791,162.36874
1425406162.806,130.51398
1425406162.822,97.50778
1425406162.838,68.967834
1425406162.853,48.462402
1425406162.869,36.84485
1425406162.885,32.550415
1425406162.9,32.69464
1425406162.916,34.31787
1425406162.931,35.29608
1425406162.947,34.65744
1425406162.963,32.379852
1425406162.978,28.92868
1425406162.994,24.919159
1425406163.01,20.856018
1425406163.025,17.05661
1425406163.041,13.652924
1425406163.056,10.545197
1425406163.072,7.381653
1425406163.088,3.6026
1425406163.103,-1.3179932
1425406163.119,-7.6514893
1425406163.135,-15.126556
1425406163.15,-22.89624
1425406163.166,-29.770386
1425406163.181,-34.656494
1425406163.197,-36.936554
1425406163.213,-36.66031
1425406163.228,-34.39377
1425406163.244,-30.86319
1425406163.26,-26.50943
1425406163.275,-21.300385
1425406163.291,-14.732971
1425406163.306,-6.129776
1425406163.322,4.9427185
1425406163.338,18.15509
1425406163.353,32.121094
1425406163.369,44.332916
1425406163.385,51.64145
1425406163.4,51.072174
1425406163.416,40.948227
1425406163.431,21.660461
1425406163.447,-4.117798
1425406163.463,-32.095963
1425406163.478,-57.656693
1425406163.494,-77.22395
1425406163.51,-89.15521
1425406163.525,-93.86127
1425406163.541,-93.15683
1425406163.556,-89.26262
1425406163.572,-83.978195
1425406163.588,-78.34456
1425406163.603,-72.71214
1425406163.619,-67.09715
1425406163.635,-61.47209
1425406163.65,-55.94391
1425406163.666,-50.690872
1425406163.681,-45.902893
1425406163.697,-41.687363
1425406163.713,-38.044693
1425406163.728,-34.904205
1425406163.744,-32.141
1425406163.76,-29.602478
1425406163.775,-27.151794
1425406163.791,-24.689583
1425406163.806,-22.139603
1425406163.822,-19.432777
1425406163.838,-16.4749
1425406163.853,-13.083115
1425406163.869,-9.077301
1425406163.885,-4.2728806
1425406163.9,1.3940887
1425406163.916,7.9283676
1425406163.931,15.32782
1425406163.947,23.66919
1425406163.963,32.96855
1425406163.978,42.821884
1425406163.994,51.988525
1425406164.01,58.23242
1425406164.025,58.691574
1425406164.041,50.800896
1425406164.056,33.3189
1425406164.072,7.122772
1425406164.088,-24.865395
1425406164.103,-58.403946
1425406164.119,-89.16706
1425406164.135,-113.74575
1425406164.15,-130.33968
1425406164.166,-138.70206
1425406164.182,-139.81497
1425406164.197,-135.30417
1425406164.213,-127.027
1425406164.228,-116.65655
1425406164.244,-105.54678
1425406164.26,-94.59349
1425406164.275,-84.26877
1425406164.291,-74.71005
1425406164.307,-65.854416
1425406164.322,-57.528053
1425406164.338,-49.436455
1425406164.353,-41.23858
1425406164.369,-32.654556
1425406164.385,-23.689774
1425406164.4,-14.74678
1425406164.416,-6.5548706
1425406164.432,0.14950562
1425406164.447,5.211319
1425406164.463,9.315842
1425406164.478,13.956284
1425406164.494,20.835098
1425406164.51,31.229507
1425406164.525,45.417526
1425406164.541,62.770233
1425406164.557,82.23909
1425406164.572,103.03766
1425406164.588,124.95325
1425406164.603,148.00032
1425406164.619,171.63829
1425406164.635,194.01674
1425406164.65,211.97293
1425406164.666,221.91965
1425406164.682,221.31102
1425406164.697,209.9944
1425406164.713,190.48
1425406164.728,167.1944
1425406164.744,144.81972
1425406164.76,126.76904
1425406164.775,114.31102
1425406164.791,106.64592
1425406164.807,101.711975
1425406164.822,97.212204
1425406164.838,91.374344
1425406164.853,83.313705
1425406164.869,73.01257
1425406164.885,61.04834
1425406164.9,48.25717
1425406164.916,35.422775
1425406164.932,22.990402
1425406164.947,11.061569
1425406164.963,-0.43115997
1425406164.978,-11.434029
1425406164.994,-21.574112
1425406165.01,-30.180073
1425406165.025,-36.54226
1425406165.041,-40.25827
1425406165.057,-41.433075
1425406165.072,-40.548378
1425406165.088,-38.24212
1425406165.103,-34.962673
1425406165.119,-30.842577
1425406165.135,-25.744848
1425406165.15,-19.458096
1425406165.166,-11.880226
1425406165.182,-3.0420647
1425406165.197,7.018547
1425406165.213,18.330162
1425406165.228,30.940338
1425406165.244,44.47957
1425406165.26,57.706436
1425406165.275,68.209564
1425406165.291,72.725914
1425406165.307,68.064865
1425406165.322,52.381073
1425406165.338,26.164215
1425406165.353,-7.5265503
1425406165.369,-43.877213
1425406165.385,-77.76193
1425406165.4,-105.326904
1425406165.416,-124.93376
1425406165.432,-137.2292
1425406165.447,-144.39594
1425406165.463,-149.08916
1425406165.478,-153.40076
1425406165.494,-158.39792
1425406165.51,-164.07086
1425406165.525,-169.72601
1425406165.541,-174.44547
1425406165.557,-177.63268
1425406165.572,-179.26155
1425406165.588,-179.96584
1425406165.603,-180.80696
1425406165.619,-182.89252
1425406165.635,-186.89636
1425406165.65,-192.69565
1425406165.666,-199.11337
1425406165.682,-203.92415
1425406165.697,-204.09644
1425406165.713,-196.41557
1425406165.728,-178.29088
1425406165.744,-148.69604
1425406165.76,-108.72307
1425406165.775,-61.57625
1425406165.791,-11.796707
1425406165.807,36.109055
1425406165.822,79.04378
1425406165.838,116.15254
1425406165.853,148.78682
1425406165.869,179.51869
1425406165.885,210.61037
1425406165.9,242.52759
1425406165.916,273.15808
1425406165.932,298.04932
1425406165.947,311.8043
1425406165.963,310.01227
1425406165.978,291.04257
1425406165.994,256.86908
1425406166.01,212.57948
1425406166.025,164.73767
1425406166.041,119.353806
1425406166.057,80.33914
1425406166.072,49.07332
1425406166.088,24.955261
1425406166.103,6.507736
1425406166.119,-7.734146
1425406166.135,-18.826782
1425406166.15,-27.549362
1425406166.166,-34.707428
1425406166.182,-41.161423
1425406166.197,-47.57347
1425406166.213,-54.11949
1425406166.228,-60.298645
1425406166.244,-65.22002
1425406166.26,-68.0031
1425406166.275,-68.301025
1425406166.291,-66.48981
1425406166.307,-63.61841
1425406166.322,-60.856445
1425406166.338,-58.991577
1425406166.353,-57.954376
1425406166.369,-56.778473
1425406166.385,-53.967224
1425406166.4,-48.182404
1425406166.416,-38.88147
1425406166.432,-26.614624
1425406166.447,-12.871338
1425406166.463,0.5506592
1425406166.478,12.294159
1425406166.494,21.978424
1425406166.51,30.330719
1425406166.525,38.894012
1425406166.541,49.40738
1425406166.557,63.093933
1425406166.572,80.043304
1425406166.588,98.780914
1425406166.603,116.34006
1425406166.619,128.81342
1425406166.635,132.41287
1425406166.65,124.76355
1425406166.666,105.8067
1425406166.682,78.01395
1425406166.697,45.63968
1425406166.713,13.36911
1425406166.728,-15.095551
1425406166.744,-37.908722
1425406166.76,-55.121277
1425406166.775,-68.02338
1425406166.791,-78.13684
1425406166.807,-86.46796
1425406166.822,-93.243835
1425406166.838,-98.12631
1425406166.854,-100.70233
1425406166.869,-100.89847
1425406166.885,-99.052185
1425406166.9,-95.8096
1425406166.916,-91.82437
1425406166.932,-87.52811
1425406166.947,-83.104126
1425406166.963,-78.64865
1425406166.979,-74.32364
1425406166.994,-70.4079
1425406167.01,-67.140686
1425406167.025,-64.44052
1425406167.041,-61.728912
1425406167.057,-58.033844
1425406167.072,-52.32196
1425406167.088,-44.022034
1425406167.104,-33.333862
1425406167.119,-21.207031
1425406167.135,-9.037109
1425406167.15,1.9394836
1425406167.166,11.07373
1425406167.182,18.571228
1425406167.197,25.413269
1425406167.213,33.03488
1425406167.229,42.784332
1425406167.244,55.312103
1425406167.26,70.03793
1425406167.275,84.9126
1425406167.291,96.67093
1425406167.307,101.69464
1425406167.322,97.17618
1425406167.338,82.23883
1425406167.354,58.443146
1425406167.369,29.418335
1425406167.385,-0.28118896
1425406167.4,-26.587952
1425406167.416,-47.039307
1425406167.432,-61.070557
1425406167.447,-69.588745
1425406167.463,-74.07721
1425406167.479,-75.874695
1425406167.494,-75.81406
1425406167.51,-74.37543
1425406167.525,-71.98181
1425406167.541,-69.20453
1425406167.557,-66.68378
1425406167.572,-64.86041
1425406167.588,-63.767395
1425406167.604,-62.984894
1425406167.619,-61.87494
1425406167.635,-59.93576
1425406167.65,-57.09256
1425406167.666,-53.730835
1425406167.682,-50.48651
1425406167.697,-47.861298
1425406167.713,-45.893524
1425406167.729,-44.01602
1425406167.744,-41.236053
1425406167.76,-36.518097
1425406167.775,-29.225037
1425406167.791,-19.421692
1425406167.807,-7.928314
1425406167.822,3.9673157
1425406167.838,14.939484
1425406167.854,24.09851
1425406167.869,31.2789
1425406167.885,37.10504
1425406167.9,42.7482
1425406167.916,49.5618
1425406167.932,58.598022
1425406167.947,70.108734
1425406167.963,83.21417
1425406167.979,95.76239
1425406167.994,104.69046
1425406168.01,106.79941
1425406168.025,99.81287
1425406168.041,83.30435
1425406168.057,59.072693
1425406168.072,30.743805
1425406168.088,2.6138306
1425406168.104,-21.626678
1425406168.119,-39.913788
1425406168.135,-52.000824
1425406168.15,-59.014282
1425406168.166,-62.567535
1425406168.182,-64.05267
1425406168.197,-64.29657
1425406168.213,-63.652008
1425406168.229,-62.3255
1425406168.244,-60.61432
1425406168.26,-58.943085
1425406168.275,-57.684784
1425406168.291,-56.94461
1425406168.307,-56.43637
1425406168.322,-55.582092
1425406168.338,-53.78766
1425406168.354,-50.727966
1425406168.369,-46.593628
1425406168.385,-42.026337
1425406168.4,-37.870117
1425406168.416,-34.72641
1425406168.432,-32.62503
1425406168.447,-30.911743
1425406168.463,-28.496185
1425406168.479,-24.35147
1425406168.494,-17.979126
1425406168.51,-9.687164
1425406168.525,-0.43041992
1425406168.541,8.6091
1425406168.557,16.50299
1425406168.572,22.958801
1425406168.588,28.32956
1425406168.604,33.481506
1425406168.619,39.475372
1425406168.635,47.26596
1425406168.65,57.426025
1425406168.666,69.818115
1425406168.682,83.32205
1425406168.697,95.74133
1425406168.713,104.08356
1425406168.729,105.355225
1425406168.744,97.589905
1425406168.76,80.741455
1425406168.775,56.934906
1425406168.791,29.921051
1425406168.807,3.8648376
1425406168.822,-17.896698
1425406168.838,-33.728577
1425406168.854,-43.75357
1425406168.869,-49.283478
1425406168.885,-51.957336
1425406168.9,-53.066772
1425406168.916,-53.278046
1425406168.932,-52.78369
1425406168.947,-51.66693
1425406168.963,-50.133545
1425406168.979,-48.59079
1425406168.994,-47.491028
1425406169.01,-47.071228
1425406169.025,-47.228027
1425406169.041,-47.485413
1425406169.057,-47.267548
1425406169.072,-46.11914
1425406169.088,-43.95349
1425406169.104,-41.08185
1425406169.119,-38.044037
1425406169.135,-35.29431
1425406169.15,-32.957977
1425406169.166,-30.69461
1425406169.182,-27.806488
1425406169.197,-23.544556
1425406169.213,-17.453125
1425406169.229,-9.616364
1425406169.244,-0.72169495
1425406169.26,8.197937
1425406169.275,16.131897
1425406169.291,22.539948
1425406169.307,27.549896
1425406169.322,31.889374
1425406169.338,36.570663
1425406169.354,42.53856
1425406169.369,50.34784
1425406169.385,60.02922
1425406169.4,71.03937
1425406169.416,82.189835
1425406169.432,91.6931
1425406169.447,97.36391
1425406169.463,97.07155
1425406169.479,89.44191
1425406169.494,74.46416
1425406169.51,53.78253
1425406169.526,30.32962
1425406169.541,7.508545
1425406169.557,-11.83876
1425406169.572,-26.075912
1425406169.588,-34.987778
1425406169.604,-39.368973
1425406169.619,-40.42392
1425406169.635,-39.218857
1425406169.65,-36.49582
1425406169.666,-32.762955
1425406169.682,-28.536087
1425406169.697,-24.479233
1425406169.713,-21.340256
1425406169.729,-19.658386
1425406169.744,-19.53218
1425406169.76,-20.493149
1425406169.776,-21.703278
1425406169.791,-22.312492
1425406169.807,-21.883858
1425406169.822,-20.556946
1425406169.838,-18.953209
1425406169.854,-17.762909
1425406169.869,-17.320618
1425406169.885,-17.364548
1425406169.901,-17.041237
1425406169.916,-15.3255005
1425406169.932,-11.475204
1425406169.947,-5.4013977
1425406169.963,2.2490234
1425406169.979,10.405701
1425406169.994,17.964012
1425406170.01,24.26841
1425406170.026,29.322304
1425406170.041,33.74591
1425406170.057,38.4628
1425406170.072,44.374794
1425406170.088,51.976273
1425406170.104,61.09954
1425406170.119,70.752365
1425406170.135,79.165764
1425406170.151,84.07893
1425406170.166,83.323425
1425406170.182,75.55373
1425406170.197,60.861656
1425406170.213,40.969654
1425406170.229,18.802792
1425406170.244,-2.3993187
1425406170.26,-20.036709
1425406170.276,-32.82694
1425406170.291,-40.81541
1425406170.307,-44.96761
1425406170.322,-46.494602
1425406170.338,-46.417374
1425406170.354,-45.353935
1425406170.369,-43.692722
1425406170.385,-41.762226
1425406170.401,-39.921574
1425406170.416,-38.508762
1425406170.432,-37.714546
1425406170.447,-37.41747
1425406170.463,-37.281647
1425406170.479,-36.836636
1425406170.494,-35.76112
1425406170.51,-33.9894
1425406170.526,-31.806208
1425406170.541,-29.615108
1425406170.557,-27.765192
1425406170.572,-26.236172
1425406170.588,-24.584312
1425406170.604,-22.061699
1425406170.619,-17.946907
1425406170.635,-11.902647
1425406170.651,-4.2028027
1425406170.666,4.3204727
1425406170.682,12.590607
1425406170.697,19.735546
1425406170.713,25.439968
1425406170.729,30.069878
1425406170.744,34.463238
1425406170.76,39.60063
1425406170.776,46.181343
1425406170.791,54.380096
1425406170.807,63.674255
1425406170.822,72.81716
1425406170.838,79.985214
1425406170.854,83.140305
1425406170.869,80.51244
1425406170.885,71.28111
1425406170.901,55.963264
1425406170.916,36.496323
1425406170.932,15.731438
1425406170.947,-3.3552246
1425406170.963,-18.553017
1425406170.979,-28.915909
1425406170.994,-34.73429
1425406171.01,-37.09996
1425406171.026,-37.284813
1425406171.041,-36.253914
1425406171.057,-34.582085
1425406171.072,-32.562607
1425406171.088,-30.457306
1425406171.104,-28.586014
1425406171.119,-27.272575
1425406171.135,-26.626465
1425406171.151,-26.434242
1425406171.166,-26.214485
1425406171.182,-25.431526
1425406171.197,-23.80426
1425406171.213,-21.467926
1425406171.229,-18.932007
1425406171.244,-16.762138
1425406171.26,-15.248222
1425406171.276,-14.200256
1425406171.291,-12.962936
1425406171.307,-10.748535
1425406171.322,-6.992737
1425406171.338,-1.6322174
1425406171.354,4.878357
1425406171.369,11.775101
1425406171.385,18.332016
1425406171.401,24.12381
1425406171.416,29.20964
1425406171.432,34.047867
1425406171.447,39.313446
1425406171.463,45.604095
1425406171.479,53.146057
1425406171.494,61.536102
1425406171.51,69.62167
1425406171.526,75.62685
1425406171.541,77.56932
1425406171.557,73.85855
1425406171.572,63.946777
1425406171.588,48.650726
1425406171.604,30.02452
1425406171.619,10.795395
1425406171.635,-6.422928
1425406171.651,-19.82817
1425406171.666,-28.76152
1425406171.682,-33.569885
1425406171.697,-35.18004
1425406171.713,-34.652542
1425406171.729,-32.86754
1425406171.744,-30.470383
1425406171.76,-27.934448
1425406171.776,-25.684921
1425406171.791,-24.038849
1425406171.807,-23.188538
1425406171.822,-23.026306
1425406171.838,-23.19629
1425406171.854,-23.186188
1425406171.869,-22.571701
1425406171.885,-21.216537
1425406171.901,-19.355713
1425406171.916,-17.456406
1425406171.932,-15.940094
1425406171.947,-14.91835
1425406171.963,-14.038788
1425406171.979,-12.600494
1425406171.994,-9.916412
1425406172.01,-5.631302
1425406172.026,0.042617798
1425406172.041,6.3849945
1425406172.057,12.4774475
1425406172.072,17.642502
1425406172.088,21.704102
1425406172.104,25.128113
1425406172.119,28.773193
1425406172.135,33.58911
1425406172.151,40.218613
1425406172.166,48.657425
1425406172.182,58.068787
1425406172.198,66.82411
1425406172.213,72.76285
1425406172.229,73.78302
1425406172.244,68.469925
1425406172.26,56.677994
1425406172.276,39.690903
1425406172.291,19.97432
1425406172.307,0.42485046
1425406172.322,-16.414917
1425406172.338,-28.99974
1425406172.354,-36.926453
1425406172.369,-40.73822
1425406172.385,-41.435898
1425406172.401,-40.082153
1425406172.416,-37.53
1425406172.432,-34.428192
1425406172.448,-31.237427
1425406172.463,-28.272552
1425406172.479,-25.701447
1425406172.494,-23.580688
1425406172.51,-21.845581
1425406172.526,-20.35965
1425406172.541,-18.959229
1425406172.557,-17.49707
1425406172.573,-15.8897705
1425406172.588,-14.144684
1425406172.604,-12.337524
1425406172.619,-10.540863
1425406172.635,-8.685883
1425406172.651,-6.4608765
1425406172.666,-3.3947144
1425406172.682,0.9357605
1425406172.698,6.666687
1425406172.713,13.433014
1425406172.729,20.48227
1425406172.744,26.933685
1425406172.76,32.22345
1425406172.776,36.340668
1425406172.791,39.920746
1425406172.807,43.989136
1425406172.823,49.548462
