1425492337.783,0.0
1425492337.798,0.0
1425492337.814,0.0
1425492337.83,0.0
1425492337.845,0.0
1425492337.861,0.0
1425492337.876,0.0
1425492337.892,0.0
1425492337.908,0.0
1425492337.923,0.0022315353
1425492337.939,-0.0045169927
1425492337.955,-0.011265522
1425492337.97,-0.011383951
1425492337.986,0.0011864507
1425492338.001,0.025910312
1425492338.017,0.050634187
1425492338.033,0.051362894
1425492338.048,-0.0014929791
1425492338.064,-0.1302426
1425492338.08,-0.35562757
1425492338.095,-0.6591247
1425492338.111,-1.0095103
1425492338.126,-1.3709826
1425492338.142,-1.7197359
1425492338.158,-2.0551105
1425492338.173,-2.39945
1425492338.189,-2.7866635
1425492338.205,-3.2399073
1425492338.22,-3.796012
1425492338.236,-4.418684
1425492338.251,-5.0592937
1425492338.267,-5.6644096
1425492338.283,-6.2021537
1425492338.298,-6.6808796
1425492338.314,-7.149598
1425492338.33,-7.6782336
1425492338.345,-8.310739
1425492338.361,-9.143657
1425492338.376,-10.089731
1425492338.392,-11.041313
1425492338.408,-11.8842125
1425492338.423,-12.564316
1425492338.439,-13.13563
1425492338.455,-13.760044
1425492338.47,-14.65232
1425492338.486,-15.962056
1425492338.501,-17.914442
1425492338.517,-20.317299
1425492338.533,-22.903854
1425492338.548,-25.37947
1425492338.564,-27.578028
1425492338.58,-29.57246
1425492338.595,-31.675173
1425492338.611,-34.3178
1425492338.626,-37.813618
1425492338.642,-42.541233
1425492338.658,-48.1463
1425492338.673,-54.104755
1425492338.689,-59.83309
1425492338.705,-64.972374
1425492338.72,-69.58293
1425492338.736,-74.14353
1425492338.751,-79.344986
1425492338.767,-85.70726
1425492338.783,-93.76193
1425492338.798,-102.99779
1425492338.814,-112.61757
1425492338.83,-121.73034
1425492338.845,-129.76602
1425492338.861,-136.75102
1425492338.876,-143.30344
1425492338.892,-150.74623
1425492338.908,-157.77356
1425492338.923,-166.64323
1425492338.939,-177.94798
1425492338.955,-191.79102
1425492338.97,-206.96808
1425492338.986,-220.56592
1425492339.002,-228.24644
1425492339.017,-225.36154
1425492339.033,-208.53198
1425492339.048,-176.87024
1425492339.064,-132.76222
1425492339.08,-80.04997
1425492339.095,-23.069275
1425492339.111,34.94339
1425492339.126,92.43695
1425492339.142,149.15695
1425492339.158,205.22772
1425492339.173,260.36963
1425492339.189,313.74133
1425492339.205,363.87396
1425492339.22,409.83353
1425492339.236,450.90775
1425492339.252,486.50244
1425492339.267,515.73865
1425492339.283,537.2274
1425492339.298,549.22
1425492339.314,549.9613
1425492339.33,538.367
1425492339.345,514.2055
1425492339.361,478.674
1425492339.377,433.87952
1425492339.392,382.45126
1425492339.408,327.02106
1425492339.423,269.84186
1425492339.439,212.63379
1425492339.455,156.6594
1425492339.47,102.95233
1425492339.486,52.373596
1425492339.502,5.9046936
1425492339.517,-35.580414
1425492339.533,-71.42584
1425492339.548,-101.35184
1425492339.564,-125.50113
1425492339.58,-144.3797
1425492339.595,-158.69403
1425492339.611,-169.15071
1425492339.627,-176.3711
1425492339.642,-180.75139
1425492339.658,-182.57419
1425492339.673,-182.06863
1425492339.689,-179.5066
1425492339.705,-175.23325
1425492339.72,-169.65286
1425492339.736,-163.17691
1425492339.752,-156.14568
1425492339.767,-148.80681
1425492339.783,-141.29686
1425492339.798,-133.68983
1425492339.814,-126.01962
1425492339.83,-118.33268
1425492339.845,-110.68864
1425492339.861,-103.15572
1425492339.877,-95.80455
1425492339.892,-88.684166
1425492339.908,-81.82744
1425492339.923,-75.24594
1425492339.939,-68.9526
1425492339.955,-62.949085
1425492339.97,-57.247494
1425492339.986,-51.857185
1425492340.002,-46.78282
1425492340.017,-42.02776
1425492340.033,-37.58521
1425492340.048,-33.451748
1425492340.064,-29.613855
1425492340.08,-26.070963
1425492340.095,-22.808779
1425492340.111,-19.824995
1425492340.127,-17.113392
1425492340.142,-14.666497
1425492340.158,-12.47932
1425492340.173,-10.538469
1425492340.189,-8.833674
1425492340.205,-7.3478527
1425492340.22,-6.067689
1425492340.236,-4.9734235
1425492340.252,-4.046258
1425492340.267,-3.2673752
1425492340.283,-2.6211367
1425492340.298,-2.088365
1425492340.314,-1.6507506
1425492340.33,-1.2976913
1425492340.345,-1.0147024
1425492340.361,-0.79105926
1425492340.377,-0.6133206
1425492340.392,-0.47516227
1425492340.408,-0.3684653
1425492340.423,-0.28461677
1425492340.439,-0.22397345
1425492340.455,-0.17647654
1425492340.47,-0.14055526
1425492340.486,-0.11251485
1425492340.502,-0.0926249
1425492340.517,-0.07977182
1425492340.533,-0.06783539
1425492340.548,-0.05929327
1425492340.564,-0.052183747
1425492340.58,-0.046860814
1425492340.595,-0.044131815
1425492340.611,-0.040358156
1425492340.627,-0.039164305
1425492340.642,-0.034330726
1425492340.658,-0.03515649
1425492340.673,-0.03181714
1425492340.689,-0.030750751
1425492340.705,-0.02810505
1425492340.72,-0.029290557
1425492340.736,-0.027453512
1425492340.752,-0.026081413
1425492340.767,-0.023851603
1425492340.783,-0.022989094
1425492340.798,-0.022172749
1425492340.814,-0.022157341
1425492340.83,-0.020828396
1425492340.845,-0.020277172
1425492340.861,-0.01940465
1425492340.877,-0.018795371
1425492340.892,-0.019169807
1425492340.908,-0.017195046
1425492340.923,-0.016264498
1425492340.939,-0.01676847
1425492340.955,-0.016039208
1425492340.97,-0.016356274
1425492340.986,-0.012255222
1425492341.002,-0.014531761
1425492341.017,-0.013970271
1425492341.033,-0.0151048
1425492341.048,-0.011057541
1425492341.064,-0.0131264925
1425492341.08,-0.011830375
1425492341.095,-0.011561602
1425492341.111,-0.011305705
1425492341.127,-0.011727303
1425492341.142,-0.011188552
1425492341.158,-0.00897336
1425492341.173,-0.0100701
1425492341.189,-0.010106817
1425492341.205,-0.00829272
1425492341.22,-0.012381226
1425492341.236,-0.009308472
1425492341.252,-0.009468168
1425492341.267,-0.0076998025
1425492341.283,-0.008273825
1425492341.298,-0.006166175
1425492341.314,-0.011123031
1425492341.33,-0.0061910003
1425492341.345,-0.0064854324
1425492341.361,-0.0073835254
1425492341.377,-0.0067317337
1425492341.392,-0.006160468
1425492341.408,-0.0056124777
1425492341.423,-0.009231806
1425492341.439,-0.002618596
1425492341.455,-0.0062361807
1425492341.47,-0.0021196157
1425492341.486,-0.0063270777
1425492341.502,-0.009540558
1425492341.517,-0.009189263
1425492341.533,-0.01361987
1425492341.548,-0.024931744
1425492341.564,-0.033385143
1425492341.58,-0.050482243
1425492341.595,-0.070715636
1425492341.611,-0.09407537
1425492341.627,-0.118046075
1425492341.642,-0.1521689
1425492341.658,-0.18750432
1425492341.673,-0.22166368
1425492341.689,-0.26037222
1425492341.705,-0.300109
1425492341.72,-0.33720994
1425492341.736,-0.37958753
1425492341.752,-0.42751437
1425492341.767,-0.4841684
1425492341.783,-0.5481173
1425492341.798,-0.5996897
1425492341.814,-0.6337676
1425492341.83,-0.6483412
1425492341.845,-0.63123107
1425492341.861,-0.61322474
1425492341.877,-0.60787696
1425492341.892,-0.62947845
1425492341.908,-0.6947148
1425492341.924,-0.8012872
1425492341.939,-0.93020177
1425492341.955,-1.0503387
1425492341.97,-1.1649661
1425492341.986,-1.2542584
1425492342.002,-1.3377124
1425492342.017,-1.4436516
1425492342.033,-1.5855205
1425492342.049,-1.7910455
1425492342.064,-2.0510771
1425492342.08,-2.3311436
1425492342.095,-2.607093
1425492342.111,-2.8414748
1425492342.127,-3.0331202
1425492342.142,-3.2196422
1425492342.158,-3.4560735
1425492342.174,-3.7927866
1425492342.189,-4.269117
1425492342.205,-4.842633
1425492342.22,-5.4504724
1425492342.236,-5.970776
1425492342.252,-6.3471484
1425492342.267,-6.5633006
1425492342.283,-6.716803
1425492342.299,-6.957396
1425492342.314,-7.4106307
1425492342.33,-8.163881
1425492342.345,-9.151849
1425492342.361,-10.186738
1425492342.377,-11.036927
1425492342.392,-11.555153
1425492342.408,-11.704732
1425492342.424,-11.643039
1425492342.439,-11.614276
1425492342.455,-11.8241
1425492342.47,-12.339186
1425492342.486,-12.948468
1425492342.502,-13.257379
1425492342.517,-12.763041
1425492342.533,-11.10895
1425492342.549,-8.178474
1425492342.564,-4.185604
1425492342.58,0.41029263
1425492342.595,5.2370806
1425492342.611,9.894934
1425492342.627,14.308884
1425492342.642,18.55533
1425492342.658,22.76462
1425492342.674,27.103968
1425492342.689,31.73295
1425492342.705,36.80964
1425492342.72,42.35281
1425492342.736,47.86299
1425492342.752,52.184875
1425492342.767,53.704727
1425492342.783,50.883896
1425492342.799,43.097565
1425492342.814,31.180002
1425492342.83,17.336157
1425492342.845,4.335987
1425492342.861,-5.4406414
1425492342.877,-10.810204
1425492342.892,-12.049101
1425492342.908,-10.324961
1425492342.924,-7.128731
1425492342.939,-3.701418
1425492342.955,-0.90662193
1425492342.97,0.6584377
1425492342.986,0.5806408
1425492343.002,-1.3729782
1425492343.017,-5.0138073
1425492343.033,-9.613127
1425492343.049,-14.118605
1425492343.064,-17.430136
1425492343.08,-18.958912
1425492343.095,-18.726974
1425492343.111,-17.415447
1425492343.127,-15.9778385
1425492343.142,-15.293955
1425492343.158,-15.849125
1425492343.174,-17.666718
1425492343.189,-20.323622
1425492343.205,-23.116608
1425492343.22,-25.270967
1425492343.236,-26.127459
1425492343.252,-25.266972
1425492343.267,-22.766066
1425492343.283,-19.249203
1425492343.299,-15.844175
1425492343.314,-13.904009
1425492343.33,-14.45784
1425492343.345,-17.861155
1425492343.361,-23.705969
1425492343.377,-30.860435
1425492343.392,-37.961174
1425492343.408,-43.80121
1425492343.424,-47.739513
1425492343.439,-49.730717
1425492343.455,-50.174812
1425492343.47,-49.465942
1425492343.486,-47.90594
1425492343.502,-45.674927
1425492343.517,-42.89089
1425492343.533,-39.452427
1425492343.549,-35.15336
1425492343.564,-29.533081
1425492343.58,-21.781322
1425492343.595,-12.199623
1425492343.611,-1.3541527
1425492343.627,9.710358
1425492343.642,19.380981
1425492343.658,25.732468
1425492343.674,27.226898
1425492343.689,23.579323
1425492343.705,16.316826
1425492343.72,8.671867
1425492343.736,4.5757675
1425492343.752,7.5177917
1425492343.767,19.005463
1425492343.783,37.935577
1425492343.799,60.85321
1425492343.814,83.19806
1425492343.83,100.69052
1425492343.845,110.561195
1425492343.861,112.0044
1425492343.877,106.10129
1425492343.892,95.23369
1425492343.908,82.29087
1425492343.924,69.733475
1425492343.939,59.117714
1425492343.955,50.908615
1425492343.97,44.79351
1425492343.986,40.088913
1425492344.002,36.202187
1425492344.017,32.806572
1425492344.033,30.021637
1425492344.049,28.165886
1425492344.064,27.58271
1425492344.08,28.57914
1425492344.095,31.625877
1425492344.111,37.07084
1425492344.127,45.05636
1425492344.142,54.94574
1425492344.158,65.02031
1425492344.174,72.6361
1425492344.189,75.06996
1425492344.205,70.62508
1425492344.22,59.70521
1425492344.236,45.033764
1425492344.252,30.788925
1425492344.267,21.140987
1425492344.283,18.811146
1425492344.299,24.212126
1425492344.314,35.58086
1425492344.33,49.624813
1425492344.345,62.544266
1425492344.361,70.83624
1425492344.377,72.042625
1425492344.392,65.11599
1425492344.408,50.87611
1425492344.424,32.05014
1425492344.439,12.807934
1425492344.455,-2.4399185
1425492344.47,-10.405846
1425492344.486,-10.145657
1425492344.502,-3.3367386
1425492344.517,6.3820877
1425492344.533,14.83004
1425492344.549,18.746819
1425492344.564,16.637955
1425492344.58,8.9025955
1425492344.596,-2.7159042
1425492344.611,-16.03035
1425492344.627,-28.94152
1425492344.642,-39.896362
1425492344.658,-47.858383
1425492344.674,-52.287292
1425492344.689,-52.944016
1425492344.705,-49.96054
1425492344.721,-43.85446
1425492344.736,-35.46286
1425492344.752,-25.801788
1425492344.767,-15.772293
1425492344.783,-5.959976
1425492344.799,3.3999634
1425492344.814,12.331879
1425492344.83,20.794632
1425492344.846,28.384598
1425492344.861,34.274094
1425492344.877,37.30835
1425492344.892,36.445984
1425492344.908,31.219757
1425492344.924,22.08722
1425492344.939,10.466095
1425492344.955,-1.5710754
1425492344.971,-11.891663
1425492344.986,-18.972229
1425492345.002,-22.43988
1425492345.017,-23.185822
1425492345.033,-22.982788
1425492345.049,-23.832
1425492345.064,-27.082428
1425492345.08,-32.827515
1425492345.096,-39.744507
1425492345.111,-45.5748
1425492345.127,-47.971222
1425492345.142,-45.547485
1425492345.158,-38.463715
1425492345.174,-28.469421
1425492345.189,-18.287567
1425492345.205,-10.662506
1425492345.221,-7.442932
1425492345.236,-8.978363
1425492345.252,-14.136169
1425492345.267,-20.709442
1425492345.283,-26.119019
1425492345.299,-28.2052
1425492345.314,-25.803314
1425492345.33,-19.176086
1425492345.346,-9.913849
1425492345.361,-0.5198364
1425492345.377,6.389435
1425492345.392,8.914612
1425492345.408,6.568634
1425492345.424,0.3368225
1425492345.439,-7.684906
1425492345.455,-15.050598
1425492345.471,-19.694427
1425492345.486,-20.502441
1425492345.502,-17.464874
1425492345.517,-11.664642
1425492345.533,-5.015167
1425492345.549,0.10769653
1425492345.564,1.421936
1425492345.58,-2.6542358
1425492345.596,-12.330872
1425492345.611,-26.213867
1425492345.627,-41.550232
1425492345.642,-55.0943
1425492345.658,-64.14856
1425492345.674,-67.57526
1425492345.689,-65.960754
1425492345.705,-61.266724
1425492345.721,-55.93805
1425492345.736,-51.9198
1425492345.752,-50.04419
1425492345.767,-49.845276
1425492345.783,-49.874817
1425492345.799,-48.277954
1425492345.814,-43.43219
1425492345.83,-34.631958
1425492345.846,-22.37793
1425492345.861,-8.365356
1425492345.877,5.0125732
1425492345.892,15.4227295
1425492345.908,21.505615
1425492345.924,23.349121
1425492345.939,22.496826
1425492345.955,21.265808
1425492345.971,21.911987
1425492345.986,25.83191
1425492346.002,33.184326
1425492346.017,42.91626
1425492346.033,53.186768
1425492346.049,61.85132
1425492346.064,67.061646
1425492346.08,67.76184
1425492346.096,64.04028
1425492346.111,57.150146
1425492346.127,49.17926
1425492346.142,42.305054
1425492346.158,38.082764
1425492346.174,36.75946
1425492346.189,37.245544
1425492346.205,37.535095
1425492346.221,35.440063
1425492346.236,29.300354
1425492346.252,18.465271
1425492346.267,3.356018
1425492346.283,-14.658386
1425492346.299,-33.623535
1425492346.314,-51.400513
1425492346.33,-66.15906
1425492346.346,-76.877075
1425492346.361,-83.54755
1425492346.377,-87.11316
1425492346.392,-88.97827
1425492346.408,-90.345215
1425492346.424,-91.6543
1425492346.439,-92.53259
1425492346.455,-92.15906
1425492346.471,-89.80151
1425492346.486,-85.37903
1425492346.502,-79.46924
1425492346.517,-73.01227
1425492346.533,-66.75659
1425492346.549,-60.879517
1425492346.564,-54.906433
1425492346.58,-47.98645
1425492346.596,-39.390076
1425492346.611,-28.94104
1425492346.627,-17.2417
1425492346.642,-5.5354614
1425492346.658,4.6811523
1425492346.674,12.114868
1425492346.689,16.128662
1425492346.705,16.956726
1425492346.721,15.603821
1425492346.736,13.533447
1425492346.752,12.244934
1425492346.767,12.773376
1425492346.783,15.409668
1425492346.799,19.556946
1425492346.814,23.936218
1425492346.83,26.926025
1425492346.846,27.11267
1425492346.861,23.822144
1425492346.877,17.44806
1425492346.892,9.333191
1425492346.908,1.3973389
1425492346.924,-4.581482
1425492346.939,-7.5825806
1425492346.955,-7.694824
1425492346.971,-5.91864
1425492346.986,-3.730896
1425492347.002,-2.4786987
1425492347.017,-2.9994507
1425492347.033,-5.4642944
1425492347.049,-9.579407
1425492347.064,-14.862122
1425492347.08,-20.846802
1425492347.096,-27.179321
1425492347.111,-33.537292
1425492347.127,-39.55304
1425492347.142,-44.79071
1425492347.158,-48.750305
1425492347.174,-51.029358
1425492347.189,-51.398987
1425492347.205,-49.853577
1425492347.221,-46.60559
1425492347.236,-42.036682
1425492347.252,-36.611206
1425492347.268,-30.894531
1425492347.283,-25.472412
1425492347.299,-20.919312
1425492347.314,-17.711792
1425492347.33,-16.101257
1425492347.346,-16.068665
1425492347.361,-17.290771
1425492347.377,-19.21399
1425492347.393,-21.260315
1425492347.408,-22.898987
1425492347.424,-23.855103
1425492347.439,-24.14618
1425492347.455,-24.05658
1425492347.471,-23.98944
1425492347.486,-24.25061
1425492347.502,-24.912292
1425492347.518,-25.75055
1425492347.533,-26.420105
1425492347.549,-26.697388
1425492347.564,-26.654724
1425492347.58,-26.674683
1425492347.596,-27.179077
1425492347.611,-28.363281
1425492347.627,-30.008911
1425492347.643,-31.546448
1425492347.658,-32.250977
1425492347.674,-31.474121
1425492347.689,-28.779846
1425492347.705,-24.079712
1425492347.721,-17.567932
1425492347.736,-9.786499
1425492347.752,-1.5279541
1425492347.768,6.298279
1425492347.783,12.9713745
1425492347.799,18.166443
1425492347.814,22.028015
1425492347.83,25.063354
1425492347.846,27.823303
1425492347.861,30.615845
1425492347.877,33.430725
1425492347.893,35.944794
1425492347.908,37.70685
1425492347.924,38.23584
1425492347.939,37.14868
1425492347.955,34.210846
1425492347.971,29.443115
1425492347.986,23.196167
1425492348.002,16.108856
1425492348.018,8.976715
1425492348.033,2.5217896
1425492348.049,-2.7700806
1425492348.064,-6.6496887
1425492348.08,-8.998535
1425492348.096,-9.702942
1425492348.111,-8.641846
1425492348.127,-5.737152
1425492348.143,-1.1625061
1425492348.158,4.612793
1425492348.174,10.837738
1425492348.189,16.660004
1425492348.205,21.182373
1425492348.221,23.660706
1425492348.236,23.588837
1425492348.252,20.849274
1425492348.268,15.805817
1425492348.283,9.384857
1425492348.299,2.8721924
1425492348.314,-2.4411316
1425492348.33,-5.680969
1425492348.346,-6.684845
1425492348.361,-5.9945984
1425492348.377,-4.4958496
1425492348.393,-2.9550476
1425492348.408,-1.5949707
1425492348.424,-0.11904907
1425492348.439,2.0618286
1425492348.455,5.3186646
1425492348.471,9.554443
1425492348.486,14.096619
1425492348.502,17.964996
1425492348.518,20.189758
1425492348.533,20.145477
1425492348.549,17.681702
1425492348.564,13.154175
1425492348.58,7.2790527
1425492348.596,1.0205994
1425492348.611,-4.5795593
1425492348.627,-8.464111
1425492348.643,-9.757782
1425492348.658,-7.951477
1425492348.674,-3.13266
1425492348.689,3.9828186
1425492348.705,12.045197
1425492348.721,19.478653
1425492348.736,24.931946
1425492348.752,27.772186
1425492348.768,28.255875
1425492348.783,27.379211
1425492348.799,26.319427
1425492348.814,25.882019
1425492348.83,26.118423
1425492348.846,26.40915
1425492348.861,25.903229
1425492348.877,24.062912
1425492348.893,20.887772
1425492348.908,16.881699
1425492348.924,12.630722
1425492348.939,8.525314
1425492348.955,4.576004
1425492348.971,0.6144562
1425492348.986,-3.4885864
1425492349.002,-7.67218
1425492349.018,-11.664963
1425492349.033,-15.11702
1425492349.049,-17.769165
1425492349.064,-19.506561
1425492349.08,-20.33638
1425492349.096,-20.3676
1425492349.111,-19.781036
1425492349.127,-18.778885
1425492349.143,-17.543655
1425492349.158,-16.144882
1425492349.174,-14.554855
1425492349.189,-12.628159
1425492349.205,-10.306885
1425492349.221,-7.707062
1425492349.236,-5.1602783
1425492349.252,-3.0547028
1425492349.268,-1.6894989
1425492349.283,-1.147522
1425492349.299,-1.3378983
1425492349.314,-2.0951233
1425492349.33,-3.2629776
1425492349.346,-4.576042
1425492349.361,-5.5941696
1425492349.377,-5.6419144
1425492349.393,-4.00782
1425492349.408,-0.30445862
1425492349.424,5.167984
1425492349.439,11.393524
1425492349.455,16.850464
1425492349.471,20.141884
1425492349.486,20.492973
1425492349.502,18.05658
1425492349.518,13.783722
1425492349.533,9.04155
1425492349.549,5.1156235
1425492349.564,2.9001389
1425492349.58,2.743248
1425492349.596,4.6188927
1425492349.611,8.248756
1425492349.627,13.200077
1425492349.643,18.882431
1425492349.658,24.52914
1425492349.674,29.219944
1425492349.689,32.118694
1425492349.705,32.728233
1425492349.721,31.18466
1425492349.736,28.247154
1425492349.752,25.016634
1425492349.768,22.446917
1425492349.783,20.919003
1425492349.799,20.080389
1425492349.814,19.136847
1425492349.83,17.28475
1425492349.846,14.276258
1425492349.861,10.541609
1425492349.877,6.9796343
1425492349.893,4.4848843
1425492349.908,3.4527278
1425492349.924,3.5417974
1425492349.94,3.8564959
1425492349.955,3.2930346
1425492349.971,1.0167103
1425492349.986,-3.2202864
1425492350.002,-8.936272
1425492350.018,-15.028135
1425492350.033,-20.091581
1425492350.049,-22.795174
1425492350.064,-22.189325
1425492350.08,-18.130224
1425492350.096,-11.321564
1425492350.111,-3.1865501
1425492350.127,4.469185
1425492350.143,9.986874
1425492350.158,12.316116
1425492350.174,11.297314
1425492350.19,7.7275276
1425492350.205,3.060421
1425492350.221,-1.0209084
1425492350.236,-3.0532036
1425492350.252,-2.275547
1425492350.268,1.0989876
1425492350.283,5.943123
1425492350.299,10.579239
1425492350.315,13.443352
1425492350.33,13.683975
1425492350.346,11.475769
1425492350.361,7.8924904
1425492350.377,4.3183594
1425492350.393,1.8624191
1425492350.408,0.9552994
1425492350.424,1.3020096
1425492350.44,2.1771393
1425492350.455,2.7165375
1425492350.471,2.182335
1425492350.486,0.09249115
1425492350.502,-3.7223282
1425492350.518,-8.985031
1425492350.533,-14.890175
1425492350.549,-20.272339
1425492350.565,-23.781876
1425492350.58,-24.352707
1425492350.596,-21.550629
1425492350.611,-15.725212
1425492350.627,-7.926193
1425492350.643,0.3741684
1425492350.658,7.630081
1425492350.674,12.6026535
1425492350.69,14.668892
1425492350.705,14.017197
1425492350.721,11.524696
1425492350.736,8.427483
1425492350.752,5.824898
1425492350.768,4.203766
1425492350.783,3.3770142
1425492350.799,2.695282
1425492350.815,1.5304718
1425492350.83,-0.36909485
1425492350.846,-2.7890015
1425492350.861,-5.2795105
1425492350.877,-7.5013275
1425492350.893,-9.525101
1425492350.908,-11.799881
1425492350.924,-14.9096985
1425492350.94,-19.205154
1425492350.955,-24.529099
1425492350.971,-30.183762
1425492350.986,-35.081757
1425492351.002,-38.108765
1425492351.018,-38.42929
1425492351.033,-35.698776
1425492351.049,-30.183716
1425492351.065,-22.593475
1425492351.08,-13.895294
1425492351.096,-5.1075134
1425492351.111,2.8303223
1425492351.127,9.1302185
1425492351.143,13.197128
1425492351.158,14.658569
1425492351.174,13.541748
1425492351.19,10.333969
1425492351.205,5.9694977
1425492351.221,1.567627
1425492351.236,-1.9301605
1425492351.252,-4.050049
1425492351.268,-4.8923798
1425492351.283,-4.9387054
1425492351.299,-4.708481
1425492351.315,-4.4825134
1425492351.33,-4.210266
1425492351.346,-3.6275635
1425492351.361,-2.5242462
1425492351.377,-0.8601227
1425492351.393,1.1993561
1425492351.408,3.3289948
1425492351.424,5.188736
1425492351.44,6.488739
1425492351.455,7.139618
1425492351.471,7.3370667
1425492351.486,7.6862793
1425492351.502,9.107147
1425492351.518,12.522797
1425492351.533,18.472137
1425492351.549,26.65863
1425492351.565,35.93924
1425492351.58,44.551727
1425492351.596,50.763916
1425492351.611,53.396698
1425492351.627,52.223816
1425492351.643,47.990814
1425492351.658,42.085236
1425492351.674,36.0719
1425492351.69,31.238953
1425492351.705,28.20581
1425492351.721,26.841248
1425492351.736,26.430878
1425492351.752,25.976074
1425492351.768,24.585907
1425492351.783,21.746857
1425492351.799,17.27835
1425492351.815,11.297607
1425492351.83,3.982666
1425492351.846,-4.4065857
1425492351.861,-13.598633
1425492351.877,-23.188507
1425492351.893,-32.667297
1425492351.908,-41.494446
1425492351.924,-49.23288
1425492351.94,-55.55951
1425492351.955,-60.220795
1425492351.971,-62.880005
1425492351.986,-63.056305
1425492352.002,-60.293793
1425492352.018,-54.4162
1425492352.033,-45.780518
1425492352.049,-35.364624
1425492352.065,-24.54306
1425492352.08,-14.694855
1425492352.096,-6.751587
1425492352.111,-0.94332886
1425492352.127,3.2008057
1425492352.143,6.542938
1425492352.158,9.868225
1425492352.174,13.538483
1425492352.19,17.30664
1425492352.205,20.458862
1425492352.221,22.178162
1425492352.236,22.014008
1425492352.252,20.148895
1425492352.268,17.400726
1425492352.283,15.016205
1425492352.299,14.152313
1425492352.315,15.3958435
1425492352.33,18.425201
1425492352.346,22.087067
1425492352.361,24.880157
1425492352.377,25.64209
1425492352.393,24.170471
1425492352.408,21.430176
1425492352.424,19.171875
1425492352.44,19.126984
1425492352.455,22.155365
1425492352.471,27.806091
1425492352.486,34.52661
1425492352.502,40.288116
1425492352.518,43.433136
1425492352.533,43.263794
1425492352.549,40.12671
1425492352.565,35.271667
1425492352.58,30.357605
1425492352.596,27.090576
1425492352.612,26.861328
1425492352.627,30.42752
1425492352.643,37.691345
1425492352.658,47.577423
1425492352.674,58.220947
1425492352.69,67.37726
1425492352.705,72.9978
1425492352.721,73.80243
1425492352.736,69.51599
1425492352.752,60.905853
1425492352.768,49.441376
1425492352.783,36.859344
1425492352.799,24.764557
1425492352.815,14.37381
1425492352.83,6.306122
1425492352.846,0.55804443
1425492352.862,-3.3983154
1425492352.877,-6.438385
1425492352.893,-9.532654
1425492352.908,-13.381348
1425492352.924,-18.20575
1425492352.94,-23.564148
1425492352.955,-28.430878
1425492352.971,-31.540985
1425492352.987,-31.83374
1425492353.002,-28.953033
1425492353.018,-23.56781
1425492353.033,-17.210907
1425492353.049,-11.757935
1425492353.065,-8.66629
1425492353.08,-8.363403
1425492353.096,-10.0720215
1425492353.112,-12.190399
1425492353.127,-13.072449
1425492353.143,-11.7465515
1425492353.158,-8.285767
1425492353.174,-3.6321716
1425492353.19,0.94595337
1425492353.205,4.523712
1425492353.221,6.8513184
1425492353.237,8.360352
1425492353.252,9.891144
1425492353.268,12.275635
1425492353.283,16.007568
1425492353.299,21.149353
1425492353.315,27.349396
1425492353.33,33.97577
1425492353.346,40.261658
1425492353.362,45.41391
1425492353.377,48.78369
1425492353.393,50.00772
1425492353.408,49.160187
1425492353.424,46.77359
1425492353.44,43.75003
1425492353.455,41.10611
1425492353.471,39.57611
1425492353.487,39.36029
1425492353.502,40.079468
1425492353.518,40.866333
1425492353.533,40.726105
1425492353.549,38.80713
1425492353.565,34.616608
1425492353.58,28.081116
1425492353.596,19.510742
1425492353.612,9.494507
1425492353.627,-1.2130127
1425492353.643,-11.845703
1425492353.658,-21.733246
1425492353.674,-30.44522
1425492353.69,-37.817932
1425492353.705,-43.806335
1425492353.721,-48.2948
1425492353.737,-50.964233
1425492353.752,-51.255646
1425492353.768,-48.658813
1425492353.783,-43.065796
1425492353.799,-35.06671
1425492353.815,-26.0065
1425492353.83,-17.693817
1425492353.846,-11.818527
1425492353.862,-9.332001
1425492353.877,-9.988327
1425492353.893,-12.319031
1425492353.908,-14.0972595
1425492353.924,-13.179947
1425492353.94,-8.349976
1425492353.955,0.15892029
1425492353.971,10.695557
1425492353.987,20.845688
1425492354.002,28.389908
1425492354.018,32.111923
1425492354.033,32.225677
1425492354.049,30.095306
1425492354.065,27.573349
1425492354.08,26.219833
1425492354.096,26.733032
1425492354.112,28.866745
1425492354.127,31.700577
1425492354.143,34.071304
1425492354.158,35.067
1425492354.174,34.168762
1425492354.19,31.396683
1425492354.205,27.194214
1425492354.221,22.348053
1425492354.237,17.77211
1425492354.252,14.299454
1425492354.268,12.418411
1425492354.283,12.118286
1425492354.299,12.85717
1425492354.315,13.731461
1425492354.33,13.845947
1425492354.346,12.592438
1425492354.362,9.829514
1425492354.377,5.8636475
1425492354.393,1.2089767
1425492354.408,-3.6773682
1425492354.424,-8.55442
1425492354.44,-13.377968
1425492354.455,-18.187286
1425492354.471,-22.824463
1425492354.487,-26.837433
1425492354.502,-29.505093
1425492354.518,-30.09214
1425492354.533,-28.148697
1425492354.549,-23.768745
1425492354.565,-17.58548
1425492354.58,-10.659121
1425492354.596,-4.148632
1425492354.612,0.95466614
1425492354.627,4.0205
1425492354.643,4.793312
1425492354.658,3.4631696
1425492354.674,0.57731843
1425492354.69,-2.9546003
1425492354.705,-6.1174345
1425492354.721,-7.91218
1425492354.737,-7.7228966
1425492354.752,-5.5340843
1425492354.768,-2.0536537
1425492354.783,1.4837112
1425492354.799,3.699585
1425492354.815,3.6067696
1425492354.83,1.0022087
1425492354.846,-3.371601
1425492354.862,-8.085022
1425492354.877,-11.477585
1425492354.893,-12.217575
1425492354.908,-9.746483
1425492354.924,-4.445122
1425492354.94,2.5474014
1425492354.955,9.630341
1425492354.971,15.21785
1425492354.987,18.15245
1425492355.002,18.058693
1425492355.018,15.390236
1425492355.033,11.239403
1425492355.049,6.939209
1425492355.065,3.5224
1425492355.08,1.3829346
1425492355.096,0.16127014
1425492355.112,-0.9540863
1425492355.127,-2.84346
1425492355.143,-6.0758057
1425492355.158,-10.803513
1425492355.174,-16.794983
1425492355.19,-23.612778
1425492355.205,-30.792648
1425492355.221,-37.868668
1425492355.237,-44.41304
1425492355.252,-50.01883
1425492355.268,-54.3741
1425492355.283,-57.316055
1425492355.299,-58.837387
1425492355.315,-59.032578
1425492355.33,-58.023376
1425492355.346,-55.911545
1425492355.362,-52.849304
1425492355.377,-49.06732
1425492355.393,-45.00406
1425492355.408,-41.237335
1425492355.424,-38.390106
1425492355.44,-36.93907
1425492355.455,-37.12007
1425492355.471,-38.810425
1425492355.487,-41.576035
1425492355.502,-44.706024
1425492355.518,-47.39789
1425492355.534,-48.902023
1425492355.549,-48.72232
1425492355.565,-46.763
1425492355.58,-43.31656
1425492355.596,-38.948715
1425492355.612,-34.29396
1425492355.627,-29.830994
1425492355.643,-25.841568
1425492355.659,-22.485031
1425492355.674,-19.935257
1425492355.69,-18.401352
1425492355.705,-18.075562
1425492355.721,-18.882126
1425492355.737,-20.32985
1425492355.752,-21.563004
1425492355.768,-21.606216
1425492355.784,-19.702805
1425492355.799,-15.61853
1425492355.815,-9.732956
1425492355.83,-2.885559
1425492355.846,3.8374329
1425492355.862,9.352707
1425492355.877,12.906586
1425492355.893,14.170059
1425492355.909,13.353912
1425492355.924,11.056274
1425492355.94,8.067871
1425492355.955,5.0150757
1425492355.971,2.140564
1425492355.987,-0.6860199
1425492356.002,-3.7279205
1425492356.018,-7.1199036
1425492356.034,-10.637451
1425492356.049,-13.815704
1425492356.065,-16.13942
1425492356.08,-17.35347
1425492356.096,-17.566177
1425492356.112,-17.18541
1425492356.127,-16.685501
1425492356.143,-16.400192
1425492356.159,-16.322006
1425492356.174,-16.087997
1425492356.19,-14.992493
1425492356.205,-12.232849
1425492356.221,-7.157486
1425492356.237,0.38102722
1425492356.252,9.806305
1425492356.268,19.792908
1425492356.284,28.553314
1425492356.299,34.382095
1425492356.315,36.166
1425492356.33,33.804688
1425492356.346,28.14563
1425492356.362,20.615662
1425492356.377,12.709549
1425492356.393,5.520813
1425492356.409,-0.4058838
1425492356.424,-5.0269775
1425492356.44,-8.593765
1425492356.455,-11.509644
1425492356.471,-14.233948
1425492356.487,-17.228653
1425492356.502,-20.762146
1425492356.518,-24.750458
1425492356.534,-28.523483
1425492356.549,-31.017075
1425492356.565,-31.085968
1425492356.58,-28.112106
1425492356.596,-22.362808
1425492356.612,-15.031189
1425492356.627,-7.857071
1425492356.643,-2.5118256
1425492356.659,0.05633545
1425492356.674,-0.09667206
1425492356.69,-1.8536148
1425492356.705,-3.4324112
1425492356.721,-2.9196472
1425492356.737,1.1219864
1425492356.752,9.152626
1425492356.768,20.562492
1425492356.784,33.759354
1425492356.799,46.7203
1425492356.815,57.500984
1425492356.83,64.72392
1425492356.846,67.78194
1425492356.862,66.82961
1425492356.877,62.59211
1425492356.893,56.11708
1425492356.909,48.574974
1425492356.924,40.971825
1425492356.94,33.974525
1425492356.955,27.754875
1425492356.971,22.133148
1425492356.987,16.733833
1425492357.002,11.3027115
1425492357.018,5.7625656
1425492357.034,0.13264465
1425492357.049,-5.6066895
1425492357.065,-11.633766
1425492357.08,-18.164177
1425492357.096,-25.299332
1425492357.112,-32.816734
1425492357.127,-40.22426
1425492357.143,-46.94114
1425492357.159,-52.41639
1425492357.174,-56.254868
1425492357.19,-58.067307
1425492357.205,-57.479424
1425492357.221,-54.09503
1425492357.237,-47.791008
1425492357.252,-38.970398
1425492357.268,-28.647827
1425492357.284,-18.256104
1425492357.299,-9.1230545
1425492357.315,-2.0429764
1425492357.33,2.876236
1425492357.346,6.137123
1425492357.362,8.500961
1425492357.377,10.695137
1425492357.393,13.329464
1425492357.409,16.82145
1425492357.424,21.372509
1425492357.44,26.844807
1425492357.455,32.600826
1425492357.471,37.608253
1425492357.487,40.76051
1425492357.502,41.46181
1425492357.518,40.00664
1425492357.534,37.59176
1425492357.549,35.788795
1425492357.565,35.761433
1425492357.58,37.589016
1425492357.596,40.142128
1425492357.612,41.536335
1425492357.627,39.971012
1425492357.643,34.49307
1425492357.659,25.451324
1425492357.674,14.36047
1425492357.69,3.4340248
1425492357.705,-5.153038
1425492357.721,-9.842365
1425492357.737,-10.075912
1425492357.752,-6.3504677
1425492357.768,0.011928558
1425492357.784,7.2291603
1425492357.799,13.519535
1425492357.815,17.519028
1425492357.83,18.49469
1425492357.846,16.479153
1425492357.862,12.121952
1425492357.877,6.4859047
1425492357.893,0.7370491
1425492357.909,-4.1318054
1425492357.924,-7.5356026
1425492357.94,-9.3433
1425492357.955,-9.87677
1425492357.971,-9.770809
1425492357.987,-9.77758
1425492358.002,-10.539558
1425492358.018,-12.457684
1425492358.034,-15.566254
1425492358.049,-19.530094
1425492358.065,-23.772087
1425492358.08,-27.719242
1425492358.096,-31.069504
1425492358.112,-33.99745
1425492358.127,-37.043877
1425492358.143,-40.81989
1425492358.159,-45.536507
1425492358.174,-50.70871
1425492358.19,-55.123417
1425492358.206,-57.265118
1425492358.221,-55.876354
1425492358.237,-50.557438
1425492358.252,-41.95602
1425492358.268,-31.670746
1425492358.284,-21.700958
1425492358.299,-13.903969
1425492358.315,-9.413719
1425492358.331,-8.368492
1425492358.346,-9.87097
1425492358.362,-12.236513
1425492358.377,-13.46349
1425492358.393,-11.904217
1425492358.409,-6.869875
1425492358.424,1.0436077
1425492358.44,10.174719
1425492358.456,18.445389
1425492358.471,24.265724
1425492358.487,27.299515
1425492358.502,28.590622
1425492358.518,30.109093
1425492358.534,33.813965
1425492358.549,40.76977
1425492358.565,50.583805
1425492358.581,61.551792
1425492358.596,71.24507
1425492358.612,77.40291
1425492358.627,78.74873
1425492358.643,75.34531
1425492358.659,68.58463
1425492358.674,60.61491
1425492358.69,53.653465
1425492358.706,49.28682
1425492358.721,48.078766
1425492358.737,49.519882
1425492358.752,52.36708
1425492358.768,55.04286
1425492358.784,56.13437
1425492358.799,54.653305
1425492358.815,50.261463
1425492358.831,43.27631
1425492358.846,34.626064
1425492358.862,25.595316
1425492358.877,17.540724
1425492358.893,11.4806
1425492358.909,7.7933292
1425492358.924,6.0911484
1425492358.94,5.3487663
1425492358.956,4.2267685
1425492358.971,1.4470711
1425492358.987,-3.8557243
1425492359.002,-11.892544
1425492359.018,-22.231428
1425492359.034,-33.921665
1425492359.049,-45.767704
1425492359.065,-56.6681
1425492359.081,-65.85417
1425492359.096,-72.98784
1425492359.112,-78.03223
1425492359.127,-81.02328
1425492359.143,-81.92372
1425492359.159,-80.595474
1425492359.174,-77.00466
1425492359.19,-71.39407
1425492359.206,-64.31761
1425492359.221,-56.551327
1425492359.237,-48.78632
1425492359.252,-41.40666
1425492359.268,-34.526875
1425492359.284,-28.03407
1425492359.299,-21.86242
1425492359.315,-16.053173
1425492359.331,-10.771126
1425492359.346,-6.1842117
1425492359.362,-2.3891563
1425492359.377,0.61460876
1425492359.393,2.8848152
1425492359.409,4.596077
1425492359.424,6.135193
1425492359.44,8.18367
1425492359.456,11.635174
1425492359.471,17.215755
1425492359.487,25.001968
1425492359.502,34.055798
1425492359.518,42.479893
1425492359.534,47.99993
1425492359.549,48.795643
1425492359.565,44.373676
1425492359.581,35.881477
1425492359.596,25.772652
1425492359.612,16.901066
1425492359.627,11.521099
1425492359.643,10.473091
1425492359.659,13.10331
1425492359.674,17.635624
1425492359.69,21.997135
1425492359.706,24.598068
1425492359.721,24.830502
1425492359.737,23.074585
1425492359.752,20.496716
1425492359.768,18.44917
1425492359.784,18.008156
1425492359.799,19.535534
1425492359.815,22.55679
1425492359.831,25.877838
1425492359.846,27.934952
1425492359.862,27.38736
1425492359.877,23.605045
1425492359.893,16.891388
1425492359.909,8.396973
1425492359.924,-0.31484222
1425492359.94,-7.852005
1425492359.956,-13.441589
1425492359.971,-17.081955
1425492359.987,-19.388855
1425492360.002,-21.168053
1425492360.018,-23.019867
1425492360.034,-25.044254
1425492360.049,-26.90982
1425492360.065,-28.103893
1425492360.081,-28.25964
1425492360.096,-27.309502
1425492360.112,-25.457184
1425492360.127,-22.95327
1425492360.143,-19.858349
1425492360.159,-15.940262
1425492360.174,-10.876389
1425492360.19,-4.514904
1425492360.206,2.7913284
1425492360.221,10.143173
1425492360.237,16.26612
1425492360.252,20.042572
1425492360.268,20.96576
1425492360.284,19.596321
1425492360.299,17.465363
1425492360.315,16.72551
1425492360.331,19.365372
1425492360.346,26.391754
1425492360.362,37.238686
1425492360.377,49.76467
1425492360.393,60.814804
1425492360.409,67.248856
1425492360.424,67.04737
1425492360.44,60.055542
1425492360.456,48.090866
1425492360.471,34.25985
1425492360.487,21.909828
1425492360.502,13.52565
1425492360.518,10.061821
1425492360.534,10.828758
1425492360.549,13.921524
1425492360.565,16.986153
1425492360.581,17.996132
1425492360.596,15.842857
1425492360.612,10.566452
1425492360.627,3.2693405
1425492360.643,-4.327591
1425492360.659,-10.423065
1425492360.674,-13.787674
1425492360.69,-14.11702
1425492360.706,-12.16069
1425492360.721,-9.373123
1425492360.737,-7.353714
1425492360.752,-7.2360687
1425492360.768,-9.353607
1425492360.784,-13.226135
1425492360.799,-17.926544
1425492360.815,-22.550888
1425492360.831,-26.565842
1425492360.846,-29.887207
1425492360.862,-32.70819
1425492360.878,-35.255005
1425492360.893,-37.599213
1425492360.909,-39.57202
1425492360.924,-40.873734
1425492360.94,-41.180817
1425492360.956,-40.187347
1425492360.971,-37.643173
1425492360.987,-33.385513
1425492361.002,-27.45848
1425492361.018,-20.222168
1425492361.034,-12.368851
1425492361.049,-4.907654
1425492361.065,1.1062622
1425492361.081,4.939209
1425492361.096,6.5025177
1425492361.112,6.513382
1425492361.128,6.334854
1425492361.143,7.5103607
1425492361.159,11.181717
1425492361.174,17.544907
1425492361.19,25.673126
1425492361.206,33.706116
1425492361.221,39.50493
1425492361.237,41.45642
1425492361.253,39.11406
1425492361.268,33.38144
1425492361.284,26.228806
1425492361.299,19.89177
1425492361.315,16.035477
1425492361.331,15.121597
1425492361.346,16.320267
1425492361.362,17.891449
1425492361.378,17.910507
1425492361.393,14.911346
1425492361.409,8.412964
1425492361.424,-0.9662323
1425492361.44,-11.7881775
1425492361.456,-22.245667
1425492361.471,-30.715393
1425492361.487,-36.220856
1425492361.503,-38.636627
1425492361.518,-38.584503
1425492361.534,-37.06064
1425492361.549,-35.093597
1425492361.565,-33.45514
1425492361.581,-32.60843
1425492361.596,-32.732574
1425492361.612,-33.869354
1425492361.628,-35.88443
1425492361.643,-38.530396
1425492361.659,-41.390503
1425492361.674,-43.999268
1425492361.69,-45.90497
1425492361.706,-46.7659
1425492361.721,-46.34262
1425492361.737,-44.417114
1425492361.753,-40.75479
1425492361.768,-35.159973
1425492361.784,-27.632874
1425492361.799,-18.494598
1425492361.815,-8.407257
1425492361.831,1.7354736
1425492361.846,11.005493
1425492361.862,18.611145
1425492361.878,23.96524
1425492361.893,26.716095
1425492361.909,26.882568
1425492361.924,24.976227
1425492361.94,22.055634
1425492361.956,19.627838
1425492361.971,19.253418
1425492361.987,22.018982
1425492362.003,28.07373
1425492362.018,36.42163
1425492362.034,45.169525
1425492362.049,52.043488
1425492362.065,55.10611
1425492362.081,53.370758
1425492362.096,47.15799
1425492362.112,38.067932
1425492362.128,28.515167
1425492362.143,21.027618
1425492362.159,17.486786
1425492362.174,18.567871
1425492362.19,23.576508
1425492362.206,30.757172
1425492362.221,37.89386
1425492362.237,42.931488
1425492362.253,44.56024
1425492362.268,42.352448
1425492362.284,36.761963
1425492362.299,28.777527
1425492362.315,19.62384
1425492362.331,10.422913
1425492362.346,1.8303833
1425492362.362,-6.023651
1425492362.378,-13.551819
1425492362.393,-21.457764
1425492362.409,-30.38858
1425492362.424,-40.60669
1425492362.44,-51.83438
1425492362.456,-63.320404
1425492362.471,-74.09915
1425492362.487,-83.32193
1425492362.503,-90.546234
1425492362.518,-95.86957
1425492362.534,-99.75534
1425492362.549,-102.78299
1425492362.565,-105.266205
1425492362.581,-107.02838
1425492362.596,-107.44556
1425492362.612,-105.68704
1425492362.628,-101.13556
1425492362.643,-93.75806
1425492362.659,-84.22092
1425492362.674,-73.66022
1425492362.69,-63.29883
1425492362.706,-54.032837
1425492362.721,-46.207367
1425492362.737,-39.65912
1425492362.753,-33.934082
1425492362.768,-28.526337
1425492362.784,-23.035248
1425492362.799,-17.2641
1425492362.815,-11.204376
1425492362.831,-5.089966
1425492362.846,0.68466187
1425492362.862,5.5944824
1425492362.878,9.245758
1425492362.893,11.50769
1425492362.909,12.63269
1425492362.924,13.203766
1425492362.94,13.959076
1425492362.956,15.59137
1425492362.971,18.482208
1425492362.987,22.569733
1425492363.003,27.285583
1425492363.018,31.69342
1425492363.034,34.740265
1425492363.049,35.680878
1425492363.065,34.404144
1425492363.081,31.5513
1425492363.096,28.318756
1425492363.112,25.971893
1425492363.128,25.375427
1425492363.143,26.64
1425492363.159,29.154205
1425492363.174,31.844803
1425492363.19,33.638794
1425492363.206,33.741455
1425492363.221,31.813644
1425492363.237,28.015274
1425492363.253,22.894333
1425492363.268,17.208221
1425492363.284,11.732239
1425492363.299,7.0644684
1425492363.315,3.5006561
1425492363.331,1.048645
1425492363.346,-0.4640503
1425492363.362,-1.2400665
1425492363.378,-1.4712067
1425492363.393,-1.3739777
1425492363.409,-1.1959229
1425492363.424,-1.2054443
1425492363.44,-1.6161499
1425492363.456,-2.5295105
1425492363.471,-3.922409
1425492363.487,-5.756592
1425492363.503,-8.0896
1425492363.518,-11.0699005
1425492363.534,-14.809525
1425492363.55,-19.185394
1425492363.565,-23.74112
1425492363.581,-27.720078
1425492363.596,-30.380661
1425492363.612,-31.287659
1425492363.628,-30.55783
1425492363.643,-28.830536
1425492363.659,-27.017883
1425492363.674,-25.974197
1425492363.69,-26.184372
1425492363.706,-27.61081
1425492363.721,-29.744339
1425492363.737,-31.770103
1425492363.753,-32.75432
1425492363.768,-31.919662
1425492363.784,-28.836617
1425492363.8,-23.521004
1425492363.815,-16.542702
1425492363.831,-8.880104
1425492363.846,-1.726448
1425492363.862,3.8669815
1425492363.878,7.4489594
1425492363.893,9.286247
1425492363.909,10.327225
1425492363.925,11.773941
1425492363.94,14.559761
1425492363.956,18.894897
1425492363.971,24.211739
1425492363.987,29.314606
1425492364.003,32.85898
1425492364.018,33.76505
1425492364.034,31.56131
1425492364.05,26.494541
1425492364.065,19.53447
1425492364.081,12.172184
1425492364.096,6.103771
1425492364.112,2.7609558
1425492364.128,2.9193268
1425492364.143,6.434948
1425492364.159,12.319616
1425492364.175,19.15141
1425492364.19,25.561096
1425492364.206,30.539215
1425492364.221,33.64322
1425492364.237,34.808662
1425492364.253,34.18257
1425492364.268,31.964794
1425492364.284,28.405516
1425492364.3,23.819387
1425492364.315,18.618036
1425492364.331,13.2761755
1425492364.346,8.28219
1425492364.362,4.0046864
1425492364.378,0.67661095
1425492364.393,-1.6936474
1425492364.409,-3.2103348
1425492364.425,-4.0985546
1425492364.44,-4.59622
1425492364.456,-4.951393
1425492364.471,-5.4261055
1425492364.487,-6.424137
1425492364.503,-8.41222
1425492364.518,-11.839905
1425492364.534,-16.81065
1425492364.55,-22.82793
1425492364.565,-28.678066
1425492364.581,-32.719288
1425492364.596,-33.39999
1425492364.612,-29.903778
1425492364.628,-22.51764
1425492364.643,-12.671112
1425492364.659,-2.5127487
1425492364.675,5.7526245
1425492364.69,10.546852
1425492364.706,11.311508
1425492364.721,8.667
1425492364.737,4.129837
1425492364.753,-0.33865356
1425492364.768,-2.9086075
1425492364.784,-2.32016
1425492364.8,1.8314896
1425492364.815,8.95932
1425492364.831,17.622742
1425492364.846,25.882309
1425492364.862,31.795486
1425492364.878,34.115013
1425492364.893,32.688255
1425492364.909,28.628052
1425492364.925,23.960472
1425492364.94,20.827621
1425492364.956,20.652542
1425492364.971,23.532959
1425492364.987,28.19104
1425492365.003,32.42318
1425492365.018,33.858345
1425492365.034,30.816483
1425492365.05,22.859558
1425492365.065,11.0469055
1425492365.081,-2.266861
1425492365.096,-14.057846
1425492365.112,-21.441223
1425492365.128,-22.563202
1425492365.143,-17.17395
1425492365.159,-6.743225
1425492365.175,6.017929
1425492365.19,18.07193
1425492365.206,26.979279
1425492365.221,31.465927
1425492365.237,31.648315
1425492365.253,28.714844
1425492365.268,24.397171
1425492365.284,20.382324
1425492365.3,17.903534
1425492365.315,17.432556
1425492365.331,18.671982
1425492365.346,20.764954
1425492365.362,22.672058
1425492365.378,23.665955
1425492365.393,23.499878
1425492365.409,22.381653
1425492365.425,20.664932
1425492365.44,18.495453
1425492365.456,15.625305
1425492365.471,11.497757
1425492365.487,5.619858
1425492365.503,-2.1175385
1425492365.518,-11.282684
1425492365.534,-20.95166
1425492365.55,-29.971848
1425492365.565,-37.2619
1425492365.581,-42.0298
1425492365.596,-43.863907
1425492365.612,-42.74257
1425492365.628,-39.04126
1425492365.643,-33.534363
1425492365.659,-27.23468
1425492365.675,-21.26323
1425492365.69,-16.632874
1425492365.706,-13.870407
1425492365.721,-12.924484
1425492365.737,-13.058807
1425492365.753,-13.0542145
1425492365.768,-11.588501
1425492365.784,-7.697235
1425492365.8,-1.2169647
1425492365.815,7.102249
1425492365.831,15.625229
1425492365.846,22.367676
1425492365.862,25.627396
1425492365.878,24.66777
1425492365.893,20.077454
1425492365.909,13.673325
1425492365.925,7.968048
1425492365.94,5.295395
1425492365.956,7.009033
1425492365.971,12.994217
1425492365.987,21.704178
1425492366.003,30.632797
1425492366.018,37.093277
1425492366.034,38.986786
1425492366.05,35.411255
1425492366.065,26.885254
1425492366.081,15.216797
1425492366.096,3.0269623
1425492366.112,-6.9683228
1425492366.128,-12.621109
1425492366.143,-12.976257
1425492366.159,-8.384354
1425492366.175,-0.40522766
1425492366.19,8.749786
1425492366.206,16.835709
1425492366.221,22.045898
1425492366.237,23.404022
1425492366.253,20.856262
1425492366.268,15.139755
1425492366.284,7.6187286
1425492366.3,-0.11090088
1425492366.315,-6.499344
1425492366.331,-10.481934
1425492366.346,-11.660645
1425492366.362,-10.383057
1425492366.378,-7.5233
1425492366.393,-4.228424
1425492366.409,-1.511673
1425492366.425,-0.025772095
1425492366.44,-0.03227234
1425492366.456,-1.4371033
1425492366.472,-4.009369
1425492366.487,-7.497238
1425492366.503,-11.708603
1425492366.518,-16.548935
1425492366.534,-21.959503
1425492366.55,-27.856857
1425492366.565,-34.01999
1425492366.581,-39.93434
1425492366.597,-44.80818
1425492366.612,-47.71997
1425492366.628,-47.904984
1425492366.643,-45.13095
1425492366.659,-39.858948
1425492366.675,-33.169083
1425492366.69,-26.357666
1425492366.706,-20.45427
1425492366.722,-15.901215
1425492366.737,-12.559967
1425492366.753,-9.987839
1425492366.768,-7.7676544
1425492366.784,-5.796173
1425492366.8,-4.2274017
1425492366.815,-3.3168945
1425492366.831,-3.1876373
1425492366.847,-3.6628418
1425492366.862,-4.2648315
1425492366.878,-4.1873627
1425492366.893,-2.48378
1425492366.909,1.6515656
1425492366.925,8.585449
1425492366.94,17.954285
1425492366.956,28.572128
1425492366.972,38.66884
1425492366.987,46.279922
1425492367.003,49.85219
1425492367.018,48.661835
1425492367.034,43.135696
1425492367.05,34.826202
1425492367.065,26.068298
1425492367.081,19.375778
1425492367.097,16.749985
1425492367.112,19.003021
1425492367.128,25.475983
1425492367.143,34.205566
1425492367.159,42.54904
1425492367.175,48.004883
1425492367.19,48.95746
1425492367.206,44.950653
1425492367.222,36.66382
1425492367.237,25.601227
1425492367.253,13.665131
1425492367.268,2.8164063
1425492367.284,-5.2439575
1425492367.3,-9.473419
1425492367.315,-9.6822815
1425492367.331,-6.673767
1425492367.347,-1.9785767
1425492367.362,2.5511475
1425492367.378,5.304077
1425492367.393,5.336548
1425492367.409,2.5508423
1425492367.425,-2.4135437
1425492367.44,-8.495239
1425492367.456,-14.654877
1425492367.472,-20.17035
1425492367.487,-24.920654
1425492367.503,-29.279114
1425492367.518,-33.8649
1425492367.534,-39.045074
1425492367.55,-44.631622
1425492367.565,-49.789246
1425492367.581,-53.36783
1425492367.597,-54.44693
1425492367.612,-52.841095
1425492367.628,-49.227722
1425492367.643,-44.8909
1425492367.659,-41.10074
1425492367.675,-38.640594
1425492367.69,-37.464386
1425492367.706,-36.83075
1425492367.722,-35.71945
1425492367.737,-33.31256
1425492367.753,-29.390594
1425492367.768,-24.428925
1425492367.784,-19.385742
1425492367.8,-15.30896
1425492367.815,-12.826843
1425492367.831,-11.747162
1425492367.847,-11.086548
1425492367.862,-9.309265
1425492367.878,-4.858795
1425492367.893,3.1265259
1425492367.909,14.488159
1425492367.925,27.89331
1425492367.94,41.265076
1425492367.956,52.343353
1425492367.972,59.505707
1425492367.987,62.253754
1425492368.003,61.364716
1425492368.018,58.499847
1425492368.034,55.630554
1425492368.05,54.30774
1425492368.065,55.26175
1425492368.081,58.316803
1425492368.097,62.60849
1425492368.112,66.957184
1425492368.128,70.11615
1425492368.143,70.98074
1425492368.159,68.85074
1425492368.175,63.554504
1425492368.19,55.67581
1425492368.206,46.512238
1425492368.222,37.84732
1425492368.237,31.39151
1425492368.253,28.238953
1425492368.268,28.44806
1425492368.284,31.143951
1425492368.3,34.76822
1425492368.315,37.656372
1425492368.331,38.51306
1425492368.347,36.710846
1425492368.362,32.314484
1425492368.378,25.982086
1425492368.393,18.695038
1425492368.409,11.495239
1425492368.425,5.273285
1425492368.44,0.6944275
1425492368.456,-1.8919067
1425492368.472,-2.3760376
1425492368.487,-0.86502075
1425492368.503,2.2824402
1425492368.518,6.409912
1425492368.534,10.606049
1425492368.55,13.84729
1425492368.565,15.247437
1425492368.581,14.18985
1425492368.597,10.437622
1425492368.612,4.0980225
1425492368.628,-4.440613
1425492368.643,-14.517303
1425492368.659,-24.967712
1425492368.675,-34.12027
1425492368.69,-39.92119
1425492368.706,-40.500458
1425492368.722,-34.89647
1425492368.737,-23.649323
1425492368.753,-8.911713
1425492368.768,6.101486
1425492368.784,18.179764
1425492368.8,25.207916
1425492368.815,26.971008
1425492368.831,25.082138
1425492368.847,22.2518
1425492368.862,21.151718
1425492368.878,23.337051
1425492368.893,28.756516
1425492368.909,35.974274
1425492368.925,42.853058
1425492368.94,47.50064
1425492368.956,48.864075
1425492368.972,46.93358
1425492368.987,42.56726
1425492369.003,37.070404
1425492369.018,31.73944
1425492369.034,27.517746
1425492369.05,24.73497
1425492369.065,23.079956
1425492369.081,21.641495
1425492369.097,19.198273
1425492369.112,14.765526
1425492369.128,8.061455
1425492369.144,-0.27785492
1425492369.159,-8.876816
1425492369.175,-16.226097
1425492369.19,-21.337158
1425492369.206,-24.202057
1425492369.222,-25.806465
1425492369.237,-27.56385
1425492369.253,-30.66243
1425492369.269,-35.42005
1425492369.284,-41.059586
1425492369.3,-46.03856
1425492369.315,-48.690083
1425492369.331,-47.940365
1425492369.347,-43.7932
1425492369.362,-37.31964
1425492369.378,-30.15167
1425492369.394,-23.858942
1425492369.409,-19.304213
1425492369.425,-16.457066
1425492369.44,-14.521498
1425492369.456,-12.398722
1425492369.472,-9.143326
1425492369.487,-4.287911
1425492369.503,2.0666676
1425492369.519,9.216547
1425492369.534,16.03773
1425492369.55,21.239687
1425492369.565,23.78804
1425492369.581,23.336168
1425492369.597,20.521107
1425492369.612,16.837917
1425492369.628,14.102802
1425492369.644,13.656979
1425492369.659,15.7446785
1425492369.675,19.305809
1425492369.69,22.438515
1425492369.706,23.20028
1425492369.722,20.409286
1425492369.737,14.113617
1425492369.753,5.5904007
1425492369.769,-3.197136
1425492369.784,-10.270645
1425492369.8,-14.259933
1425492369.815,-14.809525
1425492369.831,-12.625198
1425492369.847,-9.16217
1425492369.862,-6.098854
1425492369.878,-4.7887115
1425492369.894,-5.8209686
1425492369.909,-8.955215
1425492369.925,-13.292969
1425492369.94,-17.732788
1425492369.956,-21.39389
1425492369.972,-23.919373
1425492369.987,-25.518173
1425492370.003,-26.805695
1425492370.019,-28.539948
1425492370.034,-31.202286
1425492370.05,-34.76773
1425492370.065,-38.526184
1425492370.081,-41.301056
1425492370.097,-41.79048
1425492370.112,-39.17508
1425492370.128,-33.47261
1425492370.144,-25.66716
1425492370.159,-17.3387
1425492370.175,-10.116943
1425492370.19,-4.9960938
1425492370.206,-2.037613
1425492370.222,-0.42097473
1425492370.237,1.0690002
1425492370.253,3.4674835
1425492370.269,7.159317
1425492370.284,11.669174
1425492370.3,15.896988
1425492370.315,18.52414
1425492370.331,18.45401
1425492370.347,15.216187
1425492370.362,9.198364
1425492370.378,1.6363678
1425492370.394,-5.6527557
1425492370.409,-10.759369
1425492370.425,-12.247131
1425492370.44,-9.633575
1425492370.456,-3.6548157
1425492370.472,3.91745
1425492370.487,10.762085
1425492370.503,14.773529
1425492370.519,14.694
1425492370.534,10.522766
1425492370.55,3.506134
1425492370.565,-4.300232
1425492370.581,-10.729919
1425492370.597,-14.174377
1425492370.612,-14.118378
1425492370.628,-11.201599
1425492370.644,-6.946289
1425492370.659,-3.152832
1425492370.675,-1.3251953
1425492370.69,-2.1626587
1425492370.706,-5.556061
1425492370.722,-10.660095
1425492370.737,-16.349762
1425492370.753,-21.639954
1425492370.769,-25.966827
1425492370.784,-29.364655
1425492370.8,-32.35446
1425492370.815,-35.566315
1425492370.831,-39.426483
1425492370.847,-43.923584
1425492370.862,-48.58072
1425492370.878,-52.626526
1425492370.894,-55.310944
1425492370.909,-56.1463
1425492370.925,-54.993988
1425492370.94,-51.98169
1425492370.956,-47.42447
1425492370.972,-41.7323
1425492370.987,-35.458893
1425492371.003,-29.209564
1425492371.019,-23.58133
1425492371.034,-18.991272
1425492371.05,-15.489197
1425492371.065,-12.820587
1425492371.081,-10.564545
1425492371.097,-8.361176
1425492371.112,-6.0328674
1425492371.128,-3.6056519
1425492371.144,-1.1744385
1425492371.159,1.2844849
1425492371.175,3.8353271
1425492371.19,6.6155396
1425492371.206,9.606018
1425492371.222,12.589661
1425492371.237,15.081482
1425492371.253,16.407959
1425492371.269,15.8862
1425492371.284,13.146545
1425492371.3,8.310913
1425492371.315,2.1959534
1425492371.331,-3.802887
1425492371.347,-8.07193
1425492371.362,-9.373322
1425492371.378,-7.302246
1425492371.394,-2.5216675
1425492371.409,3.4760437
1425492371.425,8.888611
1425492371.44,12.2464905
1425492371.456,12.731384
1425492371.472,10.334961
1425492371.487,5.6085205
1425492371.503,-0.57333374
1425492371.519,-7.2842407
1425492371.534,-13.694885
1425492371.55,-19.131073
1425492371.565,-23.17212
1425492371.581,-25.713623
1425492371.597,-26.95642
1425492371.612,-27.341003
1425492371.628,-27.393341
1425492371.644,-27.649689
1425492371.659,-28.470673
1425492371.675,-30.089508
1425492371.69,-32.654022
1425492371.706,-36.219666
1425492371.722,-40.76059
1425492371.737,-46.123383
1425492371.753,-52.000122
1425492371.769,-57.949493
1425492371.784,-63.39444
1425492371.8,-67.69336
1425492371.816,-70.2099
1425492371.831,-70.397064
1425492371.847,-67.90576
1425492371.862,-62.711517
1425492371.878,-55.21521
1425492371.894,-46.22644
1425492371.909,-36.780792
1425492371.925,-27.9617
1425492371.941,-20.500458
1425492371.956,-14.700958
1425492371.972,-10.35791
1425492371.987,-6.953369
1425492372.003,-3.7980347
1425492372.019,-0.28025818
1425492372.034,4.043396
1425492372.05,9.360245
1425492372.066,15.451065
1425492372.081,21.657227
1425492372.097,26.945663
1425492372.112,30.246948
1425492372.128,30.969345
1425492372.144,29.374329
1425492372.159,26.642258
1425492372.175,24.530975
1425492372.191,24.686417
1425492372.206,27.959457
1425492372.222,34.090958
1425492372.237,41.80789
1425492372.253,49.266983
1425492372.269,54.59056
1425492372.284,56.370575
1425492372.3,53.9377
1425492372.316,47.638153
1425492372.331,38.759033
1425492372.347,29.305374
1425492372.362,21.485443
1425492372.378,17.049133
1425492372.394,16.700058
1425492372.409,19.878815
1425492372.425,24.993042
1425492372.441,30.002075
1425492372.456,33.088013
1425492372.472,33.175354
1425492372.487,30.142242
1425492372.503,24.761627
1425492372.519,18.378204
1425492372.534,12.505875
1425492372.55,8.314606
1425492372.566,6.3348236
1425492372.581,6.2628937
1425492372.597,7.0895233
1425492372.612,7.542366
1425492372.628,6.6034775
1425492372.644,3.8794022
1425492372.659,-0.24829102
1425492372.675,-4.8755264
1425492372.691,-8.951042
1425492372.706,-11.7890625
1425492372.722,-13.348938
1425492372.737,-14.254189
1425492372.753,-15.516739
1425492372.769,-18.069214
1425492372.784,-22.209679
1425492372.8,-27.383232
1425492372.816,-32.22505
1425492372.831,-35.003494
1425492372.847,-34.284676
1425492372.862,-29.545265
1425492372.878,-21.331085
1425492372.894,-11.1469345
1425492372.909,-0.9541931
1425492372.925,7.411461
1425492372.941,12.730331
1425492372.956,14.621208
1425492372.972,13.547241
1425492372.987,10.610672
1425492373.003,7.2805862
1425492373.019,5.0389023
1425492373.034,5.1112976
1425492373.05,8.075073
1425492373.066,13.666546
1425492373.081,20.696972
1425492373.097,27.347256
1425492373.112,31.756275
1425492373.128,32.712368
1425492373.144,30.22593
1425492373.159,25.617668
1425492373.175,20.99065
1425492373.191,18.39074
1425492373.206,18.903957
1425492373.222,22.15939
1425492373.237,26.443016
1425492373.253,29.374481
1425492373.269,28.764957
1425492373.284,23.467178
1425492373.3,13.752518
1425492373.316,1.3454819
1425492373.331,-11.055225
1425492373.347,-20.45575
1425492373.362,-24.487953
1425492373.378,-22.057583
1425492373.394,-13.709438
1425492373.409,-1.4836998
1425492373.425,11.687035
1425492373.441,22.862858
1425492373.456,29.873106
1425492373.472,31.818407
1425492373.487,29.175028
1425492373.503,23.543993
1425492373.519,17.071436
1425492373.534,11.835201
1425492373.55,9.176714
1425492373.566,9.400034
1425492373.581,11.677925
1425492373.597,14.502684
1425492373.612,16.330858
1425492373.628,16.247957
1425492373.644,14.1817
1425492373.659,10.732798
1425492373.675,6.6988163
1425492373.691,2.5940228
1425492373.706,-1.5783405
1425492373.722,-6.1757584
1425492373.737,-11.598707
1425492373.753,-17.969275
1425492373.769,-25.03697
1425492373.784,-32.17151
1425492373.8,-38.591835
1425492373.816,-43.461525
1425492373.831,-46.090553
1425492373.847,-46.0222
1425492373.862,-43.196514
1425492373.878,-38.03078
1425492373.894,-31.417055
1425492373.909,-24.567669
1425492373.925,-18.67666
1425492373.941,-14.621973
1425492373.956,-12.704074
1425492373.972,-12.53885
1425492373.987,-13.216448
1425492374.003,-13.523912
1425492374.019,-12.323668
1425492374.034,-8.953585
1425492374.05,-3.626136
1425492374.066,2.591928
1425492374.081,8.015717
1425492374.097,11.042279
1425492374.112,10.879187
1425492374.128,8.0894375
1425492374.144,4.504141
1425492374.159,2.5450535
1425492374.175,4.1055183
1425492374.191,9.665197
1425492374.206,17.861069
1425492374.222,25.937847
1425492374.237,30.756725
1425492374.253,30.0063
1425492374.269,23.079515
1425492374.284,11.354021
1425492374.3,-2.2268639
1425492374.316,-14.057499
1425492374.331,-20.982645
1425492374.347,-21.205685
1425492374.362,-14.8246
1425492374.378,-3.6620579
1425492374.394,9.269169
1425492374.409,20.799475
1425492374.425,28.452091
1425492374.441,31.108677
1425492374.456,29.055603
1425492374.472,23.687431
1425492374.488,16.927399
1425492374.503,10.634998
1425492374.519,6.184616
1425492374.534,4.283268
1425492374.55,4.8508835
1425492374.566,7.2373543
1425492374.581,10.391151
1425492374.597,13.205608
1425492374.612,14.741253
1425492374.628,14.426586
1425492374.644,12.001389
1425492374.659,7.49419
1425492374.675,1.1245804
1425492374.691,-6.7148514
1425492374.706,-15.4794655
1425492374.722,-24.506973
1425492374.738,-33.11803
1425492374.753,-40.732304
1425492374.769,-46.997456
1425492374.784,-51.76908
1425492374.8,-55.00038
1425492374.816,-56.65779
1425492374.831,-56.706238
1425492374.847,-55.13279
1425492374.863,-52.102463
1425492374.878,-48.011368
1425492374.894,-43.51287
1425492374.909,-39.29541
1425492374.925,-35.9429
1425492374.941,-33.67565
1425492374.956,-32.264145
1425492374.972,-31.02343
1425492374.988,-29.065887
1425492375.003,-25.603935
1425492375.019,-20.316101
1425492375.034,-13.499748
1425492375.05,-6.051735
1425492375.066,0.91672516
1425492375.081,6.5202713
1425492375.097,10.510941
1425492375.113,13.334419
1425492375.128,15.975197
1425492375.144,19.429565
1425492375.159,24.230713
1425492375.175,30.13675
1425492375.191,36.18445
1425492375.206,40.979996
1425492375.222,43.287933
1425492375.238,42.48285
1425492375.253,38.863235
1425492375.269,33.575027
1425492375.284,28.207993
1425492375.3,24.273056
1425492375.316,22.70288
1425492375.331,23.492996
1425492375.347,25.74678
1425492375.363,27.985886
1425492375.378,28.653381
1425492375.394,26.600983
1425492375.409,21.578415
1425492375.425,14.277374
1425492375.441,6.1960144
1425492375.456,-0.80415344
1425492375.472,-5.08078
1425492375.488,-5.665161
1425492375.503,-2.5499268
1425492375.519,3.3453064
1425492375.534,10.492401
1425492375.55,17.169708
1425492375.566,21.907715
1425492375.581,23.7556
1425492375.597,22.41333
1425492375.613,18.146255
1425492375.628,11.659561
1425492375.644,3.8996124
1425492375.659,-4.0608826
1425492375.675,-11.179321
1425492375.691,-16.53183
1425492375.706,-19.532227
1425492375.722,-20.089981
1425492375.738,-18.67044
1425492375.753,-16.22438
1425492375.769,-13.8906555
1425492375.784,-12.570648
1425492375.8,-12.568588
1425492375.816,-13.439453
1425492375.831,-14.173218
1425492375.847,-13.643875
1425492375.863,-11.16774
1425492375.878,-6.8586884
1425492375.894,-1.7572174
1425492375.909,2.5450287
1425492375.925,4.454361
1425492375.941,2.9873352
1425492375.956,-1.6983795
1425492375.972,-8.239746
1425492375.988,-14.382385
1425492376.003,-17.6409
1425492376.019,-16.215118
1425492376.034,-9.6345215
1425492376.05,0.9194336
1425492376.066,13.0190735
1425492376.081,23.71811
1425492376.097,30.594757
1425492376.113,32.434814
1425492376.128,29.593903
1425492376.144,23.686005
1425492376.159,16.994751
1425492376.175,11.676636
1425492376.191,9.151276
1425492376.206,9.723602
1425492376.222,12.644592
1425492376.238,16.404236
1425492376.253,19.331116
1425492376.269,20.143219
1425492376.284,18.419739
1425492376.3,14.676697
1425492376.316,10.119202
1425492376.331,6.081482
1425492376.347,3.5740662
1425492376.363,2.906433
1425492376.378,3.730957
1425492376.394,5.393982
1425492376.409,7.337616
1425492376.425,9.386871
1425492376.441,11.805511
1425492376.456,15.039398
1425492376.472,19.316772
1425492376.488,24.329132
1425492376.503,29.229858
1425492376.519,32.80606
1425492376.534,33.94095
1425492376.55,31.975983
1425492376.566,27.023499
1425492376.581,19.89038
1425492376.597,11.935669
1425492376.613,4.617798
1425492376.628,-0.8742981
1425492376.644,-3.992035
1425492376.659,-4.9830933
1425492376.675,-4.7698364
1425492376.691,-4.4134216
1425492376.706,-4.6011963
1425492376.722,-5.0191956
1425492376.738,-4.2575073
1425492376.753,-0.31878662
1425492376.769,8.420746
1425492376.784,22.276764
1425492376.8,39.798584
1425492376.816,58.1055
1425492376.831,73.796326
1425492376.847,84.14755
1425492376.863,87.94644
1425492376.878,85.72159
1425492376.894,79.32172
1425492376.909,71.1752
1425492376.925,63.371735
1425492376.941,57.040924
1425492376.956,52.1485
1425492376.972,47.697235
1425492376.988,42.322052
1425492377.003,34.99649
1425492377.019,25.529083
1425492377.034,14.736969
1425492377.05,4.0941467
1425492377.066,-4.788574
1425492377.081,-10.77507
1425492377.097,-13.491913
1425492377.113,-13.322693
1425492377.128,-11.127594
1425492377.144,-7.8809357
1425492377.159,-4.4869385
1425492377.175,-1.7259674
1425492377.191,-0.16505432
1425492377.206,-0.21205139
1425492377.222,-2.0181122
1425492377.238,-5.370285
1425492377.253,-9.699142
1425492377.269,-14.161026
1425492377.284,-17.831482
1425492377.3,-19.956848
1425492377.316,-20.15329
1425492377.331,-18.562714
1425492377.347,-15.776749
1425492377.363,-12.636154
1425492377.378,-9.812195
1425492377.394,-7.5655823
1425492377.41,-5.4891663
1425492377.425,-2.6734314
1425492377.441,1.8989716
1425492377.456,8.8506775
1425492377.472,17.948105
1425492377.488,28.01062
1425492377.503,37.092987
1425492377.519,43.139816
1425492377.535,44.737152
1425492377.55,41.696136
1425492377.566,35.296997
1425492377.581,27.887802
1425492377.597,22.089409
1425492377.613,19.796333
1425492377.628,21.45668
1425492377.644,25.944565
1425492377.66,31.165497
1425492377.675,34.887352
1425492377.691,35.6643
1425492377.706,33.236374
1425492377.722,28.390957
1425492377.738,22.505264
1425492377.753,16.971157
1425492377.769,12.755959
1425492377.785,10.299015
1425492377.8,9.478588
1425492377.816,9.730015
1425492377.831,10.152044
1425492377.847,9.752158
1425492377.863,7.700658
1425492377.878,3.6011167
1425492377.894,-2.304017
1425492377.91,-9.227194
1425492377.925,-16.108498
1425492377.941,-22.06512
1425492377.956,-26.74656
1425492377.972,-30.46289
1425492377.988,-33.994663
1425492378.003,-38.19186
1425492378.019,-43.568577
1425492378.035,-49.98106
1425492378.05,-56.665398
1425492378.066,-62.454178
1425492378.081,-66.08863
1425492378.097,-66.53036
1425492378.113,-63.17415
1425492378.128,-55.88797
1425492378.144,-45.16366
1425492378.16,-32.115402
1425492378.175,-18.476791
1425492378.191,-6.329651
1425492378.206,2.3557434
1425492378.222,6.3940735
1425492378.238,5.868408
1425492378.253,2.3329315
1425492378.269,-1.6432495
1425492378.285,-3.394287
1425492378.3,-1.172699
1425492378.316,5.1634827
1425492378.331,14.089432
1425492378.347,23.004013
1425492378.363,29.225098
1425492378.378,30.830978
1425492378.394,27.197174
1425492378.41,19.024902
1425492378.425,8.059982
1425492378.441,-3.488083
1425492378.456,-13.446335
1425492378.472,-20.261902
1425492378.488,-23.30745
1425492378.503,-23.035904
1425492378.519,-20.778091
1425492378.535,-18.287369
1425492378.55,-17.179245
1425492378.566,-18.447449
1425492378.581,-22.297485
1425492378.597,-28.262772
1425492378.613,-35.536972
1425492378.628,-43.260803
1425492378.644,-50.715805
1425492378.66,-57.301834
1425492378.675,-62.472397
1425492378.691,-65.75389
1425492378.706,-66.83467
1425492378.722,-65.69064
1425492378.738,-62.621902
1425492378.753,-58.130615
1425492378.769,-52.84726
1425492378.785,-47.28238
1425492378.8,-41.750122
1425492378.816,-36.372314
1425492378.831,-31.194519
1425492378.847,-26.258514
1425492378.863,-21.781616
1425492378.878,-18.141327
1425492378.894,-15.788696
1425492378.91,-15.075958
1425492378.925,-16.04477
1425492378.941,-18.275879
1425492378.956,-20.910645
1425492378.972,-22.755096
1425492378.988,-22.587616
1425492379.003,-19.570374
1425492379.019,-13.52066
1425492379.035,-5.024048
1425492379.05,4.6547546
1425492379.066,13.863586
1425492379.081,20.894775
1425492379.097,24.368103
1425492379.113,23.53183
1425492379.128,18.568268
1425492379.144,10.6423645
1425492379.16,1.7210999
1425492379.175,-5.936096
1425492379.191,-10.472015
1425492379.206,-11.040741
1425492379.222,-8.129883
1425492379.238,-3.363922
1425492379.253,1.2018433
1425492379.269,3.7792969
1425492379.285,3.4508972
1425492379.3,0.39208984
1425492379.316,-4.3778076
1425492379.331,-9.469971
1425492379.347,-13.627136
1425492379.363,-16.092499
1425492379.378,-16.765594
1425492379.394,-16.107727
1425492379.41,-14.881577
1425492379.425,-13.87088
1425492379.441,-13.501282
1425492379.456,-13.860413
1425492379.472,-14.753952
1425492379.488,-15.964233
1425492379.503,-17.425842
1425492379.519,-19.288864
1425492379.535,-21.793076
1425492379.55,-25.077438
1425492379.566,-29.007385
1425492379.581,-33.194855
1425492379.597,-37.039474
1425492379.613,-39.93985
1425492379.628,-41.331757
1425492379.644,-40.813644
1425492379.66,-38.18013
1425492379.675,-33.49991
1425492379.691,-27.178116
1425492379.706,-20.016739
1425492379.722,-13.134537
1425492379.738,-7.729553
1425492379.753,-4.7553406
1425492379.769,-4.5543976
1425492379.785,-6.684067
1425492379.8,-10.018402
1425492379.816,-13.043121
1425492379.831,-14.398987
1425492379.847,-13.328415
1425492379.863,-9.867065
1425492379.878,-4.7627716
1425492379.894,0.8720856
1425492379.91,5.9167175
1425492379.925,9.459305
1425492379.941,10.919098
1425492379.956,10.067322
1425492379.972,7.071396
1425492379.988,2.5455322
1425492380.003,-2.430542
1425492380.019,-6.4785614
1425492380.035,-8.222168
1425492380.05,-6.744156
1425492380.066,-1.8675385
1425492380.082,5.595978
1425492380.097,13.965973
1425492380.113,21.005219
1425492380.128,24.528946
1425492380.144,23.114014
1425492380.16,16.704811
1425492380.175,6.7934036
1425492380.191,-3.8840408
1425492380.207,-12.187355
1425492380.222,-15.600021
1425492380.238,-13.076485
1425492380.253,-5.308899
1425492380.269,5.570366
1425492380.285,16.7695
1425492380.3,25.675041
1425492380.316,30.561325
1425492380.332,30.96074
1425492380.347,27.63034
1425492380.363,22.241074
1425492380.378,16.74234
1425492380.394,12.746689
1425492380.41,10.985184
1425492380.425,11.160881
1425492380.441,12.216972
1425492380.457,12.866798
1425492380.472,12.12685
1425492380.488,9.6620865
1425492380.503,5.729389
1425492380.519,1.0207367
1425492380.535,-3.6444206
1425492380.55,-7.6065063
1425492380.566,-10.47493
1425492380.582,-12.269028
1425492380.597,-13.430321
1425492380.613,-14.730766
1425492380.628,-16.957973
1425492380.644,-20.562294
1425492380.66,-25.315887
1425492380.675,-30.304546
1425492380.691,-34.16723
1425492380.707,-35.697807
1425492380.722,-34.298996
1425492380.738,-30.242188
1425492380.753,-24.514036
1425492380.769,-18.393179
1425492380.785,-12.960648
1425492380.8,-8.772076
1425492380.816,-5.786831
1425492380.832,-3.551052
1425492380.847,-1.486023
1425492380.863,0.9094353
1425492380.878,3.9328117
1425492380.894,7.7191315
1425492380.91,12.232975
1425492380.925,17.278095
1425492380.941,22.43483
1425492380.957,27.034767
1425492380.972,30.28431
1425492380.988,31.556477
1425492381.003,30.705132
1425492381.019,28.221611
1425492381.035,25.159012
1425492381.05,22.77961
1425492381.066,22.044151
1425492381.082,23.175781
1425492381.097,25.50467
1425492381.113,27.677689
1425492381.128,28.115509
1425492381.144,25.637016
1425492381.16,19.936783
1425492381.175,11.826546
1425492381.191,3.1009293
1425492381.207,-4.0029907
1425492381.222,-7.550949
1425492381.238,-6.5222397
1425492381.253,-1.212143
1425492381.269,6.888138
1425492381.285,15.584618
1425492381.3,22.700485
1425492381.316,26.76561
1425492381.332,27.408783
1425492381.347,25.388489
1425492381.363,22.27472
1425492381.378,19.847198
1425492381.394,19.460815
1425492381.41,21.57196
1425492381.425,25.560654
1425492381.441,29.985321
1425492381.457,33.10048
1425492381.472,33.542114
1425492381.488,30.766495
1425492381.503,25.204102
1425492381.519,17.887436
1425492381.535,9.974457
1425492381.55,2.2593994
1425492381.566,-5.006027
1425492381.582,-11.967438
1425492381.597,-18.85254
1425492381.613,-25.625015
1425492381.628,-31.879333
1425492381.644,-36.973114
1425492381.66,-40.246796
1425492381.675,-41.32744
1425492381.691,-40.210526
1425492381.707,-37.272858
1425492381.722,-33.106613
1425492381.738,-28.4124
1425492381.753,-23.798904
1425492381.769,-19.799225
1425492381.785,-16.710464
1425492381.8,-14.605774
1425492381.816,-13.279297
1425492381.832,-12.3172455
1425492381.847,-11.208237
1425492381.863,-9.502243
1425492381.878,-6.9409637
1425492381.894,-3.53154
1425492381.91,0.49325562
1425492381.925,4.6851654
1425492381.941,8.491684
1425492381.957,11.267807
1425492381.972,12.478943
1425492381.988,11.853958
1425492382.003,9.658539
1425492382.019,6.674637
1425492382.035,4.0911865
1425492382.05,2.9912262
1425492382.066,3.9673462
1425492382.082,6.834137
1425492382.097,10.717728
1425492382.113,14.453796
1425492382.128,17.052856
1425492382.144,17.94278
1425492382.16,17.067078
1425492382.175,14.785217
1425492382.191,11.744858
1425492382.207,8.820557
1425492382.222,7.0326843
1425492382.238,7.3061676
1425492382.253,10.232727
1425492382.269,15.688644
1425492382.285,22.813568
1425492382.3,30.123413
1425492382.316,36.044006
1425492382.332,39.280975
1425492382.347,39.198486
1425492382.363,35.95456
1425492382.378,30.378113
1425492382.394,23.757843
1425492382.41,17.588226
1425492382.425,13.232513
1425492382.441,11.550476
1425492382.457,12.645721
1425492382.472,15.773285
1425492382.488,19.542236
1425492382.503,22.430115
1425492382.519,23.17517
1425492382.535,21.181396
1425492382.55,16.487274
1425492382.566,9.609131
1425492382.582,1.2599792
1425492382.597,-7.824127
1425492382.613,-16.972748
1425492382.628,-25.61203
1425492382.644,-33.282898
1425492382.66,-39.664917
1425492382.675,-44.593903
1425492382.691,-47.934906
1425492382.707,-49.614258
1425492382.722,-49.5372
1425492382.738,-47.666565
1425492382.754,-44.14563
1425492382.769,-39.36551
1425492382.785,-33.95227
1425492382.8,-28.611786
1425492382.816,-23.895874
1425492382.832,-20.089722
1425492382.847,-17.186676
1425492382.863,-14.966675
1425492382.879,-13.099457
1425492382.894,-11.305817
1425492382.91,-9.35257
1425492382.925,-7.11026
1425492382.941,-4.5843506
1425492382.957,-1.9020691
1425492382.972,0.6354065
1425492382.988,2.506134
1425492383.004,3.1082764
1425492383.019,1.848877
1425492383.035,-1.5866089
1425492383.05,-7.0018005
1425492383.066,-13.504547
1425492383.082,-19.611938
1425492383.097,-23.498718
1425492383.113,-23.572174
1425492383.129,-18.98462
1425492383.144,-10.0989685
1425492383.16,1.4716797
1425492383.175,13.194702
1425492383.191,22.397034
1425492383.207,27.118988
1425492383.222,26.795105
1425492383.238,22.551819
1425492383.254,16.834808
1425492383.269,12.651184
1425492383.285,12.559174
1425492383.3,17.862915
1425492383.316,28.278198
1425492383.332,42.12439
1425492383.347,56.94751
1425492383.363,70.19623
1425492383.379,79.863464
1425492383.394,84.793945
1425492383.41,84.793884
1425492383.425,80.549774
1425492383.441,73.46408
1425492383.457,65.27081
1425492383.472,57.667664
1425492383.488,51.87744
1425492383.504,48.35678
1425492383.519,46.743652
1425492383.535,46.01779
1425492383.55,44.853302
1425492383.566,41.993805
1425492383.582,36.557465
1425492383.597,28.222778
1425492383.613,17.187622
1425492383.629,4.1129456
1425492383.644,-10.092651
1425492383.66,-24.44574
1425492383.675,-38.08304
1425492383.691,-50.326874
1425492383.707,-60.69095
1425492383.722,-68.77466
1425492383.738,-74.20999
1425492383.754,-76.60483
1425492383.769,-75.671875
1425492383.785,-71.30542
1425492383.8,-63.808807
1425492383.816,-53.89218
1425492383.832,-42.695984
1425492383.847,-31.612946
1425492383.863,-22.08081
1425492383.879,-15.172424
1425492383.894,-11.319519
1425492383.91,-10.059845
1425492383.925,-10.249207
1425492383.941,-10.329895
1425492383.957,-9.02182
1425492383.972,-5.7726746
1425492383.988,-1.0235596
1425492384.004,3.9169617
1425492384.019,7.3959045
1425492384.035,8.153717
1425492384.05,5.911957
1425492384.066,1.6620483
1425492384.082,-2.5774536
1425492384.097,-4.3923035
1425492384.113,-1.869812
1425492384.129,5.751587
1425492384.144,17.6745
1425492384.16,31.778229
1425492384.175,45.298065
1425492384.191,55.704742
1425492384.207,61.49991
1425492384.222,62.672882
1425492384.238,60.469208
1425492384.254,56.87677
1425492384.269,53.74164
1425492384.285,52.221313
1425492384.3,52.397278
1425492384.316,53.517365
1425492384.332,54.39325
1425492384.347,53.95981
1425492384.363,51.578735
1425492384.379,47.16272
1425492384.394,41.09613
1425492384.41,34.097076
1425492384.425,27.053406
1425492384.441,20.914246
1425492384.457,16.518738
1425492384.472,14.39743
1425492384.488,14.669312
1425492384.504,16.999084
1425492384.519,20.630371
1425492384.535,24.490509
1425492384.55,27.304657
1425492384.566,27.816956
1425492384.582,25.00415
1425492384.597,18.382446
1425492384.613,8.233154
1425492384.629,-4.305908
1425492384.644,-17.42569
1425492384.66,-29.078552
1425492384.675,-37.503967
1425492384.691,-41.6709
1425492384.707,-41.470398
1425492384.722,-37.6474
1425492384.738,-31.476501
1425492384.754,-24.386078
1425492384.769,-17.721466
1425492384.785,-12.441101
1425492384.8,-9.079437
1425492384.816,-7.6746826
1425492384.832,-7.818451
1425492384.847,-8.6596985
1425492384.863,-9.201813
1425492384.879,-8.550476
1425492384.894,-6.320099
1425492384.91,-2.7850342
1425492384.925,1.1125793
1425492384.941,4.292511
1425492384.957,6.046814
1425492384.972,6.5588684
1425492384.988,6.894928
1425492385.004,8.554596
1425492385.019,12.762207
1425492385.035,19.817627
1425492385.05,28.811447
1425492385.066,37.925446
1425492385.082,45.03578
1425492385.097,48.494614
1425492385.113,47.64235
1425492385.129,43.062744
1425492385.144,36.248
1425492385.16,29.08194
1425492385.175,23.171265
1425492385.191,19.351425
1425492385.207,17.489792
1425492385.222,16.721329
1425492385.238,15.89061
1425492385.254,14.1596985
1425492385.269,11.319565
1425492385.285,7.8837585
1425492385.3,4.676483
1425492385.316,2.4197388
1425492385.332,1.3118744
1425492385.347,1.012558
1425492385.363,0.8134918
1425492385.379,0.07376099
1425492385.394,-1.4813538
1425492385.41,-3.6407013
1425492385.426,-5.931671
1425492385.441,-7.841568
1425492385.457,-9.1923065
1425492385.472,-10.184708
1425492385.488,-11.314407
1425492385.504,-13.096031
1425492385.519,-15.77829
1425492385.535,-19.205368
1425492385.55,-22.839546
1425492385.566,-25.873642
1425492385.582,-27.463837
1425492385.597,-26.969833
1425492385.613,-24.197113
1425492385.629,-19.420135
1425492385.644,-13.417488
1425492385.66,-7.205635
1425492385.676,-1.8329163
1425492385.691,1.9229584
1425492385.707,3.686386
1425492385.722,3.4854622
1425492385.738,1.7249908
1425492385.754,-0.9025116
1425492385.769,-3.4089088
1425492385.785,-4.6262283
1425492385.801,-3.4053802
1425492385.816,0.9595375
1425492385.832,8.385906
1425492385.847,17.81771
1425492385.863,27.329544
1425492385.879,34.67495
1425492385.894,38.01995
1425492385.91,36.610474
1425492385.926,31.067625
1425492385.941,23.186926
1425492385.957,15.331987
1425492385.972,9.627718
1425492385.988,7.3027573
1425492386.004,8.406803
1425492386.019,11.9158325
1425492386.035,16.147602
1425492386.051,19.348358
1425492386.066,20.205227
1425492386.082,18.20348
1425492386.097,13.712498
1425492386.113,7.765869
1425492386.129,1.7437439
1425492386.144,-3.1421432
1425492386.16,-6.1879044
1425492386.176,-7.4696655
1425492386.191,-7.6645966
1425492386.207,-7.796295
1425492386.222,-8.775261
1425492386.238,-11.042366
1425492386.254,-14.45845
1425492386.269,-18.464424
1425492386.285,-22.355347
1425492386.301,-25.545242
1425492386.316,-27.768005
1425492386.332,-29.086258
1425492386.347,-29.729431
1425492386.363,-29.971115
1425492386.379,-29.985977
1425492386.394,-29.736435
1425492386.41,-29.023407
1425492386.426,-27.540085
1425492386.441,-24.95343
1425492386.457,-21.08702
1425492386.472,-15.971161
1425492386.488,-9.92244
1425492386.504,-3.5222168
1425492386.519,2.4954376
1425492386.535,7.30809
1425492386.551,10.248611
1425492386.566,10.966293
1425492386.582,9.670807
1425492386.597,7.2006073
1425492386.613,4.876663
1425492386.629,4.1166077
1425492386.644,5.8852844
1425492386.66,10.251419
1425492386.676,16.182587
1425492386.691,21.816376
1425492386.707,25.093048
1425492386.722,24.539948
1425492386.738,19.87445
1425492386.754,12.1284485
1425492386.769,3.2649841
1425492386.785,-4.5558777
1425492386.801,-9.6944275
1425492386.816,-11.466827
1425492386.832,-10.267181
1425492386.847,-7.2661743
1425492386.863,-3.9934692
1425492386.879,-1.8965149
1425492386.894,-1.9206543
1425492386.91,-4.288269
1425492386.926,-8.466614
1425492386.941,-13.321899
1425492386.957,-17.506836
1425492386.972,-19.930817
1425492386.988,-20.21518
1425492387.004,-18.751099
1425492387.019,-16.642212
1425492387.035,-15.300934
1425492387.051,-15.989197
1425492387.066,-19.47229
1425492387.082,-25.800903
1425492387.097,-34.281494
1425492387.113,-43.559998
1425492387.129,-51.841064
1425492387.144,-57.348328
1425492387.16,-58.815094
1425492387.176,-55.93161
1425492387.191,-49.43335
1425492387.207,-40.859985
1425492387.222,-31.901764
1425492387.238,-23.784271
1425492387.254,-16.969513
1425492387.269,-11.1762085
1425492387.285,-5.8155823
1425492387.301,-0.4272461
1425492387.316,5.1216736
1425492387.332,10.520996
1425492387.347,15.221283
1425492387.363,18.61438
1425492387.379,20.190582
1425492387.394,19.677155
1425492387.41,17.125
1425492387.426,12.9652405
1425492387.441,7.987549
1425492387.457,3.2124023
1425492387.472,-0.2878418
1425492387.488,-1.7575378
1425492387.504,-0.82092285
1425492387.519,2.354248
1425492387.535,7.0887146
1425492387.551,12.275238
1425492387.566,16.587189
1425492387.582,18.76825
1425492387.597,17.971466
1425492387.613,14.10611
1425492387.629,7.9703674
1425492387.644,1.0937805
1425492387.66,-4.719055
1425492387.676,-8.018738
1425492387.691,-8.160431
1425492387.707,-5.658142
1425492387.722,-1.9442139
1425492387.738,1.0458984
1425492387.754,1.5453186
1425492387.769,-1.4671326
1425492387.785,-7.8583374
1425492387.801,-16.386353
1425492387.816,-25.128113
1425492387.832,-32.13623
1425492387.847,-36.094177
1425492387.863,-36.766785
1425492387.879,-34.98462
1425492387.894,-32.28009
1425492387.91,-30.314209
1425492387.926,-30.37616
1425492387.941,-32.990784
1425492387.957,-37.86914
1425492387.972,-44.021484
1425492387.988,-50.101257
1425492388.004,-54.809875
1425492388.019,-57.315796
1425492388.035,-57.52185
1425492388.051,-56.102478
1425492388.066,-54.223267
1425492388.082,-53.011414
1425492388.097,-53.094788
1425492388.113,-54.227905
1425492388.129,-55.402527
1425492388.144,-55.184998
1425492388.16,-52.261597
1425492388.176,-45.9422
1425492388.191,-36.442627
1425492388.207,-24.926575
1425492388.222,-13.15094
1425492388.238,-3.071228
1425492388.254,3.7839966
1425492388.269,6.6985474
1425492388.285,5.9607544
1425492388.301,2.7167358
1425492388.316,-1.4497681
1425492388.332,-5.058777
1425492388.348,-7.1101685
1425492388.363,-7.2942505
1425492388.379,-5.887329
1425492388.394,-3.5310059
1425492388.41,-0.94781494
1425492388.426,1.2064209
1425492388.441,2.499115
1425492388.457,2.7032166
1425492388.473,1.8014832
1425492388.488,-0.06210327
1425492388.504,-2.6554565
1425492388.519,-5.7497253
1425492388.535,-9.123291
1425492388.551,-12.6203
1425492388.566,-16.077637
1425492388.582,-19.293793
1425492388.598,-22.05368
1425492388.613,-24.128937
1425492388.629,-25.357117
1425492388.644,-25.66037
1425492388.66,-25.066833
1425492388.676,-23.700043
1425492388.691,-21.758545
1425492388.707,-19.593323
1425492388.723,-17.611542
1425492388.738,-16.205719
1425492388.754,-15.543701
1425492388.769,-15.442383
1425492388.785,-15.337769
1425492388.801,-14.569305
1425492388.816,-12.725189
1425492388.832,-9.972961
1425492388.848,-7.1016235
1425492388.863,-5.2444763
1425492388.879,-5.3128967
1425492388.894,-7.6081543
1425492388.91,-11.703644
1425492388.926,-16.693298
1425492388.941,-21.634186
1425492388.957,-25.855865
1425492388.973,-29.119904
1425492388.988,-31.533081
1425492389.004,-33.334717
1425492389.019,-34.784607
1425492389.035,-36.052704
1425492389.051,-37.216003
1425492389.066,-38.140076
1425492389.082,-38.560547
1425492389.098,-37.989014
1425492389.113,-35.843872
1425492389.129,-31.63675
1425492389.144,-25.179626
1425492389.16,-16.713257
1425492389.176,-6.9393005
1425492389.191,3.1436157
1425492389.207,12.442352
1425492389.223,20.02893
1425492389.238,25.315277
1425492389.254,28.206024
1425492389.269,29.06366
1425492389.285,28.603271
1425492389.301,27.630325
1425492389.316,26.822357
1425492389.332,26.547867
1425492389.348,26.936295
1425492389.363,27.928696
1425492389.379,29.531815
1425492389.394,31.733627
1425492389.41,34.473953
1425492389.426,37.47696
1425492389.441,40.19359
1425492389.457,41.883606
1425492389.473,41.85289
1425492389.488,39.620575
1425492389.504,35.115875
1425492389.519,28.706055
1425492389.535,21.2034
1425492389.551,13.729492
1425492389.566,7.625641
1425492389.582,4.1044464
1425492389.598,3.9925537
1425492389.613,7.3799133
1425492389.629,13.615631
1425492389.644,21.396591
1425492389.66,29.200684
1425492389.676,35.677704
1425492389.691,40.00215
1425492389.707,41.98149
1425492389.723,42.008804
1425492389.738,40.81681
1425492389.754,39.248863
1425492389.769,37.892715
1425492389.785,36.859047
1425492389.801,35.771896
1425492389.816,34.01835
1425492389.832,31.20485
1425492389.848,27.451775
1425492389.863,23.431572
1425492389.879,20.046913
1425492389.894,17.844826
1425492389.91,16.644722
1425492389.926,15.542496
1425492389.941,13.274841
1425492389.957,8.765831
1425492389.973,1.623169
1425492389.988,-7.7808533
1425492390.004,-18.34858
1425492390.019,-28.688072
1425492390.035,-37.372513
1425492390.051,-43.230644
1425492390.066,-45.52062
1425492390.082,-44.106857
1425492390.098,-39.46646
1425492390.113,-32.65064
1425492390.129,-25.01862
1425492390.144,-17.92781
1425492390.16,-12.32431
1425492390.176,-8.563389
1425492390.191,-6.307907
1425492390.207,-4.729683
1425492390.223,-2.7655487
1425492390.238,0.47402954
1425492390.254,5.3540688
1425492390.269,11.553467
1425492390.285,18.117142
1425492390.301,23.817213
1425492390.316,27.665218
1425492390.332,29.28941
1425492390.348,29.029234
1425492390.363,27.736603
1425492390.379,26.373018
1425492390.394,25.638535
1425492390.41,25.75343
1425492390.426,26.446878
1425492390.441,27.113821
1425492390.457,26.942719
1425492390.473,25.24582
1425492390.488,21.628431
1425492390.504,16.319242
1425492390.519,10.198242
1425492390.535,4.675136
1425492390.551,1.2301354
1425492390.566,0.8990519
1425492390.582,3.8406396
1425492390.598,9.257296
1425492390.613,15.662432
1425492390.629,21.363098
1425492390.644,24.899845
1425492390.66,25.445255
1425492390.676,22.865793
1425492390.691,17.797558
1425492390.707,11.391067
1425492390.723,5.052143
1425492390.738,-0.07983017
1425492390.754,-3.4144707
1425492390.769,-5.101572
1425492390.785,-5.785038
1425492390.801,-6.219528
1425492390.816,-6.837326
1425492390.832,-7.591337
1425492390.848,-8.164551
1425492390.863,-8.245783
1425492390.879,-7.82777
1425492390.894,-7.2850227
1425492390.91,-7.2782097
1425492390.926,-8.533951
1425492390.941,-11.5427475
1425492390.957,-16.470467
1425492390.973,-23.00198
1425492390.988,-30.368862
1425492391.004,-37.4523
1425492391.02,-43.041737
1425492391.035,-46.091152
1425492391.051,-45.98801
1425492391.066,-42.689606
1425492391.082,-36.733196
1425492391.098,-29.181107
1425492391.113,-21.442413
1425492391.129,-15.01358
1425492391.145,-11.1498375
1425492391.16,-10.416401
1425492391.176,-12.401161
1425492391.191,-15.713081
1425492391.207,-18.403908
1425492391.223,-18.732758
1425492391.238,-15.855034
1425492391.254,-10.102684
1425492391.27,-2.750595
1425492391.285,4.6712418
1425492391.301,11.134689
1425492391.316,16.467636
1425492391.332,21.204597
1425492391.348,25.992897
1425492391.363,30.952988
1425492391.379,35.386528
1425492391.395,38.01837
1425492391.41,37.524513
1425492391.426,33.14885
1425492391.441,25.245407
1425492391.457,15.235825
1425492391.473,5.2869263
1425492391.488,-2.3286514
1425492391.504,-5.882126
1425492391.52,-4.7316513
1425492391.535,0.49253845
1425492391.551,8.115639
1425492391.566,15.896843
1425492391.582,21.76249
1425492391.598,24.372055
1425492391.613,23.402252
1425492391.629,19.518646
1425492391.645,13.999268
1425492391.66,8.318497
1425492391.676,3.8058624
1425492391.691,1.4077454
1425492391.707,1.5474243
1425492391.723,4.0312805
1425492391.738,8.009705
1425492391.754,12.161102
1425492391.77,15.051193
1425492391.785,15.572968
1425492391.801,13.369629
1425492391.816,8.974014
1425492391.832,3.6091309
1425492391.848,-1.306427
1425492391.863,-4.72229
1425492391.879,-6.3865204
1425492391.895,-6.939041
1425492391.91,-7.6096344
1425492391.926,-9.7165985
1425492391.941,-14.042496
1425492391.957,-20.478317
1425492391.973,-27.934479
1425492391.988,-34.73787
1425492392.004,-39.133774
1425492392.02,-39.94963
1425492392.035,-36.99562
1425492392.051,-31.124496
1425492392.066,-23.90915
1425492392.082,-17.164871
1425492392.098,-12.360062
1425492392.113,-10.252594
1425492392.129,-10.7812195
1425492392.145,-13.192139
1425492392.16,-16.32637
1425492392.176,-18.914902
1425492392.191,-19.910553
1425492392.207,-18.770493
1425492392.223,-15.5668335
1425492392.238,-11.07811
1425492392.254,-6.432129
1425492392.27,-2.8091125
1425492392.285,-0.96842957
1425492392.301,-0.99076843
1425492392.316,-2.3110352
1425492392.332,-4.003708
1425492392.348,-5.190445
1425492392.363,-5.363144
1425492392.379,-4.477829
1425492392.395,-2.839325
1425492392.41,-0.7891083
1425492392.426,1.5180817
1425492392.441,4.208374
1425492392.457,7.575897
1425492392.473,11.85083
1425492392.488,16.920258
1425492392.504,22.250061
1425492392.52,26.96762
1425492392.535,30.154755
1425492392.551,31.164215
1425492392.566,29.99936
1425492392.582,27.206482
1425492392.598,23.72464
1425492392.613,20.522736
1425492392.629,18.334625
1425492392.645,17.490417
1425492392.66,17.969421
1425492392.676,19.47699
1425492392.691,21.49826
1425492392.707,23.32489
1425492392.723,24.173767
1425492392.738,23.293976
1425492392.754,20.234985
1425492392.77,14.991882
1425492392.785,8.054626
1425492392.801,0.27749634
1425492392.816,-7.4007874
1425492392.832,-14.242584
1425492392.848,-19.915741
1425492392.863,-24.546844
1425492392.879,-28.565765
1425492392.895,-32.447357
1425492392.91,-36.430267
1425492392.926,-40.302643
1425492392.941,-43.34265
1425492392.957,-44.587646
1425492392.973,-43.17691
1425492392.988,-38.82141
1425492393.004,-31.98941
1425492393.02,-23.89035
1425492393.035,-16.047607
1425492393.051,-9.7951355
1425492393.066,-5.847168
1425492393.082,-4.05072
1425492393.098,-3.5133667
1425492393.113,-2.9359741
1425492393.129,-1.1434937
1425492393.145,2.45932
1425492393.16,7.6319275
1425492393.176,13.372742
1425492393.191,18.414398
1425492393.207,21.800781
1425492393.223,23.369202
1425492393.238,23.778625
1425492393.254,24.10376
1425492393.27,25.233612
1425492393.285,27.358185
1425492393.301,29.869751
1425492393.316,31.736816
1425492393.332,32.03061
1425492393.348,30.444244
1425492393.363,27.418304
1425492393.379,24.009552
1425492393.395,21.419067
1425492393.41,20.5878
1425492393.426,21.796814
1425492393.441,24.555328
1425492393.457,27.69342
1425492393.473,29.746552
1425492393.488,29.404541
1425492393.504,26.115387
1425492393.52,20.273804
1425492393.535,13.163116
1425492393.551,6.572357
1425492393.566,2.25354
1425492393.582,1.3888855
1425492393.598,4.325775
1425492393.613,10.522064
1425492393.629,18.73236
1425492393.645,27.290283
1425492393.66,34.52011
1425492393.676,39.110107
1425492393.692,40.45398
1425492393.707,38.717133
1425492393.723,34.73819
1425492393.738,29.693542
1425492393.754,24.633118
1425492393.77,20.180664
1425492393.785,16.377655
1425492393.801,12.849426
1425492393.817,8.993439
1425492393.832,4.3420105
1425492393.848,-1.3303833
1425492393.863,-7.8720703
1425492393.879,-14.7916565
1425492393.895,-21.363586
1425492393.91,-26.724884
1425492393.926,-30.020538
1425492393.942,-30.550415
1425492393.957,-27.962952
1425492393.973,-22.443054
1425492393.988,-14.8802185
1425492394.004,-6.733612
1425492394.02,0.3390503
1425492394.035,5.0589294
1425492394.051,7.0995483
1425492394.067,7.3687744
1425492394.082,7.6647034
1425492394.098,10.005096
1425492394.113,15.707825
1425492394.129,24.725616
1425492394.145,35.534454
1425492394.16,45.682373
1425492394.176,52.66043
1425492394.192,54.869263
1425492394.207,52.181976
1425492394.223,45.912598
1425492394.238,38.28363
1425492394.254,31.64801
1425492394.27,27.794128
1425492394.285,27.474762
1425492394.301,30.33142
1425492394.317,35.130615
1425492394.332,40.172363
1425492394.348,43.754333
1425492394.363,44.58194
1425492394.379,42.065765
1425492394.395,36.404022
1425492394.41,28.44165
1425492394.426,19.415863
1425492394.442,10.634827
1425492394.457,3.1505127
1425492394.473,-2.2938538
1425492394.488,-5.3517456
1425492394.504,-5.9695435
1425492394.52,-4.3660583
1425492394.535,-1.0552368
1425492394.551,3.102539
1425492394.567,7.00177
1425492394.582,9.4140625
1425492394.598,9.37619
1425492394.613,6.4499817
1425492394.629,1.0289917
1425492394.645,-5.7865906
1425492394.66,-12.356171
1425492394.676,-17.00879
1425492394.692,-18.526367
1425492394.707,-16.523224
1425492394.723,-11.603882
1425492394.738,-5.2152405
1425492394.754,0.752594
1425492394.77,4.49588
1425492394.785,4.9746704
1425492394.801,2.2314453
1425492394.817,-2.4360352
1425492394.832,-6.9245605
1425492394.848,-8.983704
1425492394.863,-7.075409
1425492394.879,-0.92788696
1425492394.895,8.241669
1425492394.91,18.239014
1425492394.926,26.716248
1425492394.942,32.078125
1425492394.957,34.047882
1425492394.973,33.616364
1425492394.988,32.432495
1425492395.004,31.928955
1425492395.02,32.72586
1425492395.035,34.40808
1425492395.051,35.904175
1425492395.067,36.099884
1425492395.082,34.32672
1425492395.098,30.640015
1425492395.113,25.631927
1425492395.129,20.114319
1425492395.145,14.787308
1425492395.16,10.096069
1425492395.176,6.2526245
1425492395.192,3.358673
1425492395.207,1.4099121
1425492395.223,0.2876587
1425492395.238,-0.30871582
1425492395.254,-0.7799988
1425492395.27,-1.6226807
1425492395.285,-3.219818
1425492395.301,-5.8456116
1425492395.317,-9.60939
1425492395.332,-14.505112
1425492395.348,-20.348114
1425492395.363,-26.674606
1425492395.379,-32.619354
1425492395.395,-37.00833
1425492395.41,-38.6772
1425492395.426,-36.89203
1425492395.442,-31.802933
1425492395.457,-24.621246
1425492395.473,-17.225555
1425492395.488,-11.561371
1425492395.504,-8.870728
1425492395.52,-9.193314
1425492395.535,-11.311043
1425492395.551,-13.230667
1425492395.567,-12.849091
1425492395.582,-8.7825165
1425492395.598,-0.83464813
1425492395.613,9.8895035
1425492395.629,21.292374
1425492395.645,30.90448
1425492395.66,36.67269
1425492395.676,37.641403
1425492395.692,34.330902
1425492395.707,28.54874
1425492395.723,22.738892
1425492395.738,19.02177
1425492395.754,18.499607
1425492395.77,20.840467
1425492395.785,24.563118
1425492395.801,27.648167
1425492395.817,28.370821
1425492395.832,25.803448
1425492395.848,20.093359
1425492395.863,12.31985
1425492395.879,4.0992956
1425492395.895,-2.8776321
1425492395.91,-7.356081
1425492395.926,-8.87425
1425492395.942,-7.871954
1425492395.957,-5.7027473
1425492395.973,-4.1391716
1425492395.988,-4.8429832
1425492396.004,-8.72567
1425492396.02,-15.630127
1425492396.035,-24.326298
1425492396.051,-32.992996
1425492396.067,-39.865776
1425492396.082,-43.82984
1425492396.098,-44.79203
1425492396.113,-43.63376
1425492396.129,-41.76941
1425492396.145,-40.687073
1425492396.16,-41.34133
1425492396.176,-43.902077
1425492396.192,-47.63543
1425492396.207,-51.194763
1425492396.223,-52.993088
1425492396.238,-51.815445
1425492396.254,-47.243668
1425492396.27,-39.873688
1425492396.285,-31.123062
1425492396.301,-22.858093
1425492396.317,-16.677887
1425492396.332,-13.4618225
1425492396.348,-13.068253
1425492396.364,-14.387833
1425492396.379,-15.707413
1425492396.395,-15.265289
1425492396.41,-11.810699
1425492396.426,-5.087158
1425492396.442,4.039978
1425492396.457,13.674973
1425492396.473,21.512161
1425492396.488,25.565262
1425492396.504,24.925629
1425492396.52,20.099777
1425492396.535,12.83252
1425492396.551,5.4445953
1425492396.567,-0.033203125
1425492396.582,-2.507843
1425492396.598,-2.080017
1425492396.614,0.13375854
1425492396.629,2.518631
1425492396.645,3.4907684
1425492396.66,1.9496155
1425492396.676,-2.4256744
1425492396.692,-9.09021
1425492396.707,-16.835556
1425492396.723,-24.126984
1425492396.739,-29.624374
1425492396.754,-32.57016
1425492396.77,-33.0298
1425492396.785,-31.671585
1425492396.801,-29.477997
1425492396.817,-27.385925
1425492396.832,-26.038727
1425492396.848,-25.782196
1425492396.864,-26.699387
1425492396.879,-28.683655
1425492396.895,-31.495743
1425492396.91,-34.837936
1425492396.926,-38.479324
1425492396.942,-42.20256
1425492396.957,-45.800674
1425492396.973,-48.893097
1425492396.989,-50.79866
1425492397.004,-50.622208
1425492397.02,-47.545624
1425492397.035,-41.22113
1425492397.051,-32.078735
1425492397.067,-21.361572
1425492397.082,-10.8012085
1425492397.098,-2.1764832
1425492397.114,3.209259
1425492397.129,4.915863
1425492397.145,3.51474
1425492397.16,0.49160767
1425492397.176,-2.1589355
1425492397.192,-2.630188
1425492397.207,0.04437256
1425492397.223,5.57135
1425492397.239,12.481781
1425492397.254,18.81845
1425492397.27,22.926636
1425492397.285,24.147644
1425492397.301,22.964783
1425492397.317,20.655762
1425492397.332,18.64502
1425492397.348,17.924438
1425492397.364,18.702026
1425492397.379,20.361969
1425492397.395,21.786285
1425492397.41,21.74353
1425492397.426,19.365356
1425492397.442,14.586578
1425492397.457,8.2170105
1425492397.473,1.7615356
1425492397.489,-3.1565247
1425492397.504,-5.3294983
1425492397.52,-4.4693604
1425492397.535,-1.2628174
1425492397.551,2.9620667
1425492397.567,6.720764
1425492397.582,8.865265
1425492397.598,8.902283
1425492397.614,7.0537415
1425492397.629,4.214142
1425492397.645,1.5571289
1425492397.66,0.21136475
1425492397.676,0.8369446
1425492397.692,3.3780212
1425492397.707,7.012726
1425492397.723,10.450745
1425492397.739,12.345215
1425492397.754,11.675751
1425492397.77,8.013794
1425492397.785,1.5087891
1425492397.801,-7.176239
1425492397.817,-17.026733
1425492397.832,-26.877472
1425492397.848,-35.501648
1425492397.864,-41.881195
1425492397.879,-45.401672
1425492397.895,-46.045135
1425492397.91,-44.346405
1425492397.926,-41.28253
1425492397.942,-37.95706
1425492397.957,-35.2713
1425492397.973,-33.630615
1425492397.989,-32.91046
1425492398.004,-32.42511
1425492398.02,-31.291199
1425492398.035,-28.740295
1425492398.051,-24.575653
1425492398.067,-19.313507
1425492398.082,-14.087494
1425492398.098,-10.2435
1425492398.114,-8.787964
1425492398.129,-9.897858
1425492398.145,-12.785217
1425492398.16,-15.977371
1425492398.176,-17.80513
1425492398.192,-17.029297
1425492398.207,-13.300934
1425492398.223,-7.2836304
1425492398.239,-0.43840027
1425492398.254,5.457443
1425492398.27,8.869995
1425492398.285,9.055496
1425492398.301,6.3275146
1425492398.317,1.9602814
1425492398.332,-2.2766113
1425492398.348,-4.754898
1425492398.364,-4.6164093
1425492398.379,-2.081665
1425492398.395,1.6026154
1425492398.41,4.6236877
1425492398.426,5.265457
1425492398.442,2.5604095
1425492398.457,-3.3128815
1425492398.473,-11.034454
1425492398.489,-18.558258
1425492398.504,-23.778381
1425492398.52,-25.213562
1425492398.535,-22.448883
1425492398.551,-16.153564
1425492398.567,-7.6994476
1425492398.582,1.3561554
1425492398.598,9.739197
1425492398.614,16.685684
1425492398.629,21.906677
1425492398.645,25.463776
1425492398.66,27.514389
1425492398.676,28.256851
1425492398.692,27.850037
1425492398.707,26.421951
1425492398.723,24.067001
1425492398.739,20.942947
1425492398.754,17.341446
1425492398.77,13.711807
1425492398.785,10.526672
1425492398.801,8.121262
1425492398.817,6.463684
1425492398.832,5.0729523
1425492398.848,3.231903
1425492398.864,0.25242615
1425492398.879,-4.1721954
1425492398.895,-9.812317
1425492398.91,-16.031982
1425492398.926,-22.03331
1425492398.942,-27.126831
1425492398.957,-30.845734
1425492398.973,-32.976486
1425492398.989,-33.479477
1425492399.004,-32.420624
1425492399.02,-29.981583
1425492399.036,-26.453941
1425492399.051,-22.222832
1425492399.067,-17.723534
1425492399.082,-13.352295
1425492399.098,-9.330528
1425492399.114,-5.7232666
1425492399.129,-2.4538193
1425492399.145,0.6656647
1425492399.16,3.853302
1425492399.176,7.316017
1425492399.192,11.293938
1425492399.207,15.977814
1425492399.223,21.458687
1425492399.239,27.572205
1425492399.254,33.740685
1425492399.27,39.01294
1425492399.286,42.28578
1425492399.301,42.764954
1425492399.317,40.477905
1425492399.332,36.39125
1425492399.348,32.219063
1425492399.364,29.745789
1425492399.379,30.132065
1425492399.395,33.39618
1425492399.411,38.439743
1425492399.426,43.44552
1425492399.442,46.474205
1425492399.457,46.071106
1425492399.473,41.6587
1425492399.489,33.68167
1425492399.504,23.555588
1425492399.52,13.3246765
1425492399.536,5.1181335
1425492399.551,0.5388031
1425492399.567,0.20854187
1425492399.582,3.5449295
1425492399.598,9.029152
1425492399.614,14.701332
1425492399.629,18.720695
1425492399.645,19.774872
1425492399.661,17.305
1425492399.676,11.571373
1425492399.692,3.5799026
1425492399.707,-5.1309204
1425492399.723,-12.903328
1425492399.739,-18.394638
1425492399.754,-20.999062
1425492399.77,-20.94564
1425492399.786,-19.02137
1425492399.801,-16.190166
1425492399.817,-13.217396
1425492399.832,-10.566917
1425492399.848,-8.561115
1425492399.864,-7.584671
1425492399.879,-8.028706
1425492399.895,-10.260338
1425492399.911,-14.312397
1425492399.926,-19.807869
1425492399.942,-26.052185
1425492399.957,-32.249695
1425492399.973,-37.613144
1425492399.989,-41.49346
1425492400.004,-43.346066
1425492400.02,-42.72824
1425492400.036,-39.401062
1425492400.051,-33.514904
1425492400.067,-25.663177
1425492400.082,-16.954792
1425492400.098,-8.808632
1425492400.114,-2.6624298
1425492400.129,0.43436813
1425492400.145,0.21938324
1425492400.161,-2.5742722
1425492400.176,-6.394272
1425492400.192,-9.246323
1425492400.207,-9.392895
1425492400.223,-5.9537125
1425492400.239,0.7492752
1425492400.254,9.351791
1425492400.27,17.902042
1425492400.286,24.54496
1425492400.301,28.099754
1425492400.317,28.325703
1425492400.332,25.961884
1425492400.348,22.484959
1425492400.364,19.630735
1425492400.379,18.925861
1425492400.395,21.14438
1425492400.411,25.961733
1425492400.426,32.063374
1425492400.442,37.459965
1425492400.457,40.08229
1425492400.473,38.47367
1425492400.489,32.218285
1425492400.504,22.149158
1425492400.52,10.097155
1425492400.536,-1.4598236
1425492400.551,-10.119101
1425492400.567,-14.172522
1425492400.582,-13.148407
1425492400.598,-7.9168634
1425492400.614,-0.43069267
1425492400.629,6.964279
1425492400.645,12.215286
1425492400.661,14.161557
1425492400.676,12.636618
1425492400.692,8.314654
1425492400.707,2.3494549
1425492400.723,-3.9370346
1425492400.739,-9.370366
1425492400.754,-13.077099
1425492400.77,-14.647424
1425492400.786,-14.230975
1425492400.801,-12.4816065
1425492400.817,-10.299849
1425492400.832,-8.556003
1425492400.848,-7.811373
1425492400.864,-8.250291
1425492400.879,-9.831561
1425492400.895,-12.429563
1425492400.911,-16.03419
1425492400.926,-20.662254
1425492400.942,-26.287277
1425492400.957,-32.787254
1425492400.973,-39.793743
1425492400.989,-46.79107
1425492401.004,-53.02195
1425492401.02,-57.643646
1425492401.036,-59.798653
1425492401.051,-58.912567
1425492401.067,-54.877174
1425492401.082,-48.27574
1425492401.098,-40.249115
1425492401.114,-32.282566
1425492401.129,-25.814335
1425492401.145,-21.903652
1425492401.161,-20.914696
1425492401.176,-22.387478
1425492401.192,-25.085606
1425492401.207,-27.193626
1425492401.223,-26.73553
1425492401.239,-22.225525
1425492401.254,-13.185925
1425492401.27,-0.45567322
1425492401.286,13.926384
1425492401.301,27.229958
1425492401.317,36.904495
1425492401.332,41.247017
1425492401.348,39.95971
1425492401.364,34.093674
1425492401.379,25.733826
1425492401.395,17.336205
1425492401.411,11.021027
1425492401.426,7.961632
1425492401.442,8.171745
1425492401.457,10.5399475
1425492401.473,13.300468
1425492401.489,14.589798
1425492401.504,13.028336
1425492401.52,8.113617
1425492401.536,0.42725372
1425492401.551,-8.491745
1425492401.567,-16.433952
1425492401.582,-21.144058
1425492401.598,-21.041
1425492401.614,-15.855301
1425492401.629,-6.8112183
1425492401.645,3.664978
1425492401.661,12.792877
1425492401.676,18.42659
1425492401.692,19.720963
1425492401.707,17.270203
1425492401.723,12.653534
1425492401.739,7.701462
1425492401.754,3.8580322
1425492401.77,1.8442078
1425492401.786,1.6556396
1425492401.801,2.81839
1425492401.817,4.667053
1425492401.832,6.573639
1425492401.848,8.126144
1425492401.864,9.148697
1425492401.879,9.647629
1425492401.895,9.681412
1425492401.911,9.247299
1425492401.926,8.128265
1425492401.942,6.003769
1425492401.958,2.449356
1425492401.973,-2.827301
1425492401.989,-9.8901825
1425492402.004,-18.3414
1425492402.02,-27.241806
1425492402.036,-35.126785
1425492402.051,-40.303955
1425492402.067,-41.344467
1425492402.083,-37.644012
1425492402.098,-29.778809
1425492402.114,-19.45224
1425492402.129,-8.898331
1425492402.145,-0.12145996
1425492402.161,5.780365
1425492402.176,8.872131
1425492402.192,10.13327
1425492402.208,10.956665
1425492402.223,12.601501
1425492402.239,15.791992
1425492402.254,20.60727
1425492402.27,26.499176
1425492402.286,32.457977
1425492402.301,37.27716
1425492402.317,39.96118
1425492402.333,40.157196
1425492402.348,38.528503
1425492402.364,36.666656
1425492402.379,36.66696
1425492402.395,40.25894
1425492402.411,47.957184
1425492402.426,58.616577
1425492402.442,69.57843
1425492402.458,77.530975
1425492402.473,79.69681
1425492402.489,74.89511
1425492402.504,64.09769
1425492402.52,50.079834
1425492402.536,36.4599
1425492402.551,26.33197
1425492402.567,21.262848
1425492402.583,20.85144
1425492402.598,23.110565
1425492402.614,25.391602
1425492402.629,25.381989
1425492402.645,21.809204
1425492402.661,14.667847
1425492402.676,5.0371094
1425492402.692,-5.3061523
1425492402.708,-14.351898
1425492402.723,-20.276794
1425492402.739,-21.864685
1425492402.754,-18.781525
1425492402.77,-11.815308
1425492402.786,-2.6911316
1425492402.801,6.345154
1425492402.817,13.189026
1425492402.833,16.463593
1425492402.848,15.891418
1425492402.864,12.215149
1425492402.879,6.8261414
1425492402.895,1.1835327
1425492402.911,-3.680481
1425492402.926,-7.3274536
1425492402.942,-9.885345
1425492402.958,-11.728088
1425492402.973,-13.164764
1425492402.989,-14.284088
1425492403.004,-14.940674
1425492403.02,-14.935333
1425492403.036,-14.05954
1425492403.051,-12.2378845
1425492403.067,-9.482056
1425492403.083,-5.952545
1425492403.098,-2.0029907
1425492403.114,1.8032227
1425492403.129,4.734619
1425492403.145,6.2299194
1425492403.161,6.285431
1425492403.176,5.662384
1425492403.192,5.7466125
1425492403.208,8.080261
1425492403.223,13.643677
1425492403.239,22.307343
1425492403.254,32.73242
1425492403.27,42.751465
1425492403.286,50.088562
1425492403.301,53.105804
1425492403.317,51.405853
1425492403.333,45.899017
1425492403.348,38.54651
1425492403.364,31.651062
1425492403.379,27.0932
1425492403.395,25.727798
1425492403.411,27.132385
1425492403.426,29.921082
1425492403.442,32.36908
1425492403.458,33.13553
1425492403.473,31.73999
1425492403.489,28.609238
1425492403.504,24.839996
1425492403.52,21.52002
1425492403.536,19.369873
1425492403.551,18.475449
1425492403.567,18.30075
1425492403.583,17.928833
1425492403.598,16.42839
1425492403.614,13.1515045
1425492403.629,7.9450684
1425492403.645,1.1289368
1425492403.661,-6.610733
1425492403.676,-14.464401
1425492403.692,-21.685532
1425492403.708,-27.803238
1425492403.723,-32.62317
1425492403.739,-36.086105
1425492403.754,-38.285187
1425492403.77,-39.333557
1425492403.786,-39.338852
1425492403.801,-38.472137
1425492403.817,-36.914978
1425492403.833,-34.891617
1425492403.848,-32.595108
1425492403.864,-30.133804
1425492403.879,-27.376038
1425492403.895,-23.89856
1425492403.911,-19.046127
1425492403.926,-12.164078
1425492403.942,-2.9346008
1425492403.958,8.294739
1425492403.973,20.37944
1425492403.989,31.501877
1425492404.004,39.819374
1425492404.02,43.955788
1425492404.036,43.677032
1425492404.051,40.079735
1425492404.067,35.32302
1425492404.083,31.878258
1425492404.098,31.664513
1425492404.114,35.31095
1425492404.129,41.96447
1425492404.145,49.565033
1425492404.161,55.636375
1425492404.176,58.1166
1425492404.192,56.083305
1425492404.208,49.93702
1425492404.223,41.06096
1425492404.239,31.329224
1425492404.254,22.4128
1425492404.27,15.286968
1425492404.286,10.128231
1425492404.301,6.3849792
1425492404.317,3.149868
1425492404.333,-0.44192123
1425492404.348,-4.908119
1425492404.364,-10.299007
1425492404.379,-16.291632
1425492404.395,-22.389053
1425492404.411,-28.11908
1425492404.426,-33.17918
1425492404.442,-37.432045
1425492404.458,-40.894928
1425492404.473,-43.622143
1425492404.489,-45.707397
1425492404.504,-47.240044
1425492404.52,-48.260937
1425492404.536,-48.724655
1425492404.551,-48.47375
1425492404.567,-47.284115
1425492404.583,-44.920246
1425492404.598,-41.21761
1425492404.614,-36.124813
1425492404.63,-29.647858
1425492404.645,-21.83741
1425492404.661,-12.83593
1425492404.676,-3.041977
1425492404.692,6.762184
1425492404.708,15.45623
1425492404.723,21.783371
1425492404.739,24.791176
1425492404.755,24.339134
1425492404.77,21.315666
1425492404.786,17.48642
1425492404.801,14.880135
1425492404.817,15.104645
1425492404.833,18.681831
1425492404.848,24.803032
1425492404.864,31.591896
1425492404.88,36.78566
1425492404.895,38.400238
1425492404.911,35.35672
1425492404.926,27.766891
1425492404.942,16.917267
1425492404.958,4.882187
1425492404.973,-6.0050964
1425492404.989,-13.732788
1425492405.005,-17.163925
1425492405.02,-16.37642
1425492405.036,-12.621597
1425492405.051,-7.925705
1425492405.067,-4.473358
1425492405.083,-3.9010315
1425492405.098,-6.801651
1425492405.114,-12.602783
1425492405.13,-19.88652
1425492405.145,-26.950928
1425492405.161,-32.37961
1425492405.176,-35.570175
1425492405.192,-36.734283
1425492405.208,-36.707474
1425492405.223,-36.483475
1425492405.239,-36.755188
1425492405.255,-37.66559
1425492405.27,-38.784515
1425492405.286,-39.36595
1425492405.301,-38.631287
1425492405.317,-36.13069
1425492405.333,-31.849808
1425492405.348,-26.218597
1425492405.364,-20.026825
1425492405.38,-14.081787
1425492405.395,-9.07869
1425492405.411,-5.3441315
1425492405.426,-2.8068237
1425492405.442,-1.0021973
1425492405.458,0.69680786
1425492405.473,2.9335632
1425492405.489,6.143097
1425492405.505,10.379852
1425492405.52,15.171722
1425492405.536,19.516418
1425492405.551,22.020813
1425492405.567,21.419617
1425492405.583,17.086578
1425492405.598,9.564484
1425492405.614,0.63809204
1425492405.63,-7.2057495
1425492405.645,-11.670898
1425492405.661,-11.519165
1425492405.676,-7.088684
1425492405.692,-0.119628906
1425492405.708,6.941925
1425492405.723,11.800079
1425492405.739,12.997589
1425492405.755,10.228851
1425492405.77,4.280304
1425492405.786,-3.316742
1425492405.801,-10.718018
1425492405.817,-16.357544
1425492405.833,-19.370697
1425492405.848,-19.780457
1425492405.864,-18.438782
1425492405.88,-16.549194
1425492405.895,-15.244171
1425492405.911,-15.28244
1425492405.926,-16.94748
1425492405.942,-20.163605
1425492405.958,-24.687683
1425492405.973,-30.097748
1425492405.989,-35.881012
1425492406.005,-41.372345
1425492406.02,-45.957214
1425492406.036,-49.177246
1425492406.051,-50.942017
1425492406.067,-51.366272
1425492406.083,-50.70459
1425492406.098,-49.18222
1425492406.114,-46.92856
1425492406.13,-43.985443
1425492406.145,-40.458282
1425492406.161,-36.48343
1425492406.176,-32.17581
1425492406.192,-27.624268
1425492406.208,-22.89737
1425492406.223,-18.063202
1425492406.239,-13.307709
1425492406.255,-8.805359
1425492406.27,-4.8350525
1425492406.286,-1.6605835
1425492406.301,0.43170166
1425492406.317,1.2039795
1425492406.333,0.5423889
1425492406.348,-1.2767029
1425492406.364,-3.5013733
1425492406.38,-5.0059814
1425492406.395,-4.5751953
1425492406.411,-1.4989624
1425492406.426,4.056549
1425492406.442,10.953217
1425492406.458,17.415771
1425492406.473,21.643219
1425492406.489,22.365173
1425492406.505,19.302856
1425492406.52,13.148895
1425492406.536,5.388031
1425492406.551,-2.1593018
1425492406.567,-7.758667
1425492406.583,-10.22934
1425492406.598,-9.138184
1425492406.614,-4.9702454
1425492406.63,1.0877991
1425492406.645,7.3623657
1425492406.661,12.136444
1425492406.676,14.115387
1425492406.692,12.7300415
1425492406.708,8.315979
1425492406.723,2.0231628
1425492406.739,-4.510498
1425492406.755,-9.646179
1425492406.77,-12.303253
1425492406.786,-12.1936035
1425492406.801,-9.936615
1425492406.817,-6.6493225
1425492406.833,-3.5257874
1425492406.848,-1.4519043
1425492406.864,-0.8414612
1425492406.88,-1.7550049
1425492406.895,-4.096527
1425492406.911,-7.6624146
1425492406.926,-12.167206
1425492406.942,-17.158875
1425492406.958,-21.998352
1425492406.973,-26.053314
1425492406.989,-28.958069
1425492407.005,-30.741882
1425492407.02,-31.750336
1425492407.036,-32.426697
1425492407.051,-32.97113
1425492407.067,-33.23532
1425492407.083,-32.835724
1425492407.098,-31.378876
1425492407.114,-28.796936
1425492407.13,-25.376953
1425492407.145,-21.670105
1425492407.161,-18.260132
1425492407.176,-15.514282
1425492407.192,-13.437256
1425492407.208,-11.797089
1425492407.223,-10.172104
1425492407.239,-8.095306
1425492407.255,-5.1062317
1425492407.27,-0.8643036
1425492407.286,4.717285
1425492407.302,11.236069
1425492407.317,17.688095
1425492407.333,22.608826
1425492407.348,24.537674
1425492407.364,22.67978
1425492407.38,17.415604
1425492407.395,10.38028
1425492407.411,3.9799042
1425492407.426,0.4847107
1425492407.442,1.1750183
1425492407.458,5.8355255
1425492407.473,12.864029
1425492407.489,19.84874
1425492407.505,24.317474
1425492407.52,24.453766
1425492407.536,19.595871
1425492407.552,10.428345
1425492407.567,-1.0870361
1425492407.583,-12.156937
1425492407.598,-19.90445
1425492407.614,-22.186462
1425492407.63,-18.259659
1425492407.645,-9.075562
1425492407.661,3.113083
1425492407.677,15.406845
1425492407.692,25.166733
1425492407.708,30.678665
1425492407.723,31.442734
1425492407.739,28.17485
1425492407.755,22.46048
1425492407.77,16.24768
1425492407.786,11.32402
1425492407.802,8.798508
1425492407.817,8.896408
1425492407.833,10.914322
1425492407.848,13.557251
1425492407.864,15.393341
1425492407.88,15.277794
1425492407.895,12.600037
1425492407.911,7.4041214
1425492407.927,0.32383728
1425492407.942,-7.5317993
1425492407.958,-14.895508
1425492407.973,-20.734932
1425492407.989,-24.564384
1425492408.005,-26.67138
1425492408.02,-27.880257
1425492408.036,-29.09623
1425492408.052,-30.747704
1425492408.067,-32.51654
1425492408.083,-33.415848
1425492408.098,-32.307983
1425492408.114,-28.594109
1425492408.13,-22.491592
1425492408.145,-15.127251
1425492408.161,-8.070526
1425492408.177,-2.7977905
1425492408.192,-0.102371216
1425492408.208,0.10240936
1425492408.223,-1.2082634
1425492408.239,-2.5598412
1425492408.255,-2.4553146
1425492408.27,0.07783508
1425492408.286,5.162506
1425492408.302,11.935223
1425492408.317,18.848335
1425492408.333,24.084797
1425492408.348,26.253357
1425492408.364,24.844929
1425492408.38,20.594326
1425492408.395,15.27845
1425492408.411,11.190502
1425492408.427,10.278959
1425492408.442,13.382406
1425492408.458,19.780025
1425492408.473,27.38047
1425492408.489,33.49015
1425492408.505,35.708817
1425492408.52,32.767097
1425492408.536,24.920584
1425492408.552,13.8807125
1425492408.567,2.2757638
1425492408.583,-7.0401745
1425492408.598,-11.75622
1425492408.614,-10.745089
1425492408.63,-4.3614216
1425492408.645,5.592928
1425492408.661,16.454208
1425492408.677,25.437119
1425492408.692,30.469486
1425492408.708,30.684792
1425492408.723,26.551638
1425492408.739,19.55966
1425492408.755,11.712799
1425492408.77,4.9289246
1425492408.786,0.5873127
1425492408.802,-0.79805946
1425492408.817,0.39286804
1425492408.833,3.0674515
1425492408.848,5.8655205
1425492408.864,7.5584526
1425492408.88,7.482445
1425492408.895,5.516739
1425492408.911,1.9725609
1425492408.927,-2.7005959
1425492408.942,-8.119705
1425492408.958,-14.021782
1425492408.973,-20.190907
1425492408.989,-26.387947
1425492409.005,-32.285492
1425492409.02,-37.5331
1425492409.036,-41.768032
1425492409.052,-44.58754
1425492409.067,-45.539726
1425492409.083,-44.217873
1425492409.098,-40.433098
1425492409.114,-34.435265
1425492409.13,-27.0197
1425492409.145,-19.431519
1425492409.161,-13.028847
1425492409.177,-8.8741455
1425492409.192,-7.3875046
1425492409.208,-8.189827
1425492409.223,-10.160431
1425492409.239,-11.771416
1425492409.255,-11.507309
1425492409.27,-8.29525
1425492409.286,-1.9580841
1425492409.302,6.636841
1425492409.317,15.811401
1425492409.333,23.5122
1425492409.348,28.096336
1425492409.364,28.906097
1425492409.38,26.503815
1425492409.395,22.401947
1425492409.411,18.413528
1425492409.427,15.989685
1425492409.442,15.722458
1425492409.458,17.250717
1425492409.473,19.428467
1425492409.489,20.728668
1425492409.505,19.788925
1425492409.52,15.843445
1425492409.536,9.114822
1425492409.552,0.91690063
1425492409.567,-6.6419525
1425492409.583,-11.292007
1425492409.598,-11.333832
1425492409.614,-6.2750244
1425492409.63,3.0204773
1425492409.645,14.560394
1425492409.661,25.900406
1425492409.677,34.73941
1425492409.692,39.544983
1425492409.708,39.756104
1425492409.723,35.918365
1425492409.739,29.499466
1425492409.755,22.49202
1425492409.77,16.89006
1425492409.786,14.040985
1425492409.802,14.229111
1425492409.817,16.667465
1425492409.833,19.79979
1425492409.848,21.927765
1425492409.864,21.723907
1425492409.88,18.640854
1425492409.895,12.8706665
1425492409.911,5.248184
1425492409.927,-3.1476288
1425492409.942,-11.339615
1425492409.958,-18.802261
1425492409.974,-25.569305
1425492409.989,-32.195297
1425492410.005,-39.19583
1425492410.02,-46.68135
1425492410.036,-54.007004
1425492410.052,-59.85031
1425492410.067,-62.65901
1425492410.083,-61.279007
1425492410.098,-55.38553
1425492410.114,-45.684326
1425492410.13,-33.669205
1425492410.145,-21.203018
1425492410.161,-10.091202
1425492410.177,-1.7806854
1425492410.192,3.0384521
1425492410.208,4.4890137
1425492410.224,3.5234528
1425492410.239,1.6435852
1425492410.255,0.43103027
1425492410.27,1.0247803
1425492410.286,3.7858582
1425492410.302,8.344269
1425492410.317,13.941345
1425492410.333,19.802551
1425492410.349,25.436584
1425492410.364,30.636292
1425492410.38,35.3685
1425492410.395,39.498383
1425492410.411,42.711395
1425492410.427,44.55252
1425492410.442,44.6102
1425492410.458,42.770477
1425492410.474,39.46454
1425492410.489,35.560913
1425492410.505,32.210175
1425492410.52,30.450073
1425492410.536,30.872742
1425492410.552,33.393677
1425492410.567,37.38565
1425492410.583,41.919067
1425492410.599,46.11377
1425492410.614,49.242035
1425492410.63,50.771576
1425492410.645,50.27188
1425492410.661,47.505463
1425492410.677,42.53711
1425492410.692,35.98416
1425492410.708,29.076416
1425492410.724,23.37735
1425492410.739,20.318085
1425492410.755,20.669464
1425492410.77,24.133606
1425492410.786,29.39035
1425492410.802,34.4404
1425492410.817,37.195374
1425492410.833,36.045563
1425492410.849,30.20929
1425492410.864,19.767303
1425492410.88,5.523529
1425492410.895,-11.320068
1425492410.911,-29.3284
1425492410.927,-46.94635
1425492410.942,-62.466187
1425492410.958,-74.14578
1425492410.974,-80.41351
1425492410.989,-80.411224
1425492411.005,-74.42032
1425492411.02,-64.04709
1425492411.036,-51.854034
1425492411.052,-40.632874
1425492411.067,-32.463898
1425492411.083,-28.114716
1425492411.099,-26.9953
1425492411.114,-27.743896
1425492411.13,-28.942444
1425492411.145,-29.798706
1425492411.161,-30.192139
1425492411.177,-30.33612
1425492411.192,-30.16037
1425492411.208,-28.959656
1425492411.224,-25.50235
1425492411.239,-18.6503
1425492411.255,-8.028656
1425492411.27,5.477722
1425492411.286,19.725311
1425492411.302,31.918823
1425492411.317,39.530487
1425492411.333,41.13739
1425492411.349,36.982452
1425492411.364,28.86264
1425492411.38,19.624664
1425492411.395,12.223114
1425492411.411,8.897156
1425492411.427,10.645203
1425492411.442,17.044434
1425492411.458,26.500916
1425492411.474,36.72278
1425492411.489,45.31897
1425492411.505,50.378418
1425492411.52,50.932312
1425492411.536,47.22165
1425492411.552,40.61087
1425492411.567,33.221924
1425492411.583,27.235718
1425492411.599,24.25531
1425492411.614,24.766296
1425492411.63,28.077087
1425492411.645,32.63617
1425492411.661,36.636658
1425492411.677,38.60193
1425492411.692,37.76886
1425492411.708,34.166412
1425492411.724,28.438568
1425492411.739,21.540619
1425492411.755,14.417419
1425492411.77,7.8081665
1425492411.786,2.1749878
1425492411.802,-2.3130188
1425492411.817,-5.7380676
1425492411.833,-8.336029
1425492411.849,-10.39566
1425492411.864,-12.180359
1425492411.88,-13.837067
1425492411.895,-15.388367
1425492411.911,-16.80429
1425492411.927,-18.026794
1425492411.942,-18.905518
1425492411.958,-19.137054
1425492411.974,-18.132904
1425492411.989,-15.071716
1425492412.005,-9.174866
1425492412.02,-0.11633301
1425492412.036,11.537384
1425492412.052,24.251755
1425492412.067,35.851807
1425492412.083,44.150986
1425492412.099,47.702515
1425492412.114,46.284927
1425492412.13,40.981384
1425492412.145,33.709366
1425492412.161,26.610397
1425492412.177,21.316498
1425492412.192,18.553635
1425492412.208,18.11171
1425492412.224,19.12651
1425492412.239,20.559204
1425492412.255,21.639236
1425492412.27,21.999817
1425492412.286,21.565323
1425492412.302,20.358856
1425492412.317,18.382843
1425492412.333,15.587601
1425492412.349,12.063019
1425492412.364,8.158066
1425492412.38,4.42865
1425492412.395,1.4127502
